0.008763373481513119	0.0	0.0
0.026290120649546365	0.0	0.0
0.043816868432600686	0.0	0.0
0.06134361724069026	0.0	0.0
0.07887036748382949	0.0012661819	0.03558345
0.0963971195720331	0.111402534	0.3337702
0.11392387391531617	0.09130003	0.30215895
0.1314506309236943	0.10850838	0.3294061
0.1489773910071836	0.06815891	0.2610726
0.16650415457580078	0.07512687	0.27409282
0.18403092203956356	0.13507718	0.36752847
0.20155769380849	0.1398575	0.37397528
0.2190844702925996	0.17184547	0.41454247
0.2366112519019124	0.15414208	0.39260933
0.2541380390464497	0.1492881	0.3863782
0.27166483213623416	0.16639037	0.40790975
0.28919163158128947	0.17865007	0.42267016
0.3067184377916406	0.14450419	0.38013706
0.324245251177314	0.12057393	0.34723756
0.34177207214833777	0.10827426	0.32905054
0.3592989011147415	0.115819916	0.34032324
0.37682573848655654	0.115728796	0.34018934
0.39435258467381573	0.14024329	0.3744907
0.41187944008655414	0.17606637	0.41960263
0.42940630513480854	0.19227196	0.43848827
0.446933180228618	0.21487944	0.4635509
0.4644600657780234	0.21087551	0.45921183
0.48198696219306775	0.16892707	0.41100737
0.49951386988379676	0.11852934	0.3442809
0.5170407892602581	0.094389476	0.3072287
0.5345677207325025	0.118588574	0.3443669
0.5520946647105822	0.109422594	0.33079085
0.5696216216045534	0.15163875	0.3894082
0.5871485918244737	0.14324556	0.37847796
0.6046755757804043	0.15898053	0.39872363
0.6222025738824094	0.15801278	0.3975082
0.6397295865405557	0.1548818	0.39355025
0.6572566141649129	0.17421535	0.41739112
0.6747836571655547	0.14204767	0.37689212
0.6923107159525568	0.13947468	0.3734631
0.7098377909359992	0.12302029	0.3507425
0.7273648825259653	0.10845861	0.32933053
0.7448919911325411	0.12407468	0.35224235
0.762419117165817	0.16353029	0.4043888
0.7799462610358868	0.19055143	0.43652198
0.7974734231528482	0.21155751	0.4599538
0.8150006039268024	0.24568343	0.49566463
0.8325278037678551	0.24307479	0.49302617
0.8500550230861152	0.23349567	0.4832139
0.8675822622916969	0.23567152	0.4854601
0.8851095217947171	0.23242329	0.482103
0.9026368020052984	0.21748935	0.46635753
0.9201641033335665	0.1938611	0.4402966
0.9376914261896523	0.1982579	0.4452616
0.9552187709836915	0.22360791	0.472872
0.9727461381258234	0.22059642	0.46967694
0.990273528026193	0.23945248	0.48933882
1.0078009410949496	0.21450481	0.46314663
1.0253283777422473	0.25023958	0.50023955
1.0428558383782454	0.28062624	0.52974164
1.0603833234131086	0.32900703	0.57359135
1.0779108332570058	0.3291905	0.5737513
1.0954383683201119	0.352359	0.59359837
1.112965929012607	0.41651413	0.64537907
1.1304935157446763	0.5463258	0.73913854
1.1480211289265108	0.58137226	0.7624777
1.1655487689683062	1.4330609	1.1971052
1.1830764362802655	1.7157302	1.3098588
1.200604131272596	2.1132202	1.453692
1.2181318543555117	2.4067323	1.5513647
1.235659605939232	2.4483519	1.564721
1.253187386433982	4.095698	2.023783
1.270715196249994	6.5472865	2.5587666
1.2882430357975057	11.870719	3.445391
1.3057709054867608	16.470713	4.0584126
1.3232988057280106	22.233522	4.715244
1.3408267369315112	27.112165	5.2069345
1.358354699507526	30.873749	5.556415
1.3758826938663256	35.28385	5.940021
1.3934107204181858	37.3427	6.1108675
1.410938779573391	37.95362	6.160651
1.4284668717422309	38.441322	6.2001066
1.4459949973350033	37.846367	6.15194
1.4635231567620117	38.169483	6.1781454
1.4810513504335687	37.364075	6.112616
1.4985795787599925	36.47122	6.0391407
1.5161078421516088	35.807148	5.983907
1.5336361410187505	34.826202	5.901373
1.5511644757717598	34.703175	5.89094
1.5686928468209842	35.58075	5.96496
1.58622125457678	36.37141	6.0308714
1.6037496994495108	37.72154	6.141786
1.621278181849548	37.371277	6.113205
1.6388067021872719	38.10875	6.1732283
1.6563352608730693	37.675858	6.1380663
1.673863858317336	36.74119	6.0614514
1.6913924949304753	35.790184	5.9824896
1.7089211711228998	34.76182	5.8959155
1.7264498873050296	34.21189	5.849093
1.7439786438872935	33.074516	5.7510448
1.7615074412801288	31.605368	5.6218653
1.779036279893981	30.537794	5.526101
1.796565160139305	29.761559	5.4554157
1.814094082426564	29.418577	5.4238896
1.8316230471662298	29.057772	5.3905263
1.849152054768784	28.207632	5.3110857
1.8666811056447168	27.787077	5.2713447
1.8842102002045273	27.021814	5.1982512
1.901739338858724	26.378473	5.135998
1.9192685220178245	25.896246	5.0888352
1.9367977500923557	25.200506	5.0200105
1.9543270234928547	24.77798	4.9777484
1.971856342629867	24.220663	4.921449
1.9893857079139496	23.849123	4.8835564
2.006915119755667	23.357702	4.8329806
2.0244445785655945	22.81301	4.7762966
2.0419740847543175	22.426092	4.7356195
2.0595036387324317	22.022696	4.6928344
2.0770332409105414	21.41357	4.62748
2.094562891699263	20.859867	4.5672603
2.1120925915092217	19.986353	4.47061
2.129622340751053	19.556717	4.4222975
2.1471521398354043	187.71516	13.700918
2.1646819891729323	444.19165	21.075855
2.182211889174303	440.50967	20.988323
2.1997418402501974	452.7741	21.27849
2.2172718428113023	432.6573	20.800415
2.234801897268317	320.53333	17.903444
2.2523320040319548	17.042732	4.1282845
2.269862163512935	16.703035	4.0869346
2.287392376121992	16.398785	4.0495415
2.304922642269869	16.165121	4.020587
2.322452962367322	16.018124	4.002265
2.3399833368251164	15.8414755	3.9801352
2.357513766054032	15.413292	3.9259765
2.3750442504648586	14.912197	3.8616314
2.3925747904683963	14.9360695	3.864721
2.410105386475459	14.864698	3.8554764
2.4276360388968707	14.589703	3.8196468
2.445166748143469	14.393256	3.7938445
2.4626975146261025	14.035504	3.746399
2.4802283387556323	13.745104	3.707439
2.4977592209429305	13.393841	3.6597598
2.5152901615988825	12.932531	3.5961828
2.5328211611343865	12.818118	3.58024
2.5503522199603523	12.635418	3.5546334
2.5678833384877024	12.515032	3.5376592
2.5854145171273712	12.317002	3.5095587
2.6029457562903064	12.001726	3.4643507
2.620477056387469	11.792226	3.433981
2.6380084178298326	11.692426	3.4194188
2.655539841028383	11.56526	3.4007735
2.673071326394119	11.490052	3.389698
2.6906028743380523	11.254215	3.3547304
2.708134485271211	11.151453	3.339379
2.7256661596046325	11.115777	3.3340333
2.743197897749369	10.833675	3.2914548
2.760729700116486	10.578672	3.2524872
2.778261567117063	10.309017	3.2107658
2.795793499162193	10.315739	3.2118123
2.8133254966629817	10.382631	3.222209
2.830857560030551	10.213157	3.195803
2.8483896896760337	10.128294	3.182498
2.865921886010578	9.902642	3.1468463
2.883454149445347	9.6046295	3.0991337
2.9009864803915177	9.171892	3.0285132
2.91851887926028	8.999363	2.999894
2.9360513464628384	8.963523	2.9939144
2.953583882410413	8.951776	2.9919517
2.9711164875142373	8.937264	2.9895258
2.9886491621855606	8.893423	2.9821842
3.0061819068356455	8.659744	2.9427443
3.023714721875769	8.632468	2.9381063
3.041247607717225	8.492414	2.9141748
3.0587805647713213	8.497747	2.9150896
3.0763135934493806	8.411163	2.9002006
3.0938466941627407	8.27811	2.8771703
3.1113798673227544	8.055655	2.8382485
3.1289131133407904	7.9032726	2.811276
3.1464464326282315	7.880734	2.8072646
3.1639798255964786	7.8421683	2.8003871
3.1815132926569443	7.862625	2.8040373
3.1990468342210603	7.785344	2.790223
3.216580450700272	7.772781	2.7879708
3.2341141425060416	7.713755	2.7773647
3.251647910049847	7.544924	2.7468026
3.2691817537431813	7.2892013	2.699852
3.286715673997555	7.050222	2.6552255
3.3042496712244938	6.981369	2.6422281
3.32178374583554	7.0149374	2.6485727
3.339317898242251	7.034291	2.6522238
3.3568521288562034	6.9213605	2.630848
3.3743864380889876	6.764684	2.6009007
3.3919208263522127	6.681928	2.5849426
3.4094552940575023	6.6568937	2.5800958
3.4269898416164972	6.7295885	2.594145
3.444524469440858	6.656886	2.580094
3.4620591779422587	6.5486183	2.5590267
3.479593967532391	6.487067	2.5469723
3.4971288386229658	6.491286	2.5478003
3.5146637916257086	6.43809	2.5373392
3.5321988269523628	6.431145	2.5359702
3.5497339450146903	6.3099585	2.5119631
3.5672691462244708	6.326882	2.5153294
3.5848044309934988	6.212189	2.4924264
3.60233979973359	6.17194	2.484339
3.619875252856575	6.1426697	2.478441
3.6374107907743034	6.1793222	2.4858243
3.6549464138986427	6.1735134	2.4846556
3.6724821226414788	6.193397	2.4886537
3.690017917414714	6.2201667	2.4940262
3.7075537986302702	6.3205285	2.5140662
3.7250897667000857	6.328973	2.515745
3.7426258220361235	6.491339	2.5478106
3.7601619650503553	6.9203095	2.6306481
3.777698196154779	7.4293685	2.7256868
3.7952345157614067	8.494043	2.9144542
3.8127709242822716	9.267393	3.0442393
3.830307422129425	11.467947	3.3864357
3.847844009714936	30.330938	5.5073533
3.8653806874508954	97.77852	9.888302
3.882917455749409	97.09745	9.853804
3.900454315022606	96.91422	9.844502
3.917991265682631	41.514084	6.4431424
3.9355283081416506	11.192511	3.345521
3.9530654428118495	8.882994	2.9804351
3.970602670105433	7.686105	2.7723825
3.9881399904346244	6.7686067	2.6016545
4.005677404211669	6.583279	2.5657902
4.023214911848827	6.5187964	2.5531933
4.0407525137583855	6.413521	2.532493
4.058290210352644	6.5388494	2.5571175
4.075828002043927	6.4536543	2.5404043
4.0933658892445814	6.359204	2.5217462
4.110903872366966	6.269068	2.5038106
4.128441951823468	6.167608	2.4834669
4.145980128026488	6.1598988	2.4819143
4.163518401388452	6.154591	2.4808447
4.181056772321807	6.1613083	2.4821982
4.1985952412390155	6.2080736	2.4916005
4.216133808552567	6.22869	2.4957345
4.233672474674966	6.358683	2.521643
4.251211240018741	6.614659	2.571898
4.268750104996445	6.764297	2.6008263
4.286289070020643	7.6433673	2.764664
4.303828135503928	9.177036	3.0293624
4.3213673018589125	29.526388	5.433819
4.3389065694982305	90.66912	9.522034
4.356445938834537	166.03012	12.885267
4.3739854102805085	171.86249	13.109633
4.391524984248844	172.76299	13.143933
4.409064661152262	136.87962	11.699556
4.426604441403504	97.01167	9.84945
4.444144325415337	75.76973	8.704581
4.461684313600543	21.775723	4.6664467
4.47922440637193	21.96444	4.6866236
4.496764604142329	20.185072	4.49278
4.5143049073245916	18.338814	4.282384
4.531845316331589	16.449451	4.0557923
4.5493858315762195	13.851186	3.721718
4.566926453471405	11.612242	3.4076738
4.584467182430081	9.42173	3.0694838
4.602008018865218	8.189893	2.8617988
4.619548963189798	7.537874	2.745519
4.637090015816834	7.1847534	2.680439
4.654631177159353	6.980698	2.642101
4.672172447630417	6.664369	2.581544
4.689713827643102	6.5045686	2.5504055
4.7072553176105085	6.142364	2.4783792
4.724796917945764	5.893847	2.4277246
4.742338629062015	5.7987943	2.4080687
4.759880451372434	5.806802	2.4097307
4.777422385290215	5.825072	2.4135187
4.794964431228581	5.7813644	2.4044468
4.812506589600768	5.6520734	2.377409
4.830048860820047	5.554122	2.3567185
4.847591245299709	5.5524917	2.3563726
4.8651337434530655	5.6737986	2.3819737
4.882676355693457	5.7647805	2.4009957
4.900219082434242	5.7504	2.3979993
4.917761924088813	5.6400747	2.3748841
4.935304881070575	5.4833727	2.3416603
4.952847953792969	5.50735	2.3467743
4.970391142669449	5.4266043	2.3295074
4.9879344481135055	5.3968515	2.3231125
5.005477870538642	5.3619146	2.3155808
5.023021410358394	5.518901	2.349234
5.040565067986324	5.634249	2.3736575
5.05810884383601	5.6126966	2.369113
5.075652738321066	5.501072	2.3454363
5.09319675185512	5.371706	2.3176942
5.110740884851836	5.3269763	2.3080244
5.128285137724894	5.3267784	2.3079815
5.145829510888007	5.342914	2.3114746
5.163374004754908	5.4497304	2.3344657
5.1809186197393595	5.5028934	2.3458247
5.198463356255145	5.4700913	2.3388226
5.216008214716077	5.4064016	2.325167
5.233553195535998	5.486715	2.3423738
5.251098299128764	5.4725823	2.3393552
5.268643525908272	5.43988	2.332355
5.286188876288432	5.287519	2.2994606
5.3037343506831895	5.226532	2.286161
5.32127994950651	5.1635814	2.2723515
5.3388256731723915	5.2284207	2.2865741
5.356371522094851	5.2622375	2.2939568
5.373917496687938	5.323769	2.3073294
5.391463597365729	5.3277135	2.308184
5.40900982454232	5.3137307	2.3051531
5.426556178631843	5.252561	2.2918468
5.444102660048449	5.1184344	2.2623956
5.4616492692063225	5.1366496	2.2664177
5.479196006519669	5.162192	2.2720459
5.496742872402727	5.255007	2.29238
5.514289867269756	5.291596	2.3003469
5.531836991535049	5.233994	2.2877924
5.549384245612924	5.182047	2.276411
5.566931629917724	5.160487	2.2716706
5.584479144863822	5.160838	2.2717478
5.6020267908656205	5.1588993	2.271321
5.619574568337545	5.0994534	2.2581968
5.637122477694054	5.1163254	2.2619295
5.654670519349629	5.1395664	2.2670612
5.672218693718784	5.236305	2.2882974
5.689767001216059	5.2570715	2.2928305
5.707315442256021	5.265382	2.294642
5.724864017253266	5.2194734	2.2846167
5.7424127266224225	5.206857	2.281854
5.75996157077814	5.1882606	2.2777753
5.777510550135105	5.2158823	2.2838306
5.795059665108022	5.218145	2.2843258
5.812608916111639	5.249977	2.291283
5.830158303560715	5.401564	2.3241265
5.847707827870055	5.419623	2.3280084
5.86525748945448	5.4346523	2.331234
5.8828072887288485	5.411452	2.3262527
5.900357226108044	5.489053	2.3428729
5.917907302006979	5.671056	2.381398
5.9354575168406	6.308236	2.5116203
5.9530078710238765	6.8583827	2.6188514
5.970558364971812	7.2175217	2.6865447
5.988108999099438	7.5155334	2.7414472
6.005659773821818	8.014303	2.8309546
6.023210689554039	7.77083	2.7876208
6.040761746711227	8.192511	2.8622563
6.058312945708531	7.5640473	2.7502813
6.075864286961132	7.1972194	2.6827633
6.093415770884244	6.584736	2.5660741
6.1109673978931065	6.1169667	2.4732502
6.128519168402993	5.568744	2.3598187
6.146071082829204	5.467354	2.3382373
6.163623141587075	5.370633	2.3174627
6.181175345091969	5.3046784	2.3031888
6.198727693759281	5.277161	2.2972074
6.216280188004435	5.2816944	2.2981937
6.233832828242885	5.2173014	2.2841413
6.251385614890126	5.214703	2.2835724
6.268938548361669	5.1555214	2.2705774
6.286491629073067	5.129058	2.2647424
6.304044857439898	5.135025	2.2660594
6.321598233877777	5.1302414	2.2650037
6.339151758802344	5.138322	2.2667866
6.356705432629277	5.0813503	2.254185
6.37425925577428	4.9874506	2.2332602
6.391813228653095	4.974855	2.2304382
6.409367351681486	4.9844832	2.2325957
6.426921625275259	5.0068474	2.2375987
6.44447604985025	5.023326	2.2412777
6.46203062582232	5.0074167	2.2377257
6.47958535360737	5.003388	2.2368255
6.497140233621328	4.9728146	2.229981
6.514695266280161	5.003525	2.236856
6.532250451999859	5.005001	2.237186
6.549805791196454	4.9809446	2.231803
6.567361284286002	4.9418054	2.2230172
6.584916931684597	4.9645867	2.2281353
6.602472733808367	4.998766	2.235792
6.6200286910734665	5.02864	2.2424629
6.637584803896092	4.9770446	2.2309291
6.655141072692462	5.009256	2.2381368
6.672697497878842	5.1303663	2.265031
6.690254079871514	5.160869	2.2717547
6.707810819086808	5.141602	2.2675102
6.725367715941078	5.1855564	2.2771816
6.742924770850719	5.0972857	2.257717
6.760481984232151	5.075336	2.2528505
6.778039356501836	4.9972067	2.2354434
6.795596888076266	4.9650702	2.2282438
6.813154579371963	4.9453197	2.2238076
6.830712430805492	4.892776	2.211962
6.84827044279344	4.927906	2.2198887
6.865828615752445	4.950487	2.224969
6.883386950099159	5.0632343	2.250163
6.900945446250287	5.0381117	2.2445738
6.918504104622553	5.0627756	2.2500613
6.936062925632727	5.056499	2.248666
6.953621909697607	5.074773	2.2527256
6.971181057234028	5.1033688	2.2590637
6.988740368658859	5.150734	2.269523
7.006299844389007	5.174906	2.274842
7.023859484841407	5.2456994	2.2903492
7.041419290433036	5.2665277	2.2948916
7.058979261580902	5.421449	2.3284006
7.0765393987020495	5.6702437	2.3812273
7.094099702213559	6.1052103	2.4708724
7.111660172532549	6.446285	2.5389535
7.129220810076164	6.8608875	2.6193297
7.146781615261595	7.4076257	2.7216954
7.16434258850606	7.6233964	2.76105
7.181903730226821	8.153596	2.8554502
7.1994650408411704	8.307161	2.8822145
7.217026520766437	8.486147	2.9130993
7.234588170419983	8.583819	2.9298155
7.252149990219215	8.411285	2.9002216
7.269711980581568	8.190655	2.861932
7.2872741419245175	7.9951453	2.8275688
7.304836474665574	7.6122403	2.759029
7.322398979222286	7.446938	2.7289078
7.339961656012233	7.2751765	2.6972535
7.357524505453039	7.0268345	2.6508176
7.375087527962357	6.6722474	2.5830693
7.392650723957886	6.3261514	2.5151842
7.410214093857353	5.918716	2.432841
7.427777638078528	5.7286973	2.3934698
7.445341357039213	5.57224	2.3605592
7.4629052511572525	5.4364495	2.3316195
7.480469320850524	5.3606267	2.3153026
7.498033566536948	5.3440146	2.3117125
7.5155979886344735	5.341267	2.3111181
7.5331625875610975	5.333638	2.309467
7.550727363734844	5.3507333	2.3131652
7.568292317573788	5.358193	2.3147771
7.585857449496025	5.3256907	2.307746
7.603422759919705	5.19887	2.2801032
7.620988249263007	5.1900415	2.2781663
7.638553917944147	5.1721826	2.2742434
7.656119766381391	5.2330127	2.2875779
7.673685794993023	5.2332363	2.2876267
7.691252004197388	5.2472677	2.2906916
7.70881839441285	5.307367	2.3037722
7.726384966057826	5.390926	2.3218367
7.743951719550762	5.3925233	2.3221807
7.761518655310149	5.380179	2.3195212
7.779085773754511	5.3741283	2.3182166
7.796653075302419	5.3476586	2.3125005
7.814220560372475	5.291185	2.3002577
7.831788229383323	5.2097616	2.2824903
7.8493560827536495	5.179753	2.275907
7.866924120902174	5.2404966	2.2892132
7.884492344247663	5.33587	2.30995
7.9020607532089135	5.4032383	2.3244867
7.919629348204771	5.444175	2.3332756
7.937198129654115	5.4154005	2.3271012
7.954767097975865	5.448642	2.3342326
7.972336253588986	5.511737	2.347709
7.989905596912472	5.489838	2.3430405
8.007475128365371	5.429188	2.3300617
8.025044848366756	5.393147	2.322315
8.042614757335754	5.5046077	2.34619
8.060184855691523	5.5745845	2.3610559
8.07775514385327	5.731148	2.3939815
8.095325622240228	5.8109384	2.4105887
8.112896291271687	5.8746047	2.4237583
8.130467151366968	5.9220724	2.4335308
8.148038202945436	5.9031086	2.4296315
8.165609446426497	5.984436	2.4463108
8.183180882229594	6.0744658	2.4646432
8.200752510774217	6.093351	2.4684713
8.218324332479893	6.1233983	2.47455
8.235896347766193	6.0941525	2.4686337
8.253468557052724	6.1492176	2.4797616
8.27104096075914	6.1472206	2.479359
8.288613559305137	6.174099	2.4847734
8.306186353110448	6.1278925	2.4754581
8.32375934259485	6.1201687	2.4738975
8.341332528178162	6.190439	2.4880593
8.358905910280246	6.2523565	2.5004714
8.376479489321003	6.3490243	2.519727
8.394053265720377	6.344846	2.5188978
8.411627239898356	6.321069	2.5141735
8.42920141227497	6.2821507	2.5064218
8.44677578327029	6.2968273	2.509348
8.464350353304427	6.2316866	2.4963346
8.48192512279754	6.1677985	2.4835052
8.499500092169827	6.0868845	2.4671612
8.51707526184153	6.0936623	2.4685345
8.534650632232934	6.154396	2.4808056
8.552226203764365	6.1610217	2.4821405
8.569801976856192	6.203503	2.4906833
8.587377951928834	6.246082	2.4992163
8.60495412940274	6.283587	2.5067084
8.622530509698416	6.2868876	2.5073667
8.6401070932364	6.43625	2.5369766
8.657683880437283	6.6631474	2.5813074
8.675260871721695	6.861964	2.6195352
8.692838067510303	7.0352855	2.6524112
8.710415468223834	7.0697045	2.6588917
8.727993074283043	7.207204	2.6846235
8.745570886108737	7.177795	2.6791408
8.763148904121765	7.290052	2.7000096
8.78072712874302	7.2968297	2.7012644
8.798305560393441	7.508666	2.7401946
8.815884199494006	7.6158566	2.759684
8.833463046465745	7.7389607	2.7818987
8.851042101729728	7.9101524	2.8124993
8.86862136570707	8.203719	2.8642135
8.886200838818924	8.335143	2.8870647
8.903780521486505	8.348817	2.889432
8.921360414131055	8.43161	2.9037235
8.938940517173874	8.567861	2.927091
8.956520831036297	8.764657	2.9605165
8.97410135613971	9.064764	3.0107746
8.99168209290554	9.209807	3.0347664
9.009263041755265	9.484162	3.0796368
9.026844203110405	9.650191	3.1064756
9.044425577392525	9.837276	3.1364434
9.062007165023239	9.896037	3.1457968
9.079588966424197	10.170618	3.1891406
9.097170982017108	10.272241	3.2050335
9.11475321222372	11.321113	3.364686
9.132335657465825	12.245461	3.4993515
9.149918318165264	12.34838	3.5140262
9.167501194743924	12.912549	3.5934036
9.18508428762374	12.573683	3.545939
9.202667597226693	12.55726	3.5436225
9.220251123974803	12.208224	3.494027
9.237834868290143	11.932362	3.454325
9.255418830594836	11.628587	3.4100714
9.273003011311046	11.072408	3.3275228
9.290587410860985	10.75097	3.2788672
9.308172029666911	10.188885	3.1920033
9.32575686815113	10.000586	3.1623702
9.343341926735997	8.855279	2.9757822
9.360927205843916	8.612029	2.9346259
9.378512705897327	8.35691	2.890832
9.396098427318728	8.1859455	2.8611093
9.413684370530664	8.0726	2.8412323
9.431270535955722	7.9685154	2.822856
9.448856924016539	7.864157	2.8043106
9.466443535135806	7.7208853	2.7786481
9.484030369736251	7.7637467	2.78635
9.501617428240658	7.756655	2.7850773
9.519204711071852	7.8088717	2.7944357
9.536792218652714	7.8015113	2.7931185
9.55437995140617	7.8831415	2.8076932
9.571967909755191	7.948058	2.81923
9.589556094122802	7.957272	2.8208637
9.60714450493207	7.9205146	2.8143408
9.624733142606116	7.893016	2.809451
9.642322007568108	7.904637	2.8115187
9.659911100241267	8.009876	2.8301725
9.677500421048851	8.040578	2.8355913
9.695089970414175	8.077272	2.8420544
9.712679748760609	8.037135	2.834984
9.730269756511557	8.031899	2.8340607
9.747859994090492	8.069907	2.8407583
9.765450461920915	8.078911	2.8423424
9.78304116042639	8.099498	2.8459616
9.800632090030527	8.119725	2.849513
9.81822325115699	8.19535	2.8627522
9.835814644229481	8.265986	2.875063
9.853406269671762	8.269434	2.8756623
9.870998127907646	8.312895	2.8832092
9.888590219360985	8.386251	2.8959026
9.906182544455698	8.382012	2.8951705
9.923775103615734	8.398955	2.8980951
9.941367897265108	8.29964	2.8809094
9.958960925827878	8.295275	2.8801517
9.97655418972816	8.223747	2.8677077
9.994147689390106	8.318121	2.8841152
10.011741425237934	8.338157	2.8875866
10.029335397695904	8.314297	2.8834522
10.04692960718833	8.285882	2.8785207
10.06452405413958	8.319002	2.884268
10.082118738974064	8.337331	2.8874435
10.099713662116246	8.354182	2.89036
10.117308823990651	8.334034	2.8868728
10.134904225021844	8.364875	2.8922093
10.152499865634445	8.342129	2.8882744
10.170095746253125	8.249811	2.8722484
10.18769186730261	8.139611	2.8530004
10.205288229207675	8.078783	2.84232
10.222884832393145	8.000857	2.8285787
10.2404816772839	8.022564	2.8324132
10.258078764304868	8.045893	2.8365283
10.275676093881035	8.101199	2.8462605
10.293273666437438	8.160109	2.8565903
10.310871482399158	8.2785845	2.877253
10.32846954219134	8.304565	2.8817642
10.346067846239173	8.298568	2.8807235
10.363666394967908	8.184417	2.860842
10.38126518880283	8.138067	2.8527298
10.398864228169298	8.137481	2.852627
10.416463513492713	8.176715	2.8594956
10.434063045198531	8.187265	2.8613398
10.451662823712262	8.168231	2.8580117
10.469262849459467	8.172217	2.858709
10.486863122865758	8.155853	2.8558455
10.504463644356806	8.178711	2.8598444
10.522064414358338	8.141665	2.8533604
10.539665433296118	8.0848	2.8433783
10.557266701595987	7.9788785	2.8246908
10.574868219683818	7.814883	2.7955112
10.592469987985552	7.689003	2.772905
10.610072006927185	7.560702	2.7496731
10.627674276934751	7.4931	2.7373528
10.64527679843435	7.391075	2.7186532
10.662879571852143	7.2671275	2.695761
10.680482597614331	7.114766	2.667352
10.698085876147173	7.0239697	2.6502774
10.715689407876988	6.9764977	2.6413062
10.733293193230146	6.9162817	2.6298823
10.750897232633072	6.8686867	2.620818
10.76850152651225	6.7362394	2.5954266
10.786106075294207	6.5803404	2.5652175
10.803710879405534	6.503586	2.5502129
10.821315939272877	6.3913054	2.528103
10.83892125532294	6.3331504	2.516575
10.856526827982472	6.2682033	2.503638
10.874132657678285	6.232719	2.4965415
10.891738744837243	6.2447615	2.4989522
10.909345089886271	6.207975	2.4915807
10.926951693252343	6.1680365	2.4835532
10.944558555362494	6.153022	2.4805286
10.96216567664381	6.0903482	2.467863
10.979773057523436	5.9777517	2.4449441
10.997380698428573	5.8678174	2.4223578
11.014988599786477	5.813922	2.4112077
11.032596762024461	5.716769	2.3909767
11.050205185569892	5.633279	2.373453
11.067813870850198	5.5650434	2.3590345
11.085422818292859	5.4796457	2.3408644
11.10303202832541	5.46304	2.3373146
11.120641501375454	5.4415245	2.3327076
11.138251237870636	5.406283	2.3251414
11.155861238238671	5.369913	2.3173072
11.173471502907317	5.2787375	2.2975504
11.191082032304402	5.1940265	2.2790406
11.208692826857805	5.1331563	2.265647
11.226303886995465	5.0931754	2.2568064
11.243915213145371	5.0967846	2.257606
11.261526805735578	4.9841237	2.232515
11.279138665194196	4.9305644	2.2204874
11.296750791949393	4.8534265	2.2030494
11.314363186429393	4.8134923	2.1939673
11.331975849062479	4.8272777	2.1971066
11.34958878027699	4.787715	2.1880848
11.36720198050133	4.7460804	2.17855
11.384815450163948	4.6371984	2.1534154
11.402429189693366	4.560018	2.1354198
11.420043199518153	4.5023212	2.1218674
11.437657480066942	63.431667	7.9644
11.455272031768422	85.15149	9.2277565
11.472886855051353	107.50195	10.368315
11.490501950344528	99.10483	9.955141
11.508117318076819	84.51154	9.193016
11.52573295867715	45.85352	6.7715225
11.543348872574514	4.1840262	2.0454893
11.560965060197946	4.080032	2.019909
11.57858152197655	4.1362195	2.0337698
11.59619825833949	4.1244183	2.0308664
11.613815269715985	4.1028795	2.0255566
11.631432556535323	38.567745	6.2102933
11.649050119226837	83.07947	9.114794
11.666667958219929	93.397125	9.664219
11.68428607394406	107.64397	10.375161
11.701904466828756	82.479294	9.081811
11.719523137303586	65.36634	8.084946
11.737142085798196	4.63204	2.1522174
11.754761312742286	3.7566018	1.9381955
11.772380818565619	3.6786273	1.9179748
11.790000603698015	3.6212945	1.90297
11.80762066856935	3.5859878	1.8936704
11.825241013609572	3.5413089	1.8818365
11.842861639248683	3.4655526	1.8615994
11.860482545916748	3.4359088	1.8536204
11.878103734043883	3.4416459	1.8551674
11.895725204060282	3.476879	1.864639
11.91334695639619	3.455437	1.8588805
11.930968991481919	3.4349303	1.8533565
11.948591309747824	3.3831825	1.839343
11.966213911624347	3.3482614	1.8298255
11.98383679754198	3.3316286	1.825275
12.001459967931268	3.3062508	1.8183099
12.019083423222835	3.2720418	1.8088787
12.036707163847352	3.2331638	1.7981001
12.05433119023556	3.2302914	1.7973012
12.071955502818259	3.22993	1.7972006
12.089580102026313	3.2129753	1.7924774
12.107204988290643	3.2007954	1.7890767
12.12483016204224	3.2334304	1.7981741
12.142455623712152	3.2378476	1.799402
12.16008137373149	3.1936147	1.7870687
12.177707412531431	3.1370366	1.7711681
12.19533374054321	3.0986404	1.7602955
12.212960358198126	3.0988925	1.7603672
12.230587265927545	3.1123307	1.76418
12.248214464162889	3.0876029	1.7571576
12.265841953335649	3.0394375	1.7433983
12.283469733877375	2.9911618	1.7294976
12.301097806219685	2.982022	1.7268533
12.31872617079425	2.9700742	1.7233903
12.336354828032825	2.9735518	1.724399
12.353983778367205	2.9710622	1.7236769
12.371613022229262	2.9485552	1.7171358
12.389242560050928	2.9498923	1.717525
12.406872392264201	2.937886	1.7140262
12.424502519301143	2.9085598	1.70545
12.442132941593874	2.8521233	1.688823
12.459763659574586	2.811877	1.6768652
12.477394673675532	2.7977982	1.672662
12.49502598432903	2.7863193	1.6692271
12.51265759196746	2.7644527	1.6626643
12.530289497023267	2.7599263	1.6613026
12.547921699928967	2.7698843	1.664297
12.565554201117134	2.7625859	1.6621028
12.583187001020404	2.7921548	1.6709743
12.600820100071486	2.8247714	1.6807057
12.618453498703152	2.8576965	1.6904722
12.636087197348235	2.8313487	1.6826612
12.65372119643964	2.7997909	1.6732576
12.671355496410326	2.7805402	1.6674953
12.68899009769333	2.8167183	1.6783081
12.706625000721749	2.8887217	1.699624
12.724260205928752	2.9553514	1.7191136
12.741895713747551	2.9650521	1.7219326
12.759531524611454	2.9442406	1.715879
12.777167638953818	2.9220662	1.7094052
12.794804057208072	2.9497721	1.7174901
12.812440779807702	3.035104	1.742155
12.830077807186271	3.205338	1.7903458
12.847715139777405	3.2372622	1.7992394
12.865352778014795	3.458637	1.8597411
12.882990722332197	3.6348352	1.9065244
12.90062897316344	3.7341807	1.9324028
12.918267530942412	3.8032591	1.9501946
12.935906396103071	3.672645	1.9164146
12.953545569079449	3.7673	1.9409534
12.971185050305628	3.5645187	1.8879933
12.988824840215775	3.5546942	1.8853897
13.006464939244115	3.5570495	1.8860142
13.024105347824943	3.4127388	1.8473599
13.041746066392617	3.5533211	1.8850255
13.05938709538157	3.404527	1.845136
13.077028435226296	3.4495783	1.8573041
13.094670086361363	3.3128119	1.8201132
13.112312049221401	3.2223682	1.7950956
13.129954324241112	3.1099694	1.7635106
13.147596911855258	2.969249	1.7231508
13.165239812498685	2.8995988	1.7028209
13.182883026606293	2.8488204	1.6878449
13.200526554613058	2.7857807	1.6690658
13.218170396954017	2.7570162	1.6604265
13.235814554064284	2.7484794	1.6578538
13.253459026379034	2.7385802	1.6548656
13.271103814333523	2.7017465	1.643699
13.288748918363058	2.6708567	1.6342756
13.306394338903031	2.661742	1.6314846
13.32404007638889	2.6577663	1.6302657
13.341686131256164	2.7007158	1.6433854
13.359332503940449	2.682588	1.6378608
13.376979194877402	2.7176929	1.6485426
13.394626204502751	2.7285614	1.6518358
13.412273533252307	2.7650523	1.6628447
13.429921181561937	2.745391	1.6569221
13.447569149867581	2.750227	1.6583809
13.465217438605247	2.7553377	1.659921
13.482866048211022	2.719219	1.6490054
13.500514979121052	2.7265441	1.6512251
13.518164231771568	2.685254	1.6386745
13.535813806598844	2.6823606	1.6377914
13.553463704039254	2.6437755	1.625969
13.571113924529229	2.6646097	1.6323632
13.588764468505275	2.670342	1.6341181
13.606415336403956	2.704848	1.6446422
13.624066528661917	2.7663078	1.6632221
13.641718045715882	2.8103077	1.6763972
13.659369888002635	2.8539283	1.6893574
13.67702205595903	2.900945	1.7032161
13.694674550021993	2.9490569	1.7172818
13.712327370628532	3.017972	1.7372311
13.729980518215713	3.100345	1.7607796
13.747633993220681	3.151336	1.7752002
13.765287796080647	3.1729453	1.7812763
13.7829419272329	3.246253	1.8017361
13.800596387114801	3.3154652	1.8208419
13.818251176163775	3.3656092	1.8345597
13.835906294817324	3.4265954	1.8511065
13.853561743513023	3.4226646	1.8500445
13.871217522688525	3.531184	1.8791444
13.888873632781538	3.5217798	1.8766406
13.906530074229858	3.5422335	1.8820822
13.92418684747135	3.5085802	1.8731204
13.941843952943948	3.4765117	1.8645406
13.959501391085665	3.4533296	1.8583137
13.977159162334578	3.426368	1.8510451
13.994817267128846	3.4183543	1.8488792
14.012475705906693	3.3291762	1.8246031
14.030134479106424	3.2260725	1.7961271
14.047793587166414	3.1383328	1.7715341
14.065453030525108	3.100023	1.7606882
14.083112809621026	3.0562923	1.7482255
14.100772924892766	2.9768324	1.7253499
14.118433376778997	2.947275	1.7167629
14.136094165718458	2.8832014	1.6979992
14.153755292149969	2.8093994	1.6761262
14.171416756512416	2.742272	1.6559806
14.189078559244768	2.6845245	1.6384518
14.20674070078606	2.636708	1.6237943
14.224403181575408	2.5459888	1.5956155
14.242066002051999	2.484611	1.5762649
14.259729162655093	2.4236097	1.5567946
14.277392663824022	2.401721	1.5497487
14.295056505998208	2.3893812	1.5457623
14.312720689617128	2.4082937	1.5518678
14.330385215120348	2.424102	1.5569528
14.348050082947497	2.4272115	1.5579511
14.3657152935383	2.4149919	1.5540245
14.383380847332528	2.4077413	1.5516899
14.401046744770051	2.3944933	1.547415
14.418712986290798	2.3617659	1.5368037
14.436379572334793	2.3796759	1.5426198
14.454046503342123	2.375806	1.541365
14.471713779752946	2.3967054	1.5481297
14.489381402007504	2.4025848	1.5500274
14.507049370546113	2.426324	1.5576662
14.524717685809168	2.4103951	1.5525447
14.542386348237134	2.3935385	1.5471065
14.560055358270553	2.3752325	1.541179
14.577724716350051	2.4491618	1.5649798
14.595394422916325	2.4732096	1.5726441
14.61306447841015	2.4994836	1.5809755
14.63073488327237	2.4584577	1.567947
14.648405637943917	2.4595048	1.5682808
14.6660767428658	2.4708416	1.5718911
14.683748198479094	2.5248086	1.5889647
14.701420005224954	2.5957394	1.6111299
14.719092163544628	2.6539843	1.6291053
14.73676467387942	2.6675062	1.6332502
14.754437536670727	2.6524022	1.6286197
14.772110752360014	2.614446	1.6169249
14.78978432138882	2.5919716	1.6099601
14.807458244198777	2.5869596	1.6084028
14.82513252123159	2.597529	1.6116852
14.842807152929028	2.6599462	1.6309341
14.860482139732962	2.6720262	1.6346333
14.87815748208531	2.6805737	1.6372458
14.8958331804281	2.692943	1.6410189
14.91350923520342	2.6849604	1.6385849
14.931185646853438	2.7014713	1.6436154
14.948862415820408	2.665818	1.6327332
14.966539542546656	2.6695273	1.6338688
14.98421702747459	2.6556108	1.6296045
15.001894871046696	2.6425345	1.6255875
15.019573073705542	2.6168127	1.6176566
15.037251635893766	2.6045537	1.613863
15.054930558054092	2.6546657	1.6293145
15.072609840629323	2.743419	1.6563269
15.090289484062351	2.8821485	1.6976892
15.107969488796124	3.1582043	1.7771337
15.125649855273691	3.5652368	1.8881835
15.14333058393817	4.097506	2.0242298
15.161011675232768	5.115874	2.2618299
15.17869312960076	6.468642	2.5433526
15.196374947485506	8.321457	2.8846936
15.214057129330447	11.464001	3.385853
15.231739675579114	16.07178	4.008962
15.249422586675102	21.003113	4.5829153
15.267105863062092	24.02287	4.901313
15.284789505183847	24.237173	4.923126
15.302473513484218	22.085047	4.699473
15.320157888407127	18.49967	4.301124
15.337842630396578	14.326476	3.7850332
15.355527739896656	11.103855	3.3322449
15.37321321735153	8.682171	2.9465523
15.39089906320545	6.417279	2.5332348
15.408585277902748	4.904473	2.2146044
15.42627186188783	3.7858865	1.9457355
15.443958815605198	3.2315755	1.7976583
15.461646139499424	2.9102275	1.7059389
15.479333834015168	2.7659254	1.6631072
15.497021899597165	2.7343376	1.6535833
15.514710336690234	2.6567907	1.6299665
15.53239914573928	2.590286	1.6094365
15.550088327189297	2.5364842	1.5926343
15.567777881485336	2.5167048	1.5864125
15.58546780907256	2.5118227	1.5848731
15.6031581103962	2.47884	1.5744333
15.620848785901568	2.4594493	1.5682632
15.638539836034063	2.4386916	1.5616311
15.656231261239173	2.486089	1.5767336
15.673923061962451	2.5036714	1.5822994
15.691615238649552	2.463461	1.5695416
15.709307791746202	2.4258485	1.5575136
15.727000721698221	2.408478	1.5519272
15.744694028951498	2.3943977	1.5473841
15.76238771395202	2.3661592	1.5382324
15.780081777145844	2.3482862	1.5324119
15.797776218979125	2.3450918	1.5313692
15.815471039898094	2.3675034	1.5386693
15.833166240349064	2.4059696	1.5511189
15.850861820778437	2.4257598	1.5574851
15.868557781632699	2.4278805	1.5581658
15.886254123358412	2.3847904	1.5442767
15.903950846402232	2.3550541	1.5346186
15.921647951210897	2.3196123	1.5230273
15.939345438231225	2.3188534	1.5227782
15.957043307910133	2.3628733	1.5371641
15.974741560694602	2.3977509	1.5484673
15.992440197031714	2.4275966	1.5580746
16.01013921736862	2.3994105	1.549003
16.02783862215259	2.3929672	1.5469218
16.045538411830933	2.4017777	1.549767
16.06323858685107	2.408697	1.5519977
16.080939147660512	2.4170573	1.5546888
16.09864009470684	2.383046	1.5437118
16.11634142843774	2.404392	1.5506102
16.134043149300954	2.426428	1.5576996
16.15174525774433	2.4561453	1.5672094
16.169447754215817	2.452323	1.5659895
16.18715063916342	2.466571	1.5705321
16.204853913035244	2.4608514	1.5687101
16.222557576279478	2.4803357	1.5749081
16.240261629344403	22.401455	4.7330174
16.257966072678386	42.96181	6.554526
16.275670906729868	38.10936	6.173278
16.293376131947387	2.5217614	1.5880055
16.31108174877957	2.5235326	1.5885631
16.328787757675133	2.5104249	1.584432
16.34649415908287	2.5636294	1.6011338
16.364200953451657	2.5910516	1.6096743
16.38190814123048	2.641415	1.6252431
16.39961572286839	2.658687	1.6305481
16.41732369881455	2.7073066	1.6453896
16.43503206951817	2.7422886	1.6559857
16.45274083542859	2.7777472	1.6666574
16.47044999699522	2.7970924	1.672451
16.488159554667558	2.8147304	1.6777158
16.505869508895184	2.872744	1.6949171
16.523579860127786	2.9215426	1.7092521
16.541290608815117	2.9669664	1.7224884
16.559001755407035	3.0191722	1.7375765
16.57671330035348	3.0570383	1.7484388
16.59442524410448	3.0913763	1.758231
16.61213758711015	3.156482	1.7766491
16.629850329820705	3.224854	1.7957878
16.647563472686436	3.3329992	1.8256503
16.665277016157724	3.380614	1.8386446
16.682990960685053	3.4424956	1.8553964
16.70070530671898	3.5080693	1.872984
16.718420054710155	3.555609	1.8856323
16.736135205109335	3.5613036	1.8871417
16.753850758367335	3.6365411	1.9069717
16.771566714935087	3.7156339	1.927598
16.789283075263597	3.7582476	1.93862
16.80699983980398	3.7475104	1.9358487
16.82471700900741	3.8167782	1.9536576
16.84243458332518	3.9405308	1.985077
16.860152563208665	4.0122814	2.003068
16.87787094910932	4.005718	2.001429
16.89558974147871	4.0649962	2.0161836
16.913308940768466	4.19454	2.0480576
16.931028547430333	4.2909913	2.0714707
16.94874856191613	4.3294888	2.0807424
16.966468984677785	4.3416185	2.083655
16.98418981616729	4.3732634	2.091235
17.00191105683676	4.406636	2.099199
17.019632707138374	4.424654	2.103486
17.03735476752442	4.4420953	2.1076279
17.05507723844728	4.4958067	2.1203318
17.072800120359403	4.5770454	2.139403
17.090523413713353	4.647111	2.155716
17.108247118961785	4.6531534	2.157117
17.125971236557437	4.6666484	2.1602426
17.143695766953133	4.688788	2.165361
17.161420710601806	4.662897	2.1593742
17.179146067956477	4.6580954	2.158262
17.19687183947025	4.6609745	2.158929
17.21459802559634	4.7017546	2.168353
17.232324626788028	4.6758423	2.1623695
17.25005164349871	4.6397758	2.1540139
17.267779076181863	4.6097617	2.1470356
17.285506925291074	4.567357	2.1371377
17.30323519127999	4.559373	2.135269
17.320963874602384	4.5462365	2.1321905
17.33869297571211	4.5438848	2.131639
17.356422495063114	4.547829	2.132564
17.37415243310944	4.5236225	2.126881
17.391882790305218	4.5134387	2.1244855
17.40961356710468	4.522563	2.1266317
17.42734476396215	4.517302	2.1253946
17.445076381332044	4.5111775	2.1239533
17.462808419668868	4.587032	2.1417358
17.48054087942723	4.7438965	2.1780488
17.498273761061835	5.077285	2.253283
17.51600706502747	5.5558763	2.3570907
17.533740791779024	6.2545075	2.5009015
17.551474941771485	7.617018	2.7598946
17.56920951545993	8.70934	2.951159
17.586944513299528	10.84447	3.2930944
17.60467993574556	12.48603	3.5335577
17.622415783253373	14.173537	3.7647758
17.64015205627843	15.511798	3.938502
17.657888755276293	16.471603	4.058522
17.675625880702604	17.00366	4.1235495
17.69336343301311	16.89952	4.110903
17.71110141266366	16.172218	4.0214696
17.728839820110178	15.231166	3.9027126
17.746578655808705	14.29819	3.7812948
17.764317920215372	12.946172	3.598079
17.7820576137864	11.523062	3.3945637
17.79979773697811	9.562188	3.0922787
17.81753829024692	7.655397	2.7668388
17.835279274049356	5.9326386	2.435701
17.85302068884201	4.865496	2.205787
17.870762535081607	4.196509	2.0485382
17.888504813224934	3.862395	1.9652977
17.90624752372891	3.683756	1.9193114
17.923990667050536	3.6171613	1.9018836
17.941734243646895	3.5415971	1.8819132
17.959478253975185	3.5456905	1.8830004
17.9772226984927	3.4915817	1.8685775
17.994967577656833	3.4504988	1.8575518
18.01271289192506	3.3738422	1.8368021
18.030458641754965	3.355966	1.8319296
18.04820482760425	3.3395908	1.8274547
18.06595144993067	3.3614745	1.8334324
18.083698509192125	3.3788245	1.8381579
18.101446005846576	3.360171	1.833077
18.119193940352105	3.2750592	1.8097125
18.136942313166887	3.1967337	1.7879412
18.1546911247492	3.1705656	1.7806082
18.1724403755574	3.168289	1.7799689
18.19019006604997	3.1586425	1.777257
18.207940196685467	3.117019	1.7655082
18.225690767922575	3.0977206	1.7600343
18.243441780220046	3.0862448	1.7567711
18.261193234036764	3.0724936	1.7528529
18.278945129831676	3.0619166	1.7498333
18.29669746806386	3.071064	1.7524451
18.314450249192483	3.1133418	1.7644664
18.3322034736768	3.1261902	1.7681036
18.349957141976184	3.0968373	1.7597833
18.3677112545501	3.0832214	1.7559104
18.385465811858108	3.109416	1.7633536
18.403220814359884	3.0926003	1.758579
18.420976262515172	3.1098154	1.7634668
18.43873215678387	3.1181607	1.7658315
18.456488497625923	3.1500301	1.7748324
18.474245285501407	3.2161465	1.7933618
18.492002520870486	3.2832959	1.8119867
18.50976020419343	3.395294	1.8426323
18.527518335930615	3.712617	1.9268153
18.545276916542516	4.289298	2.071062
18.563035946489688	4.3999653	2.0976095
18.580795426232832	4.8554688	2.203513
18.598555356232698	4.78682	2.1878803
18.616315736950185	5.0695558	2.2515674
18.63407656884626	4.6595035	2.1585884
18.65183785238201	4.8355227	2.1989822
18.669599588018617	4.6934104	2.166428
18.68736177621737	4.6991825	2.16776
18.705124417439652	4.669824	2.1609776
18.72288751214696	4.5103364	2.1237552
18.740651060800886	4.661901	2.1591437
18.758415063863115	4.342054	2.0837595
18.77617952179546	4.482694	2.1172373
18.793944435059814	4.224393	2.055333
18.811709804118184	4.2319117	2.057161
18.829475629432675	4.1856146	2.0458775
18.8472419114655	3.9654229	1.991337
18.86500865067897	4.0623193	2.0155196
18.88277584753551	3.7414997	1.9342957
18.90054350249763	3.763436	1.9399577
18.918311616027957	3.4448974	1.8560435
18.936080188589226	3.3530781	1.8311412
18.953849220644265	3.0423493	1.7442331
18.971618712656007	2.8414133	1.6856492
18.9893886650875	2.7683036	1.663822
19.007159078401887	7.946326	2.8189228
19.024929953062408	32.86092	5.7324443
19.042701289532435	32.810688	5.7280617
19.060473088275405	25.38174	5.0380297
19.07824534975489	2.654259	1.6291896
19.096018074434568	2.654297	1.6292014
19.113791262778197	2.6142874	1.6168758
19.13156491524966	2.6090794	1.6152645
19.149339032312945	2.6237493	1.6197991
19.167113614432136	2.6305785	1.6219058
19.184888662071433	2.626153	1.620541
19.202664175695123	2.6187816	1.618265
19.220440155767623	2.577927	1.6055925
19.238216602753447	2.5275524	1.5898278
19.2559935171172	2.512057	1.584947
19.27377089932361	2.497537	1.5803597
19.291548749837514	2.5022368	1.581846
19.309327069123835	2.4999716	1.5811299
19.32710585764763	2.481807	1.5753752
19.344885115874032	2.489085	1.5776834
19.362664844268313	2.498283	1.5805957
19.380445043295822	2.5088942	1.583949
19.39822571342203	2.4898562	1.5779278
19.41600685511252	2.488319	1.5774406
19.43378846883297	2.4736702	1.5727906
19.451570555049173	2.4665074	1.5705118
19.469353114227037	2.4635947	1.5695843
19.48713614683254	2.460695	1.5686603
19.50491965333182	2.458711	1.5680277
19.52270363419109	2.4302535	1.558927
19.540488089876686	2.4400265	1.5620584
19.55827302085503	2.4563372	1.5672706
19.576058427592674	2.472856	1.5725317
19.593844310556282	2.5251844	1.5890828
19.611630670212598	2.5448778	1.5952673
19.629417507028506	2.553778	1.5980544
19.64720482147098	2.5265741	1.5895201
19.6649926140071	2.5090709	1.5840046
19.682780885104084	2.4779825	1.5741609
19.70056963522921	2.4873233	1.577125
19.718358864849908	2.5047638	1.5826446
19.7361485744337	2.5267322	1.5895698
19.753938764448215	2.4935153	1.5790869
19.771729435361202	2.5182505	1.5868996
19.789520587640506	2.5328145	1.5914818
19.807312221754092	2.551821	1.597442
19.825104338170043	2.5207129	1.5876753
19.842896937356517	2.4945579	1.579417
19.860690019781824	2.4977872	1.580439
19.87848358591436	2.5733755	1.6041744
19.896277636222635	2.5564632	1.5988944
19.914072171175278	2.4846597	1.5762804
19.931867191241015	2.4383512	1.561522
19.94966269688869	2.4430006	1.5630101
19.967458688587264	2.467604	1.5708609
19.985255166805807	2.464789	1.5699646
20.00305213201348	2.4635768	1.5695785
20.020849584679578	2.4693048	1.5714022
20.038647525273507	2.4655058	1.5701929
20.05644595426477	2.4447384	1.563566
20.07424487212299	2.4711668	1.5719945
20.092044279317903	2.4732625	1.5726609
20.109844176319353	2.445135	1.5636928
20.127644563597304	2.4087524	1.5520157
20.145445441621817	2.4208362	1.5559037
20.16324681086307	2.4617066	1.5689827
20.181048671791373	2.4753563	1.5733265
20.198851024877122	2.4437692	1.563256
20.216653870590836	2.404671	1.5507002
20.234457209403146	2.386022	1.5446754
20.252261041784802	2.4047797	1.5507352
20.270065368206662	2.386599	1.5448622
20.287870189139685	2.3561566	1.5349777
20.305675505054968	2.3285935	1.525973
20.323481316423702	2.315898	1.5218074
20.341287623717207	2.3336055	1.5276144
20.359094427406884	2.3597608	1.5361513
20.376901727964288	2.4039736	1.5504752
20.39470952586107	2.3951378	1.5476233
20.41251782156899	2.385022	1.5443516
20.430326615559935	2.3336177	1.5276183
20.448135908305886	2.356784	1.5351821
20.465945700278965	2.364723	1.5377656
20.483755991951384	2.3557827	1.534856
20.50156678379548	2.3605366	1.5364038
20.519378076283708	2.3572075	1.53532
20.537189869888635	2.316993	1.5221672
20.55500216508294	2.3059337	1.5185301
20.572814962339415	2.2853029	1.5117218
20.59062826213098	2.2573707	1.5024549
20.60844206493066	2.231897	1.4939535
20.626256371211593	2.265723	1.5052319
20.644071181447032	2.3385103	1.5292188
20.66188649611036	2.3091576	1.5195912
20.67970231567506	2.2936113	1.5144674
20.697518640614742	2.261572	1.5038524
20.715335471403122	2.2878072	1.5125499
20.73315280851404	2.285636	1.511832
20.750970652421447	2.2938554	1.514548
20.768789003599412	2.3072884	1.5189761
20.786607862522136	2.2813058	1.5103992
20.8044272296639	2.2523246	1.5007746
20.82224710549913	2.2345614	1.4948449
20.84006749050237	2.2506795	1.5002265
20.857888385148268	3.808594	1.9515619
20.8757097899116	45.912285	6.7758603
20.893531705267254	64.76367	8.047588
20.911354131690224	83.80347	9.154424
20.92917706965566	69.06572	8.310578
20.94700051963877	50.149746	7.0816483
20.96482448211493	29.394625	5.421681
20.982648957559622	4.1001363	2.0248792
21.00047394644843	2.1781242	1.4758469
21.01829944925707	2.226044	1.4919933
21.036125466461375	2.2568784	1.5022911
21.053951998537297	2.2534049	1.5011345
21.071779045960906	2.2214923	1.4904672
21.089606609208378	2.2187634	1.4895514
21.10743468875603	2.2366948	1.4955584
21.12526328508028	2.2369134	1.4956315
21.143092398657675	2.2122002	1.4873466
21.16092202996488	2.207293	1.4856962
21.17875217947867	2.2279706	1.4926388
21.19658284767596	2.2132382	1.4876956
21.21441403503377	2.1965828	1.4820873
21.232245742029225	2.1839814	1.4778299
21.2500779691396	2.1929162	1.4808499
21.26791071684227	2.1811545	1.4768732
21.28574398561475	2.192397	1.4806745
21.30357777593465	2.185495	1.4783419
21.321412088279704	2.1787562	1.4760611
21.339246923127792	2.1685245	1.472591
21.357082280956888	2.1472325	1.4653438
21.3749181622451	2.1491513	1.4659984
21.392754567470647	2.1492133	1.4660195
21.41059149711187	2.1451306	1.4646264
21.42842895164726	2.1213346	1.4564801
21.446266931555378	2.1207967	1.4562955
21.464105437314945	2.1080387	1.4519086
21.481944469404798	2.0918555	1.4463248
21.49978402830388	2.0896869	1.4455749
21.51762411449127	2.073659	1.4400204
21.53546472844617	2.055893	1.4338385
21.553305870647876	2.0524037	1.4326212
21.571147541575865	2.021901	1.4219356
21.58898974170967	2.0109031	1.4180632
21.60683247152899	2.0540078	1.433181
21.62467573151363	2.096135	1.4478035
21.642519522143523	2.1139112	1.4539295
21.660363843898722	2.0859904	1.4442959
21.6782086972594	2.079178	1.4419355
21.696054082705864	2.0621676	1.4360249
21.713900000718535	2.055225	1.4336056
21.73174645177795	2.04245	1.4291431
21.749593436364794	2.0805504	1.4424113
21.767440954959845	2.0553272	1.4336412
21.785289008044032	2.0407586	1.4285512
21.803137596098388	2.0194669	1.4210795
21.820986719604086	1.9997011	1.4141079
21.838836379042412	2.0065463	1.4165261
21.85668657489478	1.9988712	1.4138144
21.87453730764273	1.9903575	1.4108003
21.892388577767914	1.9712578	1.404015
21.91024038575213	1.963688	1.4013165
21.928092732077285	1.9647962	1.4017118
21.945945617225426	1.9892912	1.4104223
21.963799041678694	1.9808066	1.4074113
21.981653005919398	31.322674	5.5966663
21.999507510429943	78.12169	8.838648
22.01736255569286	73.080025	8.548686
22.035218142190818	4.144851	2.0358908
22.05307427040661	1.9521527	1.3971946
22.07093094082315	1.9464635	1.3951571
22.088788153923474	1.9754492	1.4055067
22.106645910190746	2.0368936	1.4271978
22.12450421010827	2.0609496	1.4356008
22.142363054159464	2.0270936	1.4237604
22.16022244282787	1.9932506	1.4118253
22.178082376597164	1.9838748	1.4085009
22.195942855951145	1.9642696	1.4015241
22.213803881373742	1.9747401	1.4052545
22.231665453349002	2.0073078	1.4167949
22.24952757236111	2.0144114	1.4192996
22.26739023889438	2.00135	1.4146907
22.28525345343323	1.984799	1.408829
22.30311721646225	1.9946066	1.4123055
22.320981528466113	1.9833003	1.408297
22.33884638992964	1.9565426	1.3987647
22.356711801337788	1.9243029	1.3871925
22.37457776317561	1.9352385	1.3911285
22.392444275928337	1.9274335	1.3883203
22.410311340081282	1.9351671	1.3911028
22.428178956119904	1.9299704	1.3892337
22.446047124529805	1.9122562	1.3828435
22.46391584579669	1.949688	1.3963122
22.481785120406414	2.0172846	1.4203115
22.49965494884496	2.0423746	1.4291167
22.51752533159841	2.0008898	1.4145281
22.53539626915302	1.9489635	1.3960528
22.553267761995137	1.9561024	1.3986073
22.571139810611264	1.9456465	1.3948643
22.589012415488025	1.9376817	1.3920064
22.60688557711216	1.9254878	1.3876195
22.624759295970566	1.9411834	1.3932636
22.642633572550263	1.9490968	1.3961005
22.660508407338362	1.938244	1.3922083
22.67838380082217	1.941799	1.3934845
22.696259753489077	1.9632393	1.4011564
22.714136265826614	1.9558222	1.3985071
22.73201333832246	1.9432981	1.3940222
22.74989097146439	1.9100544	1.3820472
22.76776916574035	1.9114178	1.3825403
22.785647921638393	1.9322215	1.3900437
22.803527239646712	1.9508557	1.3967304
22.82140712025363	1.948149	1.395761
22.839287563947593	1.9219795	1.3863548
22.85716857121719	1.907166	1.3810018
22.875050142551135	1.9054863	1.3803935
22.892932278438277	1.9161623	1.3842552
22.910814979367604	1.9278697	1.3884774
22.928698245828222	1.9620053	1.400716
22.946582078309387	1.9924952	1.4115577
22.96446647730047	1.9616685	1.4005958
22.98235144329098	1.924611	1.3873035
23.000236976770562	1.8865763	1.3735269
23.018123078229	1.8474672	1.3592156
23.03600974815619	1.8647801	1.3655695
23.053896987042194	1.858629	1.3633155
23.071784795377173	1.8843975	1.3727336
23.08967317365145	1.8938552	1.3761741
23.10756212235546	1.9454434	1.3947915
23.125451641979787	1.9480573	1.3957282
23.143341733015134	1.9253246	1.3875606
23.161232395952357	1.8818724	1.3718135
23.179123631282426	1.8995726	1.3782499
23.197015439496468	1.9545835	1.3980643
23.214907821085717	1.9905329	1.4108624
23.23280077654157	1.983997	1.4085443
23.250694306355538	1.9443518	1.3944001
23.268588411019277	1.9403309	1.3929576
23.28648309102458	1.9272423	1.3882515
23.304378346863356	1.9267589	1.3880774
23.322274179027676	1.8901056	1.3748112
23.340170588009723	1.8666148	1.3662411
23.358067574301852	1.843699	1.3578287
23.37596513839651	1.8683684	1.3668827
23.39386328078629	1.9373313	1.3918805
23.411762001963947	1.9605789	1.4002067
23.429661302422353	1.935631	1.3912696
23.4475611826545	1.8880781	1.3740735
23.46546164315356	1.899613	1.3782645
23.48336268441279	1.9215391	1.3861959
23.501264306925638	1.9433063	1.3940252
23.51916651118564	1.9379131	1.3920895
23.537069297686497	1.9181418	1.38497
23.554972666922037	1.9250345	1.3874562
23.57287661938623	1.9156684	1.3840767
23.59078115557318	1.9419942	1.3935546
23.608686275977128	1.9170072	1.3845603
23.62659198109246	1.9511193	1.3968247
23.6444982714137	1.9649992	1.4017843
23.66240514743549	1.9783111	1.4065244
23.68031260965263	1.9242284	1.3871657
23.698220658560068	1.9275954	1.3883787
23.716129294652845	1.9483535	1.3958343
23.7340385184262	1.9559424	1.3985502
23.75194833037546	1.9204568	1.3858055
23.769858730996123	1.8948662	1.3765414
23.78776972078382	1.906546	1.3807774
23.80568130023431	1.923858	1.3870322
23.823593469843495	1.9420042	1.3935581
23.841506230107424	1.8948526	1.3765365
23.859419581522275	1.8757664	1.3695862
23.87733352458438	1.8808624	1.3714453
23.89524805979019	1.901284	1.3788705
23.913163187636318	1.9111124	1.38243
23.931078908619508	1.9161355	1.3842455
23.948995223236633	1.9446207	1.3944966
23.966912131984735	1.9905518	1.4108691
23.98482963536096	2.0385563	1.4277803
24.002747733862616	2.0426397	1.4292095
24.020666427987155	2.033945	1.4261645
24.038585718232156	2.006865	1.4166386
24.056505605095353	2.0032904	1.4153764
24.074426089074617	2.0623877	1.4361016
24.092347170667946	2.0553775	1.4336587
24.110268850373515	2.0579414	1.4345527
24.128191128689586	2.0373607	1.4273615
24.146114006114626	2.0367618	1.4271517
24.164037483147187	2.0425541	1.4291795
24.181961560286005	2.041298	1.42874
24.199886238029926	2.0823846	1.4430469
24.21781151687797	2.0935655	1.4469159
24.235737397329274	2.0746849	1.4403766
24.253663879883135	2.0229907	1.4223188
24.271590965038975	2.0179138	1.420533
24.289518653296376	1.9984677	1.4136717
24.30744694515505	1.9984517	1.413666
24.32537584111486	1.9452763	1.3947316
24.34330534167581	1.9564079	1.3987166
24.361235447338046	1.9736984	1.4048837
24.379166158601876	1.9999608	1.4141997
24.39709747596772	2.0264537	1.4235357
24.41502939993615	2.001445	1.4147243
24.432961931007917	1.9796617	1.4070045
24.450895069683856	1.9587592	1.3995568
24.468828816465	1.9634961	1.4012481
24.4867631718525	1.9764407	1.4058594
24.504698136347656	2.0062761	1.4164308
24.52263371045192	1.9930944	1.41177
24.540569894666874	1.9691542	1.4032656
24.558506689494266	1.9657921	1.4020671
24.57644409543597	2.017397	1.420351
24.594382112994012	2.0415854	1.4288406
24.61232074267057	2.0200536	1.4212859
24.630259984967953	1.9579078	1.3992525
24.64819984038863	1.9561119	1.3986107
24.66614030943522	1.928227	1.3886061
24.684081392610462	1.9220662	1.386386
24.702023090417274	1.914708	1.3837297
24.7199654033587	1.983673	1.4084293
24.737908331937927	2.0288892	1.4243908
24.755851876658305	2.0586848	1.4348118
24.773796038023324	2.0515397	1.4323196
24.79174081653661	2.0458927	1.4303471
24.809686212701962	2.0800712	1.4422452
24.827632227023294	2.107601	1.4517579
24.8455788600047	2.0803053	1.4423263
24.8635261121504	2.0553937	1.4336644
24.88147398396475	2.0691166	1.4384425
24.899422475952303	2.0825045	1.4430885
24.917371588617698	2.1330166	1.4604851
24.935321322465768	2.1976366	1.4824427
24.953271678001478	2.292077	1.5139607
24.97122265572994	2.4996495	1.581028
24.989174256156414	2.8113546	1.6767094
25.00712647978632	3.2475033	1.802083
25.02507932712521	3.7638304	1.9400594
25.043032798678798	4.29356	2.0720906
25.060986894952933	4.9649243	2.228211
25.078941616453637	5.68927	2.385219
25.096896963687055	6.6202226	2.5729792
25.114852937159508	7.7853622	2.7902262
25.132809537377444	8.191657	2.862107
25.150766764847468	8.182371	2.8604844
25.168724620076347	7.593966	2.7557151
25.186683103570985	6.649614	2.5786846
25.204642215838426	5.5504613	2.3559418
25.222601957385894	4.137436	2.0340688
25.24056232872074	3.1783023	1.7827793
25.25852333035048	2.6478157	1.627211
25.276484962782778	2.303181	1.5176234
25.294447226525435	2.0987446	1.4487045
25.312410122086423	1.9934378	1.4118916
25.330373649973843	1.9449191	1.3946036
25.348337810695988	1.9563544	1.3986974
25.366302604761245	1.9958292	1.4127382
25.384268032678207	1.9814327	1.4076337
25.40223409495558	1.9433709	1.3940485
25.420200792102257	1.9161797	1.3842614
25.438168124627246	1.899249	1.3781325
25.45613609303974	1.9376398	1.3919914
25.474104697849057	1.988994	1.410317
25.492073939564698	2.002373	1.4150523
25.510043818696285	1.9742011	1.4050627
25.528014335753614	1.9337956	1.3906097
25.54598549124664	1.9414595	1.3933626
25.56395728568544	1.931038	1.3896179
25.58192971958028	1.900499	1.3785858
25.59990279344156	1.8686241	1.3669763
25.617876507779833	1.9076031	1.38116
25.635850863105826	1.9285762	1.3887318
25.653825859930386	1.9622438	1.4008012
25.671801498764548	1.9693828	1.403347
25.68977778011949	1.9118372	1.382692
25.707754704506524	1.8648312	1.3655882
25.725732272437153	1.8627244	1.3648167
25.743710484423012	1.8785701	1.3706094
25.761689340975888	1.8535315	1.3614446
25.77966884260774	1.7846702	1.3359154
25.797648989830662	1.7520871	1.3236643
25.815629783156922	1.7817472	1.334821
25.83361122309895	1.8345087	1.3544403
25.85159331016929	1.8526121	1.361107
25.869576044880695	1.8019512	1.3423678
25.887559427746034	1.7686808	1.3299176
25.90554345927836	1.8417964	1.357128
25.92352813999086	1.8509636	1.3605012
25.94151347039689	1.8499494	1.3601284
25.959499451009965	1.8682307	1.3668324
25.97748608234374	1.8334014	1.3540316
25.995473364912062	1.7959483	1.34013
26.013461299228904	1.7689245	1.3300092
26.03144988580839	1.8000212	1.3416487
26.04943912516483	1.8043706	1.3432686
26.067429017812675	1.8240125	1.3505601
26.085419564266537	1.8399551	1.3564495
26.103410765041186	1.8434237	1.3577274
26.12140262065155	1.8496873	1.3600321
26.139395131612723	1.8609445	1.3641644
26.157388298439948	1.8902042	1.3748469
26.17538212164861	1.9189923	1.3852769
26.193376601754295	1.8916768	1.3753824
26.211371739272714	1.8705614	1.3676847
26.229367534719746	1.8524894	1.3610618
26.247363988611433	1.8400465	1.3564831
26.26536110146397	1.8023177	1.3425043
26.283358873793727	1.7749205	1.3322614
26.301357306117204	1.7580992	1.3259333
26.319356398951104	1.7966279	1.3403835
26.33735615281224	1.8318242	1.353449
26.35535656821762	1.8420484	1.3572209
26.373357645684404	1.7984422	1.3410602
26.39135938572991	1.7808616	1.3344892
26.409361788871614	1.768256	1.3297578
26.427364855627165	1.7922802	1.3387607
26.445368586514352	1.8186765	1.3485831
26.46337298205115	1.797623	1.3407546
26.48137804275568	1.8001333	1.3416905
26.499383769146217	1.8211532	1.3495011
26.517390161741215	1.8650755	1.3656777
26.53539722105928	1.8639997	1.3652837
26.553404947619182	1.88177	1.3717762
26.571413341939856	1.905139	1.3802677
26.589422404540397	1.8688617	1.3670632
26.60743213594006	1.8121674	1.3461677
26.62544253665827	1.7925203	1.3388504
26.64345360721459	1.7792099	1.3338703
26.66146534812879	1.7975485	1.3407269
26.679477759920758	1.8536496	1.361488
26.69749084311057	1.8733732	1.3687122
26.71550459821847	1.8607005	1.364075
26.733519025764842	1.8103856	1.3455057
26.751534126270258	1.7814789	1.3347205
26.769549900255434	1.790235	1.3379966
26.787566348241267	1.8232164	1.3502653
26.80558347074881	1.834619	1.3544811
26.823601268299267	1.839372	1.3562346
26.841619741414036	1.7742532	1.332011
26.85963889061465	1.7562809	1.3252475
26.877658716422832	1.7717654	1.3310767
26.89567921936045	1.7999938	1.3416384
26.913700399949544	1.7893797	1.337677
26.93172225871233	1.8380533	1.3557483
26.949744796171174	1.8793715	1.3709017
26.967768012848605	1.9100237	1.3820361
26.98579190926733	1.8847237	1.3728523
27.003816485950225	1.8594612	1.3636206
27.021841743420318	1.825892	1.3512557
27.039867682200814	1.807159	1.3443061
27.057894302815072	1.8318559	1.3534607
27.07592160578664	1.8395721	1.3563082
27.0939495916392	1.8651592	1.3657084
27.111978260896635	1.8245016	1.3507411
27.13000761408296	1.8222518	1.3499081
27.148037651722397	1.8315351	1.3533422
27.166068374339304	1.8363453	1.3551182
27.184099782458215	1.8113766	1.345874
27.20213187660384	1.8303226	1.3528942
27.22016465730105	1.8221576	1.3498732
27.23819812507487	1.8152527	1.3473132
27.256232280450533	1.8343209	1.3543711
27.274267123953383	1.8990947	1.3780764
27.292302656108987	1.8772514	1.3701283
27.31033887744306	1.8195449	1.3489051
27.32837578848146	1.8083049	1.3447323
27.34641338975026	1.8519526	1.3608646
27.364451681775673	1.8482367	1.3594987
27.382490665084074	1.8319019	1.3534777
27.400530340202046	1.8078955	1.34458
27.41857070765629	1.7691083	1.3300784
27.436611767973726	1.7504743	1.3230549
27.454653521681404	1.7189581	1.3110905
27.472695969306564	1.7528237	1.3239425
27.490739111376627	1.8060279	1.3438854
27.508782948419153	1.8042496	1.3432236
27.526827480961902	1.8031658	1.34282
27.54487270953279	1.8218747	1.3497684
27.562918634659898	1.8843724	1.3727244
27.580965256871508	1.8957771	1.3768722
27.599012576696026	1.8713579	1.3679758
27.617060594662068	1.8039336	1.3431059
27.63510931129842	1.7799872	1.3341616
27.65315872713401	1.7967	1.3404104
27.67120884269797	1.8627775	1.3648361
27.68925965851958	1.870348	1.3676066
27.707311175128307	1.8409908	1.3568312
27.725363393053787	1.8457361	1.3585787
27.74341631282583	1.8657793	1.3659353
27.7614699349744	1.8456211	1.3585364
27.77952426002968	2.0247529	1.4229381
27.797579288521973	2.1120913	1.4533036
27.815635020981784	2.5467927	1.5958674
27.83369145793979	2.5731306	1.6040981
27.85174859992682	2.3561041	1.5349606
27.869806447473923	2.2549362	1.5016445
27.887865001112267	2.0139318	1.4191307
27.905924261373233	1.942454	1.3937194
27.92398422878836	1.8527815	1.3611692
27.94204490388936	1.8642141	1.3653623
27.96010628720813	1.9068877	1.380901
27.978168379276728	1.9219999	1.3863621
27.9962311806274	1.8875391	1.3738774
28.014294691792568	1.8709866	1.3678402
28.0323589133048	1.8699863	1.3674744
28.050423845696887	1.8633213	1.3650353
28.068489489501758	1.8703357	1.3676022
28.086555845252523	1.8567333	1.36262
28.104622913482487	1.835122	1.3546667
28.122690694725115	1.8284644	1.3522072
28.14075918951405	1.8753064	1.3694183
28.15882839838312	1.8820767	1.371888
28.176898321866304	1.8991187	1.3780851
28.1949689604978	1.8995107	1.3782274
28.213040314811945	1.8529669	1.3612373
28.23111238534327	1.8628216	1.3648522
28.249185172626493	1.8852028	1.3730268
28.267258677196473	1.8957946	1.3768786
28.285332899588294	1.9129822	1.383106
28.303407840337172	1.9857569	1.4091688
28.321483499978545	1.915397	1.3839787
28.33955987904799	1.8859596	1.3733025
28.357636978081285	1.8652066	1.3657256
28.37571479761439	1.8662452	1.3661058
28.393793338183425	1.874767	1.3692213
28.41187260032469	1.9319202	1.3899353
28.429952584574686	1.9532235	1.3975778
28.448033291470065	1.9422622	1.3936507
28.46611472154769	1.8996806	1.378289
28.484196875344566	1.9352764	1.3911421
28.502279753397914	1.9482116	1.3957835
28.52036335624511	1.9236944	1.3869731
28.538447684423716	1.9501466	1.3964765
28.556532738471482	2.029418	1.4245764
28.574618518926325	2.043677	1.4295723
28.59270502632635	2.0323792	1.4256153
28.61079226120985	2.0132453	1.4188888
28.628880224115274	2.0275607	1.4239244
28.646968915581287	2.0386815	1.427824
28.66505833614671	2.0274708	1.4238929
28.68314848635055	2.0298562	1.4247302
28.701239366732004	2.075305	1.4405919
28.71933097783044	2.0375693	1.4274346
28.737423320185403	2.0474901	1.4309053
28.75551639433665	2.09435	1.447187
28.773610200824074	2.1063871	1.4513397
28.791704740187793	2.1058633	1.4511594
28.80980001296809	2.10048	1.4493033
28.827896019705413	2.1379805	1.4621835
28.845992760940433	2.1662757	1.4718274
28.86409023721397	2.1372192	1.4619231
28.88218844906704	2.1841574	1.4778895
28.900287397040845	2.2003093	1.483344
28.918387081676755	2.2002003	1.4833072
28.936487503516343	2.2274644	1.4924692
28.954588663101365	2.2405229	1.4968376
28.97269056097374	2.280022	1.5099741
28.990793197675597	2.3014295	1.5170463
29.00889657374923	2.3032243	1.5176377
29.027000689737125	2.2808368	1.510244
29.04510554618196	2.3256104	1.5249952
29.06321114362659	2.4084404	1.551915
29.08131748261405	2.4708834	1.5719044
29.099424563687567	2.470432	1.5717608
29.11753238739057	2.5175235	1.5866706
29.13564095426663	2.620607	1.6188289
29.15375026485954	2.622952	1.619553
29.171860319713275	2.6090949	1.6152693
29.18997111937199	2.6682303	1.6334718
29.20808266438002	2.7361968	1.6541454
29.226194955281898	2.7353206	1.6538805
29.244307992622335	2.7167592	1.6482594
29.26242177694624	2.7737517	1.6654584
29.2805363087987	2.8047962	1.6747526
29.29865158872498	2.8277757	1.6815991
29.316767617270557	2.891008	1.7002964
29.334884394981064	2.9576297	1.719776
29.353001922402367	3.0276628	1.740018
29.37112020008047	3.1009977	1.760965
29.389239228561596	3.168899	1.7801402
29.407359008392152	3.3019152	1.8171172
29.42547954011872	3.5956392	1.8962171
29.44360082428809	4.2336035	2.0575721
29.46172286144722	5.32585	2.3077803
29.479845652143283	6.9138594	2.629422
29.497969196923606	8.9307	2.9884276
29.516093496335728	11.323072	3.3649774
29.5342185509274	14.277633	3.7785754
29.55234436124651	16.644796	4.0798035
29.570470927841175	17.853521	4.2253428
29.588598251259686	17.599962	4.195231
29.60672633205055	16.274755	4.0341983
29.624855170762405	14.1547985	3.7622864
29.642984767944146	11.4106245	3.3779616
29.66111512414481	8.802666	2.9669287
29.67924623991366	6.53813	2.5569768
29.697378115800138	5.0303526	2.2428448
29.71551075235387	4.1397057	2.0346267
29.733644150124675	3.7038085	1.9245281
29.751778309662576	3.4871006	1.867378
29.769913231517766	3.4572623	1.8593714
29.78804891624066	3.3975153	1.843235
29.806185364381818	3.3339703	1.8259163
29.82432257649206	3.3086474	1.8189688
29.842460553122333	3.3022923	1.817221
29.86059929482382	3.320186	1.8221377
29.878738802147872	3.3318906	1.8253467
29.896879075646048	3.2814107	1.8114665
29.915020115870114	3.2491693	1.8025452
29.933161923371976	3.2797384	1.8110048
29.951304498703777	3.2889361	1.8135425
29.969447842417857	3.249828	1.8027279
29.987591955066733	3.2457566	1.8015983
30.005736837203123	3.2153056	1.7931273
30.023882489379943	3.1690264	1.7801759
30.04202891215028	3.158789	1.7772982
30.060176106067455	3.1345878	1.7704767
30.078324071684946	3.0886173	1.7574463
30.09647280955646	3.0646422	1.7506119
30.114622320235863	3.0424855	1.7442722
30.132772604277257	3.0590248	1.7490067
30.1509236622349	3.0890443	1.7575678
30.16907549466328	3.0901558	1.7578839
30.18722810211705	3.0360026	1.7424129
30.205381485151097	3.0127423	1.7357253
30.22353564432045	3.0027797	1.732853
30.241690580180403	3.0422432	1.7442027
30.25984629328638	3.0086777	1.734554
30.278002784194037	3.0317228	1.7411844
30.296160053459246	3.027511	1.7399744
30.314318101638033	2.9873888	1.7284064
30.332476929286646	2.932273	1.712388
30.35063653696153	2.8645477	1.6924975
30.368796925219307	2.8610578	1.6914662
30.386958094616844	2.8510666	1.6885102
30.40512004571115	2.8535142	1.6892349
30.423282779059463	2.844297	1.6865044
30.441446295219233	2.863964	1.692325
30.459610594748067	2.8359528	1.6840287
30.47777567820382	2.7994738	1.6731628
30.495941546144504	2.777757	1.6666604
30.51410819912835	2.8004742	1.6734617
30.532275637713795	2.7887743	1.6699624
30.55044386245946	2.7985547	1.6728882
30.56861287392416	2.8424003	1.6859419
30.586782672666956	2.8459978	1.6870085
30.604953259247047	2.843834	1.686367
30.623124634223885	2.8183115	1.6787827
30.641296798157075	2.7188163	1.6488833
30.659469751606462	2.6610806	1.6312819
30.677643495132074	2.7380574	1.6547077
30.695818029294152	2.7121286	1.6468542
30.713993354653116	2.691704	1.6406413
30.73216947176962	2.6816308	1.6375686
30.75034638120448	2.6460297	1.6266621
30.768524083518756	2.6646419	1.6323731
30.786702579273673	2.7696939	1.6642398
30.80488186903069	2.774161	1.6655813
30.82306195335144	2.8708305	1.6943525
30.841242832797782	3.0650952	1.7507414
30.85942450793176	3.3581066	1.8325137
30.877606979315637	3.7660575	1.9406333
30.895790247511883	4.167778	2.0415137
30.913974313083134	4.602439	2.1453295
30.932159176592283	4.9046354	2.214641
30.95034483860237	4.942897	2.2232625
30.968531299676698	4.6216226	2.149796
30.98671856037873	4.264676	2.0651093
31.00490662127215	3.8599367	1.9646722
31.023095482920848	3.4270034	1.8512167
31.04128514588892	3.043673	1.7446126
31.059475610740662	2.7479823	1.6577039
31.07766687804056	2.6061697	1.6143636
31.09585894835335	2.504849	1.5826714
31.11405182224393	2.4990685	1.5808443
31.132245500277417	2.4958687	1.5798318
31.15043998301914	2.4087517	1.5520154
31.168635271034628	2.3378372	1.5289987
31.18683136488964	2.3724086	1.5402625
31.20502826515008	2.3710217	1.5398122
31.223225972382135	2.373912	1.5407505
31.241424487152155	2.3770876	1.5417807
31.259623810026692	2.4208229	1.5558994
31.27782394157253	2.4518476	1.5658376
31.296024882356644	2.4539225	1.5665001
31.314226632946237	2.429701	1.5587498
31.332429193908684	2.4105015	1.5525789
31.350632565811598	2.4624376	1.5692157
31.368836749222787	2.5469565	1.5959187
31.387041744710295	2.5581179	1.5994117
31.40524755284232	2.5537117	1.5980337
31.423454174187317	2.5150442	1.5858891
31.441661609313922	2.4455314	1.5638195
31.459869858791002	2.3648179	1.5377964
31.478078923187628	2.3291118	1.5261428
31.496288803073064	2.3384311	1.5291929
31.514499499016807	2.331627	1.5269666
31.532711011588546	2.3374555	1.5288739
31.550923341358178	2.3371673	1.5287796
31.56913648889584	2.311949	1.5205095
31.587350454771844	2.2934718	1.5144212
31.605565239556732	2.2896452	1.5131574
31.62378084382127	2.2992141	1.5163159
31.641997268136382	2.2548394	1.5016123
31.660214513073274	2.237724	1.4959024
31.67843257920331	2.2491252	1.4997084
31.6966514670981	2.2590494	1.5030135
31.71487117732944	2.2913888	1.5137334
31.733091710469346	2.3455229	1.53151
31.751313067090052	2.3379314	1.5290296
31.769535247764008	2.3756962	1.5413294
31.787758253063878	2.3726625	1.540345
31.805982083562526	2.3732204	1.540526
31.824206739833024	2.3421533	1.5304096
31.84243222244869	2.3600743	1.5362533
31.860658531983013	2.308038	1.5192229
31.878885669009737	2.2411318	1.497041
31.897113634102784	2.2686265	1.506196
31.91534242783632	2.2967048	1.5154883
31.933572050784694	2.2267609	1.4922335
31.951802503522508	2.2601223	1.5033703
31.970033786624548	2.2789028	1.5096035
31.988265900665834	2.2148952	1.4882524
32.006498846221575	2.116974	1.4549825
32.02473262386724	2.1649244	1.4713682
32.04296723417845	2.155377	1.4681202
32.0612026777311	2.1225352	1.4568924
32.07943895510129	2.0231102	1.4223608
32.097676066865304	1.9956396	1.4126711
32.115914013599685	2.1152294	1.4543828
32.13415279588115	2.238206	1.4960635
32.152392414286666	2.2156997	1.4885226
32.1706328693934	2.1414852	1.4633814
32.18887416177875	2.107221	1.451627
32.20711629202032	2.0864625	1.4444592
32.225359260695924	2.0942297	1.4471453
32.243603068383614	2.079789	1.4421474
32.26184771566166	2.1608846	1.4699948
32.28009320310852	2.159283	1.4694499
32.2983395313029	2.1164467	1.4548013
32.31658670082372	2.0795207	1.4420544
32.33483471225012	2.1082084	1.4519671
32.35308356616143	2.1294904	1.4592774
32.371333263137245	2.0470471	1.4307506
32.38958380375734	2.0813797	1.4426987
32.407835188601744	2.1833637	1.477621
32.42608741825067	2.2232788	1.4910663
32.444340493284585	2.144085	1.4642694
32.46259441428416	2.0844545	1.443764
32.48084918183028	2.114817	1.454241
32.49910479650405	2.1055236	1.4510423
32.51736125888683	2.093906	1.4470335
32.53561856956014	2.058868	1.4348756
32.5538767291058	2.0708895	1.4390585
32.572135738105764	2.066495	1.4375309
32.59039559714228	2.0202167	1.4213433
32.608656306797776	1.9298376	1.3891859
32.62691786765491	1.9744099	1.405137
32.645180280296586	1.9848294	1.4088397
32.663443545305896	1.9979705	1.4134958
32.68170766326619	2.0344715	1.426349
32.69997263476099	2.0154703	1.4196726
32.7182384603741	1.904386	1.379995
32.7365051406895	1.8803699	1.3712658
32.75477267629144	1.9786416	1.406642
32.77304106776434	2.0599005	1.4352354
32.79131031569289	2.027483	1.4238971
32.809580420661966	1.985426	1.4090514
32.827851383256714	1.9713297	1.4040405
32.84612320406245	2.0426056	1.4291975
32.86439588366476	2.0877914	1.4449192
32.88266942264945	2.051036	1.4321438
32.9009438216025	2.0558553	1.4338254
32.9192190811102	2.0065541	1.4165289
32.937495201758985	1.9620639	1.4007369
32.95577218413556	1.9434035	1.39406
32.974050028826866	2.0131528	1.4188561
32.992328736420035	2.091415	1.4461725
33.010608307502444	2.0735254	1.4399741
33.02888874266169	2.0205626	1.4214649
33.047170042485604	1.9876208	1.4098301
33.06545220756225	2.0391648	1.4279933
33.083735238479896	2.0699496	1.4387319
33.10201913582707	2.0175545	1.4204065
33.12030390019248	1.9535035	1.3976779
33.138589532165135	1.9262387	1.38789
33.15687603233419	1.942657	1.3937923
33.17516340128909	1.9208968	1.3859642
33.19345163961947	1.9792637	1.4068631
33.211740747915215	1.994044	1.4121062
33.23003072676643	1.9687077	1.4031065
33.248321576763466	1.8430927	1.3576055
33.266613298496885	1.8123534	1.3462367
33.28490589255747	1.881234	1.3715808
33.30319935953626	2.0043511	1.4157511
33.32149370002451	2.002476	1.4150887
33.339788914613706	1.9689467	1.4031916
33.358085003895575	2.0167348	1.4201179
33.376381968462034	2.0179546	1.4205472
33.39467980890529	1.9745942	1.4052025
33.41297852581774	1.949055	1.3960856
33.43127811979204	1.9571873	1.3989952
33.44957859142105	1.9647639	1.4017004
33.467879941297866	1.9258726	1.3877581
33.486182170015844	1.9846814	1.4087873
33.50448527816853	2.0098534	1.417693
33.522789266349754	1.9494532	1.3962282
33.541094135153514	1.9966607	1.4130324
33.55939988517411	1.996655	1.4130304
33.57770651700602	1.9317449	1.3898723
33.59601403124398	1.86147	1.364357
33.61432242848296	1.8788836	1.3707237
33.632631709318154	1.9368407	1.3917042
33.650941874344994	1.9116462	1.382623
33.66925292415916	1.9871435	1.4096608
33.68756485935654	2.0221105	1.4220093
33.70587768053328	2.0360203	1.4268918
33.724191388285746	2.0073996	1.4168273
33.74250598321054	2.0398343	1.4282277
33.760821465904506	1.965533	1.4019747
33.77913783696474	1.8988194	1.3779765
33.79745509698852	1.9262751	1.3879031
33.815773246573414	1.9238089	1.3870144
33.8340922863172	1.9180162	1.3849247
33.852412216817896	1.9708942	1.4038854
33.87073303867377	2.00121	1.4146413
33.889054752483304	2.0115943	1.4183068
33.907377358845245	2.0895214	1.4455177
33.92570085835853	2.0614583	1.4357779
33.94402525162239	2.0115316	1.4182848
33.96235053923627	1.9996858	1.4141024
33.980676721799824	1.9004982	1.3785856
33.999003799912984	1.7908157	1.3382137
34.01733177417592	1.8165969	1.3478119
34.03566064518901	1.900011	1.3784088
34.0539904135529	1.8599412	1.3637966
34.07232107986846	1.9628309	1.4010106
34.090652644736785	2.115676	1.4545363
34.108985108759235	2.182106	1.4771953
34.12731847253742	1.9830931	1.4082234
34.14565273667313	1.7979108	1.3408619
34.16398790176847	1.7373703	1.3180934
34.18232396842574	1.7935125	1.3392209
34.20066093724749	1.8540112	1.3616208
34.21899880883651	1.9395192	1.3926662
34.23733758379583	2.1306615	1.4596785
34.25567726272874	2.127679	1.4586567
34.27401784623872	1.9332467	1.3904124
34.29235933492957	1.9273107	1.3882762
34.31070172940526	2.063722	1.436566
34.32904503027003	1.9780921	1.4064466
34.347389238128386	1.9355916	1.3912554
34.36573435358502	2.0222905	1.4220726
34.38408037724492	2.1050918	1.4508934
34.402427309713296	2.034458	1.4263443
34.42077515159559	1.9511746	1.3968445
34.43912390349752	1.9125999	1.3829678
34.45747356602499	1.9535244	1.3976854
34.47582413978423	1.9905585	1.4108715
34.49417562538163	2.0538712	1.4331334
34.51252802342388	2.0385156	1.427766
34.53088133451789	1.9871572	1.4096656
34.54923555927084	1.9346542	1.3909185
34.567590698290104	1.9584655	1.3994519
34.58594675218336	2.020471	1.4214327
34.6043037215585	2.0007622	1.4144831
34.62266160702365	2.0010564	1.414587
34.641020409187234	2.0346553	1.4264134
34.65938012865785	1.9544197	1.3980056
34.677740766044394	1.7290508	1.3149338
34.69610232195598	1.7148224	1.3095123
34.714464797002016	1.8618243	1.3644868
34.73282819179208	2.0206518	1.4214963
34.751192506936064	1.9262468	1.387893
34.76955774304408	1.8189697	1.3486918
34.7879239007265	1.8249879	1.3509212
34.80629098059391	2.0138435	1.4190996
34.824658983257194	2.0824344	1.4430642
34.843027909327446	1.9297897	1.3891687
34.86139775941603	1.9405124	1.3930228
34.879768534134534	2.0932066	1.4467919
34.89814023409483	2.02215	1.4220232
34.91651285990901	1.9950483	1.4124618
34.93488641218944	2.023426	1.4224718
34.95326089154871	1.9986162	1.4137242
34.97163629859967	1.9060807	1.3806088
34.99001263395542	1.8363987	1.355138
35.00838989822934	1.9513884	1.396921
35.02676809203499	2.0690181	1.4384081
35.04514721598624	2.0420537	1.4290044
35.063527270697215	2.0520651	1.4325031
35.081908256782256	2.042904	1.4293019
35.10029017485597	2.0364122	1.4270291
35.11867302553321	2.356223	1.5349994
35.137056809429104	2.3648326	1.5378013
35.155441527159006	2.0346966	1.426428
35.173827179338524	1.9310505	1.3896224
35.19221376658354	1.9167806	1.3844784
35.21060128951017	1.7450353	1.3209978
35.2289897487348	1.8104355	1.3455243
35.24737914487405	2.2519636	1.5006543
35.26576947854479	2.3921242	1.5466493
35.28416075036418	2.206256	1.485347
35.30255296094958	2.1228948	1.4570158
35.32094611091867	2.2938468	1.5145451
35.33934020088932	2.1602266	1.4697709
35.35773523147969	1.7790831	1.3338227
35.3761312033082	1.4050224	1.1853364
35.394528116993506	1.452832	1.2053348
35.41292597315452	1.7049885	1.305752
35.431324772410434	2.398398	1.5486761
35.449724515380666	2.7259593	1.651048
35.46812520268491	2.4927936	1.5788583
35.486526834943106	2.1589286	1.4693294
35.504929412775454	2.2235641	1.4911621
35.52333293680242	2.1548424	1.4679382
35.54173740764471	1.9719442	1.4042593
35.560142825923286	2.1795015	1.4763135
35.5785491922594	2.0250561	1.4230447
35.59695650727454	1.3134139	1.1460427
35.61536477159042	0.6149216	0.7841694
