0.008763373481513119	0.56609195	0.7523908
0.026290120649546365	0.18888974	0.43461448
0.043816868432600686	0.14562035	0.38160235
0.06134361724069026	0.1718286	0.41452214
0.07887036748382949	0.19520685	0.4418222
0.0963971195720331	0.24881202	0.49881062
0.11392387391531617	0.197729	0.4446673
0.1314506309236943	0.20677602	0.4547263
0.1489773910071836	0.12497581	0.35351917
0.16650415457580078	0.17257972	0.41542715
0.18403092203956356	0.20636216	0.45427102
0.20155769380849	0.19394736	0.44039455
0.2190844702925996	0.1553129	0.39409757
0.2366112519019124	0.17458075	0.41782862
0.2541380390464497	0.1304871	0.36123
0.27166483213623416	0.17211454	0.4148669
0.28919163158128947	0.17548256	0.4189064
0.3067184377916406	0.15347624	0.39176044
0.324245251177314	0.17978346	0.4240088
0.34177207214833777	0.22137299	0.4705029
0.3592989011147415	0.23254183	0.48222592
0.37682573848655654	0.21948871	0.46849623
0.39435258467381573	0.16802345	0.40990663
0.41187944008655414	0.14625846	0.38243753
0.42940630513480854	0.16019179	0.40023968
0.446933180228618	0.1348396	0.3672051
0.4644600657780234	0.15327695	0.39150602
0.48198696219306775	0.146145	0.38228917
0.49951386988379676	0.116125986	0.34077263
0.5170407892602581	0.11558702	0.3399809
0.5345677207325025	0.12895116	0.35909772
0.5520946647105822	0.17099425	0.41351452
0.5696216216045534	0.15701774	0.39625463
0.5871485918244737	0.16061567	0.40076885
0.6046755757804043	0.15962748	0.39953408
0.6222025738824094	0.1564357	0.39551952
0.6397295865405557	0.17573936	0.4192128
0.6572566141649129	0.1545853	0.39317337
0.6747836571655547	0.15740305	0.39674053
0.6923107159525568	0.1773319	0.42110795
0.7098377909359992	0.19914402	0.44625556
0.7273648825259653	0.23402023	0.48375636
0.7448919911325411	0.23125806	0.480893
0.762419117165817	0.24080266	0.4907165
0.7799462610358868	0.1852981	0.43046266
0.7974734231528482	0.2180563	0.466965
0.8150006039268024	0.21909845	0.46807954
0.8325278037678551	0.23422189	0.48396477
0.8500550230861152	0.25262198	0.50261515
0.8675822622916969	0.21553822	0.46426094
0.8851095217947171	0.22907254	0.47861522
0.9026368020052984	0.214974	0.46365288
0.9201641033335665	0.24533498	0.49531302
0.9376914261896523	0.24177909	0.49171036
0.9552187709836915	0.24147063	0.4913966
0.9727461381258234	0.24213423	0.49207136
0.990273528026193	0.2256989	0.47507778
1.0078009410949496	0.24503097	0.49500602
1.0253283777422473	0.28430733	0.5332048
1.0428558383782454	0.25270784	0.50270057
1.0603833234131086	0.22567177	0.47504923
1.0779108332570058	0.23701628	0.48684317
1.0954383683201119	0.2845465	0.53342897
1.112965929012607	0.3561795	0.5968078
1.1304935157446763	0.4615615	0.67938316
1.1480211289265108	0.47983637	0.69270223
1.1655487689683062	1.2982033	1.1393872
1.1830764362802655	1.6287019	1.276206
1.200604131272596	2.0520573	1.4325004
1.2181318543555117	2.3192198	1.5228986
1.235659605939232	2.337564	1.5289094
1.253187386433982	3.9937778	1.9984438
1.270715196249994	6.6966195	2.5877826
1.2882430357975057	12.14937	3.4855947
1.3057709054867608	16.732412	4.090527
1.3232988057280106	22.341875	4.7267194
1.3408267369315112	27.21245	5.2165556
1.358354699507526	31.117952	5.5783467
1.3758826938663256	35.124523	5.9265947
1.3934107204181858	37.01454	6.0839577
1.410938779573391	37.484386	6.1224494
1.4284668717422309	37.864887	6.1534452
1.4459949973350033	37.346554	6.1111827
1.4635231567620117	37.12087	6.09269
1.4810513504335687	36.55111	6.0457516
1.4985795787599925	35.89627	5.9913497
1.5161078421516088	35.923813	5.9936476
1.5336361410187505	35.31307	5.94248
1.5511644757717598	35.240803	5.9363966
1.5686928468209842	35.6024	5.966775
1.58622125457678	36.032707	6.002725
1.6037496994495108	37.254482	6.103645
1.621278181849548	37.171326	6.096829
1.6388067021872719	37.81511	6.1493993
1.6563352608730693	37.654354	6.1363144
1.673863858317336	36.76173	6.063145
1.6913924949304753	35.85918	5.9882536
1.7089211711228998	34.739902	5.8940563
1.7264498873050296	33.83091	5.8164344
1.7439786438872935	32.951614	5.74035
1.7615074412801288	32.01625	5.6582904
1.779036279893981	31.458048	5.6087475
1.796565160139305	30.690525	5.539903
1.814094082426564	29.882368	5.466477
1.8316230471662298	29.147112	5.3988066
1.849152054768784	28.12909	5.3036866
1.8666811056447168	27.658655	5.2591496
1.8842102002045273	26.588955	5.156448
1.901739338858724	26.058842	5.104786
1.9192685220178245	25.508282	5.0505724
1.9367977500923557	24.956123	4.99561
1.9543270234928547	24.80539	4.9805007
1.971856342629867	24.35428	4.9350057
1.9893857079139496	23.746656	4.873054
2.006915119755667	23.201517	4.8167953
2.0244445785655945	22.392458	4.732067
2.0419740847543175	22.03177	4.6938014
2.0595036387324317	21.74977	4.663665
2.0770332409105414	21.313595	4.616665
2.094562891699263	21.094658	4.592892
2.1120925915092217	20.593739	4.5380325
2.129622340751053	19.933588	4.4647045
2.1471521398354043	187.98871	13.710897
2.1646819891729323	443.97888	21.070807
2.182211889174303	440.3685	20.984959
2.1997418402501974	453.00946	21.28402
2.2172718428113023	432.975	20.808052
2.234801897268317	320.7902	17.910616
2.2523320040319548	17.046467	4.1287365
2.269862163512935	16.63934	4.0791345
2.287392376121992	16.413311	4.0513344
2.304922642269869	16.309992	4.0385633
2.322452962367322	16.274014	4.0341063
2.3399833368251164	15.856891	3.9820712
2.357513766054032	15.4531145	3.931045
2.3750442504648586	14.977643	3.870096
2.3925747904683963	14.699584	3.8340037
2.410105386475459	14.555715	3.8151953
2.4276360388968707	14.205753	3.769052
2.445166748143469	14.13133	3.759166
2.4626975146261025	13.733416	3.7058623
2.4802283387556323	13.559563	3.682331
2.4977592209429305	13.4815645	3.671725
2.5152901615988825	13.258112	3.641169
2.5328211611343865	13.305578	3.6476812
2.5503522199603523	12.961682	3.6002336
2.5678833384877024	12.667195	3.5591004
2.5854145171273712	12.201165	3.4930167
2.6029457562903064	11.852193	3.4427013
2.620477056387469	11.566862	3.401009
2.6380084178298326	11.49021	3.3897212
2.655539841028383	11.401795	3.3766544
2.673071326394119	11.372087	3.3722525
2.6906028743380523	11.344206	3.3681161
2.708134485271211	11.3167305	3.364035
2.7256661596046325	10.973272	3.312593
2.743197897749369	10.764626	3.2809489
2.760729700116486	10.504	3.2409875
2.778261567117063	10.394722	3.2240846
2.795793499162193	10.1701765	3.1890714
2.8133254966629817	9.963832	3.1565537
2.830857560030551	9.741826	3.1211898
2.8483896896760337	9.771968	3.1260147
2.865921886010578	9.670296	3.10971
2.883454149445347	9.620492	3.1016917
2.9009864803915177	9.422657	3.0696347
2.91851887926028	9.2558155	3.0423372
2.9360513464628384	9.234926	3.038902
2.953583882410413	9.065801	3.0109468
2.9711164875142373	8.854206	2.975602
2.9886491621855606	8.774175	2.9621234
3.0061819068356455	8.62262	2.9364297
3.023714721875769	8.617308	2.9355252
3.041247607717225	8.431607	2.903723
3.0587805647713213	8.239488	2.8704507
3.0763135934493806	8.06127	2.8392375
3.0938466941627407	8.046684	2.8366678
3.1113798673227544	8.0486145	2.837008
3.1289131133407904	8.095073	2.845184
3.1464464326282315	7.9610944	2.821541
3.1639798255964786	7.75347	2.7845054
3.1815132926569443	7.6051197	2.757738
3.1990468342210603	7.4640093	2.732034
3.216580450700272	7.4098396	2.7221022
3.2341141425060416	7.3771424	2.7160895
3.251647910049847	7.382978	2.7171636
3.2691817537431813	7.3161325	2.704835
3.286715673997555	7.2194386	2.6869013
3.3042496712244938	7.08248	2.6612928
3.32178374583554	7.028594	2.6511495
3.339317898242251	7.0135016	2.6483016
3.3568521288562034	6.974956	2.641014
3.3743864380889876	6.836666	2.614702
3.3919208263522127	6.720405	2.5923743
3.4094552940575023	6.6463585	2.5780532
3.4269898416164972	6.6740737	2.583423
3.444524469440858	6.612504	2.5714788
3.4620591779422587	6.5450172	2.5583231
3.479593967532391	6.4056616	2.5309408
3.4971288386229658	6.259152	2.5018296
3.5146637916257086	6.2114725	2.4922826
3.5321988269523628	6.235835	2.4971654
3.5497339450146903	6.239026	2.4978042
3.5672691462244708	6.278987	2.5057907
3.5848044309934988	6.283236	2.5066383
3.60233979973359	6.338759	2.5176892
3.619875252856575	6.3905106	2.527946
3.6374107907743034	6.4639373	2.5424275
3.6549464138986427	6.387386	2.5273278
3.6724821226414788	6.288019	2.5075922
3.690017917414714	6.1904902	2.4880695
3.7075537986302702	6.2606874	2.5021365
3.7250897667000857	6.4547596	2.540622
3.7426258220361235	6.629299	2.5747426
3.7601619650503553	6.948675	2.636034
3.777698196154779	7.442019	2.7280064
3.7952345157614067	8.569561	2.9273813
3.8127709242822716	9.479494	3.0788786
3.830307422129425	11.73949	3.4262938
3.847844009714936	30.47368	5.520297
3.8653806874508954	97.77259	9.888002
3.882917455749409	97.043846	9.851084
3.900454315022606	96.8019	9.838796
3.917991265682631	41.392483	6.433699
3.9355283081416506	10.97826	3.3133457
3.9530654428118495	8.744207	2.9570606
3.970602670105433	7.5477138	2.7473102
3.9881399904346244	6.5817885	2.5654998
4.005677404211669	6.4854608	2.5466568
4.023214911848827	6.440115	2.537738
4.0407525137583855	6.4352636	2.536782
4.058290210352644	6.442703	2.538248
4.075828002043927	6.402484	2.530313
4.0933658892445814	6.337889	2.5175164
4.110903872366966	6.3022485	2.510428
4.128441951823468	6.2288404	2.4957645
4.145980128026488	6.244038	2.4988074
4.163518401388452	6.235857	2.4971697
4.181056772321807	6.1920714	2.4883873
4.1985952412390155	6.150129	2.4799454
4.216133808552567	6.1838074	2.4867263
4.233672474674966	6.245654	2.4991307
4.251211240018741	6.3742933	2.5247364
4.268750104996445	6.660073	2.5807116
4.286289070020643	7.651905	2.7662077
4.303828135503928	9.434602	3.0715797
4.3213673018589125	29.84363	5.462932
4.3389065694982305	91.07281	9.543207
4.356445938834537	166.28052	12.89498
4.3739854102805085	171.59	13.0992365
4.391524984248844	172.4579	13.132322
4.409064661152262	136.5407	11.685063
4.426604441403504	97.00768	9.849248
4.444144325415337	76.071205	8.721881
4.461684313600543	22.132929	4.7045646
4.47922440637193	22.35687	4.7283053
4.496764604142329	20.623505	4.541311
4.5143049073245916	18.649445	4.3185
4.531845316331589	16.586533	4.0726566
4.5493858315762195	13.637035	3.6928356
4.566926453471405	11.32424	3.3651507
4.584467182430081	9.259713	3.0429776
4.602008018865218	8.106339	2.8471634
4.619548963189798	7.413353	2.7227473
4.637090015816834	7.0060406	2.6468925
4.654631177159353	6.8146663	2.6104915
4.672172447630417	6.6145554	2.5718777
4.689713827643102	6.4433007	2.5383658
4.7072553176105085	6.134329	2.4767578
4.724796917945764	5.945733	2.4383874
4.742338629062015	5.857842	2.4202979
4.759880451372434	5.8204155	2.4125538
4.777422385290215	5.7472777	2.3973482
4.794964431228581	5.63891	2.3746388
4.812506589600768	5.6039715	2.367271
4.830048860820047	5.563816	2.3587742
4.847591245299709	5.57738	2.3616478
4.8651337434530655	5.547846	2.3553865
4.882676355693457	5.5713954	2.3603804
4.900219082434242	5.6115155	2.3688638
4.917761924088813	5.6299696	2.3727558
4.935304881070575	5.5696373	2.360008
4.952847953792969	5.521942	2.3498814
4.970391142669449	5.4665465	2.3380647
4.9879344481135055	5.491557	2.3434072
5.005477870538642	5.481162	2.3411882
5.023021410358394	5.502265	2.3456907
5.040565067986324	5.505791	2.3464422
5.05810884383601	5.4743814	2.3397396
5.075652738321066	5.396014	2.3229322
5.09319675185512	5.373127	2.3180006
5.110740884851836	5.3999715	2.3237839
5.128285137724894	5.464243	2.337572
5.145829510888007	5.4623327	2.3371634
5.163374004754908	5.4955816	2.3442657
5.1809186197393595	5.4542704	2.335438
5.198463356255145	5.4005146	2.3239007
5.216008214716077	5.314628	2.3053477
5.233553195535998	5.248956	2.29106
5.251098299128764	5.3071775	2.3037312
5.268643525908272	5.305308	2.3033254
5.286188876288432	5.255853	2.2925649
5.3037343506831895	5.186791	2.2774527
5.32127994950651	5.134971	2.2660475
5.3388256731723915	5.2241006	2.285629
5.356371522094851	5.2989187	2.301938
5.373917496687938	5.275844	2.2969205
5.391463597365729	5.2285566	2.2866037
5.40900982454232	5.138574	2.2668424
5.426556178631843	5.1114287	2.2608469
5.444102660048449	5.110243	2.2605846
5.4616492692063225	5.1719213	2.274186
5.479196006519669	5.2625246	2.2940192
5.496742872402727	5.270709	2.2958026
5.514289867269756	5.287452	2.299446
5.531836991535049	5.265931	2.2947617
5.549384245612924	5.2563667	2.2926767
5.566931629917724	5.243808	2.2899363
5.584479144863822	5.2320876	2.2873757
5.6020267908656205	5.1518693	2.269773
5.619574568337545	5.0956144	2.2573469
5.637122477694054	5.0848846	2.254969
5.654670519349629	5.0852337	2.2550464
5.672218693718784	5.0663705	2.25086
5.689767001216059	5.035465	2.2439842
5.707315442256021	5.1122627	2.2610314
5.724864017253266	5.130957	2.2651615
5.7424127266224225	5.142786	2.2677712
5.75996157077814	5.111505	2.2608638
5.777510550135105	5.114336	2.2614899
5.795059665108022	5.156845	2.2708688
5.812608916111639	5.1084547	2.260189
5.830158303560715	5.194273	2.2790947
5.847707827870055	5.2262936	2.2861087
5.86525748945448	5.3665395	2.3165793
5.8828072887288485	5.5664916	2.3593414
5.900357226108044	5.6227245	2.3712285
5.917907302006979	5.667928	2.3807411
5.9354575168406	6.226988	2.4953933
5.9530078710238765	6.7810993	2.6040545
5.970558364971812	7.283543	2.698804
5.988108999099438	7.6880465	2.7727327
6.005659773821818	8.297963	2.8806186
6.023210689554039	8.033033	2.8342607
6.040761746711227	8.399522	2.898193
6.058312945708531	7.7584515	2.7853997
6.075864286961132	7.24111	2.690931
6.093415770884244	6.6159644	2.5721517
6.1109673978931065	6.0173345	2.4530256
6.128519168402993	5.4247465	2.3291085
6.146071082829204	5.340064	2.3108578
6.163623141587075	5.209472	2.2824268
6.181175345091969	5.1688495	2.2735105
6.198727693759281	5.1174154	2.2621706
6.216280188004435	5.142983	2.2678146
6.233832828242885	5.1408157	2.2673366
6.251385614890126	5.2028027	2.2809653
6.268938548361669	5.2974854	2.3016267
6.286491629073067	5.2960668	2.3013184
6.304044857439898	5.235842	2.2881963
6.321598233877777	5.083003	2.2545516
6.339151758802344	5.0224648	2.2410855
6.356705432629277	5.088666	2.2558072
6.37425925577428	5.095058	2.2572236
6.391813228653095	5.108392	2.2601752
6.409367351681486	5.0730276	2.2523382
6.426921625275259	5.053009	2.24789
6.44447604985025	4.977904	2.2311215
6.46203062582232	4.931704	2.2207441
6.47958535360737	4.9340186	2.221265
6.497140233621328	4.9245205	2.219126
6.514695266280161	4.961948	2.227543
6.532250451999859	4.976914	2.2308998
6.549805791196454	5.0182195	2.2401383
6.567361284286002	5.0114665	2.2386305
6.584916931684597	5.021725	2.2409205
6.602472733808367	4.988409	2.2334747
6.6200286910734665	4.990491	2.2339406
6.637584803896092	5.022866	2.2411752
6.655141072692462	5.010043	2.2383125
6.672697497878842	4.988361	2.2334638
6.690254079871514	5.0014787	2.2363987
6.707810819086808	5.02092	2.240741
6.725367715941078	4.9953156	2.2350202
6.742924770850719	4.9960103	2.2351756
6.760481984232151	4.9721484	2.2298315
6.778039356501836	4.9611206	2.2273574
6.795596888076266	4.92346	2.218887
6.813154579371963	4.9438424	2.2234752
6.830712430805492	5.0047154	2.237122
6.84827044279344	5.0790825	2.253682
6.865828615752445	5.0343895	2.2437446
6.883386950099159	5.036199	2.2441478
6.900945446250287	5.055713	2.2484913
6.918504104622553	5.091694	2.2564783
6.936062925632727	5.1092057	2.2603552
6.953621909697607	5.0489783	2.246993
6.971181057234028	4.9871902	2.2332017
6.988740368658859	5.012663	2.2388978
7.006299844389007	5.082532	2.2544472
7.023859484841407	5.2255425	2.2859445
7.041419290433036	5.3093576	2.3042042
7.058979261580902	5.4971395	2.3445978
7.0765393987020495	5.7194686	2.391541
7.094099702213559	6.1504574	2.4800115
7.111660172532549	6.4698167	2.5435834
7.129220810076164	6.8268623	2.6128266
7.146781615261595	7.420881	2.7241294
7.16434258850606	7.6329856	2.762786
7.181903730226821	8.047221	2.8367624
7.1994650408411704	8.091187	2.844501
7.217026520766437	8.290155	2.879263
7.234588170419983	8.577249	2.928694
7.252149990219215	8.565007	2.9266033
7.269711980581568	8.448416	2.906616
7.2872741419245175	8.274545	2.876551
7.304836474665574	7.8360643	2.799297
7.322398979222286	7.511599	2.7407296
7.339961656012233	7.26538	2.695437
7.357524505453039	6.9250975	2.631558
7.375087527962357	6.6092486	2.5708458
7.392650723957886	6.272239	2.504444
7.410214093857353	5.877269	2.4243078
7.427777638078528	5.6269727	2.3721242
7.445341357039213	5.448921	2.3342924
7.4629052511572525	5.304557	2.3031623
7.480469320850524	5.250045	2.2912977
7.498033566536948	5.184321	2.2769103
7.5155979886344735	5.242458	2.2896414
7.5331625875610975	5.2341084	2.2878175
7.550727363734844	5.2377	2.288602
7.568292317573788	5.223665	2.285534
7.585857449496025	5.2190866	2.284532
7.603422759919705	5.286117	2.2991557
7.620988249263007	5.3060346	2.3034832
7.638553917944147	5.3156624	2.305572
7.656119766381391	5.3596354	2.3150885
7.673685794993023	5.31363	2.3051312
7.691252004197388	5.304424	2.3031335
7.70881839441285	5.290592	2.3001287
7.726384966057826	5.25522	2.2924266
7.743951719550762	5.22738	2.2863464
7.761518655310149	5.232163	2.2873921
7.779085773754511	5.2978134	2.301698
7.796653075302419	5.360477	2.3152704
7.814220560372475	5.342002	2.3112772
7.831788229383323	5.2896705	2.2999284
7.8493560827536495	5.287157	2.299382
7.866924120902174	5.3021584	2.3026416
7.884492344247663	5.3325233	2.3092258
7.9020607532089135	5.310079	2.3043609
7.919629348204771	5.3202267	2.3065617
7.937198129654115	5.363959	2.3160222
7.954767097975865	5.3632245	2.3158636
7.972336253588986	5.400086	2.3238084
7.989905596912472	5.396176	2.322967
8.007475128365371	5.424452	2.3290453
8.025044848366756	5.4532514	2.3352199
8.042614757335754	5.5627213	2.3585422
8.060184855691523	5.6678166	2.3807178
8.07775514385327	5.799089	2.4081297
8.095325622240228	5.807834	2.4099448
8.112896291271687	5.812005	2.41081
8.130467151366968	5.858033	2.4203374
8.148038202945436	5.914537	2.431982
8.165609446426497	5.9593587	2.4411798
8.183180882229594	5.954162	2.4401152
8.200752510774217	6.0108004	2.4516933
8.218324332479893	6.068397	2.4634116
8.235896347766193	6.062739	2.4622629
8.253468557052724	6.0065193	2.4508202
8.27104096075914	5.9846563	2.4463558
8.288613559305137	6.041678	2.4579825
8.306186353110448	6.12136	2.4741383
8.32375934259485	6.2362227	2.497243
8.341332528178162	6.279138	2.5058208
8.358905910280246	6.338064	2.5175512
8.376479489321003	6.2856746	2.5071247
8.394053265720377	6.2673078	2.5034592
8.411627239898356	6.231681	2.4963336
8.42920141227497	6.2604065	2.5020804
8.44677578327029	6.3181458	2.5135922
8.464350353304427	6.322096	2.5143778
8.48192512279754	6.2647004	2.5029383
8.499500092169827	6.219346	2.4938617
8.51707526184153	6.099709	2.469759
8.534650632232934	6.1248536	2.4748442
8.552226203764365	6.15315	2.4805543
8.569801976856192	6.1684947	2.4836454
8.587377951928834	6.2410145	2.4982023
8.60495412940274	6.3310847	2.5161648
8.622530509698416	6.416271	2.533036
8.6401070932364	6.4568334	2.54103
8.657683880437283	6.4307904	2.5359004
8.675260871721695	6.5708685	2.5633705
8.692838067510303	6.77578	2.6030328
8.710415468223834	6.9859905	2.6431024
8.727993074283043	7.1404967	2.6721709
8.745570886108737	7.1898828	2.6813958
8.763148904121765	7.24104	2.6909182
8.78072712874302	7.2081275	2.6847956
8.798305560393441	7.4410677	2.727832
8.815884199494006	7.5977736	2.7564058
8.833463046465745	7.7077513	2.7762837
8.851042101729728	7.8250165	2.797323
8.86862136570707	8.114409	2.8485804
8.886200838818924	8.371132	2.8932908
8.903780521486505	8.4580965	2.9082806
8.921360414131055	8.549008	2.9238687
8.938940517173874	8.638249	2.9390898
8.956520831036297	8.77097	2.9615824
8.97410135613971	9.033473	3.0055737
8.99168209290554	9.197517	3.0327408
9.009263041755265	9.489508	3.0805044
9.026844203110405	9.702245	3.1148427
9.044425577392525	9.896083	3.145804
9.062007165023239	10.013848	3.1644666
9.079588966424197	10.303836	3.2099588
9.097170982017108	10.398447	3.2246623
9.11475321222372	11.411233	3.3780518
9.132335657465825	12.298098	3.5068643
9.149918318165264	12.396786	3.520907
9.167501194743924	12.923924	3.594986
9.18508428762374	12.606399	3.550549
9.202667597226693	12.583163	3.5472755
9.220251123974803	12.313532	3.5090642
9.237834868290143	12.0282755	3.4681804
9.255418830594836	11.75636	3.4287548
9.273003011311046	11.206008	3.3475375
9.290587410860985	10.964873	3.311325
9.308172029666911	10.402759	3.2253308
9.32575686815113	10.162414	3.187854
9.343341926735997	8.904773	2.9840865
9.360927205843916	8.654678	2.9418836
9.378512705897327	8.322755	2.8849185
9.396098427318728	8.089746	2.844248
9.413684370530664	7.990555	2.826757
9.431270535955722	7.9390965	2.8176403
9.448856924016539	7.897162	2.810189
9.466443535135806	7.7034225	2.775504
9.484030369736251	7.7061462	2.7759945
9.501617428240658	7.653584	2.7665112
9.519204711071852	7.6513643	2.76611
9.536792218652714	7.665601	2.7686822
9.55437995140617	7.7370853	2.7815616
9.571967909755191	7.838423	2.7997184
9.589556094122802	7.8771324	2.806623
9.60714450493207	7.9122853	2.8128784
9.624733142606116	7.985689	2.8258963
9.642322007568108	7.9805484	2.8249865
9.659911100241267	7.982271	2.8252914
9.677500421048851	8.036634	2.8348958
9.695089970414175	8.081921	2.842872
9.712679748760609	8.196916	2.8630257
9.730269756511557	8.142354	2.853481
9.747859994090492	8.16694	2.8577857
9.765450461920915	8.20109	2.8637545
9.78304116042639	8.237172	2.8700473
9.800632090030527	8.225256	2.8679707
9.81822325115699	8.230858	2.8689473
9.835814644229481	8.187804	2.861434
9.853406269671762	8.297133	2.8804746
9.870998127907646	8.352437	2.8900583
9.888590219360985	8.465364	2.90953
9.906182544455698	8.415679	2.900979
9.923775103615734	8.349787	2.8895998
9.941367897265108	8.314719	2.8835254
9.958960925827878	8.347218	2.8891551
9.97655418972816	8.372259	2.8934855
9.994147689390106	8.320943	2.8846045
10.011741425237934	8.24053	2.8706324
10.029335397695904	8.252392	2.8726976
10.04692960718833	8.332498	2.8866067
10.06452405413958	8.37813	2.8945
10.082118738974064	8.348856	2.8894386
10.099713662116246	8.289035	2.8790684
10.117308823990651	8.307376	2.882252
10.134904225021844	8.290939	2.879399
10.152499865634445	8.322351	2.8848486
10.170095746253125	8.289708	2.8791854
10.18769186730261	8.284345	2.8782537
10.205288229207675	8.229292	2.8686743
10.222884832393145	8.232067	2.8691578
10.2404816772839	8.237842	2.8701642
10.258078764304868	8.218324	2.866762
10.275676093881035	8.150194	2.8548546
10.293273666437438	8.143251	2.8536382
10.310871482399158	8.215192	2.8662157
10.32846954219134	8.264217	2.8747551
10.346067846239173	8.2789955	2.8773243
10.363666394967908	8.195867	2.8628423
10.38126518880283	8.131189	2.851524
10.398864228169298	8.104589	2.846856
10.416463513492713	8.174726	2.8591478
10.434063045198531	8.246951	2.8717506
10.451662823712262	8.311952	2.8830454
10.469262849459467	8.344976	2.8887672
10.486863122865758	8.224264	2.8677979
10.504463644356806	8.102239	2.8464432
10.522064414358338	7.9685507	2.8228621
10.539665433296118	7.8892374	2.8087785
10.557266701595987	7.8673244	2.8048751
10.574868219683818	7.781932	2.7896113
10.592469987985552	7.661178	2.7678833
10.610072006927185	7.536006	2.7451787
10.627674276934751	7.4349804	2.726716
10.64527679843435	7.3431396	2.709823
10.662879571852143	7.2814765	2.698421
10.680482597614331	7.199851	2.6832538
10.698085876147173	7.114391	2.6672816
10.715689407876988	7.0308876	2.651582
10.733293193230146	6.910864	2.6288521
10.750897232633072	6.796208	2.6069539
10.76850152651225	6.7007427	2.5885792
10.786106075294207	6.6341367	2.5756817
10.803710879405534	6.550896	2.5594718
10.821315939272877	6.4662957	2.5428913
10.83892125532294	6.287065	2.507402
10.856526827982472	6.269014	2.5038
10.874132657678285	6.2425823	2.498516
10.891738744837243	6.221483	2.49429
10.909345089886271	6.1393223	2.4777656
10.926951693252343	6.0707574	2.4638908
10.944558555362494	6.0394053	2.4575202
10.96216567664381	5.9811134	2.4456315
10.979773057523436	5.9088	2.4308023
10.997380698428573	5.8531637	2.4193313
11.014988599786477	5.818621	2.4121819
11.032596762024461	5.75571	2.399106
11.050205185569892	5.698616	2.3871775
11.067813870850198	5.666082	2.3803532
11.085422818292859	5.57504	2.3611522
11.10303202832541	5.3865895	2.3209028
11.120641501375454	5.2193255	2.2845843
11.138251237870636	5.1734138	2.274514
11.155861238238671	5.2063556	2.281744
11.173471502907317	5.1664906	2.2729917
11.191082032304402	5.1202083	2.2627878
11.208692826857805	5.055221	2.2483819
11.226303886995465	5.063889	2.2503088
11.243915213145371	5.0093	2.2381465
11.261526805735578	4.864265	2.2055078
11.279138665194196	4.7627783	2.182379
11.296750791949393	4.7511873	2.1797218
11.314363186429393	4.7702603	2.1840925
11.331975849062479	4.749918	2.1794307
11.34958878027699	4.6790123	2.1631024
11.36720198050133	4.632719	2.1523752
11.384815450163948	4.580898	2.1403031
11.402429189693366	4.5779257	2.1396089
11.420043199518153	4.5553226	2.1343203
11.437657480066942	63.517315	7.969775
11.455272031768422	85.202515	9.230521
11.472886855051353	107.5529	10.370771
11.490501950344528	99.12403	9.956105
11.508117318076819	84.46452	9.190458
11.52573295867715	45.823982	6.7693415
11.543348872574514	4.1621957	2.040146
11.560965060197946	4.1143465	2.0283852
11.57858152197655	4.0926037	2.0230184
11.59619825833949	4.0438385	2.0109298
11.613815269715985	4.0196056	2.0048954
11.631432556535323	38.518143	6.206299
11.649050119226837	83.00583	9.110753
11.666667958219929	93.428734	9.665854
11.68428607394406	107.69168	10.3774605
11.701904466828756	82.55324	9.085881
11.719523137303586	65.358444	8.084457
11.737142085798196	4.5897818	2.1423776
11.754761312742286	3.7122068	1.9267088
11.772380818565619	3.6901813	1.9209845
11.790000603698015	3.6282878	1.9048065
11.80762066856935	3.5882	1.8942544
11.825241013609572	3.5857036	1.8935955
11.842861639248683	3.5486445	1.8837847
11.860482545916748	3.5309758	1.8790891
11.878103734043883	3.5134604	1.8744227
11.895725204060282	3.4914901	1.8685529
11.91334695639619	3.470587	1.8629512
11.930968991481919	3.4273214	1.8513026
11.948591309747824	3.382944	1.8392781
11.966213911624347	3.3257594	1.8236665
11.98383679754198	3.2823367	1.811722
12.001459967931268	3.244774	1.8013257
12.019083423222835	3.236157	1.7989322
12.036707163847352	3.2340298	1.7983408
12.05433119023556	3.2485108	1.8023626
12.071955502818259	3.245852	1.8016248
12.089580102026313	3.2041886	1.7900248
12.107204988290643	3.1643803	1.7788705
12.12483016204224	3.1185856	1.7659518
12.142455623712152	3.105735	1.7623096
12.16008137373149	3.0849204	1.7563941
12.177707412531431	3.0571864	1.7484812
12.19533374054321	3.0343895	1.7419499
12.212960358198126	3.0427737	1.7443548
12.230587265927545	3.0678284	1.7515217
12.248214464162889	3.0805333	1.7551448
12.265841953335649	3.0326154	1.7414407
12.283469733877375	2.9843245	1.7275198
12.301097806219685	2.9808145	1.7265035
12.31872617079425	2.9802487	1.7263397
12.336354828032825	2.989379	1.7289821
12.353983778367205	2.953346	1.7185302
12.371613022229262	2.9522526	1.718212
12.389242560050928	2.9525461	1.7182975
12.406872392264201	2.991283	1.7295326
12.424502519301143	2.9984212	1.731595
12.442132941593874	3.0045938	1.7333764
12.459763659574586	2.958193	1.7199398
12.477394673675532	2.9342544	1.7129666
12.49502598432903	2.8486738	1.6878015
12.51265759196746	2.8489213	1.6878748
12.530289497023267	2.8301797	1.6823138
12.547921699928967	2.8298595	1.6822187
12.565554201117134	2.7656848	1.6630348
12.583187001020404	2.7501712	1.658364
12.600820100071486	2.7706273	1.6645201
12.618453498703152	2.8039408	1.6744971
12.636087197348235	2.7936897	1.6714334
12.65372119643964	2.829881	1.682225
12.671355496410326	2.8192294	1.679056
12.68899009769333	2.8135576	1.6773663
12.706625000721749	2.8202636	1.6793641
12.724260205928752	2.887136	1.6991575
12.741895713747551	2.927996	1.7111387
12.759531524611454	2.9816074	1.7267332
12.777167638953818	2.9626563	1.7212368
12.794804057208072	2.984741	1.7276403
12.812440779807702	3.048393	1.7459648
12.830077807186271	3.2037003	1.7898884
12.847715139777405	3.1950872	1.7874807
12.865352778014795	3.3658583	1.8346276
12.882990722332197	3.4883232	1.8677053
12.90062897316344	3.6150663	1.9013327
12.918267530942412	3.7086258	1.9257792
12.935906396103071	3.5449743	1.8828102
12.953545569079449	3.6533484	1.9113735
12.971185050305628	3.4662168	1.8617779
12.988824840215775	3.5188851	1.8758692
13.006464939244115	3.5487912	1.8838235
13.024105347824943	3.4371965	1.8539678
13.041746066392617	3.5139103	1.8745427
13.05938709538157	3.302277	1.8172169
13.077028435226296	3.3353517	1.8262945
13.094670086361363	3.2508352	1.8030072
13.112312049221401	3.1702962	1.7805326
13.129954324241112	3.0539892	1.7475667
13.147596911855258	2.8931706	1.7009323
13.165239812498685	2.8570309	1.6902754
13.182883026606293	2.7591023	1.6610546
13.200526554613058	2.723965	1.6504439
13.218170396954017	2.7185838	1.6488129
13.235814554064284	2.7288487	1.6519227
13.253459026379034	2.7000093	1.6431705
13.271103814333523	2.6891794	1.6398717
13.288748918363058	2.6604202	1.6310794
13.306394338903031	2.6467612	1.626887
13.32404007638889	2.6215425	1.6191179
13.341686131256164	2.6657915	1.6327252
13.359332503940449	2.6571321	1.6300712
13.376979194877402	2.670212	1.6340784
13.394626204502751	2.6888301	1.6397653
13.412273533252307	2.6812534	1.6374533
13.429921181561937	2.6751747	1.6355962
13.447569149867581	2.7133594	1.6472278
13.465217438605247	2.7647243	1.662746
13.482866048211022	2.7266324	1.6512518
13.500514979121052	2.6844742	1.6384366
13.518164231771568	2.66123	1.6313277
13.535813806598844	2.685168	1.6386483
13.553463704039254	2.6852925	1.6386862
13.571113924529229	2.6849482	1.6385812
13.588764468505275	2.6927278	1.6409533
13.606415336403956	2.7234328	1.6502826
13.624066528661917	2.7564437	1.6602541
13.641718045715882	2.82499	1.6807706
13.659369888002635	2.8699443	1.694091
13.67702205595903	2.920469	1.708938
13.694674550021993	2.9992335	1.7318295
13.712327370628532	3.0519753	1.7469903
13.729980518215713	3.1145642	1.7648128
13.747633993220681	3.1271307	1.7683696
13.765287796080647	3.1442306	1.7731979
13.7829419272329	3.198741	1.7885025
13.800596387114801	3.2393131	1.7998092
13.818251176163775	3.30226	1.8172121
13.835906294817324	3.3796375	1.838379
13.853561743513023	3.462964	1.8609041
13.871217522688525	3.4996862	1.8707448
13.888873632781538	3.5048149	1.8721151
13.906530074229858	3.521496	1.876565
13.92418684747135	3.514099	1.874593
13.941843952943948	3.4814775	1.8658718
13.959501391085665	3.437912	1.8541607
13.977159162334578	3.3776467	1.8378375
13.994817267128846	3.3382728	1.8270941
14.012475705906693	3.3130028	1.8201656
14.030134479106424	3.226439	1.7962291
14.047793587166414	3.142665	1.7727563
14.065453030525108	3.0925086	1.758553
14.083112809621026	3.1016135	1.7611399
14.100772924892766	3.0558052	1.7480862
14.118433376778997	2.9722862	1.7240319
14.136094165718458	2.839955	1.6852167
14.153755292149969	2.750517	1.6584682
14.171416756512416	2.6935363	1.6411996
14.189078559244768	2.609325	1.6153405
14.20674070078606	2.578185	1.6056728
14.224403181575408	2.55769	1.599278
14.242066002051999	2.5634644	1.6010822
14.259729162655093	2.5325255	1.5913911
14.277392663824022	2.489928	1.5779506
14.295056505998208	2.4145734	1.5538898
14.312720689617128	2.4131432	1.5534295
14.330385215120348	2.4625225	1.5692426
14.348050082947497	2.4687257	1.5712179
14.3657152935383	2.4218683	1.5562353
14.383380847332528	2.3783062	1.5421758
14.401046744770051	2.377072	1.5417756
14.418712986290798	2.4125109	1.553226
14.436379572334793	2.3920496	1.5466253
14.454046503342123	2.3784444	1.5422206
14.471713779752946	2.334577	1.5279323
14.489381402007504	2.338181	1.5291111
14.507049370546113	2.349103	1.5326784
14.524717685809168	2.3378313	1.5289968
14.542386348237134	2.3293352	1.526216
14.560055358270553	2.312723	1.5207639
14.577724716350051	2.3752587	1.5411874
14.595394422916325	2.4076352	1.5516557
14.61306447841015	2.463019	1.5694008
14.63073488327237	2.464289	1.5698054
14.648405637943917	2.503164	1.5821391
14.6660767428658	2.507453	1.583494
14.683748198479094	2.5254173	1.5891562
14.701420005224954	2.5398943	1.5937046
14.719092163544628	2.5834901	1.6073239
14.73676467387942	2.6441913	1.626097
14.754437536670727	2.7214293	1.6496755
14.772110752360014	2.7486029	1.657891
14.78978432138882	2.7178779	1.6485988
14.807458244198777	2.657448	1.6301681
14.82513252123159	2.6486032	1.627453
14.842807152929028	2.6905282	1.640283
14.860482139732962	2.6882765	1.6395965
14.87815748208531	2.69382	1.6412861
14.8958331804281	2.7032542	1.6441576
14.91350923520342	2.64632	1.6267514
14.931185646853438	2.6436193	1.625921
14.948862415820408	2.6525462	1.6286639
14.966539542546656	2.6965322	1.6421121
14.98421702747459	2.6584842	1.6304859
15.001894871046696	2.6590016	1.6306446
15.019573073705542	2.651835	1.6284456
15.037251635893766	2.635811	1.6235181
15.054930558054092	2.6744058	1.6353611
15.072609840629323	2.727233	1.6514336
15.090289484062351	2.8962502	1.7018373
15.107969488796124	3.1871953	1.7852718
15.125649855273691	3.6094034	1.899843
15.14333058393817	4.126663	2.031419
15.161011675232768	5.083749	2.254717
15.17869312960076	6.43337	2.536409
15.196374947485506	8.293425	2.8798306
15.214057129330447	11.304601	3.3622315
15.231739675579114	15.9807625	3.9975946
15.249422586675102	21.048206	4.5878325
15.267105863062092	24.161692	4.9154544
15.284789505183847	24.381014	4.9377136
15.302473513484218	22.118763	4.7030587
15.320157888407127	18.53391	4.305103
15.337842630396578	14.402421	3.7950523
15.355527739896656	11.270803	3.3572018
15.37321321735153	8.76034	2.9597871
15.39089906320545	6.418101	2.5333972
15.408585277902748	4.7878647	2.188119
15.42627186188783	3.6889198	1.9206561
15.443958815605198	3.1231692	1.767249
15.461646139499424	2.8173375	1.6784927
15.479333834015168	2.6929512	1.6410214
15.497021899597165	2.6660876	1.6328158
15.514710336690234	2.6540194	1.6291162
15.53239914573928	2.5770178	1.6053092
15.550088327189297	2.5098803	1.5842602
15.567777881485336	2.4670668	1.5706899
15.58546780907256	2.4886174	1.5775353
15.6031581103962	2.4995549	1.5809981
15.620848785901568	2.4819593	1.5754236
15.638539836034063	2.475101	1.5732454
15.656231261239173	2.4307022	1.559071
15.673923061962451	2.3797228	1.5426351
15.691615238649552	2.3602853	1.536322
15.709307791746202	2.3823597	1.5434895
15.727000721698221	2.3987646	1.5487945
15.744694028951498	2.3968024	1.548161
15.76238771395202	2.390539	1.5461367
15.780081777145844	2.3821673	1.5434271
15.797776218979125	2.3918576	1.5465631
15.815471039898094	2.3855898	1.5445355
15.833166240349064	2.392264	1.5466945
15.850861820778437	2.3556585	1.5348154
15.868557781632699	2.3876245	1.545194
15.886254123358412	2.393885	1.5472184
15.903950846402232	2.4150996	1.554059
15.921647951210897	2.4164588	1.5544963
15.939345438231225	2.433594	1.559998
15.957043307910133	2.4259088	1.5575329
15.974741560694602	2.4111695	1.5527941
15.992440197031714	2.4104514	1.5525628
16.01013921736862	2.4402611	1.5621336
16.02783862215259	2.4414105	1.5625014
16.045538411830933	2.4594996	1.5682791
16.06323858685107	2.449023	1.5649354
16.080939147660512	2.4239688	1.55691
16.09864009470684	2.382278	1.543463
16.11634142843774	2.3515236	1.5334679
16.134043149300954	2.3714898	1.5399642
16.15174525774433	2.3758051	1.5413647
16.169447754215817	2.3889515	1.5456233
16.18715063916342	2.4103668	1.5525357
16.204853913035244	2.4303389	1.5589544
16.222557576279478	2.4584174	1.5679342
16.240261629344403	22.452745	4.738433
16.257966072678386	42.98805	6.556527
16.275670906729868	38.06556	6.169729
16.293376131947387	2.4762824	1.5736208
16.31108174877957	2.520982	1.5877601
16.328787757675133	2.5714798	1.6035835
16.34649415908287	2.596837	1.6114705
16.364200953451657	2.5947685	1.6108285
16.38190814123048	2.6014695	1.6129072
16.39961572286839	2.6092978	1.6153321
16.41732369881455	2.6269784	1.6207956
16.43503206951817	2.6785412	1.6366249
16.45274083542859	2.721908	1.6498206
16.47044999699522	2.7937548	1.6714529
16.488159554667558	2.866352	1.6930305
16.505869508895184	2.9054072	1.7045255
16.523579860127786	2.908525	1.7054398
16.541290608815117	2.9015849	1.703404
16.559001755407035	2.963001	1.721337
16.57671330035348	3.04204	1.7441446
16.59442524410448	3.1152706	1.765013
16.61213758711015	3.1865294	1.7850853
16.629850329820705	3.2318697	1.7977402
16.647563472686436	3.3283463	1.8243756
16.665277016157724	3.3635385	1.8339952
16.682990960685053	3.4273963	1.8513229
16.70070530671898	3.457538	1.8594456
16.718420054710155	3.4853048	1.8668971
16.736135205109335	3.5069675	1.87269
16.753850758367335	3.574732	1.8906962
16.771566714935087	3.6961262	1.9225312
16.789283075263597	3.7732882	1.9424953
16.80699983980398	3.8191342	1.9542606
16.82471700900741	3.8382332	1.9591409
16.84243458332518	3.8885808	1.9719485
16.860152563208665	3.9515028	1.9878387
16.87787094910932	3.9879048	1.9969739
16.89558974147871	4.067131	2.016713
16.913308940768466	4.1409144	2.0349238
16.931028547430333	4.205463	2.0507226
16.94874856191613	4.244688	2.060264
16.966468984677785	4.321783	2.0788898
16.98418981616729	4.3641453	2.0890536
17.00191105683676	4.4424677	2.1077163
17.019632707138374	4.471991	2.1147082
17.03735476752442	4.4978805	2.1208208
17.05507723844728	4.5340347	2.1293273
17.072800120359403	4.5946956	2.1435242
17.090523413713353	4.6267295	2.1509833
17.108247118961785	4.620181	2.1494606
17.125971236557437	4.610554	2.1472201
17.143695766953133	4.6179476	2.148941
17.161420710601806	4.6795893	2.163236
17.179146067956477	4.6845546	2.1643832
17.19687183947025	4.7135463	2.1710703
17.21459802559634	4.697876	2.1674583
17.232324626788028	4.700005	2.1679494
17.25005164349871	4.6530566	2.1570945
17.267779076181863	4.593881	2.1433342
17.285506925291074	4.544974	2.1318944
17.30323519127999	4.53941	2.1305892
17.320963874602384	4.5608416	2.1356127
17.33869297571211	4.517441	2.1254272
17.356422495063114	4.4598436	2.1118343
17.37415243310944	4.5033965	2.1221209
17.391882790305218	4.537051	2.1300354
17.40961356710468	4.5353827	2.129644
17.42734476396215	4.5470357	2.1323779
17.445076381332044	4.5492854	2.1329055
17.462808419668868	4.654189	2.157357
17.48054087942723	4.7395515	2.177051
17.498273761061835	4.985899	2.2329128
17.51600706502747	5.45222	2.3349988
17.533740791779024	6.1759334	2.4851425
17.551474941771485	7.6085553	2.758361
17.56920951545993	8.747124	2.9575536
17.586944513299528	10.876928	3.298019
17.60467993574556	12.449878	3.5284383
17.622415783253373	14.145972	3.7611132
17.64015205627843	15.611835	3.9511814
17.657888755276293	16.68794	4.085088
17.675625880702604	17.23857	4.1519356
17.69336343301311	17.061703	4.1305814
17.71110141266366	16.377079	4.04686
17.728839820110178	15.425122	3.9274828
17.746578655808705	14.505164	3.8085647
17.764317920215372	13.058112	3.613601
17.7820576137864	11.6318245	3.410546
17.79979773697811	9.653403	3.1069927
17.81753829024692	7.736323	2.7814245
17.835279274049356	5.9233913	2.433802
17.85302068884201	4.795003	2.1897495
17.870762535081607	4.1468	2.0363693
17.888504813224934	3.9008605	1.9750596
17.90624752372891	3.74249	1.9345516
17.923990667050536	3.5929382	1.8955047
17.941734243646895	3.4633558	1.8610094
17.959478253975185	3.4495416	1.8572942
17.9772226984927	3.4579196	1.8595482
17.994967577656833	3.40989	1.8465887
18.01271289192506	3.4156823	1.8481565
18.030458641754965	3.3998053	1.8438561
18.04820482760425	3.3913372	1.8415583
18.06595144993067	3.335379	1.8263019
18.083698509192125	3.2552812	1.8042397
18.101446005846576	3.2250383	1.7958392
18.119193940352105	3.214254	1.792834
18.136942313166887	3.2160876	1.7933453
18.1546911247492	3.19847	1.7884268
18.1724403755574	3.1718962	1.7809818
18.19019006604997	3.1780539	1.7827097
18.207940196685467	3.1639504	1.7787497
18.225690767922575	3.1123765	1.7641928
18.243441780220046	3.1382117	1.7714999
18.261193234036764	3.124273	1.7675613
18.278945129831676	3.1168647	1.7654644
18.29669746806386	3.053363	1.7473875
18.314450249192483	3.061597	1.749742
18.3322034736768	3.0189655	1.737517
18.349957141976184	3.009587	1.7348162
18.3677112545501	3.0177305	1.7371616
18.385465811858108	3.0537255	1.7474912
18.403220814359884	3.0817013	1.7554775
18.420976262515172	3.1010911	1.7609916
18.43873215678387	3.1310365	1.7694736
18.456488497625923	3.1278741	1.7685797
18.474245285501407	3.190011	1.7860602
18.492002520870486	3.2402344	1.8000652
18.50976020419343	3.3667445	1.834869
18.527518335930615	3.694179	1.9220247
18.545276916542516	4.307732	2.0755076
18.563035946489688	4.4569936	2.1111593
18.580795426232832	4.88066	2.2092216
18.598555356232698	4.7637553	2.182603
18.616315736950185	5.0560656	2.2485697
18.63407656884626	4.6970973	2.1672788
18.65183785238201	4.851418	2.2025936
18.669599588018617	4.63281	2.1523964
18.68736177621737	4.6280603	2.1512928
18.705124417439652	4.5962014	2.1438754
18.72288751214696	4.3968887	2.096876
18.740651060800886	4.51521	2.1249025
18.758415063863115	4.3097515	2.075994
18.77617952179546	4.496547	2.1205063
18.793944435059814	4.2114472	2.052181
18.811709804118184	4.181937	2.0449786
18.829475629432675	4.142317	2.0352683
18.8472419114655	3.973607	1.9933908
18.86500865067897	4.0597177	2.0148742
18.88277584753551	3.7729316	1.9424036
18.90054350249763	3.7858186	1.945718
18.918311616027957	3.4581368	1.8596066
18.936080188589226	3.3480651	1.8297719
18.953849220644265	3.0525415	1.7471524
18.971618712656007	2.8559244	1.6899481
18.9893886650875	2.8077428	1.6756321
19.007159078401887	8.007172	2.8296945
19.024929953062408	32.907284	5.736487
19.042701289532435	32.838703	5.7305064
19.060473088275405	25.379942	5.037851
19.07824534975489	2.6314528	1.6221753
19.096018074434568	2.6338642	1.6229184
19.113791262778197	2.6571589	1.6300794
19.13156491524966	2.6336813	1.6228621
19.149339032312945	2.5668006	1.6021237
19.167113614432136	2.5138428	1.5855103
19.184888662071433	2.4939582	1.5792271
19.202664175695123	2.504598	1.5825921
19.220440155767623	2.5330403	1.5915527
19.238216602753447	2.523195	1.5884567
19.2559935171172	2.5344188	1.5919858
19.27377089932361	2.5173802	1.5866255
19.291548749837514	2.540406	1.5938652
19.309327069123835	2.5153654	1.5859903
19.32710585764763	2.4976645	1.5804001
19.344885115874032	2.4948814	1.5795194
19.362664844268313	2.524499	1.5888672
19.380445043295822	2.5138338	1.5855074
19.39822571342203	2.5007188	1.5813662
19.41600685511252	2.4942255	1.5793117
19.43378846883297	2.5240073	1.5887125
19.451570555049173	2.5251489	1.5890718
19.469353114227037	2.5464716	1.5957668
19.48713614683254	2.5121746	1.5849841
19.50491965333182	2.488157	1.5773894
19.52270363419109	2.4645154	1.5698775
19.540488089876686	2.4789248	1.5744601
19.55827302085503	2.4921212	1.5786453
19.576058427592674	2.499882	1.5811015
19.593844310556282	2.5172894	1.5865968
19.611630670212598	2.5288882	1.5902479
19.629417507028506	2.5545995	1.5983114
19.64720482147098	2.5618408	1.6005751
19.6649926140071	2.508611	1.5838596
19.682780885104084	2.488214	1.5774074
19.70056963522921	2.4499457	1.5652303
19.718358864849908	2.4727101	1.5724853
19.7361485744337	2.4855375	1.5765587
19.753938764448215	2.529328	1.5903862
19.771729435361202	2.5292065	1.5903479
19.789520587640506	2.482187	1.5754958
19.807312221754092	2.4657025	1.5702555
19.825104338170043	2.4405613	1.5622296
19.842896937356517	2.4502468	1.5653265
19.860690019781824	2.448188	1.5646687
19.87848358591436	2.4643838	1.5698357
19.896277636222635	2.5172756	1.5865924
19.914072171175278	2.5306213	1.5907927
19.931867191241015	2.5168836	1.5864689
19.94966269688869	2.4758832	1.573494
19.967458688587264	2.4924533	1.5787506
19.985255166805807	2.5074263	1.5834855
20.00305213201348	2.5391843	1.5934818
20.020849584679578	2.5030572	1.5821053
20.038647525273507	2.4927957	1.578859
20.05644595426477	2.44076	1.5622932
20.07424487212299	2.4401305	1.5620917
20.092044279317903	2.4280689	1.5582262
20.109844176319353	2.4401412	1.5620952
20.127644563597304	2.442339	1.5627984
20.145445441621817	2.4258873	1.557526
20.16324681086307	2.3848398	1.5442927
20.181048671791373	2.3785312	1.5422487
20.198851024877122	2.3561625	1.5349797
20.216653870590836	2.3574185	1.5353887
20.234457209403146	2.358802	1.5358392
20.252261041784802	2.3389611	1.5293663
20.270065368206662	2.3401089	1.5297414
20.287870189139685	2.3276224	1.5256548
20.305675505054968	2.3122396	1.520605
20.323481316423702	2.2981997	1.5159814
20.341287623717207	2.3059223	1.5185263
20.359094427406884	2.3304138	1.5265692
20.376901727964288	2.3469052	1.5319612
20.39470952586107	2.3330286	1.5274254
20.41251782156899	2.2981117	1.5159523
20.430326615559935	2.316769	1.5220935
20.448135908305886	2.3348103	1.5280086
20.465945700278965	2.4137514	1.5536252
20.483755991951384	2.4280849	1.5582314
20.50156678379548	2.4383302	1.5615153
20.519378076283708	2.3819292	1.54335
20.537189869888635	2.325518	1.5249649
20.55500216508294	2.3009448	1.5168866
20.572814962339415	2.2991793	1.5163045
20.59062826213098	2.3069406	1.5188617
20.60844206493066	2.3431032	1.5307199
20.626256371211593	2.3638408	1.5374787
20.644071181447032	2.3685148	1.538998
20.66188649611036	2.3417866	1.5302898
20.67970231567506	2.3241043	1.5245013
20.697518640614742	2.3446589	1.531228
20.715335471403122	2.3471045	1.5320263
20.73315280851404	2.3368988	1.5286919
20.750970652421447	2.3071055	1.5189159
20.768789003599412	2.3272407	1.5255296
20.786607862522136	2.3017688	1.5171582
20.8044272296639	2.2794266	1.509777
20.82224710549913	2.256352	1.5021158
20.84006749050237	2.2459557	1.4986513
20.857888385148268	3.8005388	1.9494971
20.8757097899116	45.9234	6.7766805
20.893531705267254	64.81651	8.05087
20.911354131690224	83.86328	9.15769
20.92917706965566	69.10613	8.31301
20.94700051963877	50.152752	7.0818605
20.96482448211493	29.397367	5.421934
20.982648957559622	4.1312685	2.0325522
21.00047394644843	2.253188	1.5010623
21.01829944925707	2.2474573	1.4991522
21.036125466461375	2.2302015	1.4933859
21.053951998537297	2.2310612	1.4936737
21.071779045960906	2.234449	1.4948074
21.089606609208378	2.242739	1.4975777
21.10743468875603	2.233617	1.494529
21.12526328508028	2.22209	1.4906676
21.143092398657675	2.2123837	1.4874084
21.16092202996488	2.222195	1.4907029
21.17875217947867	2.223433	1.4911181
21.19658284767596	2.2288198	1.4929233
21.21441403503377	2.2251515	1.4916942
21.232245742029225	2.1800785	1.4765089
21.2500779691396	2.1669056	1.4720414
21.26791071684227	2.1600707	1.4697179
21.28574398561475	2.1959596	1.4818771
21.30357777593465	2.156794	1.4686028
21.321412088279704	2.1526434	1.467189
21.339246923127792	2.0987833	1.4487178
21.357082280956888	2.1378603	1.4621423
21.3749181622451	2.1305249	1.4596318
21.392754567470647	2.1355124	1.4613392
21.41059149711187	2.1122599	1.4533616
21.42842895164726	2.1306152	1.4596627
21.446266931555378	2.099238	1.4488747
21.464105437314945	2.0963893	1.4478914
21.481944469404798	2.0981746	1.4485077
21.49978402830388	2.0984075	1.4485881
21.51762411449127	2.0944886	1.4472349
21.53546472844617	2.0981383	1.4484951
21.553305870647876	2.0963557	1.4478797
21.571147541575865	2.115832	1.45459
21.58898974170967	2.1071055	1.4515872
21.60683247152899	2.0789852	1.4418687
21.62467573151363	2.0535796	1.4330316
21.642519522143523	2.0560524	1.4338942
21.660363843898722	2.077688	1.4414188
21.6782086972594	2.0715816	1.439299
21.696054082705864	2.0400476	1.4283024
21.713900000718535	2.0519729	1.4324709
21.73174645177795	2.0677233	1.437958
21.749593436364794	2.0699368	1.4387275
21.767440954959845	2.0658526	1.4373075
21.785289008044032	2.0392697	1.42803
21.803137596098388	2.0239162	1.4226441
21.820986719604086	1.9625598	1.400914
21.838836379042412	1.9601268	1.4000453
21.85668657489478	1.9747127	1.4052447
21.87453730764273	2.0165153	1.4200406
21.892388577767914	2.003398	1.4154145
21.91024038575213	1.9939972	1.4120897
21.928092732077285	1.9711223	1.4039667
21.945945617225426	1.9675468	1.4026927
21.963799041678694	1.9813619	1.4076085
21.981653005919398	31.322163	5.5966206
21.999507510429943	78.13815	8.839579
22.01736255569286	73.07627	8.548466
22.035218142190818	4.1964035	2.0485125
22.05307427040661	2.0311453	1.4251826
22.07093094082315	2.0113063	1.4182053
22.088788153923474	1.9821005	1.4078709
22.106645910190746	1.9567137	1.3988258
22.12450421010827	1.9371132	1.3918021
22.142363054159464	1.9434077	1.3940616
22.16022244282787	1.9763491	1.4058268
22.178082376597164	1.9448104	1.3945646
22.195942855951145	1.9319919	1.3899611
22.213803881373742	1.9403089	1.3929497
22.231665453349002	1.9633142	1.4011831
22.24952757236111	1.960919	1.4003282
22.26739023889438	1.9414662	1.393365
22.28525345343323	1.947276	1.3954483
22.30311721646225	1.9752644	1.405441
22.320981528466113	1.9839151	1.4085152
22.33884638992964	1.984131	1.4085919
22.356711801337788	2.0046723	1.4158645
22.37457776317561	2.0257068	1.4232732
22.392444275928337	1.9848578	1.4088498
22.410311340081282	1.9665033	1.4023206
22.428178956119904	1.9655229	1.4019711
22.446047124529805	1.9710435	1.4039385
22.46391584579669	1.9366508	1.391636
22.481785120406414	1.9359499	1.3913841
22.49965494884496	1.9458474	1.3949363
22.51752533159841	1.9633232	1.4011863
22.53539626915302	1.9402034	1.3929119
22.553267761995137	1.951547	1.3969778
22.571139810611264	1.9564589	1.3987348
22.589012415488025	1.9768308	1.4059981
22.60688557711216	1.974537	1.4051822
22.624759295970566	1.9576601	1.3991641
22.642633572550263	1.9434923	1.394092
22.660508407338362	1.9261262	1.3878495
22.67838380082217	1.9010115	1.3787718
22.696259753489077	1.8763012	1.3697814
22.714136265826614	1.9428887	1.3938755
22.73201333832246	2.0004532	1.4143738
22.74989097146439	1.9900417	1.4106884
22.76776916574035	1.9282494	1.3886142
22.785647921638393	1.8867134	1.3735769
22.803527239646712	1.9016815	1.3790147
22.82140712025363	1.9263521	1.3879309
22.839287563947593	1.9367652	1.3916771
22.85716857121719	1.9471234	1.3953936
22.875050142551135	1.929198	1.3889557
22.892932278438277	1.9022856	1.3792337
22.910814979367604	1.914177	1.3835379
22.928698245828222	1.9429573	1.3939
22.946582078309387	1.9194657	1.3854479
22.96446647730047	1.9070508	1.3809601
22.98235144329098	1.9324785	1.3901361
23.000236976770562	1.9590182	1.3996494
23.018123078229	1.9487739	1.3959849
23.03600974815619	1.9180342	1.3849311
23.053896987042194	1.9209223	1.3859735
23.071784795377173	1.922724	1.3866233
23.08967317365145	1.9382925	1.3922257
23.10756212235546	1.913871	1.3834273
23.125451641979787	1.902663	1.3793705
23.143341733015134	1.8969643	1.3773032
23.161232395952357	1.8737676	1.3688563
23.179123631282426	1.8629274	1.364891
23.197015439496468	1.8681909	1.3668178
23.214907821085717	1.8869443	1.3736609
23.23280077654157	1.8890117	1.3744133
23.250694306355538	1.9194684	1.3854488
23.268588411019277	1.9270239	1.3881729
23.28648309102458	1.9299227	1.3892165
23.304378346863356	1.8706539	1.3677185
23.322274179027676	1.8674556	1.3665488
23.340170588009723	1.9076171	1.3811651
23.358067574301852	1.921355	1.3861295
23.37596513839651	1.9476522	1.3955832
23.39386328078629	1.9586866	1.3995309
23.411762001963947	1.9572242	1.3990083
23.429661302422353	1.9477869	1.3956313
23.4475611826545	1.9708221	1.4038597
23.46546164315356	1.968855	1.4031589
23.48336268441279	1.9541098	1.3978947
23.501264306925638	1.9259275	1.3877779
23.51916651118564	1.9270375	1.3881778
23.537069297686497	1.9117644	1.3826656
23.554972666922037	1.9094843	1.381841
23.57287661938623	1.9380562	1.3921409
23.59078115557318	1.949452	1.3962278
23.608686275977128	1.9326522	1.3901986
23.62659198109246	1.9285368	1.3887177
23.6444982714137	1.921343	1.3861252
23.66240514743549	1.8969686	1.3773048
23.68031260965263	1.8775164	1.370225
23.698220658560068	1.8659401	1.3659942
23.716129294652845	1.8696551	1.3673533
23.7340385184262	1.861796	1.3644764
23.75194833037546	1.8595054	1.3636369
23.769858730996123	1.9175102	1.3847419
23.78776972078382	1.9557875	1.3984947
23.80568130023431	1.9584365	1.3994415
23.823593469843495	1.940146	1.3928912
23.841506230107424	1.9229728	1.3867129
23.859419581522275	1.9001043	1.3784426
23.87733352458438	1.8780372	1.370415
23.89524805979019	1.8499548	1.3601304
23.913163187636318	1.8702873	1.3675845
23.931078908619508	1.8728776	1.3685312
23.948995223236633	1.9243568	1.3872119
23.966912131984735	1.9455401	1.3948262
23.98482963536096	1.992116	1.4114234
24.002747733862616	2.016784	1.4201351
24.020666427987155	2.048062	1.4311053
24.038585718232156	2.0583813	1.434706
24.056505605095353	2.06262	1.4361824
24.074426089074617	2.0551522	1.4335802
24.092347170667946	2.0518515	1.4324285
24.110268850373515	2.0545592	1.4333733
24.128191128689586	2.0622492	1.4360534
24.146114006114626	2.0185535	1.4207581
24.164037483147187	2.0221438	1.422021
24.181961560286005	2.0331562	1.4258878
24.199886238029926	2.039016	1.4279412
24.21781151687797	2.0462284	1.4304644
24.235737397329274	2.0158086	1.4197917
24.253663879883135	2.0002687	1.4143085
24.271590965038975	1.9979721	1.4134964
24.289518653296376	2.024031	1.4226844
24.30744694515505	2.0508053	1.4320633
24.32537584111486	2.0279305	1.4240543
24.34330534167581	2.0370097	1.4272385
24.361235447338046	2.0699549	1.4387338
24.379166158601876	2.0884905	1.4451611
24.39709747596772	2.093454	1.4468772
24.41502939993615	2.048623	1.4313012
24.432961931007917	1.9870372	1.409623
24.450895069683856	1.9617709	1.4006323
24.468828816465	1.9770943	1.4060918
24.4867631718525	2.0029447	1.4152542
24.504698136347656	1.9792596	1.4068617
24.52263371045192	1.9774721	1.4062262
24.540569894666874	1.938826	1.3924173
24.558506689494266	1.9193898	1.3854204
24.57644409543597	1.9488791	1.3960226
24.594382112994012	1.9886652	1.4102005
24.61232074267057	1.9888723	1.4102738
24.630259984967953	1.9955335	1.4126335
24.64819984038863	2.027105	1.4237645
24.66614030943522	2.0076175	1.4169042
24.684081392610462	1.9710772	1.4039506
24.702023090417274	1.9361249	1.3914471
24.7199654033587	1.9410559	1.3932178
24.737908331937927	1.977661	1.4062934
24.755851876658305	2.016274	1.4199556
24.773796038023324	2.0279021	1.4240443
24.79174081653661	2.0733132	1.4399004
24.809686212701962	2.1541715	1.4677095
24.827632227023294	2.1226678	1.4569378
24.8455788600047	2.0259693	1.4233655
24.8635261121504	2.0298617	1.4247321
24.88147398396475	2.0457134	1.4302844
24.899422475952303	2.1025257	1.4500089
24.917371588617698	2.091769	1.4462949
24.935321322465768	2.1413636	1.4633399
24.953271678001478	2.227618	1.4925207
24.97122265572994	2.44773	1.5645223
24.989174256156414	2.7631369	1.6622686
25.00712647978632	3.1968997	1.7879876
25.02507932712521	3.6997428	1.9234716
25.043032798678798	4.2352943	2.0579832
25.060986894952933	4.9105735	2.2159815
25.078941616453637	5.654011	2.3778164
25.096896963687055	6.591561	2.5674036
25.114852937159508	7.771779	2.787791
25.132809537377444	8.267079	2.875253
25.150766764847468	8.366532	2.8924959
25.168724620076347	7.836869	2.7994409
25.186683103570985	6.856561	2.6185036
25.204642215838426	5.646947	2.3763306
25.222601957385894	4.2553153	2.0628417
25.24056232872074	3.1928391	1.7868518
25.25852333035048	2.587757	1.6086507
25.276484962782778	2.2665222	1.5054973
25.294447226525435	2.1440423	1.4642549
25.312410122086423	2.064117	1.4367034
25.330373649973843	2.007107	1.4167241
25.348337810695988	1.9736247	1.4048575
25.366302604761245	1.9194007	1.3854244
25.384268032678207	1.8495771	1.3599916
25.40223409495558	1.8745651	1.3691475
25.420200792102257	1.9048511	1.3801634
25.438168124627246	1.905285	1.3803207
25.45613609303974	1.8755366	1.3695023
25.474104697849057	1.9027872	1.3794155
25.492073939564698	1.9356871	1.3912897
25.510043818696285	1.9187219	1.3851794
25.528014335753614	1.8755621	1.3695116
25.54598549124664	1.84813	1.3594594
25.56395728568544	1.874188	1.3690099
25.58192971958028	1.841892	1.3571632
25.59990279344156	1.8260055	1.3512977
25.617876507779833	1.8199863	1.3490686
25.635850863105826	1.8492862	1.3598846
25.653825859930386	1.8631387	1.3649684
25.671801498764548	1.8648373	1.3655905
25.68977778011949	1.8490161	1.3597853
25.707754704506524	1.8466064	1.358899
25.725732272437153	1.8962685	1.3770506
25.743710484423012	1.890522	1.3749626
25.761689340975888	1.8800013	1.3711314
25.77966884260774	1.8529588	1.3612343
25.797648989830662	1.861574	1.3643951
25.815629783156922	1.866643	1.3662515
25.83361122309895	1.8770047	1.3700383
25.85159331016929	1.8938824	1.376184
25.869576044880695	1.8636085	1.3651404
25.887559427746034	1.8498231	1.360082
25.90554345927836	1.8431559	1.3576288
25.92352813999086	1.8367215	1.355257
25.94151347039689	1.8395567	1.3563026
25.959499451009965	1.8448955	1.3582693
25.97748608234374	1.8039862	1.3431256
25.995473364912062	1.8121109	1.3461467
26.013461299228904	1.8279183	1.3520052
26.03144988580839	1.8210799	1.349474
26.04943912516483	1.8001958	1.3417138
26.067429017812675	1.7930268	1.3390396
26.085419564266537	1.798557	1.341103
26.103410765041186	1.770996	1.3307878
26.12140262065155	1.7898555	1.3378549
26.139395131612723	1.8343949	1.3543984
26.157388298439948	1.8863512	1.373445
26.17538212164861	1.8656402	1.3658844
26.193376601754295	1.8442973	1.358049
26.211371739272714	1.8279222	1.3520068
26.229367534719746	1.848695	1.3596673
26.247363988611433	1.8418633	1.3571526
26.26536110146397	1.7764666	1.3328415
26.283358873793727	1.8075536	1.344453
26.301357306117204	1.8149953	1.3472176
26.319356398951104	1.8641162	1.3653264
26.33735615281224	1.8843213	1.3727058
26.35535656821762	1.9020299	1.379141
26.373357645684404	1.8764539	1.3698372
26.39135938572991	1.8488474	1.3597233
26.409361788871614	1.8358004	1.3549172
26.427364855627165	1.8049089	1.343469
26.445368586514352	1.8076813	1.3445004
26.46337298205115	1.7646413	1.328398
26.48137804275568	1.7506129	1.3231072
26.499383769146217	1.7686882	1.3299204
26.517390161741215	1.7697426	1.3303168
26.53539722105928	1.7573135	1.325637
26.553404947619182	1.7992882	1.3413755
26.571413341939856	1.8414654	1.3570061
26.589422404540397	1.8625777	1.3647629
26.60743213594006	1.8287472	1.3523117
26.62544253665827	1.8231003	1.3502223
26.64345360721459	1.8195418	1.3489039
26.66146534812879	1.8237336	1.3504568
26.679477759920758	1.8462515	1.3587683
26.69749084311057	1.85869	1.3633379
26.71550459821847	1.8510364	1.360528
26.733519025764842	1.7984737	1.3410718
26.751534126270258	1.7960042	1.3401508
26.769549900255434	1.7975157	1.3407147
26.787566348241267	1.8359747	1.3549814
26.80558347074881	1.836608	1.3552151
26.823601268299267	1.8037705	1.3430452
26.841619741414036	1.7855265	1.336236
26.85963889061465	1.7696434	1.3302795
26.877658716422832	1.7446982	1.3208703
26.89567921936045	1.7614187	1.3271846
26.913700399949544	1.7828276	1.3352257
26.93172225871233	1.7762125	1.3327461
26.949744796171174	1.742348	1.3199803
26.967768012848605	1.7447656	1.3208958
26.98579190926733	1.7588323	1.3262098
27.003816485950225	1.7970737	1.3405498
27.021841743420318	1.8235871	1.3504026
27.039867682200814	1.8551422	1.3620361
27.057894302815072	1.9074713	1.3811123
27.07592160578664	1.9131225	1.3831568
27.0939495916392	1.8743191	1.3690578
27.111978260896635	1.8088069	1.344919
27.13000761408296	1.7711384	1.3308413
27.148037651722397	1.7591093	1.3263142
27.166068374339304	1.766242	1.3290004
27.184099782458215	1.8236964	1.350443
27.20213187660384	1.8316463	1.3533833
27.22016465730105	1.8356041	1.3548447
27.23819812507487	1.8032348	1.3428458
27.256232280450533	1.7853485	1.3361694
27.274267123953383	1.7922156	1.3387365
27.292302656108987	1.8153298	1.3473418
27.31033887744306	1.817234	1.3480482
27.32837578848146	1.7908651	1.338232
27.34641338975026	1.8088892	1.3449495
27.364451681775673	1.8012815	1.3421183
27.382490665084074	1.7743366	1.3320422
27.400530340202046	1.7945163	1.3395956
27.41857070765629	1.819868	1.3490248
27.436611767973726	1.82552	1.3511181
27.454653521681404	1.7809479	1.3345217
27.472695969306564	1.7665067	1.3290999
27.490739111376627	1.7699869	1.3304086
27.508782948419153	1.7973605	1.3406568
27.526827480961902	1.8321518	1.35357
27.54487270953279	1.8437424	1.3578447
27.562918634659898	1.7868907	1.3367463
27.580965256871508	1.7394189	1.3188703
27.599012576696026	1.7619109	1.3273699
27.617060594662068	1.7906411	1.3381484
27.63510931129842	1.8105067	1.3455507
27.65315872713401	1.8371953	1.3554318
27.67120884269797	1.8280554	1.352056
27.68925965851958	1.8009881	1.342009
27.707311175128307	1.8093367	1.3451159
27.725363393053787	1.8182641	1.3484303
27.74341631282583	1.8134248	1.3466346
27.7614699349744	1.8350542	1.3546417
27.77952426002968	1.9798589	1.4070746
27.797579288521973	2.08864	1.4452127
27.815635020981784	2.560204	1.6000638
27.83369145793979	2.6178927	1.6179904
27.85174859992682	2.4467883	1.5642213
27.869806447473923	2.237541	1.4958413
27.887865001112267	1.9466482	1.3952234
27.905924261373233	1.858297	1.3631936
27.92398422878836	1.8808804	1.371452
27.94204490388936	1.8781475	1.3704553
27.96010628720813	1.8732997	1.3686854
27.978168379276728	1.8776739	1.3702824
27.9962311806274	1.8470025	1.3590447
28.014294691792568	1.8374398	1.3555219
28.0323589133048	1.8243967	1.3507023
28.050423845696887	1.8306409	1.3530118
28.068489489501758	1.8870168	1.3736873
28.086555845252523	1.8820342	1.3718725
28.104622913482487	1.8505226	1.3603392
28.122690694725115	1.8382082	1.3558054
28.14075918951405	1.8689044	1.3670788
28.15882839838312	1.884269	1.3726867
28.176898321866304	1.9167871	1.3844808
28.1949689604978	1.9535173	1.3976828
28.213040314811945	1.9591591	1.3996997
28.23111238534327	1.9624308	1.4008679
28.249185172626493	1.9840086	1.4085484
28.267258677196473	1.954313	1.3979675
28.285332899588294	1.9321656	1.3900236
28.303407840337172	1.9336357	1.3905523
28.321483499978545	1.9804552	1.4072864
28.33955987904799	2.0552044	1.4335984
28.357636978081285	2.0712624	1.4391881
28.37571479761439	1.9978621	1.4134575
28.393793338183425	1.9584146	1.3994336
28.41187260032469	1.9376409	1.3919917
28.429952584574686	1.8860192	1.3733242
28.448033291470065	1.8826002	1.3720788
28.46611472154769	1.9113436	1.3825135
28.484196875344566	1.894069	1.3762518
28.502279753397914	1.8998343	1.3783448
28.52036335624511	1.9596574	1.3998777
28.538447684423716	2.0046685	1.4158632
28.556532738471482	1.9585022	1.399465
28.574618518926325	1.9375308	1.3919522
28.59270502632635	1.9454768	1.3948035
28.61079226120985	1.9857286	1.4091588
28.628880224115274	2.006417	1.4164805
28.646968915581287	1.997571	1.4133545
28.66505833614671	2.0439765	1.4296771
28.68314848635055	2.0657902	1.4372857
28.701239366732004	2.0689585	1.4383875
28.71933097783044	2.0545666	1.433376
28.737423320185403	2.0538406	1.4331226
28.75551639433665	2.0650616	1.4370322
28.773610200824074	2.10293	1.4501483
28.791704740187793	2.1514163	1.4667706
28.80980001296809	2.1802084	1.4765528
28.827896019705413	2.1959631	1.4818783
28.845992760940433	2.2322307	1.4940652
28.86409023721397	2.2342842	1.4947522
28.88218844906704	2.2187467	1.4895458
28.900287397040845	2.1682777	1.4725072
28.918387081676755	2.1835546	1.4776856
28.936487503516343	2.1865368	1.4786943
28.954588663101365	2.2412412	1.4970776
28.97269056097374	2.2600818	1.5033568
28.990793197675597	2.3396735	1.5295992
29.00889657374923	2.3640635	1.5375512
29.027000689737125	2.3890886	1.5456676
29.04510554618196	2.368856	1.5391089
29.06321114362659	2.326886	1.5254134
29.08131748261405	2.3832178	1.5437675
29.099424563687567	2.5281327	1.5900103
29.11753238739057	2.5697515	1.6030444
29.13564095426663	2.5436184	1.5948726
29.15375026485954	2.6224513	1.6193985
29.171860319713275	2.7199037	1.6492131
29.18997111937199	2.6611683	1.6313088
29.20808266438002	2.6303182	1.6218256
29.226194955281898	2.6987972	1.6428016
29.244307992622335	2.7735956	1.6654116
29.26242177694624	2.8126953	1.6771092
29.2805363087987	2.7565236	1.6602782
29.29865158872498	2.7272148	1.6514281
29.316767617270557	2.8553207	1.6897694
29.334884394981064	3.00006	1.7320682
29.353001922402367	3.0320363	1.7412744
29.37112020008047	3.089109	1.7575861
29.389239228561596	3.1882293	1.7855613
29.407359008392152	3.3442836	1.8287382
29.42547954011872	3.6712627	1.9160539
29.44360082428809	4.3658743	2.0894675
29.46172286144722	5.4158044	2.327188
29.479845652143283	6.956526	2.6375227
29.497969196923606	9.1047535	3.0174084
29.516093496335728	11.68004	3.4176073
29.5342185509274	14.4892435	3.806474
29.55234436124651	16.939344	4.1157436
29.570470927841175	18.272263	4.2746067
29.588598251259686	17.720526	4.2095757
29.60672633205055	16.321737	4.040017
29.624855170762405	14.392802	3.7937846
29.642984767944146	11.790649	3.4337516
29.66111512414481	9.012857	3.0021422
29.67924623991366	6.7888956	2.605551
29.697378115800138	5.1643143	2.2725127
29.71551075235387	4.212757	2.0525002
29.733644150124675	3.738714	1.9335754
29.751778309662576	3.531655	1.8792698
29.769913231517766	3.444917	1.8560487
29.78804891624066	3.430132	1.8520615
29.806185364381818	3.4082742	1.8461512
29.82432257649206	3.3840084	1.8395674
29.842460553122333	3.4151452	1.8480111
29.86059929482382	3.3830388	1.8393039
29.878738802147872	3.276715	1.8101699
29.896879075646048	3.2715108	1.8087318
29.915020115870114	3.2374794	1.7992997
29.933161923371976	3.234577	1.7984929
29.951304498703777	3.2503426	1.8028706
29.969447842417857	3.2541983	1.8039397
29.987591955066733	3.2264388	1.796229
30.005736837203123	3.2582188	1.8050537
30.023882489379943	3.2366261	1.7990626
30.04202891215028	3.1714947	1.7808691
30.060176106067455	3.127465	1.768464
30.078324071684946	3.1259263	1.768029
30.09647280955646	3.1812356	1.7836019
30.114622320235863	3.14346	1.7729806
30.132772604277257	3.1206574	1.7665383
30.1509236622349	3.104073	1.761838
30.16907549466328	3.113842	1.7646081
30.18722810211705	3.1320226	1.7697521
30.205381485151097	3.0800169	1.7549977
30.22353564432045	3.0721707	1.7527609
30.241690580180403	3.091016	1.7581285
30.25984629328638	3.109653	1.7634208
30.278002784194037	3.0587173	1.7489189
30.296160053459246	3.0042138	1.7332668
30.314318101638033	3.0214503	1.7382319
30.332476929286646	3.0324214	1.7413849
30.35063653696153	2.9639885	1.7216238
30.368796925219307	2.8519316	1.6887662
30.386958094616844	2.8511798	1.6885437
30.40512004571115	2.931531	1.7121714
30.423282779059463	2.9771051	1.7254289
30.441446295219233	2.9462411	1.7164618
30.459610594748067	2.8709428	1.6943856
30.47777567820382	2.872246	1.6947702
30.495941546144504	2.885328	1.6986253
30.51410819912835	2.7931702	1.671278
30.532275637713795	2.767305	1.6635219
30.55044386245946	2.753784	1.6594529
30.56861287392416	2.7399237	1.6552715
30.586782672666956	2.7616606	1.6618245
30.604953259247047	2.7359557	1.6540725
30.623124634223885	2.761248	1.6617004
30.641296798157075	2.8029153	1.674191
30.659469751606462	2.7793286	1.6671319
30.677643495132074	2.8011231	1.6736556
30.695818029294152	2.8094983	1.6761558
30.713993354653116	2.7482722	1.6577914
30.73216947176962	2.6741955	1.6352968
30.75034638120448	2.6693816	1.6338242
30.768524083518756	2.7070658	1.6453164
30.786702579273673	2.7479627	1.657698
30.80488186903069	2.838877	1.6848967
30.82306195335144	2.9892125	1.7289339
30.841242832797782	3.1334796	1.7701638
30.85942450793176	3.2963643	1.8155892
30.877606979315637	3.6192706	1.902438
30.895790247511883	4.0453577	2.0113075
30.913974313083134	4.5294023	2.1282392
30.932159176592283	4.8651204	2.2057018
30.95034483860237	4.8879123	2.2108624
30.968531299676698	4.686104	2.164741
30.98671856037873	4.3923426	2.0957916
31.00490662127215	3.9671779	1.9917775
31.023095482920848	3.5432818	1.8823607
31.04128514588892	3.1108105	1.763749
31.059475610740662	2.7676032	1.6636115
31.07766687804056	2.4812562	1.5752004
31.09585894835335	2.3716073	1.5400023
31.11405182224393	2.4095097	1.5522596
31.132245500277417	2.4509945	1.5655652
31.15043998301914	2.4716187	1.5721382
31.168635271034628	2.4253504	1.5573536
31.18683136488964	2.378694	1.5423015
31.20502826515008	2.3764474	1.541573
31.223225972382135	2.427131	1.5579252
31.241424487152155	2.4646454	1.5699189
31.259623810026692	2.414046	1.5537201
31.27782394157253	2.4188614	1.5552689
31.296024882356644	2.3767996	1.5416873
31.314226632946237	2.3541656	1.534329
31.332429193908684	2.3001318	1.5166185
31.350632565811598	2.32836	1.5258964
31.368836749222787	2.3409216	1.5300071
31.387041744710295	2.397378	1.5483469
31.40524755284232	2.4342325	1.5602027
31.423454174187317	2.5136356	1.5854449
31.441661609313922	2.5181413	1.5868652
31.459869858791002	2.5344574	1.591998
31.478078923187628	2.5508273	1.5971309
31.496288803073064	2.5687995	1.6027474
31.514499499016807	2.5059347	1.5830145
31.532711011588546	2.4242134	1.5569886
31.550923341358178	2.3963306	1.5480086
31.56913648889584	2.4113412	1.5528494
31.587350454771844	2.375519	1.5412719
31.605565239556732	2.3655095	1.5380213
31.62378084382127	2.365717	1.5380887
31.641997268136382	2.3319855	1.527084
31.660214513073274	2.3015008	1.5170698
31.67843257920331	2.355943	1.5349082
31.6966514670981	2.3044188	1.5180312
31.71487117732944	2.3028	1.5174979
31.733091710469346	2.3204646	1.5233071
31.751313067090052	2.2990243	1.5162534
31.769535247764008	2.260858	1.503615
31.787758253063878	2.3483438	1.5324306
31.805982083562526	2.3646727	1.5377492
31.824206739833024	2.326143	1.5251698
31.84243222244869	2.2910533	1.5136225
31.860658531983013	2.2777736	1.5092294
31.878885669009737	2.2431643	1.4977196
31.897113634102784	2.273055	1.5076654
31.91534242783632	2.326464	1.525275
31.933572050784694	2.3024848	1.5173941
31.951802503522508	2.276657	1.5088595
31.970033786624548	2.2906995	1.5135057
31.988265900665834	2.315294	1.5216091
32.006498846221575	2.2751849	1.5083716
32.02473262386724	2.2124767	1.4874396
32.04296723417845	2.1857255	1.4784199
32.0612026777311	2.1908023	1.4801359
32.07943895510129	2.2722058	1.5073838
32.097676066865304	2.2322564	1.4940737
32.115914013599685	2.111322	1.4530388
32.13415279588115	2.1176813	1.4552255
32.152392414286666	2.1534567	1.4674661
32.1706328693934	2.148979	1.4659396
32.18887416177875	2.0688672	1.4383557
32.20711629202032	2.1051135	1.4509009
32.225359260695924	2.15277	1.4672321
32.243603068383614	2.1749673	1.474777
32.26184771566166	2.108713	1.4521408
32.28009320310852	2.0792315	1.441954
32.2983395313029	2.0762076	1.4409051
32.31658670082372	2.076376	1.4409635
32.33483471225012	2.1059585	1.4511921
32.35308356616143	2.1662104	1.4718051
32.371333263137245	2.1666286	1.4719472
32.38958380375734	2.1633651	1.4708382
32.407835188601744	2.0968819	1.4480615
32.42608741825067	2.048302	1.431189
32.444340493284585	2.1058543	1.4511561
32.46259441428416	2.1510525	1.4666467
32.48084918183028	2.1179714	1.4553252
32.49910479650405	2.0654788	1.4371774
32.51736125888683	2.011504	1.418275
32.53561856956014	2.0047672	1.415898
32.5538767291058	1.9302012	1.3893168
32.572135738105764	1.9486251	1.3959316
32.59039559714228	2.060845	1.4355643
32.608656306797776	2.1068747	1.4515077
32.62691786765491	2.063367	1.4364425
32.645180280296586	2.0033913	1.4154121
32.663443545305896	1.9783666	1.4065442
32.68170766326619	1.9758325	1.4056431
32.69997263476099	1.9340247	1.3906921
32.7182384603741	1.9258723	1.387758
32.7365051406895	1.9215363	1.386195
32.75477267629144	1.9047029	1.3801098
32.77304106776434	1.8854375	1.3731123
32.79131031569289	1.9433825	1.3940525
32.809580420661966	2.073723	1.4400427
32.827851383256714	2.005066	1.4160035
32.84612320406245	1.8490716	1.3598057
32.86439588366476	1.8625128	1.3647391
32.88266942264945	1.9499549	1.3964078
32.9009438216025	1.9585832	1.3994939
32.9192190811102	1.967442	1.4026554
32.937495201758985	1.9232812	1.3868241
32.95577218413556	1.9803077	1.4072341
32.974050028826866	1.9672683	1.4025935
32.992328736420035	1.897477	1.3774894
33.010608307502444	1.8342564	1.3543472
33.02888874266169	1.8642889	1.3653897
33.047170042485604	1.9170959	1.3845923
33.06545220756225	1.9468824	1.3953073
33.083735238479896	2.002206	1.4149933
33.10201913582707	2.10943	1.4523877
33.12030390019248	2.0386922	1.4278278
33.138589532165135	1.9212576	1.3860943
33.15687603233419	1.94491	1.3946003
33.17516340128909	1.9642943	1.4015329
33.19345163961947	1.8923742	1.3756359
33.211740747915215	1.9086393	1.3815352
33.23003072676643	1.99288	1.411694
33.248321576763466	1.9649527	1.4017677
33.266613298496885	1.9531447	1.3975495
33.28490589255747	1.9434106	1.3940626
33.30319935953626	1.9831059	1.4082279
33.32149370002451	1.9458532	1.3949385
33.339788914613706	1.8861406	1.3733684
33.358085003895575	1.9529594	1.3974832
33.376381968462034	1.91876	1.3851931
33.39467980890529	1.8756665	1.3695498
33.41297852581774	1.8735518	1.3687775
33.43127811979204	1.8577155	1.3629804
33.44957859142105	1.884849	1.372898
33.467879941297866	1.8966616	1.3771935
33.486182170015844	1.9319539	1.3899474
33.50448527816853	1.8853202	1.3730696
33.522789266349754	1.92129	1.386106
33.541094135153514	1.9827744	1.4081103
33.55939988517411	1.9818252	1.4077731
33.57770651700602	1.941377	1.3933331
33.59601403124398	1.8173518	1.348092
33.61432242848296	1.8106772	1.3456141
33.632631709318154	1.7834878	1.3354728
33.650941874344994	1.7850112	1.3360431
33.66925292415916	1.8536996	1.3615063
33.68756485935654	1.945247	1.3947212
33.70587768053328	1.9458354	1.394932
33.724191388285746	1.9443429	1.3943969
33.74250598321054	2.0289016	1.4243952
33.760821465904506	2.0816498	1.4427923
33.77913783696474	2.0235927	1.4225304
33.79745509698852	1.8935785	1.3760736
33.815773246573414	1.7774422	1.3332075
33.8340922863172	1.8469846	1.3590381
33.852412216817896	1.9942043	1.412163
33.87073303867377	2.0371563	1.4272898
33.889054752483304	2.0267696	1.4236466
33.907377358845245	2.0642536	1.436751
33.92570085835853	2.0818338	1.4428562
33.94402525162239	2.0649803	1.437004
33.96235053923627	1.9501706	1.3964851
33.980676721799824	1.9493486	1.3961908
33.999003799912984	1.9904591	1.4108363
34.01733177417592	2.0611603	1.4356742
34.03566064518901	2.0068815	1.4166445
34.0539904135529	1.8867099	1.3735756
34.07232107986846	1.8561622	1.3624104
34.090652644736785	1.9191946	1.38535
34.108985108759235	1.9865713	1.4094578
34.12731847253742	2.0677547	1.437969
34.14565273667313	2.212875	1.4875735
34.16398790176847	2.1399724	1.4628645
34.18232396842574	2.028373	1.4242096
34.20066093724749	2.0113108	1.4182069
34.21899880883651	2.0862532	1.4443867
34.23733758379583	2.0666645	1.4375898
34.25567726272874	1.929887	1.3892038
34.27401784623872	1.9622481	1.4008026
34.29235933492957	2.0043585	1.4157537
34.31070172940526	2.007094	1.4167194
34.32904503027003	1.9269018	1.3881289
34.347389238128386	1.8186468	1.3485721
34.36573435358502	1.8962325	1.3770375
34.38408037724492	1.954037	1.3978688
34.402427309713296	1.9962405	1.4128838
34.42077515159559	1.9394233	1.3926318
34.43912390349752	1.8969408	1.3772948
34.45747356602499	1.7429231	1.3201982
34.47582413978423	1.7108057	1.3079777
34.49417562538163	1.7997661	1.3415536
34.51252802342388	1.9654435	1.4019427
34.53088133451789	2.0236597	1.4225539
34.54923555927084	1.8798485	1.3710756
34.567590698290104	1.794468	1.3395776
34.58594675218336	1.7853599	1.3361735
34.6043037215585	1.8403369	1.3565902
34.62266160702365	1.8846544	1.3728272
34.641020409187234	2.0048566	1.4159296
34.65938012865785	1.9898051	1.4106045
34.677740766044394	1.8728087	1.368506
34.69610232195598	1.8651465	1.3657037
34.714464797002016	2.048158	1.4311386
34.73282819179208	2.110215	1.4526579
34.751192506936064	2.1937363	1.4811267
34.76955774304408	2.1705606	1.4732822
34.7879239007265	2.1551673	1.4680488
34.80629098059391	2.096391	1.447892
34.824658983257194	2.026796	1.4236559
34.843027909327446	1.8691052	1.3671522
34.86139775941603	1.9191388	1.3853298
34.879768534134534	1.988128	1.4100099
34.89814023409483	2.1912348	1.4802821
34.91651285990901	2.1498885	1.4662498
34.93488641218944	1.7422765	1.3199532
34.95326089154871	1.729571	1.3151315
34.97163629859967	1.8889449	1.3743889
34.99001263395542	1.8986778	1.3779252
35.00838989822934	1.9964465	1.4129566
35.02676809203499	1.9142294	1.3835568
35.04514721598624	1.9310685	1.3896289
35.063527270697215	1.9088094	1.3815967
35.081908256782256	1.8184723	1.3485074
35.10029017485597	1.993642	1.4119638
35.11867302553321	2.02528	1.4231234
35.137056809429104	1.9988369	1.4138023
35.155441527159006	1.9177572	1.3848311
35.173827179338524	1.7973082	1.3406372
35.19221376658354	1.8224038	1.3499644
35.21060128951017	2.092503	1.4465487
35.2289897487348	2.2189908	1.4896277
35.24737914487405	2.25883	1.5029404
35.26576947854479	2.0100548	1.4177641
35.28416075036418	2.1562006	1.4684007
35.30255296094958	2.469165	1.5713577
35.32094611091867	2.3285973	1.5259743
35.33934020088932	2.1390975	1.4625654
35.35773523147969	2.00607	1.416358
35.3761312033082	2.058138	1.4346212
35.394528116993506	1.9683247	1.40297
35.41292597315452	2.1185813	1.4555347
35.431324772410434	2.310885	1.5201595
35.449724515380666	2.5624495	1.6007652
35.46812520268491	2.7504382	1.6584445
35.486526834943106	2.5014153	1.5815864
35.504929412775454	1.8515587	1.3607199
35.52333293680242	1.7355987	1.3174212
35.54173740764471	1.833107	1.3539228
35.560142825923286	1.8334115	1.3540353
35.5785491922594	1.7956305	1.3400114
35.59695650727454	1.6511357	1.2849653
35.61536477159042	2.20624	1.4853417
