0.008763373481513119	0.7644548	0.87433106
0.026290120649546365	0.5644624	0.75130713
0.043816868432600686	0.43831155	0.662051
0.06134361724069026	0.21404772	0.46265292
0.07887036748382949	0.14145091	0.37609962
0.0963971195720331	0.103452034	0.3216396
0.11392387391531617	0.08879804	0.29799
0.1314506309236943	0.105698384	0.32511288
0.1489773910071836	0.06994729	0.2644755
0.16650415457580078	0.08318552	0.288419
0.18403092203956356	0.037675425	0.19410159
0.20155769380849	0.07916089	0.28135544
0.2190844702925996	0.10668163	0.32662153
0.2366112519019124	0.13432132	0.36649874
0.2541380390464497	0.12271378	0.35030526
0.27166483213623416	0.19269955	0.43897557
0.28919163158128947	0.23251353	0.48219657
0.3067184377916406	0.2303396	0.47993708
0.324245251177314	0.20162117	0.44902247
0.34177207214833777	0.17233117	0.4151279
0.3592989011147415	0.19955827	0.44671947
0.37682573848655654	0.16881001	0.41086495
0.39435258467381573	0.16291939	0.40363273
0.41187944008655414	0.13822077	0.37178054
0.42940630513480854	0.14365411	0.3790173
0.446933180228618	0.1376415	0.37100068
0.4644600657780234	0.13896999	0.3727868
0.48198696219306775	0.17218085	0.4149468
0.49951386988379676	0.2351654	0.48493856
0.5170407892602581	0.2338651	0.483596
0.5345677207325025	0.22786787	0.4773551
0.5520946647105822	0.21649152	0.4652865
0.5696216216045534	0.17634657	0.4199364
0.5871485918244737	0.18393213	0.4288731
0.6046755757804043	0.18061742	0.42499107
0.6222025738824094	0.17323956	0.41622058
0.6397295865405557	0.15504293	0.3937549
0.6572566141649129	0.13663132	0.36963674
0.6747836571655547	0.16474774	0.4058913
0.6923107159525568	0.20750469	0.45552683
0.7098377909359992	0.2264035	0.47581878
0.7273648825259653	0.23407502	0.48381302
0.7448919911325411	0.22100559	0.47011232
0.762419117165817	0.19982454	0.44701737
0.7799462610358868	0.18832783	0.43396756
0.7974734231528482	0.1374779	0.37078014
0.8150006039268024	0.14692794	0.3833118
0.8325278037678551	0.13966706	0.37372056
0.8500550230861152	0.18649668	0.4318526
0.8675822622916969	0.212448	0.4609208
0.8851095217947171	0.1849704	0.43008184
0.9026368020052984	0.16308612	0.40383923
0.9201641033335665	0.20929912	0.4574922
0.9376914261896523	0.21569765	0.4644326
0.9552187709836915	0.22521347	0.4745666
0.9727461381258234	0.2527861	0.50277835
0.990273528026193	0.28166205	0.53071845
1.0078009410949496	0.28092661	0.5300251
1.0253283777422473	0.265447	0.51521546
1.0428558383782454	0.24462228	0.49459305
1.0603833234131086	0.24008597	0.48998567
1.0779108332570058	0.28389078	0.532814
1.0954383683201119	0.32021013	0.5658711
1.112965929012607	0.3674745	0.60619676
1.1304935157446763	0.50213313	0.7086135
1.1480211289265108	0.5411518	0.7356302
1.1655487689683062	1.4156715	1.1898199
1.1830764362802655	1.700285	1.3039497
1.200604131272596	2.0463903	1.430521
1.2181318543555117	2.1897428	1.4797779
1.235659605939232	2.2246091	1.4915124
1.253187386433982	3.849624	1.9620459
1.270715196249994	6.4293647	2.5356193
1.2882430357975057	12.1597805	3.4870877
1.3057709054867608	17.02826	4.126531
1.3232988057280106	22.609825	4.754979
1.3408267369315112	27.624548	5.255906
1.358354699507526	31.219397	5.587432
1.3758826938663256	35.412556	5.950845
1.3934107204181858	37.081886	6.08949
1.410938779573391	37.23358	6.1019325
1.4284668717422309	38.0971	6.1722846
1.4459949973350033	37.95676	6.160906
1.4635231567620117	37.86214	6.153222
1.4810513504335687	36.96309	6.0797276
1.4985795787599925	36.060528	6.005042
1.5161078421516088	35.927814	5.9939814
1.5336361410187505	34.98055	5.914436
1.5511644757717598	35.074944	5.9224105
1.5686928468209842	35.526676	5.960426
1.58622125457678	36.25915	6.0215573
1.6037496994495108	37.05744	6.0874825
1.621278181849548	36.635628	6.052737
1.6388067021872719	37.47856	6.1219735
1.6563352608730693	37.10559	6.091436
1.673863858317336	36.392006	6.032579
1.6913924949304753	35.626995	5.9688354
1.7089211711228998	34.19229	5.8474174
1.7264498873050296	33.351475	5.7750735
1.7439786438872935	32.318428	5.68493
1.7615074412801288	31.310463	5.5955753
1.779036279893981	30.905056	5.5592318
1.796565160139305	30.212282	5.49657
1.814094082426564	29.658258	5.4459395
1.8316230471662298	28.98107	5.3834066
1.849152054768784	28.190334	5.3094573
1.8666811056447168	27.720814	5.265056
1.8842102002045273	27.259758	5.221088
1.901739338858724	26.644468	5.161828
1.9192685220178245	26.010332	5.1000323
1.9367977500923557	25.363323	5.0362015
1.9543270234928547	24.85841	4.985821
1.971856342629867	24.291985	4.92869
1.9893857079139496	24.007027	4.899697
2.006915119755667	23.138922	4.810293
2.0244445785655945	22.341066	4.7266335
2.0419740847543175	21.708418	4.6592293
2.0595036387324317	21.376461	4.6234684
2.0770332409105414	21.104748	4.5939903
2.094562891699263	20.821476	4.5630555
2.1120925915092217	20.190283	4.49336
2.129622340751053	19.895136	4.4603963
2.1471521398354043	187.86632	13.706433
2.1646819891729323	443.9761	21.07074
2.182211889174303	440.01718	20.976587
2.1997418402501974	452.31516	21.267702
2.2172718428113023	432.31183	20.79211
2.234801897268317	320.53598	17.903519
2.2523320040319548	17.193783	4.1465387
2.269862163512935	17.125982	4.1383553
2.287392376121992	16.68281	4.08446
2.304922642269869	16.187092	4.0233183
2.322452962367322	15.667204	3.9581819
2.3399833368251164	15.281684	3.9091794
2.357513766054032	15.101789	3.8861022
2.3750442504648586	14.92202	3.862903
2.3925747904683963	14.763747	3.8423622
2.410105386475459	14.501201	3.8080442
2.4276360388968707	14.31495	3.7835102
2.445166748143469	14.114704	3.7569542
2.4626975146261025	13.902725	3.7286358
2.4802283387556323	13.598922	3.6876717
2.4977592209429305	13.326541	3.6505535
2.5152901615988825	13.12079	3.622263
2.5328211611343865	12.936413	3.5967226
2.5503522199603523	12.647802	3.5563748
2.5678833384877024	12.617277	3.5520806
2.5854145171273712	12.544793	3.541863
2.6029457562903064	12.397901	3.5210652
2.620477056387469	12.088277	3.47682
2.6380084178298326	11.714155	3.4225948
2.655539841028383	11.262188	3.3559184
2.673071326394119	11.052284	3.3244977
2.6906028743380523	10.743971	3.2777996
2.708134485271211	10.739084	3.2770543
2.7256661596046325	10.757395	3.2798467
2.743197897749369	10.744964	3.2779512
2.760729700116486	10.705008	3.2718508
2.778261567117063	10.512453	3.2422915
2.795793499162193	10.2442	3.2006562
2.8133254966629817	10.014907	3.1646338
2.830857560030551	9.877433	3.1428382
2.8483896896760337	9.768545	3.1254673
2.865921886010578	9.633839	3.1038425
2.883454149445347	9.515968	3.0847964
2.9009864803915177	9.481875	3.0792654
2.91851887926028	9.387932	3.0639732
2.9360513464628384	9.291233	3.0481524
2.953583882410413	9.16257	3.0269737
2.9711164875142373	9.047621	3.0079262
2.9886491621855606	8.94596	2.9909797
3.0061819068356455	8.905616	2.984228
3.023714721875769	8.862768	2.97704
3.041247607717225	8.6569395	2.9422677
3.0587805647713213	8.34832	2.889346
3.0763135934493806	8.076525	2.8419228
3.0938466941627407	7.9878793	2.8262837
3.1113798673227544	7.9548116	2.8204277
3.1289131133407904	8.020956	2.8321292
3.1464464326282315	7.8989725	2.810511
3.1639798255964786	7.781926	2.7896104
3.1815132926569443	7.641791	2.764379
3.1990468342210603	7.569426	2.751259
3.216580450700272	7.4789567	2.7347682
3.2341141425060416	7.4188976	2.7237654
3.251647910049847	7.408599	2.7218742
3.2691817537431813	7.3189163	2.7053497
3.286715673997555	7.194337	2.6822262
3.3042496712244938	7.078028	2.6604564
3.32178374583554	7.052041	2.655568
3.339317898242251	6.901797	2.6271272
3.3568521288562034	6.8561726	2.6184294
3.3743864380889876	6.7937236	2.6064773
3.3919208263522127	6.6962147	2.5877044
3.4094552940575023	6.533424	2.5560563
3.4269898416164972	6.460424	2.5417364
3.444524469440858	6.4706497	2.5437472
3.4620591779422587	6.481366	2.5458527
3.479593967532391	6.5120473	2.5518713
3.4971288386229658	6.341679	2.518269
3.5146637916257086	6.2794003	2.5058732
3.5321988269523628	6.2410975	2.4982188
3.5497339450146903	6.193545	2.4886835
3.5672691462244708	6.2404375	2.4980867
3.5848044309934988	6.3126736	2.5125034
3.60233979973359	6.257387	2.501477
3.619875252856575	6.2895164	2.507891
3.6374107907743034	6.2657237	2.5031428
3.6549464138986427	6.281133	2.506219
3.6724821226414788	6.3163896	2.5132427
3.690017917414714	6.2608495	2.502169
3.7075537986302702	6.2903843	2.5080638
3.7250897667000857	6.3284183	2.5156348
3.7426258220361235	6.4153357	2.5328512
3.7601619650503553	6.7404284	2.5962336
3.777698196154779	7.304503	2.7026844
3.7952345157614067	8.359865	2.891343
3.8127709242822716	9.067343	3.0112028
3.830307422129425	11.130132	3.3361852
3.847844009714936	29.848112	5.4633427
3.8653806874508954	97.332306	9.865714
3.882917455749409	96.71102	9.834176
3.900454315022606	96.60321	9.828693
3.917991265682631	41.185467	6.4175906
3.9355283081416506	10.846069	3.293337
3.9530654428118495	8.610777	2.9344125
3.970602670105433	7.4106936	2.7222588
3.9881399904346244	6.4717803	2.5439694
4.005677404211669	6.387471	2.5273447
4.023214911848827	6.365798	2.5230534
4.0407525137583855	6.4183865	2.5334535
4.058290210352644	6.4253936	2.534836
4.075828002043927	6.3906403	2.5279715
4.0933658892445814	6.261552	2.5023093
4.110903872366966	6.203154	2.4906132
4.128441951823468	6.048913	2.4594538
4.145980128026488	6.1262813	2.4751325
4.163518401388452	6.164245	2.4827898
4.181056772321807	6.168138	2.4835737
4.1985952412390155	6.0520053	2.4600823
4.216133808552567	6.0377283	2.4571788
4.233672474674966	6.0986395	2.4695423
4.251211240018741	6.3259144	2.515137
4.268750104996445	6.5894365	2.56699
4.286289070020643	7.5392976	2.745778
4.303828135503928	9.191167	3.0316937
4.3213673018589125	29.359432	5.4184346
4.3389065694982305	90.47916	9.5120535
4.356445938834537	165.73317	12.873739
4.3739854102805085	171.7482	13.105274
4.391524984248844	172.74133	13.143109
4.409064661152262	136.81316	11.696715
4.426604441403504	97.163155	9.857138
4.444144325415337	75.863	8.709937
4.461684313600543	21.834034	4.6726904
4.47922440637193	21.931019	4.6830564
4.496764604142329	20.002869	4.4724565
4.5143049073245916	18.295988	4.277381
4.531845316331589	16.315283	4.039218
4.5493858315762195	13.755157	3.7087946
4.566926453471405	11.522814	3.394527
4.584467182430081	9.437673	3.0720794
4.602008018865218	8.186685	2.8612382
4.619548963189798	7.4937625	2.7374737
4.637090015816834	7.0566545	2.6564364
4.654631177159353	6.869958	2.6210604
4.672172447630417	6.5095997	2.5513916
4.689713827643102	6.312359	2.512441
4.7072553176105085	6.0577526	2.4612503
4.724796917945764	5.9227405	2.4336681
4.742338629062015	5.817271	2.411902
4.759880451372434	5.797126	2.4077222
4.777422385290215	5.7862363	2.4054596
4.794964431228581	5.708138	2.389171
4.812506589600768	5.6304765	2.3728626
4.830048860820047	5.5229626	2.3500984
4.847591245299709	5.5546966	2.3568404
4.8651337434530655	5.656143	2.3782647
4.882676355693457	5.7614512	2.4003024
4.900219082434242	5.7772737	2.403596
4.917761924088813	5.7015615	2.3877943
4.935304881070575	5.5852184	2.3633068
4.952847953792969	5.536604	2.352999
4.970391142669449	5.4826493	2.3415058
4.9879344481135055	5.5290756	2.3513987
5.005477870538642	5.5590057	2.3577545
5.023021410358394	5.535767	2.352821
5.040565067986324	5.4752765	2.3399308
5.05810884383601	5.4026437	2.3243587
5.075652738321066	5.3101673	2.30438
5.09319675185512	5.282166	2.2982962
5.110740884851836	5.2693453	2.2955055
5.128285137724894	5.2946763	2.3010163
5.145829510888007	5.3052554	2.303314
5.163374004754908	5.3442426	2.3117619
5.1809186197393595	5.3097405	2.3042874
5.198463356255145	5.2608767	2.2936602
5.216008214716077	5.20022	2.280399
5.233553195535998	5.2162848	2.2839186
5.251098299128764	5.2611876	2.2937279
5.268643525908272	5.280757	2.2979898
5.286188876288432	5.2733808	2.2963843
5.3037343506831895	5.3092713	2.3041856
5.32127994950651	5.306842	2.3036582
5.3388256731723915	5.2837224	2.298635
5.356371522094851	5.2893677	2.2998626
5.373917496687938	5.2858586	2.2990994
5.391463597365729	5.3223233	2.3070161
5.40900982454232	5.2437425	2.289922
5.426556178631843	5.186397	2.2773662
5.444102660048449	5.129091	2.2647495
5.4616492692063225	5.0510488	2.247454
5.479196006519669	5.063516	2.2502258
5.496742872402727	5.073142	2.2523637
5.514289867269756	5.146276	2.2685404
5.531836991535049	5.1467357	2.2686417
5.549384245612924	5.1283717	2.2645907
5.566931629917724	5.151278	2.2696426
5.584479144863822	5.15596	2.270674
5.6020267908656205	5.174658	2.2747874
5.619574568337545	5.1400084	2.2671587
5.637122477694054	5.1793303	2.2758143
5.654670519349629	5.160427	2.2716572
5.672218693718784	5.129393	2.2648163
5.689767001216059	5.0925603	2.2566702
5.707315442256021	5.039281	2.2448342
5.724864017253266	5.041497	2.245328
5.7424127266224225	5.032485	2.24332
5.75996157077814	5.1415825	2.267506
5.777510550135105	5.2230034	2.2853892
5.795059665108022	5.212685	2.2831306
5.812608916111639	5.15193	2.2697864
5.830158303560715	5.14767	2.2688477
5.847707827870055	5.254522	2.2922745
5.86525748945448	5.4110856	2.326174
5.8828072887288485	5.576671	2.3614976
5.900357226108044	5.5480866	2.3554378
5.917907302006979	5.527276	2.351016
5.9354575168406	6.028004	2.4551995
5.9530078710238765	6.6560035	2.5799232
5.970558364971812	7.3142323	2.7044837
5.988108999099438	7.7186837	2.778252
6.005659773821818	8.125427	2.8505135
6.023210689554039	7.7790074	2.7890873
6.040761746711227	8.109186	2.8476632
6.058312945708531	7.6034145	2.757429
6.075864286961132	7.263327	2.695056
6.093415770884244	6.624439	2.5737984
6.1109673978931065	6.075089	2.4647696
6.128519168402993	5.538452	2.3533916
6.146071082829204	5.440781	2.3325481
6.163623141587075	5.3162284	2.3056948
6.181175345091969	5.21631	2.2839243
6.198727693759281	5.2031746	2.2810469
6.216280188004435	5.255367	2.2924588
6.233832828242885	5.2621336	2.293934
6.251385614890126	5.3182993	2.3061438
6.268938548361669	5.3122454	2.3048308
6.286491629073067	5.2425466	2.2896607
6.304044857439898	5.1912513	2.2784317
6.321598233877777	5.0500517	2.247232
6.339151758802344	5.0038314	2.2369246
6.356705432629277	5.0216913	2.2409132
6.37425925577428	5.0840106	2.254775
6.391813228653095	5.048568	2.2469018
6.409367351681486	4.9991765	2.2358837
6.426921625275259	4.9725394	2.2299192
6.44447604985025	4.9669175	2.2286582
6.46203062582232	4.9597187	2.2270427
6.47958535360737	4.988198	2.2334273
6.497140233621328	5.004893	2.2371619
6.514695266280161	5.039174	2.2448106
6.532250451999859	5.0146065	2.2393317
6.549805791196454	5.016202	2.239688
6.567361284286002	5.0330243	2.2434404
6.584916931684597	5.0480833	2.246794
6.602472733808367	5.04622	2.2463794
6.6200286910734665	5.056116	2.248581
6.637584803896092	5.063814	2.250292
6.655141072692462	5.0773764	2.2533035
6.672697497878842	5.079107	2.2536874
6.690254079871514	4.984848	2.2326772
6.707810819086808	4.920263	2.2181666
6.725367715941078	4.917635	2.2175741
6.742924770850719	4.9553885	2.2260702
6.760481984232151	4.9629235	2.227762
6.778039356501836	4.9641986	2.228048
6.795596888076266	4.9221797	2.2185986
6.813154579371963	4.9041843	2.2145393
6.830712430805492	4.9047923	2.2146766
6.84827044279344	4.8912454	2.211616
6.865828615752445	4.9126763	2.2164557
6.883386950099159	4.9853764	2.2327957
6.900945446250287	5.034914	2.2438614
6.918504104622553	5.0799174	2.2538671
6.936062925632727	5.061573	2.249794
6.953621909697607	5.074878	2.252749
6.971181057234028	5.0576124	2.2489135
6.988740368658859	5.104859	2.2593935
7.006299844389007	5.161068	2.2717984
7.023859484841407	5.211342	2.2828364
7.041419290433036	5.3187585	2.3062434
7.058979261580902	5.432725	2.3308206
7.0765393987020495	5.596676	2.3657296
7.094099702213559	5.955953	2.4404821
7.111660172532549	6.38925	2.5276966
7.129220810076164	6.8658404	2.6202748
7.146781615261595	7.577081	2.7526498
7.16434258850606	7.7679644	2.7871068
7.181903730226821	8.167168	2.8578258
7.1994650408411704	8.134783	2.852154
7.217026520766437	8.194878	2.8626697
7.234588170419983	8.461263	2.908825
7.252149990219215	8.477741	2.9116561
7.269711980581568	8.510005	2.9171913
7.2872741419245175	8.309549	2.882629
7.304836474665574	7.8594174	2.8034654
7.322398979222286	7.483817	2.7356565
7.339961656012233	7.1861873	2.6807065
7.357524505453039	6.889705	2.6248248
7.375087527962357	6.6277003	2.5744321
7.392650723957886	6.2805915	2.506111
7.410214093857353	6.0211077	2.4537945
7.427777638078528	5.8096294	2.4103172
7.445341357039213	5.678985	2.3830621
7.4629052511572525	5.471564	2.3391373
7.480469320850524	5.316263	2.3057022
7.498033566536948	5.2576895	2.2929652
7.5155979886344735	5.2155824	2.2837648
7.5331625875610975	5.2971835	2.301561
7.550727363734844	5.278818	2.2975678
7.568292317573788	5.3006496	2.302314
7.585857449496025	5.2517858	2.2916775
7.603422759919705	5.23269	2.2875073
7.620988249263007	5.224634	2.2857459
7.638553917944147	5.2125993	2.2831118
7.656119766381391	5.2151146	2.2836626
7.673685794993023	5.2390914	2.288906
7.691252004197388	5.269696	2.2955818
7.70881839441285	5.297638	2.3016598
7.726384966057826	5.30232	2.3026767
7.743951719550762	5.3024573	2.3027065
7.761518655310149	5.3039083	2.3030217
7.779085773754511	5.306052	2.303487
7.796653075302419	5.316103	2.3056676
7.814220560372475	5.375101	2.3184264
7.831788229383323	5.339126	2.3106549
7.8493560827536495	5.3277683	2.3081958
7.866924120902174	5.370531	2.3174407
7.884492344247663	5.400544	2.3239071
7.9020607532089135	5.421558	2.328424
7.919629348204771	5.403545	2.3245525
7.937198129654115	5.398672	2.3235042
7.954767097975865	5.4444256	2.3333292
7.972336253588986	5.4871254	2.3424613
7.989905596912472	5.509222	2.3471732
8.007475128365371	5.48679	2.3423898
8.025044848366756	5.3630366	2.315823
8.042614757335754	5.4631515	2.3373384
8.060184855691523	5.5276346	2.351092
8.07775514385327	5.7215333	2.3919728
8.095325622240228	5.7856355	2.4053347
8.112896291271687	5.832744	2.4151075
8.130467151366968	5.9175496	2.4326015
8.148038202945436	6.0033693	2.4501774
8.165609446426497	6.006189	2.4507527
8.183180882229594	5.9977474	2.44903
8.200752510774217	5.9207153	2.433252
8.218324332479893	5.91916	2.4329324
8.235896347766193	5.873472	2.4235249
8.253468557052724	5.905899	2.4302056
8.27104096075914	5.9161634	2.4323165
8.288613559305137	6.017664	2.4530928
8.306186353110448	6.094391	2.468682
8.32375934259485	6.167513	2.4834478
8.341332528178162	6.1939445	2.4887636
8.358905910280246	6.2671256	2.5034227
8.376479489321003	6.3227096	2.5145
8.394053265720377	6.3602624	2.521956
8.411627239898356	6.310484	2.5120676
8.42920141227497	6.260495	2.502098
8.44677578327029	6.227675	2.495531
8.464350353304427	6.239332	2.4978654
8.48192512279754	6.230298	2.4960566
8.499500092169827	6.2604666	2.5020924
8.51707526184153	6.258314	2.5016623
8.534650632232934	6.2513237	2.5002646
8.552226203764365	6.192223	2.4884179
8.569801976856192	6.150238	2.4799674
8.587377951928834	6.1460853	2.47913
8.60495412940274	6.1685185	2.4836502
8.622530509698416	6.2313952	2.4962764
8.6401070932364	6.2962856	2.5092402
8.657683880437283	6.3781266	2.5254953
8.675260871721695	6.589938	2.5670874
8.692838067510303	6.8413672	2.6156008
8.710415468223834	7.055023	2.6561294
8.727993074283043	7.147065	2.6733994
8.745570886108737	7.116189	2.6676185
8.763148904121765	7.1700726	2.677699
8.78072712874302	7.2314343	2.6891327
8.798305560393441	7.5221114	2.7426467
8.815884199494006	7.747962	2.7835162
8.833463046465745	7.934513	2.8168268
8.851042101729728	7.9449153	2.8186727
8.86862136570707	8.247246	2.8718019
8.886200838818924	8.394945	2.8974032
8.903780521486505	8.521149	2.9191008
8.921360414131055	8.588788	2.9306633
8.938940517173874	8.711583	2.951539
8.956520831036297	8.830323	2.971586
8.97410135613971	9.08345	3.0138762
8.99168209290554	9.237784	3.0393724
9.009263041755265	9.535942	3.088032
9.026844203110405	9.734082	3.119949
9.044425577392525	9.883698	3.143835
9.062007165023239	9.913714	3.148605
9.079588966424197	10.169527	3.1889696
9.097170982017108	10.230642	3.1985376
9.11475321222372	11.101694	3.3319204
9.132335657465825	12.020675	3.4670844
9.149918318165264	12.125739	3.4822032
9.167501194743924	12.639242	3.5551713
9.18508428762374	12.32535	3.5107477
9.202667597226693	12.307043	3.5081396
9.220251123974803	11.991839	3.4629235
9.237834868290143	11.758371	3.429048
9.255418830594836	11.538394	3.3968213
9.273003011311046	10.9783	3.3133519
9.290587410860985	10.773095	3.2822394
9.308172029666911	10.244975	3.2007773
9.32575686815113	10.040812	3.168724
9.343341926735997	8.8140955	2.9688542
9.360927205843916	8.496536	2.914882
9.378512705897327	8.253544	2.872898
9.396098427318728	8.097162	2.8455513
9.413684370530664	8.104693	2.8468742
9.431270535955722	8.077912	2.842167
9.448856924016539	7.9327426	2.8165126
9.466443535135806	7.738519	2.7818193
9.484030369736251	7.6779895	2.7709186
9.501617428240658	7.6935515	2.7737253
9.519204711071852	7.7169485	2.7779396
9.536792218652714	7.7595525	2.7855973
9.55437995140617	7.736476	2.7814522
9.571967909755191	7.7962923	2.792184
9.589556094122802	7.8488407	2.8015783
9.60714450493207	7.8932924	2.8095005
9.624733142606116	7.927826	2.8156395
9.642322007568108	7.942729	2.8182847
9.659911100241267	7.9638352	2.8220267
9.677500421048851	7.915767	2.8134973
9.695089970414175	7.994103	2.8273845
9.712679748760609	8.04311	2.8360376
9.730269756511557	8.167959	2.8579643
9.747859994090492	8.227877	2.8684275
9.765450461920915	8.228839	2.8685954
9.78304116042639	8.233201	2.8693554
9.800632090030527	8.177546	2.8596408
9.81822325115699	8.1795635	2.8599937
9.835814644229481	8.223291	2.867628
9.853406269671762	8.253629	2.872913
9.870998127907646	8.27634	2.8768628
9.888590219360985	8.24597	2.8715796
9.906182544455698	8.246376	2.8716505
9.923775103615734	8.302889	2.8814733
9.941367897265108	8.301415	2.8812177
9.958960925827878	8.280517	2.8775887
9.97655418972816	8.243061	2.8710732
9.994147689390106	8.255049	2.8731601
10.011741425237934	8.262807	2.8745098
10.029335397695904	8.2732115	2.8763192
10.04692960718833	8.243069	2.8710744
10.06452405413958	8.293581	2.8798578
10.082118738974064	8.293191	2.87979
10.099713662116246	8.324448	2.885212
10.117308823990651	8.361979	2.8917086
10.134904225021844	8.301646	2.8812578
10.152499865634445	8.226297	2.8681521
10.170095746253125	8.121457	2.849817
10.18769186730261	8.123489	2.8501735
10.205288229207675	8.202286	2.8639634
10.222884832393145	8.242951	2.8710542
10.2404816772839	8.229982	2.8687947
10.258078764304868	8.234663	2.8696103
10.275676093881035	8.24668	2.8717034
10.293273666437438	8.197266	2.8630867
10.310871482399158	8.122478	2.849996
10.32846954219134	8.07152	2.841042
10.346067846239173	8.112737	2.8482866
10.363666394967908	8.193326	2.8623986
10.38126518880283	8.218773	2.8668401
10.398864228169298	8.282336	2.877905
10.416463513492713	8.271515	2.8760242
10.434063045198531	8.255756	2.8732831
10.451662823712262	8.215102	2.8662
10.469262849459467	8.188751	2.8615994
10.486863122865758	8.119137	2.8494098
10.504463644356806	8.069758	2.840732
10.522064414358338	7.998579	2.828176
10.539665433296118	7.9224324	2.8146815
10.557266701595987	7.923175	2.8148134
10.574868219683818	7.7682858	2.7871644
10.592469987985552	7.6685133	2.769208
10.610072006927185	7.5301247	2.7441072
10.627674276934751	7.4779296	2.7345803
10.64527679843435	7.3811917	2.7168348
10.662879571852143	7.262233	2.694853
10.680482597614331	7.130219	2.670247
10.698085876147173	7.027006	2.65085
10.715689407876988	6.94402	2.635151
10.733293193230146	6.8449492	2.6162853
10.750897232633072	6.7665415	2.6012576
10.76850152651225	6.7367735	2.5955296
10.786106075294207	6.660727	2.5808384
10.803710879405534	6.620908	2.5731125
10.821315939272877	6.5100937	2.5514886
10.83892125532294	6.380168	2.5258994
10.856526827982472	6.2827425	2.50654
10.874132657678285	6.259958	2.5019908
10.891738744837243	6.157876	2.4815068
10.909345089886271	6.099295	2.469675
10.926951693252343	6.018123	2.4531863
10.944558555362494	5.962064	2.4417338
10.96216567664381	5.9249043	2.4341125
10.979773057523436	5.8650823	2.4217932
10.997380698428573	5.8964095	2.4282525
11.014988599786477	5.8312693	2.414802
11.032596762024461	5.778875	2.403929
11.050205185569892	5.698508	2.3871548
11.067813870850198	5.648881	2.3767374
11.085422818292859	5.558832	2.3577175
11.10303202832541	5.477018	2.340303
11.120641501375454	5.440713	2.3325336
11.138251237870636	5.434819	2.33127
11.155861238238671	5.3656855	2.316395
11.173471502907317	5.250536	2.2914047
11.191082032304402	5.154913	2.2704434
11.208692826857805	5.151467	2.2696843
11.226303886995465	5.1197286	2.2626817
11.243915213145371	5.0502453	2.247275
11.261526805735578	4.951195	2.225128
11.279138665194196	4.846274	2.2014253
11.296750791949393	4.8151326	2.194341
11.314363186429393	4.7782383	2.185918
11.331975849062479	4.8037276	2.1917408
11.34958878027699	4.7509246	2.1796615
11.36720198050133	4.6825776	2.1639264
11.384815450163948	4.5896587	2.1423488
11.402429189693366	4.525119	2.1272326
11.420043199518153	4.486602	2.11816
11.437657480066942	63.422848	7.963846
11.455272031768422	85.11656	9.225863
11.472886855051353	107.49605	10.368031
11.490501950344528	99.12502	9.956155
11.508117318076819	84.53678	9.194388
11.52573295867715	45.930344	6.777193
11.543348872574514	4.1707425	2.0422397
11.560965060197946	4.077245	2.019219
11.57858152197655	4.045437	2.011327
11.59619825833949	4.0319023	2.0079598
11.613815269715985	4.0199146	2.0049725
11.631432556535323	38.53121	6.207351
11.649050119226837	83.0379	9.112514
11.666667958219929	93.41696	9.665245
11.68428607394406	107.63688	10.37482
11.701904466828756	82.471886	9.081404
11.719523137303586	65.373024	8.085359
11.737142085798196	4.63594	2.1531234
11.754761312742286	3.7425942	1.9345785
11.772380818565619	3.7359817	1.9328687
11.790000603698015	3.72165	1.9291579
11.80762066856935	3.680332	1.9184191
11.825241013609572	3.6437166	1.9088522
11.842861639248683	3.6230102	1.9034207
11.860482545916748	3.5836794	1.8930609
11.878103734043883	3.5121317	1.8740683
11.895725204060282	3.4018655	1.8444147
11.91334695639619	3.3484921	1.8298886
11.930968991481919	3.3446019	1.8288252
11.948591309747824	3.3661733	1.8347135
11.966213911624347	3.3917677	1.8416753
11.98383679754198	3.3903291	1.8412846
12.001459967931268	3.3694263	1.8355997
12.019083423222835	3.357156	1.8322544
12.036707163847352	3.3295507	1.8247056
12.05433119023556	3.2849295	1.8124374
12.071955502818259	3.2649856	1.8069271
12.089580102026313	3.1744747	1.7817056
12.107204988290643	3.115902	1.7651918
12.12483016204224	3.056316	1.7482322
12.142455623712152	3.075218	1.7536299
12.16008137373149	3.080624	1.7551707
12.177707412531431	3.0811687	1.7553258
12.19533374054321	3.0296943	1.7406017
12.212960358198126	3.0128264	1.7357495
12.230587265927545	3.0228777	1.7386425
12.248214464162889	3.0029502	1.7329023
12.265841953335649	3.0140493	1.7361017
12.283469733877375	2.986444	1.7281331
12.301097806219685	2.9774346	1.7255244
12.31872617079425	2.951029	1.7178559
12.336354828032825	2.967506	1.722645
12.353983778367205	2.9549615	1.7190001
12.371613022229262	2.9627748	1.7212713
12.389242560050928	2.950492	1.7176996
12.406872392264201	2.920469	1.708938
12.424502519301143	2.8848724	1.6984912
12.442132941593874	2.859837	1.6911052
12.459763659574586	2.8649738	1.6926234
12.477394673675532	2.8831065	1.6979712
12.49502598432903	2.9084554	1.7054194
12.51265759196746	2.909031	1.7055881
12.530289497023267	2.889754	1.6999277
12.547921699928967	2.8087764	1.6759404
12.565554201117134	2.7816062	1.6678149
12.583187001020404	2.7584734	1.6608653
12.600820100071486	2.766196	1.6631885
12.618453498703152	2.7316523	1.6527711
12.636087197348235	2.7105634	1.6463789
12.65372119643964	2.714803	1.647666
12.671355496410326	2.755258	1.659897
12.68899009769333	2.795698	1.672034
12.706625000721749	2.8500097	1.6881971
12.724260205928752	2.9034111	1.7039399
12.741895713747551	2.9237742	1.7099048
12.759531524611454	2.9735067	1.7243859
12.777167638953818	2.9634812	1.7214764
12.794804057208072	3.0022154	1.7326902
12.812440779807702	3.066571	1.7511628
12.830077807186271	3.2451675	1.8014349
12.847715139777405	3.2964413	1.8156104
12.865352778014795	3.4800375	1.8654859
12.882990722332197	3.588199	1.8942542
12.90062897316344	3.6240783	1.9037012
12.918267530942412	3.703993	1.924576
12.935906396103071	3.5795112	1.8919597
12.953545569079449	3.7228587	1.9294711
12.971185050305628	3.5246255	1.8773986
12.988824840215775	3.534095	1.8799189
13.006464939244115	3.543505	1.88242
13.024105347824943	3.4256172	1.8508424
13.041746066392617	3.5179846	1.8756292
13.05938709538157	3.3196657	1.821995
13.077028435226296	3.3349607	1.8261875
13.094670086361363	3.2383924	1.7995534
13.112312049221401	3.1595716	1.7775184
13.129954324241112	3.138456	1.7715688
13.147596911855258	2.968618	1.7229677
13.165239812498685	2.9263542	1.710659
13.182883026606293	2.7824376	1.668064
13.200526554613058	2.6920643	1.6407511
13.218170396954017	2.6708894	1.6342856
13.235814554064284	2.714555	1.6475906
13.253459026379034	2.7485833	1.6578852
13.271103814333523	2.6979597	1.6425467
13.288748918363058	2.6498275	1.6278291
13.306394338903031	2.6195078	1.6184894
13.32404007638889	2.6312923	1.6221259
13.341686131256164	2.6558216	1.6296692
13.359332503940449	2.6631744	1.6319236
13.376979194877402	2.6656845	1.6326923
13.394626204502751	2.7084231	1.6457287
13.412273533252307	2.7392554	1.6550696
13.429921181561937	2.7584946	1.6608716
13.447569149867581	2.7288811	1.6519326
13.465217438605247	2.7242599	1.6505332
13.482866048211022	2.7012086	1.6435354
13.500514979121052	2.7135196	1.6472764
13.518164231771568	2.6761882	1.635906
13.535813806598844	2.6641202	1.6322132
13.553463704039254	2.6627812	1.631803
13.571113924529229	2.682048	1.6376959
13.588764468505275	2.680121	1.6371075
13.606415336403956	2.7037833	1.6443185
13.624066528661917	2.7382658	1.6547706
13.641718045715882	2.8092127	1.6760706
13.659369888002635	2.8578162	1.6905077
13.67702205595903	2.9118176	1.7064048
13.694674550021993	2.9304566	1.7118577
13.712327370628532	2.9991536	1.7318065
13.729980518215713	3.1031208	1.7615677
13.747633993220681	3.2644997	1.8067926
13.765287796080647	3.330397	1.8249375
13.7829419272329	3.3775556	1.8378128
13.800596387114801	3.3368626	1.8267081
13.818251176163775	3.3362732	1.8265468
13.835906294817324	3.362958	1.8338369
13.853561743513023	3.4256237	1.850844
13.871217522688525	3.4998882	1.8707988
13.888873632781538	3.562217	1.8873836
13.906530074229858	3.5952144	1.896105
13.92418684747135	3.5520976	1.8847009
13.941843952943948	3.4902382	1.868218
13.959501391085665	3.4505653	1.8575697
13.977159162334578	3.4476266	1.8567785
13.994817267128846	3.426765	1.8511523
14.012475705906693	3.3453186	1.8290212
14.030134479106424	3.2399578	1.7999883
14.047793587166414	3.1512558	1.7751777
14.065453030525108	3.0866745	1.7568934
14.083112809621026	2.9970167	1.7311894
14.100772924892766	2.9744124	1.7246485
14.118433376778997	2.946964	1.7166724
14.136094165718458	2.8971174	1.702092
14.153755292149969	2.7956967	1.6720337
14.171416756512416	2.709117	1.6459396
14.189078559244768	2.6464798	1.6268005
14.20674070078606	2.5857415	1.6080241
14.224403181575408	2.528368	1.5900843
14.242066002051999	2.4904048	1.5781016
14.259729162655093	2.4597056	1.5683448
14.277392663824022	2.459047	1.5681349
14.295056505998208	2.445858	1.563924
14.312720689617128	2.451654	1.5657759
14.330385215120348	2.4158254	1.5542926
14.348050082947497	2.4022245	1.5499111
14.3657152935383	2.367266	1.5385922
14.383380847332528	2.360128	1.5362707
14.401046744770051	2.3481104	1.5323546
14.418712986290798	2.3385348	1.5292269
14.436379572334793	2.3544319	1.5344158
14.454046503342123	2.3497057	1.532875
14.471713779752946	2.394794	1.5475122
14.489381402007504	2.3495867	1.5328362
14.507049370546113	2.3316374	1.52697
14.524717685809168	2.323654	1.5243536
14.542386348237134	2.406619	1.5513282
14.560055358270553	2.4533381	1.5663135
14.577724716350051	2.5223298	1.5881845
14.595394422916325	2.5281296	1.5900093
14.61306447841015	2.5385847	1.5932937
14.63073488327237	2.5153525	1.5859863
14.648405637943917	2.5135713	1.5854247
14.6660767428658	2.472434	1.5723976
14.683748198479094	2.4764967	1.5736889
14.701420005224954	2.5314882	1.591065
14.719092163544628	2.6181436	1.6180679
14.73676467387942	2.681837	1.6376315
14.754437536670727	2.7085292	1.645761
14.772110752360014	2.7421062	1.6559306
14.78978432138882	2.7566824	1.660326
14.807458244198777	2.721783	1.6497827
14.82513252123159	2.6572027	1.6300929
14.842807152929028	2.6257029	1.6204021
14.860482139732962	2.609191	1.615299
14.87815748208531	2.6117644	1.6160954
14.8958331804281	2.6510942	1.628218
14.91350923520342	2.6417465	1.625345
14.931185646853438	2.657627	1.630223
14.948862415820408	2.668854	1.6336627
14.966539542546656	2.7381444	1.6547339
14.98421702747459	2.715106	1.6477579
15.001894871046696	2.6993437	1.6429679
15.019573073705542	2.6473272	1.6270609
15.037251635893766	2.635535	1.6234331
15.054930558054092	2.6582792	1.630423
15.072609840629323	2.6995819	1.6430404
15.090289484062351	2.8629506	1.6920255
15.107969488796124	3.1967747	1.7879527
15.125649855273691	3.6156168	1.9014776
15.14333058393817	4.0959535	2.0238461
15.161011675232768	5.0351405	2.243912
15.17869312960076	6.4089217	2.5315847
15.196374947485506	8.244212	2.8712735
15.214057129330447	11.292562	3.3604407
15.231739675579114	15.876036	3.9844744
15.249422586675102	20.765217	4.5568867
15.267105863062092	23.678024	4.866007
15.284789505183847	23.828094	4.881403
15.302473513484218	21.6116	4.648828
15.320157888407127	18.135462	4.258575
15.337842630396578	14.157548	3.7626517
15.355527739896656	11.048202	3.3238835
15.37321321735153	8.639967	2.939382
15.39089906320545	6.3963504	2.5291007
15.408585277902748	4.8784113	2.2087126
15.42627186188783	3.813775	1.9528888
15.443958815605198	3.208095	1.7911156
15.461646139499424	2.908969	1.70557
15.479333834015168	2.8117435	1.6768254
15.497021899597165	2.769712	1.6642451
15.514710336690234	2.692338	1.6408346
15.53239914573928	2.6027977	1.6133189
15.550088327189297	2.5722303	1.6038175
15.567777881485336	2.539388	1.5935457
15.58546780907256	2.4869854	1.5770179
15.6031581103962	2.4399545	1.5620353
15.620848785901568	2.465777	1.5702792
15.638539836034063	2.4886267	1.5775381
15.656231261239173	2.4791448	1.57453
15.673923061962451	2.422776	1.5565269
15.691615238649552	2.414749	1.5539463
15.709307791746202	2.4288826	1.5584873
15.727000721698221	2.4576104	1.5676768
15.744694028951498	2.4181619	1.555044
15.76238771395202	2.4247417	1.5571582
15.780081777145844	2.4186149	1.5551896
15.797776218979125	2.39339	1.5470585
15.815471039898094	2.3574786	1.5354083
15.833166240349064	2.359384	1.5360286
15.850861820778437	2.3674142	1.5386404
15.868557781632699	2.366143	1.5382272
15.886254123358412	2.3781314	1.5421191
15.903950846402232	2.3763187	1.5415313
15.921647951210897	2.3672786	1.5385963
15.939345438231225	2.3589988	1.5359032
15.957043307910133	2.3649344	1.5378343
15.974741560694602	2.3556073	1.5347987
15.992440197031714	2.35739	1.5353794
16.01013921736862	2.3677616	1.5387533
16.02783862215259	2.3714921	1.539965
16.045538411830933	2.4089031	1.5520642
16.06323858685107	2.4163623	1.5544653
16.080939147660512	2.436251	1.5608494
16.09864009470684	2.421818	1.5562191
16.11634142843774	2.417445	1.5548135
16.134043149300954	2.4163895	1.554474
16.15174525774433	2.4164984	1.554509
16.169447754215817	2.4158947	1.5543149
16.18715063916342	2.3934214	1.5470686
16.204853913035244	2.3695598	1.5393374
16.222557576279478	2.3758528	1.5413802
16.240261629344403	22.368921	4.7295794
16.257966072678386	42.932125	6.552261
16.275670906729868	38.07876	6.170799
16.293376131947387	2.5137875	1.5854928
16.31108174877957	2.5425684	1.5945433
16.328787757675133	2.551736	1.5974154
16.34649415908287	2.5830503	1.607187
16.364200953451657	2.609636	1.6154368
16.38190814123048	2.6091492	1.6152861
16.39961572286839	2.610929	1.615837
16.41732369881455	2.6707714	1.6342494
16.43503206951817	2.723208	1.6502146
16.45274083542859	2.7367263	1.6543053
16.47044999699522	2.801828	1.6738662
16.488159554667558	2.8407803	1.6854614
16.505869508895184	2.8875995	1.6992939
16.523579860127786	2.9201577	1.7088469
16.541290608815117	3.0040317	1.7332143
16.559001755407035	3.0330145	1.7415552
16.57671330035348	3.0631073	1.7501734
16.59442524410448	3.1222646	1.766993
16.61213758711015	3.198113	1.7883269
16.629850329820705	3.2251892	1.7958812
16.647563472686436	3.2722363	1.8089324
16.665277016157724	3.3458798	1.8291746
16.682990960685053	3.4118385	1.8471162
16.70070530671898	3.4541342	1.8585302
16.718420054710155	3.483248	1.8663461
16.736135205109335	3.5070615	1.872715
16.753850758367335	3.5564137	1.8858457
16.771566714935087	3.641602	1.9082983
16.789283075263597	3.7129376	1.9268985
16.80699983980398	3.741973	1.934418
16.82471700900741	3.7582943	1.9386321
16.84243458332518	3.8591924	1.9644827
16.860152563208665	3.9164665	1.9790064
16.87787094910932	4.0329256	2.0082145
16.89558974147871	4.137578	2.0341036
16.913308940768466	4.2276373	2.0561218
16.931028547430333	4.3174233	2.077841
16.94874856191613	4.3426967	2.0839138
16.966468984677785	4.3796563	2.092763
16.98418981616729	4.421779	2.1028028
17.00191105683676	4.4357986	2.1061335
17.019632707138374	4.515993	2.1250865
17.03735476752442	4.588592	2.1420999
17.05507723844728	4.5667524	2.136996
17.072800120359403	4.55452	2.1341321
17.090523413713353	4.534138	2.1293516
17.108247118961785	4.620743	2.1495912
17.125971236557437	4.6593933	2.158563
17.143695766953133	4.6662583	2.1601524
17.161420710601806	4.615486	2.1483684
17.179146067956477	4.6415277	2.1544204
17.19687183947025	4.6742873	2.16201
17.21459802559634	4.6996894	2.1678767
17.232324626788028	4.709153	2.1700583
17.25005164349871	4.6880026	2.1651795
17.267779076181863	4.669364	2.160871
17.285506925291074	4.6337576	2.1526165
17.30323519127999	4.6077113	2.146558
17.320963874602384	4.6313562	2.1520586
17.33869297571211	4.620418	2.1495159
17.356422495063114	4.615944	2.1484747
17.37415243310944	4.564601	2.1364927
17.391882790305218	4.4969864	2.12061
17.40961356710468	4.492385	2.1195247
17.42734476396215	4.493978	2.1199005
17.445076381332044	4.5207276	2.1262002
17.462808419668868	4.559627	2.1353283
17.48054087942723	4.670676	2.1611748
17.498273761061835	5.001323	2.236364
17.51600706502747	5.5097165	2.3472786
17.533740791779024	6.2368145	2.4973614
17.551474941771485	7.6583333	2.7673693
17.56920951545993	8.7043705	2.950317
17.586944513299528	10.754392	3.279389
17.60467993574556	12.249484	3.4999263
17.622415783253373	13.8220005	3.7177951
17.64015205627843	15.0644	3.8812885
17.657888755276293	16.025902	4.0032363
17.675625880702604	16.504154	4.0625305
17.69336343301311	16.42887	4.053254
17.71110141266366	15.711397	3.9637604
17.728839820110178	14.850142	3.853588
17.746578655808705	13.995055	3.7409966
17.764317920215372	12.706904	3.5646746
17.7820576137864	11.252372	3.3544555
17.79979773697811	9.338653	3.0559208
17.81753829024692	7.5445886	2.7467415
17.835279274049356	5.937108	2.436618
17.85302068884201	4.9414043	2.222927
17.870762535081607	4.285007	2.070026
17.888504813224934	3.9410594	1.9852102
17.90624752372891	3.6893127	1.9207584
17.923990667050536	3.5491781	1.8839263
17.941734243646895	3.45786	1.8595322
17.959478253975185	3.4345577	1.853256
17.9772226984927	3.3980002	1.8433665
17.994967577656833	3.3784873	1.8380662
18.01271289192506	3.3679008	1.8351841
18.030458641754965	3.3330705	1.8256699
18.04820482760425	3.2970355	1.8157741
18.06595144993067	3.2491179	1.802531
18.083698509192125	3.2248511	1.7957871
18.101446005846576	3.1922574	1.7866889
18.119193940352105	3.2095172	1.7915126
18.136942313166887	3.177846	1.7826514
18.1546911247492	3.1574697	1.776927
18.1724403755574	3.1744897	1.7817098
18.19019006604997	3.1947806	1.7873949
18.207940196685467	3.1823533	1.7839152
18.225690767922575	3.1829097	1.7840711
18.243441780220046	3.1659281	1.7793056
18.261193234036764	3.1056035	1.7622722
18.278945129831676	3.0290582	1.740419
18.29669746806386	2.9823258	1.7269411
18.314450249192483	3.031621	1.741155
18.3322034736768	3.0301704	1.7407385
18.349957141976184	3.067003	1.7512861
18.3677112545501	3.0512595	1.7467855
18.385465811858108	3.094299	1.7590619
18.403220814359884	3.056018	1.748147
18.420976262515172	3.0702138	1.7522025
18.43873215678387	3.1205766	1.7665154
18.456488497625923	3.1650126	1.7790482
18.474245285501407	3.2194118	1.794272
18.492002520870486	3.2809649	1.8113434
18.50976020419343	3.372681	1.836486
18.527518335930615	3.665226	1.914478
18.545276916542516	4.245219	2.060393
18.563035946489688	4.478717	2.116298
18.580795426232832	4.901933	2.214031
18.598555356232698	4.7908497	2.188801
18.616315736950185	5.0651555	2.25059
18.63407656884626	4.730415	2.1749518
18.65183785238201	4.9601336	2.2271357
18.669599588018617	4.7481685	2.1790292
18.68736177621737	4.787337	2.1879983
18.705124417439652	4.6955013	2.1669106
18.72288751214696	4.468854	2.1139665
18.740651060800886	4.5871153	2.141755
18.758415063863115	4.3076835	2.075496
18.77617952179546	4.4990025	2.1210852
18.793944435059814	4.2374363	2.0585034
18.811709804118184	4.2691083	2.0661821
18.829475629432675	4.2588773	2.0637047
18.8472419114655	4.0895147	2.022255
18.86500865067897	4.189419	2.046807
18.88277584753551	3.861232	1.9650018
18.90054350249763	3.8410995	1.9598724
18.918311616027957	3.486271	1.8671558
18.936080188589226	3.3636444	1.8340241
18.953849220644265	3.0584571	1.7488445
18.971618712656007	2.8961456	1.7018065
18.9893886650875	2.8256066	1.6809541
19.007159078401887	7.9751987	2.8240395
19.024929953062408	32.882885	5.73436
19.042701289532435	32.840935	5.730701
19.060473088275405	25.369247	5.0367894
19.07824534975489	2.5817287	1.6067759
19.096018074434568	2.5595496	1.5998592
19.113791262778197	2.5641534	1.6012974
19.13156491524966	2.5861206	1.608142
19.149339032312945	2.6011586	1.6128107
19.167113614432136	2.593544	1.6104484
19.184888662071433	2.5672925	1.6022773
19.202664175695123	2.5724757	1.6038939
19.220440155767623	2.537328	1.5928992
19.238216602753447	2.5182881	1.5869116
19.2559935171172	2.500476	1.5812893
19.27377089932361	2.5018408	1.5817208
19.291548749837514	2.5105693	1.5844777
19.309327069123835	2.523667	1.5886054
19.32710585764763	2.518159	1.5868708
19.344885115874032	2.4604888	1.5685946
19.362664844268313	2.4536686	1.566419
19.380445043295822	2.46553	1.5702006
19.39822571342203	2.4931614	1.5789748
19.41600685511252	2.5050788	1.5827441
19.43378846883297	2.4820383	1.5754486
19.451570555049173	2.477479	1.574001
19.469353114227037	2.4825342	1.575606
19.48713614683254	2.479281	1.5745733
19.50491965333182	2.4380655	1.5614306
19.52270363419109	2.4379864	1.5614053
19.540488089876686	2.4417944	1.5626242
19.55827302085503	2.455259	1.5669266
19.576058427592674	2.462874	1.5693547
19.593844310556282	2.4663923	1.5704752
19.611630670212598	2.4905653	1.5781525
19.629417507028506	2.5152593	1.5859569
19.64720482147098	2.4955022	1.5797158
19.6649926140071	2.4750931	1.5732429
19.682780885104084	2.4481466	1.5646554
19.70056963522921	2.4447122	1.5635575
19.718358864849908	2.476307	1.5736285
19.7361485744337	2.5037773	1.5823328
19.753938764448215	2.5221684	1.5881336
19.771729435361202	2.5180485	1.586836
19.789520587640506	2.5261018	1.5893716
19.807312221754092	2.5101132	1.5843337
19.825104338170043	2.4918168	1.5785489
19.842896937356517	2.488935	1.5776359
19.860690019781824	2.5128398	1.5851939
19.87848358591436	2.5202882	1.5875416
19.896277636222635	2.508261	1.583749
19.914072171175278	2.4612417	1.5688345
19.931867191241015	2.4490669	1.5649495
19.94966269688869	2.4868755	1.5769831
19.967458688587264	2.5208294	1.587712
19.985255166805807	2.5111635	1.5846651
20.00305213201348	2.4955833	1.5797415
20.020849584679578	2.4667213	1.5705799
20.038647525273507	2.487137	1.577066
20.05644595426477	2.474036	1.5729069
20.07424487212299	2.4453957	1.5637761
20.092044279317903	2.4092314	1.5521699
20.109844176319353	2.4384947	1.561568
20.127644563597304	2.4327328	1.5597221
20.145445441621817	2.4488425	1.5648777
20.16324681086307	2.447647	1.5644958
20.181048671791373	2.4450936	1.5636796
20.198851024877122	2.4337394	1.5600446
20.216653870590836	2.406135	1.5511721
20.234457209403146	2.378184	1.5421362
20.252261041784802	2.407628	1.5516534
20.270065368206662	2.405757	1.5510503
20.287870189139685	2.3626115	1.5370789
20.305675505054968	2.3053474	1.518337
20.323481316423702	2.3158967	1.5218071
20.341287623717207	2.3204875	1.5233146
20.359094427406884	2.3154163	1.5216492
20.376901727964288	2.3542266	1.534349
20.39470952586107	2.376762	1.5416751
20.41251782156899	2.3441026	1.5310463
20.430326615559935	2.3212583	1.5235677
20.448135908305886	2.2747848	1.508239
20.465945700278965	2.274015	1.5079837
20.483755991951384	2.3015223	1.5170768
20.50156678379548	2.3019874	1.5172302
20.519378076283708	2.2789493	1.5096189
20.537189869888635	2.2757955	1.508574
20.55500216508294	2.3028216	1.517505
20.572814962339415	2.351768	1.5335475
20.59062826213098	2.3444517	1.5311602
20.60844206493066	2.3429453	1.5306683
20.626256371211593	2.3366997	1.5286268
20.644071181447032	2.3062239	1.5186256
20.66188649611036	2.3073142	1.5189846
20.67970231567506	2.2837706	1.511215
20.697518640614742	2.2962892	1.5153512
20.715335471403122	2.3004003	1.5167071
20.73315280851404	2.3317358	1.5270022
20.750970652421447	2.3339527	1.527728
20.768789003599412	2.3335483	1.5275956
20.786607862522136	2.308	1.5192103
20.8044272296639	2.3012555	1.516989
20.82224710549913	2.3014657	1.5170583
20.84006749050237	2.308413	1.5193462
20.857888385148268	3.8552618	1.963482
20.8757097899116	45.9559	6.779078
20.893531705267254	64.79921	8.049795
20.911354131690224	83.80586	9.154554
20.92917706965566	69.03937	8.308993
20.94700051963877	50.12162	7.0796623
20.96482448211493	29.424534	5.4244385
20.982648957559622	4.187791	2.0464094
21.00047394644843	2.281427	1.5104393
21.01829944925707	2.249922	1.499974
21.036125466461375	2.2415414	1.4971778
21.053951998537297	2.2221122	1.4906751
21.071779045960906	2.2020364	1.483926
21.089606609208378	2.22083	1.490245
21.10743468875603	2.2346272	1.494867
21.12526328508028	2.2320418	1.494002
21.143092398657675	2.2000632	1.483261
21.16092202996488	2.1981988	1.4826324
21.17875217947867	2.2019343	1.4838916
21.19658284767596	2.1897707	1.4797873
21.21441403503377	2.1547961	1.4679223
21.232245742029225	2.1356463	1.4613851
21.2500779691396	2.129992	1.4594492
21.26791071684227	2.1636713	1.4709423
21.28574398561475	2.1789787	1.4761364
21.30357777593465	2.1976905	1.482461
21.321412088279704	2.1630442	1.4707291
21.339246923127792	2.1463654	1.465048
21.357082280956888	2.1477742	1.4655286
21.3749181622451	2.183203	1.4775666
21.392754567470647	2.1908529	1.480153
21.41059149711187	2.1830068	1.4775002
21.42842895164726	2.141117	1.4632556
21.446266931555378	2.107184	1.4516143
21.464105437314945	2.1146243	1.4541748
21.481944469404798	2.1092997	1.4523429
21.49978402830388	2.1150985	1.4543378
21.51762411449127	2.0749667	1.4404745
21.53546472844617	2.083321	1.4433714
21.553305870647876	2.099338	1.4489093
21.571147541575865	2.0923562	1.4464979
21.58898974170967	2.0787241	1.4417781
21.60683247152899	2.0691867	1.4384668
21.62467573151363	2.072401	1.4395837
21.642519522143523	2.0746093	1.4403504
21.660363843898722	2.067283	1.4378049
21.6782086972594	2.0587654	1.4348398
21.696054082705864	2.0772905	1.4412808
21.713900000718535	2.102132	1.4498731
21.73174645177795	2.0735998	1.4399999
21.749593436364794	2.0340014	1.4261842
21.767440954959845	1.9925003	1.4115596
21.785289008044032	2.00915	1.417445
21.803137596098388	2.0556588	1.433757
21.820986719604086	2.0733202	1.4399028
21.838836379042412	2.053246	1.4329152
21.85668657489478	2.036119	1.4269264
21.87453730764273	2.021907	1.4219378
21.892388577767914	2.031019	1.4251382
21.91024038575213	2.0365925	1.4270923
21.928092732077285	2.0004356	1.4143676
21.945945617225426	1.9638643	1.4013795
21.963799041678694	1.9483724	1.3958411
21.981653005919398	31.2863	5.5934157
21.999507510429943	78.10344	8.837615
22.01736255569286	73.067375	8.547946
22.035218142190818	4.1730824	2.0428123
22.05307427040661	1.9941295	1.4121366
22.07093094082315	1.9978064	1.4134378
22.088788153923474	1.977812	1.406347
22.106645910190746	1.9977205	1.4134074
22.12450421010827	2.0047576	1.4158946
22.142363054159464	1.9663626	1.4022706
22.16022244282787	1.927953	1.3885075
22.178082376597164	1.9548631	1.3981642
22.195942855951145	1.9737101	1.4048879
22.213803881373742	1.9823004	1.4079419
22.231665453349002	1.9740022	1.4049919
22.24952757236111	1.9679494	1.4028362
22.26739023889438	1.951508	1.3969638
22.28525345343323	1.9757439	1.4056115
22.30311721646225	2.0088162	1.4173272
22.320981528466113	1.9916553	1.4112602
22.33884638992964	1.9352204	1.391122
22.356711801337788	1.9518471	1.3970852
22.37457776317561	1.9809706	1.4074696
22.392444275928337	1.9825357	1.4080255
22.410311340081282	1.9567764	1.3988482
22.428178956119904	1.9408975	1.3931609
22.446047124529805	1.9277502	1.3884344
22.46391584579669	1.9345185	1.3908696
22.481785120406414	1.944546	1.3944697
22.49965494884496	1.9286412	1.3887553
22.51752533159841	1.9371349	1.3918099
22.53539626915302	1.907061	1.3809638
22.553267761995137	1.8780997	1.3704377
22.571139810611264	1.8772877	1.3701415
22.589012415488025	1.8957596	1.3768659
22.60688557711216	1.9583014	1.3993932
22.624759295970566	1.9845726	1.4087486
22.642633572550263	1.9655778	1.4019907
22.660508407338362	1.9354749	1.3912134
22.67838380082217	1.9489112	1.3960341
22.696259753489077	1.9517	1.3970326
22.714136265826614	1.9542029	1.3979281
22.73201333832246	1.9359965	1.3914009
22.74989097146439	1.9287083	1.3887794
22.76776916574035	1.9392633	1.3925743
22.785647921638393	1.940669	1.3930789
22.803527239646712	1.9430052	1.3939172
22.82140712025363	1.9331988	1.3903952
22.839287563947593	1.9301639	1.3893033
22.85716857121719	1.9012346	1.3788526
22.875050142551135	1.8919293	1.3754742
22.892932278438277	1.9001453	1.3784575
22.910814979367604	1.8874993	1.373863
22.928698245828222	1.8888792	1.374365
22.946582078309387	1.9048811	1.3801743
22.96446647730047	1.9266372	1.3880335
22.98235144329098	1.9540732	1.3978816
23.000236976770562	1.9229157	1.3866924
23.018123078229	1.8614497	1.3643496
23.03600974815619	1.8378768	1.3556831
23.053896987042194	1.8786265	1.3706299
23.071784795377173	1.9039607	1.3798409
23.08967317365145	1.9275728	1.3883705
23.10756212235546	1.938621	1.3923438
23.125451641979787	1.9682997	1.402961
23.143341733015134	1.9658248	1.4020787
23.161232395952357	1.9206741	1.3858838
23.179123631282426	1.868556	1.3669513
23.197015439496468	1.8619027	1.3645155
23.214907821085717	1.872337	1.3683337
23.23280077654157	1.9086826	1.3815508
23.250694306355538	1.9322177	1.3900423
23.268588411019277	1.9640701	1.4014529
23.28648309102458	1.9409655	1.3931854
23.304378346863356	1.8828014	1.3721521
23.322274179027676	1.8814949	1.371676
23.340170588009723	1.927225	1.3882453
23.358067574301852	1.9383856	1.3922591
23.37596513839651	1.9331414	1.3903745
23.39386328078629	1.946177	1.3950545
23.411762001963947	1.9141747	1.383537
23.429661302422353	1.8883289	1.3741648
23.4475611826545	1.9221625	1.3864207
23.46546164315356	1.9805858	1.4073329
23.48336268441279	1.956557	1.3987699
23.501264306925638	1.9288224	1.3888205
23.51916651118564	1.9202374	1.3857263
23.537069297686497	1.9113955	1.3825322
23.554972666922037	1.9634944	1.4012475
23.57287661938623	1.9572562	1.3990197
23.59078115557318	1.9456165	1.3948536
23.608686275977128	1.9150723	1.3838614
23.62659198109246	1.9058876	1.380539
23.6444982714137	1.9239471	1.3870642
23.66240514743549	1.9202964	1.3857476
23.68031260965263	1.9070414	1.3809566
23.698220658560068	1.9034107	1.3796415
23.716129294652845	1.9187094	1.3851749
23.7340385184262	1.9232519	1.3868135
23.75194833037546	1.8828584	1.3721728
23.769858730996123	1.8435457	1.3577724
23.78776972078382	1.8489169	1.3597488
23.80568130023431	1.8882581	1.3741391
23.823593469843495	1.9157525	1.3841071
23.841506230107424	1.9153891	1.3839759
23.859419581522275	1.8921002	1.3755363
23.87733352458438	1.8545225	1.3618085
23.89524805979019	1.8771819	1.3701029
23.913163187636318	1.9025397	1.3793259
23.931078908619508	1.9207611	1.3859153
23.948995223236633	1.9514625	1.3969476
23.966912131984735	1.9817533	1.4077476
23.98482963536096	2.046115	1.4304247
24.002747733862616	2.0288918	1.4243917
24.020666427987155	1.9804646	1.4072897
24.038585718232156	1.9652753	1.4018828
24.056505605095353	2.0022192	1.4149979
24.074426089074617	2.033438	1.4259866
24.092347170667946	2.059468	1.4350847
24.110268850373515	2.0722132	1.4395183
24.128191128689586	2.1037548	1.4504327
24.146114006114626	2.0929687	1.4467096
24.164037483147187	2.1024492	1.4499825
24.181961560286005	2.105192	1.450928
24.199886238029926	2.068677	1.4382896
24.21781151687797	2.0146837	1.4193956
24.235737397329274	1.9983366	1.4136254
24.253663879883135	2.0148587	1.4194572
24.271590965038975	2.054733	1.433434
24.289518653296376	2.0746822	1.4403757
24.30744694515505	2.0511956	1.4321996
24.32537584111486	2.0475824	1.4309376
24.34330534167581	2.0554998	1.4337014
24.361235447338046	2.0314999	1.4253069
24.379166158601876	1.9912502	1.4111166
24.39709747596772	1.9577978	1.3992133
24.41502939993615	1.9588052	1.3995732
24.432961931007917	1.9780673	1.4064378
24.450895069683856	2.0000844	1.4142435
24.468828816465	1.9740415	1.4050058
24.4867631718525	1.9869132	1.409579
24.504698136347656	1.9912552	1.4111184
24.52263371045192	1.9873476	1.4097332
24.540569894666874	1.9373932	1.3919027
24.558506689494266	1.9183773	1.385055
24.57644409543597	1.9215518	1.3862005
24.594382112994012	1.9460573	1.3950115
24.61232074267057	1.9675093	1.4026793
24.630259984967953	1.9729239	1.4046081
24.64819984038863	1.9485637	1.3959097
24.66614030943522	1.9378521	1.3920676
24.684081392610462	1.9330493	1.3903414
24.702023090417274	1.9186375	1.3851489
24.7199654033587	1.9547371	1.3981191
24.737908331937927	2.0372205	1.4273124
24.755851876658305	2.0267735	1.4236479
24.773796038023324	1.992154	1.4114369
24.79174081653661	2.0194235	1.4210643
24.809686212701962	2.0752618	1.4405769
24.827632227023294	2.0957296	1.4476635
24.8455788600047	2.0766528	1.4410596
24.8635261121504	2.0999563	1.4491225
24.88147398396475	2.1417966	1.4634879
24.899422475952303	2.1330822	1.4605075
24.917371588617698	2.1077332	1.4518034
24.935321322465768	2.1675978	1.4722764
24.953271678001478	2.2391524	1.4963797
24.97122265572994	2.4094272	1.552233
24.989174256156414	2.749149	1.6580558
25.00712647978632	3.2388759	1.7996877
25.02507932712521	3.7539115	1.9375013
25.043032798678798	4.239035	2.0588918
25.060986894952933	4.8214655	2.1957836
25.078941616453637	5.5408573	2.3539026
25.096896963687055	6.3931527	2.5284684
25.114852937159508	7.5402737	2.745956
25.132809537377444	8.071788	2.8410892
25.150766764847468	8.138749	2.8528492
25.168724620076347	7.5550394	2.7486432
25.186683103570985	6.519717	2.5533736
25.204642215838426	5.330991	2.308894
25.222601957385894	4.029794	2.0074348
25.24056232872074	3.162378	1.7783077
25.25852333035048	2.6594112	1.6307701
25.276484962782778	2.2934036	1.5143988
25.294447226525435	2.092182	1.4464377
25.312410122086423	2.0051434	1.4160309
25.330373649973843	1.9621783	1.4007778
25.348337810695988	1.9238173	1.3870174
25.366302604761245	1.9554443	1.398372
25.384268032678207	1.9341589	1.3907404
25.40223409495558	1.9347528	1.3909539
25.420200792102257	1.9068822	1.3808991
25.438168124627246	1.8914117	1.375286
25.45613609303974	1.830583	1.3529904
25.474104697849057	1.8237836	1.3504753
25.492073939564698	1.792141	1.3387086
25.510043818696285	1.792352	1.3387876
25.528014335753614	1.8075361	1.3444464
25.54598549124664	1.8757724	1.3695884
25.56395728568544	1.9015442	1.3789649
25.58192971958028	1.8508717	1.3604674
25.59990279344156	1.8330795	1.3539126
25.617876507779833	1.8324469	1.3536791
25.635850863105826	1.8209361	1.3494207
25.653825859930386	1.8168203	1.3478948
25.671801498764548	1.8400012	1.3564664
25.68977778011949	1.861387	1.3643266
25.707754704506524	1.8807663	1.3714104
25.725732272437153	1.8651806	1.3657161
25.743710484423012	1.8542142	1.3616953
25.761689340975888	1.8959895	1.3769493
25.77966884260774	1.8906215	1.3749987
25.797648989830662	1.8711212	1.3678893
25.815629783156922	1.8623921	1.3646948
25.83361122309895	1.843895	1.357901
25.85159331016929	1.8436731	1.3578192
25.869576044880695	1.8347586	1.3545326
25.887559427746034	1.830506	1.3529619
25.90554345927836	1.794251	1.3394965
25.92352813999086	1.78977	1.3378229
25.94151347039689	1.8166726	1.34784
25.959499451009965	1.8032018	1.3428335
25.97748608234374	1.8314202	1.3532997
25.995473364912062	1.8404458	1.3566303
26.013461299228904	1.8115418	1.3459353
26.03144988580839	1.7990694	1.3412939
26.04943912516483	1.7823108	1.3350321
26.067429017812675	1.8285697	1.3522462
26.085419564266537	1.8578614	1.3630339
26.103410765041186	1.8551296	1.3620315
26.12140262065155	1.8514403	1.3606764
26.139395131612723	1.8149924	1.3472166
26.157388298439948	1.8133965	1.3466241
26.17538212164861	1.7814926	1.3347256
26.193376601754295	1.7971746	1.3405874
26.211371739272714	1.8279184	1.3520054
26.229367534719746	1.8221121	1.3498564
26.247363988611433	1.8451825	1.358375
26.26536110146397	1.869993	1.3674768
26.283358873793727	1.9091626	1.3817245
26.301357306117204	1.8571879	1.3627868
26.319356398951104	1.8298483	1.3527188
26.33735615281224	1.7557982	1.3250654
26.35535656821762	1.7761027	1.332705
26.373357645684404	1.8220664	1.3498394
26.39135938572991	1.8062938	1.3439844
26.409361788871614	1.7545733	1.3246031
26.427364855627165	1.766902	1.3292487
26.445368586514352	1.7759972	1.3326654
26.46337298205115	1.8000122	1.3416454
26.48137804275568	1.802585	1.3426038
26.499383769146217	1.7915921	1.3385037
26.517390161741215	1.7632593	1.3278778
26.53539722105928	1.7466443	1.3216068
26.553404947619182	1.7472162	1.3218231
26.571413341939856	1.7697769	1.3303297
26.589422404540397	1.7943683	1.3395404
26.60743213594006	1.7953054	1.33989
26.62544253665827	1.8518345	1.3608212
26.64345360721459	1.8895156	1.3745966
26.66146534812879	1.8877015	1.3739365
26.679477759920758	1.9055148	1.3804039
26.69749084311057	1.9256785	1.3876882
26.71550459821847	1.888444	1.3742067
26.733519025764842	1.8601142	1.36386
26.751534126270258	1.8354174	1.3547758
26.769549900255434	1.7771965	1.3331153
26.787566348241267	1.7609158	1.326995
26.80558347074881	1.8029819	1.3427516
26.823601268299267	1.8374668	1.3555319
26.841619741414036	1.8588337	1.3633906
26.85963889061465	1.8749508	1.3692884
26.877658716422832	1.8587108	1.3633454
26.89567921936045	1.8182387	1.3484209
26.913700399949544	1.7745421	1.3321193
26.93172225871233	1.7700534	1.3304335
26.949744796171174	1.7716241	1.3310237
26.967768012848605	1.7680298	1.3296728
26.98579190926733	1.7736067	1.3317683
27.003816485950225	1.741463	1.319645
27.021841743420318	1.7220765	1.3122791
27.039867682200814	1.7424405	1.3200153
27.057894302815072	1.8055604	1.3437114
27.07592160578664	1.802612	1.3426138
27.0939495916392	1.7861184	1.3364574
27.111978260896635	1.7864056	1.3365648
27.13000761408296	1.7964498	1.340317
27.148037651722397	1.7939309	1.339377
27.166068374339304	1.8055423	1.3437047
27.184099782458215	1.765444	1.3287002
27.20213187660384	1.7337077	1.3167033
27.22016465730105	1.7460669	1.3213882
27.23819812507487	1.792396	1.3388039
27.256232280450533	1.8032655	1.3428572
27.274267123953383	1.8104062	1.3455133
27.292302656108987	1.8523002	1.3609923
27.31033887744306	1.8746159	1.3691661
27.32837578848146	1.8571863	1.3627862
27.34641338975026	1.8114758	1.3459108
27.364451681775673	1.7898238	1.337843
27.382490665084074	1.7997414	1.3415444
27.400530340202046	1.7914141	1.3384372
27.41857070765629	1.7736689	1.3317916
27.436611767973726	1.7687863	1.3299572
27.454653521681404	1.7675339	1.3294864
27.472695969306564	1.7452992	1.3210977
27.490739111376627	1.779226	1.3338763
27.508782948419153	1.8203038	1.3491863
27.526827480961902	1.8211856	1.349513
27.54487270953279	1.8096166	1.3452199
27.562918634659898	1.8421928	1.357274
27.580965256871508	1.8583446	1.3632112
27.599012576696026	1.8310776	1.3531731
27.617060594662068	1.7925862	1.3388749
27.63510931129842	1.774815	1.3322219
27.65315872713401	1.7713223	1.3309103
27.67120884269797	1.7992599	1.341365
27.68925965851958	1.7951596	1.3398356
27.707311175128307	1.8438874	1.3578981
27.725363393053787	1.8884698	1.3742161
27.74341631282583	1.9652444	1.4018718
27.7614699349744	1.9260747	1.387831
27.77952426002968	2.0641615	1.4367191
27.797579288521973	2.1494696	1.466107
27.815635020981784	2.6813762	1.6374909
27.83369145793979	2.7179706	1.6486269
27.85174859992682	2.4325588	1.5596663
27.869806447473923	2.221964	1.4906254
27.887865001112267	1.9207	1.3858932
27.905924261373233	1.9003824	1.3785436
27.92398422878836	1.9313397	1.3897265
27.94204490388936	1.888181	1.3741109
27.96010628720813	1.859946	1.3637984
27.978168379276728	1.8674935	1.3665626
27.9962311806274	1.8823613	1.3719918
28.014294691792568	1.8559014	1.3623147
28.0323589133048	1.8242357	1.3506427
28.050423845696887	1.8567666	1.3626323
28.068489489501758	1.8635138	1.3651057
28.086555845252523	1.8124666	1.3462788
28.104622913482487	1.7964259	1.3403082
28.122690694725115	1.7938379	1.3393424
28.14075918951405	1.8180033	1.3483335
28.15882839838312	1.9126292	1.3829784
28.176898321866304	1.9260411	1.3878188
28.1949689604978	1.8889294	1.3743832
28.213040314811945	1.8589218	1.3634229
28.23111238534327	1.8555073	1.3621701
28.249185172626493	1.9188646	1.3852309
28.267258677196473	1.9156277	1.384062
28.285332899588294	1.9534528	1.3976598
28.303407840337172	1.9602201	1.4000787
28.321483499978545	1.9259086	1.3877711
28.33955987904799	1.9294027	1.3890294
28.357636978081285	1.9264541	1.3879676
28.37571479761439	1.9397391	1.3927451
28.393793338183425	1.924821	1.3873792
28.41187260032469	1.9310735	1.3896307
28.429952584574686	1.9785913	1.4066241
28.448033291470065	2.0166364	1.4200833
28.46611472154769	2.0020041	1.414922
28.484196875344566	1.9414448	1.3933574
28.502279753397914	1.9162595	1.3842902
28.52036335624511	1.9221704	1.3864236
28.538447684423716	1.9369956	1.3917599
28.556532738471482	1.9219867	1.3863573
28.574618518926325	1.947854	1.3956554
28.59270502632635	1.9357529	1.3913133
28.61079226120985	1.9164232	1.3843493
28.628880224115274	1.94896	1.3960515
28.646968915581287	1.984879	1.4088573
28.66505833614671	2.015461	1.4196693
28.68314848635055	2.0373003	1.4273403
28.701239366732004	2.0603764	1.4354011
28.71933097783044	2.0756757	1.4407206
28.737423320185403	2.0864363	1.4444501
28.75551639433665	2.0619357	1.4359442
28.773610200824074	2.062491	1.4361376
28.791704740187793	2.099873	1.4490938
28.80980001296809	2.1108913	1.4528906
28.827896019705413	2.0888133	1.4452728
28.845992760940433	2.0455198	1.4302167
28.86409023721397	2.080901	1.4425328
28.88218844906704	2.1432223	1.4639748
28.900287397040845	2.2154484	1.4884382
28.918387081676755	2.2275033	1.4924823
28.936487503516343	2.2360997	1.4953594
28.954588663101365	2.289571	1.5131328
28.97269056097374	2.3590615	1.5359236
28.990793197675597	2.345563	1.5315231
29.00889657374923	2.2959528	1.5152402
29.027000689737125	2.343551	1.530866
29.04510554618196	2.4110975	1.552771
29.06321114362659	2.452934	1.5661845
29.08131748261405	2.5157669	1.5861169
29.099424563687567	2.5170155	1.5865104
29.11753238739057	2.486016	1.5767105
29.13564095426663	2.4842932	1.5761641
29.15375026485954	2.582085	1.6068867
29.171860319713275	2.6260529	1.6205101
29.18997111937199	2.6857476	1.638825
29.20808266438002	2.736042	1.6540985
29.226194955281898	2.764714	1.662743
29.244307992622335	2.8074105	1.6755329
29.26242177694624	2.842722	1.6860373
29.2805363087987	2.8303204	1.6823556
29.29865158872498	2.8442478	1.6864898
29.316767617270557	2.8766303	1.6960632
29.334884394981064	2.9184406	1.7083443
29.353001922402367	2.9745424	1.7246861
29.37112020008047	3.0942142	1.7590379
29.389239228561596	3.2059538	1.7905178
29.407359008392152	3.3179936	1.8215361
29.42547954011872	3.6664772	1.9148047
29.44360082428809	4.365019	2.0892627
29.46172286144722	5.3920827	2.3220859
29.479845652143283	6.7876654	2.6053147
29.497969196923606	8.688881	2.9476907
29.516093496335728	11.085424	3.329478
29.5342185509274	13.651295	3.6947658
29.55234436124651	15.80094	3.9750395
29.570470927841175	16.988096	4.1216617
29.588598251259686	16.697191	4.08622
29.60672633205055	15.575277	3.9465525
29.624855170762405	13.560403	3.6824453
29.642984767944146	10.984819	3.3143353
29.66111512414481	8.569901	2.9274395
29.67924623991366	6.518842	2.5532024
29.697378115800138	5.041367	2.2452989
29.71551075235387	4.103444	2.025696
29.733644150124675	3.6348565	1.9065299
29.751778309662576	3.4720366	1.8633401
29.769913231517766	3.4464602	1.8564645
29.78804891624066	3.3541582	1.831436
29.806185364381818	3.2972143	1.8158233
29.82432257649206	3.3568208	1.8321629
29.842460553122333	3.3302438	1.8248956
29.86059929482382	3.2829838	1.8119006
29.878738802147872	3.2992027	1.8163707
29.896879075646048	3.3267825	1.823947
29.915020115870114	3.3079104	1.8187662
29.933161923371976	3.2392032	1.7997787
29.951304498703777	3.1945224	1.7873226
29.969447842417857	3.1382275	1.7715043
29.987591955066733	3.159014	1.7773615
30.005736837203123	3.1700156	1.7804538
30.023882489379943	3.173718	1.7814932
30.04202891215028	3.1637933	1.7787055
30.060176106067455	3.16922	1.7802303
30.078324071684946	3.1963584	1.7878362
30.09647280955646	3.2225587	1.7951486
30.114622320235863	3.1627188	1.7784034
30.132772604277257	3.113951	1.764639
30.1509236622349	3.0913224	1.7582157
30.16907549466328	3.115719	1.7651399
30.18722810211705	3.0701458	1.7521832
30.205381485151097	3.0873423	1.7570834
30.22353564432045	3.0838735	1.7560961
30.241690580180403	3.0688703	1.7518191
30.25984629328638	2.943798	1.71575
30.278002784194037	2.9236398	1.7098655
30.296160053459246	2.9191432	1.70855
30.314318101638033	2.9256928	1.7104657
30.332476929286646	2.8985922	1.7025253
30.35063653696153	2.9445596	1.715972
30.368796925219307	2.8898635	1.6999599
30.386958094616844	2.851954	1.6887729
30.40512004571115	2.8430736	1.6861416
30.423282779059463	2.9097285	1.7057927
30.441446295219233	2.8411162	1.6855611
30.459610594748067	2.7754552	1.6659697
30.47777567820382	2.7986372	1.6729127
30.495941546144504	2.840656	1.6854246
30.51410819912835	2.8408742	1.6854893
30.532275637713795	2.758119	1.6607586
30.55044386245946	2.7734504	1.665368
30.56861287392416	2.8717437	1.694622
30.586782672666956	2.8545108	1.6895298
30.604953259247047	2.8048851	1.6747792
30.623124634223885	2.782074	1.667955
30.641296798157075	2.7916543	1.6708244
30.659469751606462	2.8109956	1.6766024
30.677643495132074	2.762132	1.6619663
30.695818029294152	2.62962	1.6216103
30.713993354653116	2.6135657	1.6166526
30.73216947176962	2.6266136	1.6206831
30.75034638120448	2.591335	1.6097624
30.768524083518756	2.625482	1.6203339
30.786702579273673	2.6365047	1.6237317
30.80488186903069	2.680651	1.6372694
30.82306195335144	2.8181243	1.678727
30.841242832797782	3.0219922	1.7383878
30.85942450793176	3.344072	1.8286804
30.877606979315637	3.7169445	1.9279379
30.895790247511883	4.049217	2.0122666
30.913974313083134	4.363686	2.0889437
30.932159176592283	4.715736	2.1715746
30.95034483860237	4.8545985	2.2033153
30.968531299676698	4.6524777	2.1569602
30.98671856037873	4.3077993	2.0755239
31.00490662127215	3.8980036	1.9743363
31.023095482920848	3.5253015	1.8775786
31.04128514588892	3.1275616	1.7684913
31.059475610740662	2.7349951	1.653782
31.07766687804056	2.54883	1.5965055
31.09585894835335	2.476988	1.573845
31.11405182224393	2.4225564	1.5564563
31.132245500277417	2.3919451	1.5465914
31.15043998301914	2.3898664	1.5459193
31.168635271034628	2.3819556	1.5433586
31.18683136488964	2.425296	1.5573362
31.20502826515008	2.398493	1.5487069
31.223225972382135	2.3907082	1.5461916
31.241424487152155	2.3548448	1.5345503
31.259623810026692	2.3358564	1.5283508
31.27782394157253	2.377159	1.5418038
31.296024882356644	2.4224312	1.5564162
31.314226632946237	2.4741194	1.5729334
31.332429193908684	2.4771616	1.5739001
31.350632565811598	2.470278	1.5717118
31.368836749222787	2.436755	1.5610108
31.387041744710295	2.4687426	1.5712233
31.40524755284232	2.5318143	1.5911676
31.423454174187317	2.5316038	1.5911014
31.441661609313922	2.5043826	1.5825242
31.459869858791002	2.4123943	1.5531884
31.478078923187628	2.3826222	1.5435745
31.496288803073064	2.3391957	1.5294429
31.514499499016807	2.3642411	1.5376089
31.532711011588546	2.352152	1.5336728
31.550923341358178	2.401239	1.5495931
31.56913648889584	2.454122	1.5665637
31.587350454771844	2.393791	1.547188
31.605565239556732	2.3050694	1.5182455
31.62378084382127	2.3000116	1.5165789
31.641997268136382	2.3071816	1.5189409
31.660214513073274	2.2661974	1.5053895
31.67843257920331	2.27056	1.5068377
31.6966514670981	2.2430885	1.4976944
31.71487117732944	2.2278419	1.4925957
31.733091710469346	2.257482	1.502492
31.751313067090052	2.2145567	1.4881387
31.769535247764008	2.249218	1.4997393
31.787758253063878	2.2655892	1.5051874
31.805982083562526	2.3350017	1.5280713
31.824206739833024	2.3406644	1.529923
31.84243222244869	2.3437183	1.5309207
31.860658531983013	2.288551	1.5127958
31.878885669009737	2.3129346	1.5208335
31.897113634102784	2.332246	1.5271693
31.91534242783632	2.2992728	1.5163354
31.933572050784694	2.2361608	1.4953798
31.951802503522508	2.1751666	1.4748446
31.970033786624548	2.165718	1.4716378
31.988265900665834	2.1962464	1.4819738
32.006498846221575	2.222173	1.4906955
32.02473262386724	2.2053802	1.4850522
32.04296723417845	2.2182355	1.4893742
32.0612026777311	2.1253092	1.457844
32.07943895510129	2.0522368	1.4325631
32.097676066865304	2.0629485	1.4362968
32.115914013599685	2.1547973	1.4679228
32.13415279588115	2.148438	1.4657551
32.152392414286666	2.1258395	1.4580259
32.1706328693934	2.209523	1.4864464
32.18887416177875	2.1806748	1.4767108
32.20711629202032	2.1455271	1.4647619
32.225359260695924	2.191675	1.4804307
32.243603068383614	2.2348242	1.4949329
32.26184771566166	2.1751106	1.4748256
32.28009320310852	2.1066093	1.4514164
32.2983395313029	2.052993	1.432827
32.31658670082372	2.0512319	1.4322122
32.33483471225012	2.0262353	1.4234589
32.35308356616143	2.043899	1.42965
32.371333263137245	2.0674121	1.4378499
32.38958380375734	2.009208	1.4174653
32.407835188601744	2.0294366	1.424583
32.42608741825067	2.06511	1.437049
32.444340493284585	2.0855772	1.4441528
32.46259441428416	2.0672657	1.437799
32.48084918183028	2.0646899	1.4369029
32.49910479650405	2.0064933	1.4165075
32.51736125888683	2.0307255	1.4250352
32.53561856956014	2.0051818	1.4160445
32.5538767291058	2.0225687	1.4221704
32.572135738105764	2.0095565	1.4175882
32.59039559714228	1.9574718	1.3990968
32.608656306797776	1.9116921	1.3826395
32.62691786765491	2.0117047	1.4183458
32.645180280296586	2.1169677	1.4549803
32.663443545305896	2.1598845	1.4696546
32.68170766326619	2.1262305	1.4581599
32.69997263476099	2.0484471	1.4312397
32.7182384603741	1.9728045	1.4045656
32.7365051406895	1.9812285	1.4075612
32.75477267629144	2.0026257	1.4151416
32.77304106776434	1.9732133	1.4047111
32.79131031569289	2.035025	1.426543
32.809580420661966	2.1104288	1.4527315
32.827851383256714	2.0617306	1.4358728
32.84612320406245	1.987784	1.4098879
32.86439588366476	1.9974647	1.4133168
32.88266942264945	2.0262792	1.4234743
32.9009438216025	2.0624344	1.4361179
32.9192190811102	2.0577984	1.4345028
32.937495201758985	2.0420597	1.4290066
32.95577218413556	2.0472107	1.4308077
32.974050028826866	2.0564957	1.4340487
32.992328736420035	2.0190227	1.4209232
33.010608307502444	1.9656659	1.4020221
33.02888874266169	1.9238898	1.3870435
33.047170042485604	1.9630332	1.4010829
33.06545220756225	1.9601095	1.4000391
33.083735238479896	1.9350226	1.3910509
33.10201913582707	1.8564847	1.3625288
33.12030390019248	1.8649659	1.3656375
33.138589532165135	1.8492724	1.3598795
33.15687603233419	1.8246944	1.3508124
33.17516340128909	1.8841398	1.3726397
33.19345163961947	1.9211702	1.3860629
33.211740747915215	1.8997761	1.3783237
33.23003072676643	1.8539355	1.361593
33.248321576763466	1.9162151	1.3842742
33.266613298496885	1.9651979	1.4018552
33.28490589255747	1.9619265	1.4006878
33.30319935953626	1.918575	1.3851264
33.32149370002451	1.9517752	1.3970594
33.339788914613706	1.9407021	1.3930908
33.358085003895575	1.8907998	1.3750635
33.376381968462034	1.9551998	1.3982846
33.39467980890529	1.9416593	1.3934344
33.41297852581774	1.8695949	1.3673313
33.43127811979204	1.841386	1.3569767
33.44957859142105	1.8887404	1.3743145
33.467879941297866	1.947415	1.3954982
33.486182170015844	1.9525483	1.3973361
33.50448527816853	1.8805823	1.3713433
33.522789266349754	1.8747734	1.3692236
33.541094135153514	1.8881637	1.3741047
33.55939988517411	1.9195142	1.3854654
33.57770651700602	1.9856946	1.4091468
33.59601403124398	2.041512	1.4288149
33.61432242848296	2.0272946	1.423831
33.632631709318154	1.9487058	1.3959606
33.650941874344994	1.9296709	1.389126
33.66925292415916	1.9336935	1.3905731
33.68756485935654	1.9177788	1.3848389
33.70587768053328	1.8933669	1.3759967
33.724191388285746	1.9273194	1.3882793
33.74250598321054	1.9527652	1.3974137
33.760821465904506	1.9891393	1.4103686
33.77913783696474	1.9571815	1.398993
33.79745509698852	1.9006755	1.37865
33.815773246573414	1.8905714	1.3749804
33.8340922863172	1.8778327	1.3703403
33.852412216817896	2.0248303	1.4229653
33.87073303867377	1.9838777	1.4085019
33.889054752483304	1.866151	1.3660713
33.907377358845245	1.844998	1.358307
33.92570085835853	1.8366852	1.3552436
33.94402525162239	1.9338406	1.390626
33.96235053923627	1.9725214	1.4044648
33.980676721799824	1.9413239	1.393314
33.999003799912984	2.0780137	1.4415317
34.01733177417592	2.1212046	1.4564356
34.03566064518901	2.0352857	1.4266344
34.0539904135529	2.0021343	1.414968
34.07232107986846	2.0863554	1.4444221
34.090652644736785	2.0844054	1.443747
34.108985108759235	2.068027	1.4380636
34.12731847253742	2.0487065	1.4313303
34.14565273667313	2.032017	1.4254884
34.16398790176847	1.9060428	1.3805951
34.18232396842574	1.8775102	1.3702227
34.20066093724749	2.0612283	1.4356978
34.21899880883651	2.0357652	1.4268024
34.23733758379583	2.0383992	1.4277252
34.25567726272874	1.9626341	1.4009404
34.27401784623872	1.7939353	1.3393787
34.29235933492957	1.6921767	1.3008369
34.31070172940526	1.7359682	1.3175615
34.32904503027003	1.9517413	1.3970474
34.347389238128386	1.9144995	1.3836544
34.36573435358502	2.0596566	1.4351504
34.38408037724492	2.1487908	1.4658755
34.402427309713296	2.1742065	1.474519
34.42077515159559	2.0327659	1.425751
34.43912390349752	1.9358277	1.3913403
34.45747356602499	1.836791	1.3552827
34.47582413978423	1.9126638	1.3829908
34.49417562538163	1.8714736	1.3680182
34.51252802342388	1.8645022	1.3654678
34.53088133451789	1.9014171	1.3789189
34.54923555927084	1.8919947	1.3754979
34.567590698290104	1.9047195	1.3801157
34.58594675218336	1.9538435	1.3977995
34.6043037215585	1.9981233	1.4135499
34.62266160702365	2.031503	1.425308
34.641020409187234	2.003822	1.4155642
34.65938012865785	1.899758	1.3783171
34.677740766044394	1.7975289	1.3407196
34.69610232195598	1.7965405	1.3403509
34.714464797002016	1.7262342	1.3138623
34.73282819179208	1.7796443	1.3340331
34.751192506936064	1.9943167	1.4122028
34.76955774304408	2.1229575	1.4570372
34.7879239007265	2.1513276	1.4667405
34.80629098059391	1.957126	1.3989732
34.824658983257194	1.8952059	1.3766648
34.843027909327446	1.9475155	1.3955342
34.86139775941603	2.143895	1.4642045
34.879768534134534	2.217052	1.4889768
34.89814023409483	2.1122658	1.4533637
34.91651285990901	2.0203502	1.4213903
34.93488641218944	2.0378218	1.4275229
34.95326089154871	2.0147977	1.4194357
34.97163629859967	2.0659158	1.4373294
34.99001263395542	2.1568875	1.4686346
35.00838989822934	2.1341157	1.4608613
35.02676809203499	1.8666984	1.3662717
35.04514721598624	1.8484023	1.3595595
35.063527270697215	1.9051738	1.3802804
35.081908256782256	1.8705717	1.3676884
35.10029017485597	1.7586831	1.3261535
35.11867302553321	1.7603834	1.3267944
35.137056809429104	1.7235742	1.3128496
35.155441527159006	1.7648857	1.32849
35.173827179338524	1.8661736	1.3660797
35.19221376658354	1.9206293	1.3858677
35.21060128951017	1.9129566	1.3830967
35.2289897487348	2.0666173	1.4375734
35.24737914487405	1.9600548	1.4000195
35.26576947854479	1.9160849	1.3842272
35.28416075036418	1.9990516	1.4138782
35.30255296094958	2.1728504	1.4740591
35.32094611091867	2.1566632	1.4685582
35.33934020088932	2.3007188	1.5168121
35.35773523147969	2.4249678	1.5572308
35.3761312033082	2.3256674	1.5250139
35.394528116993506	2.0876746	1.4448787
35.41292597315452	2.204401	1.4847225
35.431324772410434	2.0328493	1.4257803
35.449724515380666	1.8301214	1.3528198
35.46812520268491	1.9170957	1.3845923
35.486526834943106	2.213293	1.487714
35.504929412775454	1.9828811	1.408148
35.52333293680242	1.732435	1.3162199
35.54173740764471	1.5723233	1.2539232
35.560142825923286	1.3115984	1.1452503
35.5785491922594	1.0910593	1.0445379
35.59695650727454	1.683109	1.297347
35.61536477159042	2.4718385	1.5722082
