0.008763373481513119	0.0	0.0
0.026290120649546365	0.0	0.0
0.043816868432600686	0.13170215	0.36290792
0.06134361724069026	0.1439407	0.3793952
0.07887036748382949	0.14732607	0.3838308
0.0963971195720331	0.113295026	0.33659327
0.11392387391531617	0.12679504	0.35608292
0.1314506309236943	0.12852007	0.35849696
0.1489773910071836	0.09926587	0.31506488
0.16650415457580078	0.1089333	0.33005044
0.18403092203956356	0.14958346	0.3867602
0.20155769380849	0.17110234	0.41364518
0.2190844702925996	0.1846814	0.42974573
0.2366112519019124	0.14581689	0.38185978
0.2541380390464497	0.09555653	0.30912217
0.27166483213623416	0.09500736	0.30823264
0.28919163158128947	0.1040109	0.3225072
0.3067184377916406	0.119094744	0.34510106
0.324245251177314	0.09459697	0.3075662
0.34177207214833777	0.104715906	0.32359838
0.3592989011147415	0.09925992	0.31505543
0.37682573848655654	0.098584354	0.31398144
0.39435258467381573	0.13330999	0.36511642
0.41187944008655414	0.12980407	0.36028332
0.42940630513480854	0.124941945	0.35347128
0.446933180228618	0.14931256	0.38640982
0.4644600657780234	0.13180427	0.36304858
0.48198696219306775	0.15163219	0.38939977
0.49951386988379676	0.15086293	0.38841078
0.5170407892602581	0.15046783	0.3879018
0.5345677207325025	0.1531909	0.39139608
0.5520946647105822	0.1442471	0.37979877
0.5696216216045534	0.1594049	0.39925542
0.5871485918244737	0.1483765	0.3851967
0.6046755757804043	0.16957642	0.41179657
0.6222025738824094	0.15651332	0.39561763
0.6397295865405557	0.15228577	0.3902381
0.6572566141649129	0.1692947	0.41145438
0.6747836571655547	0.20430973	0.45200634
0.6923107159525568	0.24606812	0.49605253
0.7098377909359992	0.24172238	0.4916527
0.7273648825259653	0.21541989	0.46413347
0.7448919911325411	0.17663327	0.4202776
0.762419117165817	0.16196531	0.40244913
0.7799462610358868	0.18358068	0.42846316
0.7974734231528482	0.2050083	0.45277843
0.8150006039268024	0.21374464	0.46232525
0.8325278037678551	0.21886595	0.4678311
0.8500550230861152	0.19149564	0.43760216
0.8675822622916969	0.17570259	0.41916892
0.8851095217947171	0.17927028	0.4234032
0.9026368020052984	0.18732023	0.43280506
0.9201641033335665	0.20922825	0.45741475
0.9376914261896523	0.22704564	0.47649306
0.9552187709836915	0.22825745	0.47776297
0.9727461381258234	0.25742638	0.507372
0.990273528026193	0.29296386	0.5412614
1.0078009410949496	0.26155046	0.51142
1.0253283777422473	0.21359523	0.46216363
1.0428558383782454	0.23545988	0.48524207
1.0603833234131086	0.30070883	0.5483692
1.0779108332570058	0.3268186	0.5716805
1.0954383683201119	0.3005535	0.5482276
1.112965929012607	0.33402717	0.57795084
1.1304935157446763	0.47560766	0.68964314
1.1480211289265108	0.54733294	0.7398195
1.1655487689683062	1.4768637	1.2152628
1.1830764362802655	1.7390131	1.3187164
1.200604131272596	2.0895784	1.4455374
1.2181318543555117	2.281732	1.5105404
1.235659605939232	2.2942014	1.5146621
1.253187386433982	3.992721	1.9981794
1.270715196249994	6.4771914	2.5450327
1.2882430357975057	11.894154	3.44879
1.3057709054867608	16.829308	4.102354
1.3232988057280106	22.78669	4.7735405
1.3408267369315112	27.614925	5.2549906
1.358354699507526	31.193724	5.585134
1.3758826938663256	35.361782	5.9465775
1.3934107204181858	37.769592	6.145697
1.410938779573391	38.52222	6.2066274
1.4284668717422309	39.100235	6.253018
1.4459949973350033	37.921112	6.158012
1.4635231567620117	37.52156	6.1254845
1.4810513504335687	36.544422	6.0451984
1.4985795787599925	36.091732	6.0076394
1.5161078421516088	35.779556	5.9816017
1.5336361410187505	34.89598	5.907282
1.5511644757717598	34.74961	5.8948803
1.5686928468209842	35.385235	5.948549
1.58622125457678	36.264652	6.022014
1.6037496994495108	37.869717	6.1538377
1.621278181849548	37.584843	6.1306477
1.6388067021872719	38.06117	6.1693735
1.6563352608730693	37.12838	6.093306
1.673863858317336	36.44934	6.0373287
1.6913924949304753	35.766205	5.9804854
1.7089211711228998	34.972515	5.9137564
1.7264498873050296	34.140415	5.84298
1.7439786438872935	33.250443	5.7663198
1.7615074412801288	32.460064	5.6973734
1.779036279893981	31.491856	5.6117606
1.796565160139305	30.34432	5.508568
1.814094082426564	29.633703	5.4436846
1.8316230471662298	28.811071	5.3675947
1.849152054768784	27.859018	5.2781644
1.8666811056447168	27.038513	5.199857
1.8842102002045273	26.241251	5.1226215
1.901739338858724	26.029663	5.1019273
1.9192685220178245	25.805754	5.0799365
1.9367977500923557	25.194254	5.0193877
1.9543270234928547	24.754036	4.9753428
1.971856342629867	24.198708	4.919218
1.9893857079139496	23.770144	4.8754635
2.006915119755667	23.105164	4.806783
2.0244445785655945	22.317276	4.7241163
2.0419740847543175	21.712326	4.659649
2.0595036387324317	21.198668	4.604201
2.0770332409105414	20.852654	4.5664706
2.094562891699263	20.652233	4.5444727
2.1120925915092217	20.28094	4.5034366
2.129622340751053	19.731796	4.4420485
2.1471521398354043	187.85875	13.706158
2.1646819891729323	444.22464	21.076637
2.182211889174303	440.58206	20.990047
2.1997418402501974	453.23325	21.289276
2.2172718428113023	433.0568	20.810017
2.234801897268317	320.90112	17.913713
2.2523320040319548	17.190607	4.146156
2.269862163512935	16.756142	4.0934267
2.287392376121992	16.55027	4.0682025
2.304922642269869	16.317574	4.0395017
2.322452962367322	15.892325	3.986518
2.3399833368251164	15.530881	3.940924
2.357513766054032	15.353759	3.9183872
2.3750442504648586	15.138065	3.8907666
2.3925747904683963	14.924345	3.863204
2.410105386475459	14.7280245	3.8377109
2.4276360388968707	14.369383	3.7906969
2.445166748143469	14.098521	3.7547998
2.4626975146261025	13.749444	3.7080243
2.4802283387556323	13.462413	3.669116
2.4977592209429305	13.296819	3.6464803
2.5152901615988825	12.960522	3.6000724
2.5328211611343865	12.968323	3.6011558
2.5503522199603523	12.73436	3.5685234
2.5678833384877024	12.666208	3.5589616
2.5854145171273712	12.3914	3.520142
2.6029457562903064	12.167641	3.4882145
2.620477056387469	11.971001	3.4599135
2.6380084178298326	11.707554	3.4216304
2.655539841028383	11.430513	3.3809042
2.673071326394119	11.326516	3.365489
2.6906028743380523	11.137403	3.3372748
2.708134485271211	11.048344	3.323905
2.7256661596046325	10.7701845	3.281796
2.743197897749369	10.467419	3.235339
2.760729700116486	10.19936	3.1936436
2.778261567117063	10.233819	3.199034
2.795793499162193	10.128548	3.182538
2.8133254966629817	9.8870125	3.144362
2.830857560030551	9.543567	3.0892663
2.8483896896760337	9.40632	3.0669725
2.865921886010578	9.325211	3.0537207
2.883454149445347	9.244063	3.040405
2.9009864803915177	9.225976	3.037429
2.91851887926028	9.139346	3.0231352
2.9360513464628384	9.12941	3.0214913
2.953583882410413	8.964087	2.9940085
2.9711164875142373	8.8433485	2.9737768
2.9886491621855606	8.655612	2.942042
3.0061819068356455	8.52889	2.9204264
3.023714721875769	8.50773	2.9168012
3.041247607717225	8.436345	2.9045386
3.0587805647713213	8.415622	2.900969
3.0763135934493806	8.305775	2.881974
3.0938466941627407	8.162675	2.8570395
3.1113798673227544	8.190242	2.8618598
3.1289131133407904	8.036283	2.8348339
3.1464464326282315	7.877053	2.8066087
3.1639798255964786	7.7185593	2.7782295
3.1815132926569443	7.6870537	2.7725537
3.1990468342210603	7.5760636	2.752465
3.216580450700272	7.5717654	2.7516842
3.2341141425060416	7.4692993	2.733002
3.251647910049847	7.413333	2.7227437
3.2691817537431813	7.1689997	2.6774988
3.286715673997555	7.183196	2.6801486
3.3042496712244938	7.1663885	2.677011
3.32178374583554	7.1380115	2.6717057
3.339317898242251	6.865151	2.6201434
3.3568521288562034	6.666687	2.5819929
3.3743864380889876	6.683118	2.5851727
3.3919208263522127	6.741937	2.596524
3.4094552940575023	6.779478	2.603743
3.4269898416164972	6.7722344	2.6023517
3.444524469440858	6.6567583	2.5800695
3.4620591779422587	6.562707	2.561778
3.479593967532391	6.4225636	2.5342777
3.4971288386229658	6.30913	2.5117981
3.5146637916257086	6.26116	2.502231
3.5321988269523628	6.242762	2.498552
3.5497339450146903	6.2166405	2.4933193
3.5672691462244708	6.2635884	2.5027163
3.5848044309934988	6.204571	2.4908977
3.60233979973359	6.1699176	2.4839318
3.619875252856575	6.295103	2.5090044
3.6374107907743034	6.332459	2.5164378
3.6549464138986427	6.3093367	2.5118394
3.6724821226414788	6.268449	2.5036871
3.690017917414714	6.3140354	2.5127745
3.7075537986302702	6.3997216	2.529767
3.7250897667000857	6.521537	2.55373
3.7426258220361235	6.5826235	2.5656624
3.7601619650503553	6.9079146	2.6282911
3.777698196154779	7.4634104	2.7319243
3.7952345157614067	8.389794	2.8965142
3.8127709242822716	9.019477	3.0032444
3.830307422129425	10.95102	3.3092325
3.847844009714936	12.396531	3.5208707
3.8653806874508954	15.892694	3.9865642
3.882917455749409	15.540219	3.9421084
3.900454315022606	15.634221	3.9540133
3.917991265682631	12.501089	3.535688
3.9355283081416506	10.584225	3.2533405
3.9530654428118495	8.485897	2.9130564
3.970602670105433	7.236326	2.690042
3.9881399904346244	6.4528	2.5402362
4.005677404211669	6.461881	2.542023
4.023214911848827	6.5383425	2.5570183
4.0407525137583855	6.615587	2.5720785
4.058290210352644	6.510075	2.5514848
4.075828002043927	6.2801757	2.506028
4.0933658892445814	6.1773796	2.4854336
4.110903872366966	6.0561547	2.4609256
4.128441951823468	6.0657473	2.4628737
4.145980128026488	6.024539	2.4544935
4.163518401388452	6.135779	2.4770505
4.181056772321807	6.1809373	2.486149
4.1985952412390155	6.107671	2.4713702
4.216133808552567	6.071143	2.463969
4.233672474674966	6.054086	2.4605052
4.251211240018741	6.370101	2.523906
4.268750104996445	6.68867	2.5862463
4.286289070020643	7.6927757	2.7735853
4.303828135503928	9.323903	3.0535066
4.3213673018589125	29.519144	5.433152
4.3389065694982305	90.63738	9.520367
4.356445938834537	165.93008	12.881385
4.3739854102805085	171.66565	13.102124
4.391524984248844	172.49704	13.133813
4.409064661152262	136.5088	11.683699
4.426604441403504	96.92673	9.845138
4.444144325415337	75.621475	8.696061
4.461684313600543	21.654444	4.6534333
4.47922440637193	21.861275	4.6756043
4.496764604142329	20.255276	4.500586
4.5143049073245916	18.694094	4.3236666
4.531845316331589	16.539188	4.06684
4.5493858315762195	13.920479	3.7310157
4.566926453471405	11.566205	3.4009123
4.584467182430081	9.573819	3.094159
4.602008018865218	8.341387	2.888146
4.619548963189798	7.592928	2.7555268
4.637090015816834	7.065326	2.6580682
4.654631177159353	6.791708	2.6060905
4.672172447630417	6.464223	2.5424836
4.689713827643102	6.247726	2.499545
4.7072553176105085	5.99721	2.4489202
4.724796917945764	5.872411	2.4233057
4.742338629062015	5.7731028	2.402728
4.759880451372434	5.751389	2.3982053
4.777422385290215	5.661892	2.379473
4.794964431228581	5.6649127	2.3801076
4.812506589600768	5.5835147	2.3629463
4.830048860820047	5.571735	2.3604522
4.847591245299709	5.5889974	2.364106
4.8651337434530655	5.607309	2.3679757
4.882676355693457	5.5741715	2.3609684
4.900219082434242	5.5060945	2.3465068
4.917761924088813	5.4138412	2.3267663
4.935304881070575	5.3896174	2.321555
4.952847953792969	5.52663	2.3508785
4.970391142669449	5.6022396	2.366905
4.9879344481135055	5.5942388	2.3652143
5.005477870538642	5.4437456	2.3331835
5.023021410358394	5.406509	2.32519
5.040565067986324	5.4398403	2.3323464
5.05810884383601	5.483033	2.3415878
5.075652738321066	5.5094547	2.3472228
5.09319675185512	5.4337687	2.3310447
5.110740884851836	5.420406	2.3281765
5.128285137724894	5.368165	2.31693
5.145829510888007	5.376067	2.3186347
5.163374004754908	5.3729067	2.317953
5.1809186197393595	5.352101	2.3134608
5.198463356255145	5.2895055	2.2998924
5.216008214716077	5.253633	2.2920804
5.233553195535998	5.2093625	2.2824028
5.251098299128764	5.215126	2.283665
5.268643525908272	5.1907625	2.2783246
5.286188876288432	5.2288957	2.2866778
5.3037343506831895	5.227148	2.2862957
5.32127994950651	5.257603	2.2929463
5.3388256731723915	5.318078	2.3060958
5.356371522094851	5.3210177	2.3067331
5.373917496687938	5.310207	2.3043885
5.391463597365729	5.3415704	2.3111837
5.40900982454232	5.2386346	2.2888064
5.426556178631843	5.161916	2.271985
5.444102660048449	5.1335425	2.2657323
5.4616492692063225	5.183847	2.2768064
5.479196006519669	5.195323	2.279325
5.496742872402727	5.148583	2.269049
5.514289867269756	5.1123195	2.2610438
5.531836991535049	5.110918	2.2607338
5.549384245612924	5.1462965	2.268545
5.566931629917724	5.101366	2.2586205
5.584479144863822	5.0967083	2.257589
5.6020267908656205	5.1757193	2.2750206
5.619574568337545	5.221863	2.2851396
5.637122477694054	5.273329	2.296373
5.654670519349629	5.2697678	2.2955976
5.672218693718784	5.243173	2.2897975
5.689767001216059	5.1548204	2.270423
5.707315442256021	5.0754366	2.252873
5.724864017253266	5.1086864	2.2602403
5.7424127266224225	5.2206984	2.2848847
5.75996157077814	5.3165746	2.30577
5.777510550135105	5.2709455	2.295854
5.795059665108022	5.199043	2.2801409
5.812608916111639	5.208656	2.282248
5.830158303560715	5.2380676	2.2886825
5.847707827870055	5.2439938	2.2899768
5.86525748945448	5.2954993	2.3011951
5.8828072887288485	5.4608893	2.3368547
5.900357226108044	5.551219	2.3561025
5.917907302006979	5.6168966	2.3699992
5.9354575168406	6.1198187	2.4738266
5.9530078710238765	6.636578	2.5761557
5.970558364971812	7.1597753	2.6757755
5.988108999099438	7.4501586	2.729498
6.005659773821818	7.948865	2.8193731
6.023210689554039	7.760839	2.7858284
6.040761746711227	8.118887	2.849366
6.058312945708531	7.6430535	2.7646072
6.075864286961132	7.232165	2.6892684
6.093415770884244	6.598962	2.5688446
6.1109673978931065	6.0229316	2.4541662
6.128519168402993	5.4782677	2.34057
6.146071082829204	5.361808	2.3155577
6.163623141587075	5.266193	2.2948186
6.181175345091969	5.188414	2.2778091
6.198727693759281	5.167415	2.273195
6.216280188004435	5.0934696	2.2568717
6.233832828242885	5.0419965	2.245439
6.251385614890126	5.129504	2.2648408
6.268938548361669	5.1356254	2.2661917
6.286491629073067	5.100766	2.2584877
6.304044857439898	5.0329676	2.2434278
6.321598233877777	4.9613047	2.2273986
6.339151758802344	4.9354587	2.2215893
6.356705432629277	4.9356656	2.2216358
6.37425925577428	4.9788804	2.2313404
6.391813228653095	5.0304794	2.242873
6.409367351681486	5.0000057	2.2360692
6.426921625275259	4.9612775	2.2273924
6.44447604985025	4.9577456	2.2265995
6.46203062582232	4.9912105	2.2341018
6.47958535360737	5.0056973	2.2373416
6.497140233621328	4.912461	2.2164073
6.514695266280161	4.896785	2.212868
6.532250451999859	4.8424096	2.2005475
6.549805791196454	4.8920918	2.2118073
6.567361284286002	5.003806	2.236919
6.584916931684597	5.028837	2.242507
6.602472733808367	5.0897503	2.2560475
6.6200286910734665	5.0651436	2.2505875
6.637584803896092	5.067203	2.251045
6.655141072692462	4.993757	2.2346716
6.672697497878842	4.896696	2.212848
6.690254079871514	4.9484787	2.2245176
6.707810819086808	5.01594	2.2396295
6.725367715941078	5.0005636	2.236194
6.742924770850719	4.917729	2.2175953
6.760481984232151	4.885238	2.2102575
6.778039356501836	4.9056587	2.2148721
6.795596888076266	4.9680963	2.2289226
6.813154579371963	4.959036	2.2268894
6.830712430805492	4.9804773	2.2316983
6.84827044279344	4.9599175	2.2270873
6.865828615752445	4.9455824	2.2238665
6.883386950099159	4.9388666	2.222356
6.900945446250287	4.976139	2.2307262
6.918504104622553	5.01531	2.2394888
6.936062925632727	5.072398	2.2521985
6.953621909697607	5.080832	2.25407
6.971181057234028	5.1091914	2.2603521
6.988740368658859	5.1726747	2.2743516
7.006299844389007	5.2761326	2.2969835
7.023859484841407	5.3173804	2.3059447
7.041419290433036	5.3038015	2.3029983
7.058979261580902	5.3615193	2.3154955
7.0765393987020495	5.6249886	2.3717058
7.094099702213559	6.077825	2.4653246
7.111660172532549	6.473598	2.5443265
7.129220810076164	6.8213196	2.6117656
7.146781615261595	7.4308863	2.7259653
7.16434258850606	7.6673827	2.7690039
7.181903730226821	8.138917	2.8528788
7.1994650408411704	8.218827	2.8668497
7.217026520766437	8.397442	2.897834
7.234588170419983	8.529911	2.9206011
7.252149990219215	8.437883	2.9048035
7.269711980581568	8.333789	2.8868303
7.2872741419245175	8.17974	2.8600245
7.304836474665574	7.759456	2.7855802
7.322398979222286	7.4113417	2.722378
7.339961656012233	7.1284842	2.669922
7.357524505453039	6.8123865	2.610055
7.375087527962357	6.6196365	2.5728655
7.392650723957886	6.2751403	2.505023
7.410214093857353	5.873584	2.4235477
7.427777638078528	5.557023	2.357334
7.445341357039213	5.3767476	2.3187814
7.4629052511572525	5.38099	2.3196962
7.480469320850524	5.454904	2.3355737
7.498033566536948	5.3691225	2.3171368
7.5155979886344735	5.265404	2.294647
7.5331625875610975	5.124841	2.263811
7.550727363734844	5.075784	2.2529502
7.568292317573788	5.09874	2.258039
7.585857449496025	5.1769123	2.2752829
7.603422759919705	5.231153	2.2871714
7.620988249263007	5.1845183	2.2769537
7.638553917944147	5.0901003	2.256125
7.656119766381391	5.115047	2.261647
7.673685794993023	5.12506	2.2638595
7.691252004197388	5.207667	2.2820313
7.70881839441285	5.227587	2.2863917
7.726384966057826	5.272587	2.2962115
7.743951719550762	5.2750416	2.2967458
7.761518655310149	5.248147	2.2908835
7.779085773754511	5.1902504	2.278212
7.796653075302419	5.1509576	2.269572
7.814220560372475	5.175824	2.2750437
7.831788229383323	5.167049	2.2731144
7.8493560827536495	5.2438903	2.2899542
7.866924120902174	5.258091	2.2930527
7.884492344247663	5.329356	2.3085399
7.9020607532089135	5.3268337	2.3079934
7.919629348204771	5.321994	2.3069446
7.937198129654115	5.3127503	2.3049405
7.954767097975865	5.2737217	2.2964585
7.972336253588986	5.2455697	2.2903209
7.989905596912472	5.2754755	2.2968404
8.007475128365371	5.3484573	2.312673
8.025044848366756	5.4634337	2.337399
8.042614757335754	5.639954	2.3748589
8.060184855691523	5.7411766	2.3960752
8.07775514385327	5.829282	2.4143906
8.095325622240228	5.865165	2.4218104
8.112896291271687	5.8507776	2.418838
8.130467151366968	5.9292955	2.4350145
8.148038202945436	5.9722915	2.4438272
8.165609446426497	5.9942884	2.4483235
8.183180882229594	6.0030813	2.4501185
8.200752510774217	5.8830647	2.425503
8.218324332479893	5.902482	2.4295025
8.235896347766193	5.8717995	2.4231796
8.253468557052724	5.9530244	2.439882
8.27104096075914	5.946257	2.438495
8.288613559305137	5.9863033	2.4466922
8.306186353110448	5.9993863	2.4493644
8.32375934259485	6.0575805	2.4612153
8.341332528178162	6.1821685	2.4863968
8.358905910280246	6.263134	2.5026255
8.376479489321003	6.340509	2.5180366
8.394053265720377	6.3463173	2.5191898
8.411627239898356	6.260718	2.5021427
8.42920141227497	6.1787624	2.4857116
8.44677578327029	6.1252527	2.4749248
8.464350353304427	6.1563563	2.4812007
8.48192512279754	6.183967	2.4867585
8.499500092169827	6.23617	2.4972324
8.51707526184153	6.1995	2.4898796
8.534650632232934	6.118116	2.4734826
8.552226203764365	6.069717	2.4636796
8.569801976856192	6.118022	2.4734635
8.587377951928834	6.153124	2.480549
8.60495412940274	6.237251	2.497449
8.622530509698416	6.2768297	2.5053601
8.6401070932364	6.4240746	2.534576
8.657683880437283	6.5764775	2.5644643
8.675260871721695	6.739332	2.5960224
8.692838067510303	6.8893447	2.624756
8.710415468223834	7.002466	2.6462173
8.727993074283043	7.131496	2.670486
8.745570886108737	7.171516	2.6779687
8.763148904121765	7.2314777	2.6891408
8.78072712874302	7.15671	2.6752028
8.798305560393441	7.3926377	2.7189405
8.815884199494006	7.6342993	2.7630236
8.833463046465745	7.880532	2.8072286
8.851042101729728	8.088258	2.8439863
8.86862136570707	8.346789	2.889081
8.886200838818924	8.456365	2.9079828
8.903780521486505	8.466006	2.9096403
8.921360414131055	8.538195	2.922019
8.938940517173874	8.695293	2.9487784
8.956520831036297	8.800859	2.9666243
8.97410135613971	9.047902	3.0079732
8.99168209290554	9.114449	3.0190146
9.009263041755265	9.444475	3.0731864
9.026844203110405	9.696716	3.113955
9.044425577392525	9.916388	3.1490297
9.062007165023239	9.941589	3.1530285
9.079588966424197	10.16271	3.1879005
9.097170982017108	10.24159	3.2002482
9.11475321222372	11.1100855	3.3331795
9.132335657465825	11.957317	3.4579353
9.149918318165264	12.000293	3.464144
9.167501194743924	12.606634	3.5505822
9.18508428762374	12.258917	3.5012736
9.202667597226693	12.194943	3.492126
9.220251123974803	11.859697	3.4437912
9.237834868290143	11.599564	3.4058132
9.255418830594836	11.504402	3.391814
9.273003011311046	11.069255	3.327049
9.290587410860985	10.904431	3.3021858
9.308172029666911	10.353967	3.217758
9.32575686815113	10.017204	3.1649966
9.343341926735997	8.794117	2.9654877
9.360927205843916	8.528829	2.9204159
9.378512705897327	8.313276	2.8832753
9.396098427318728	8.038072	2.8351493
9.413684370530664	7.9317513	2.8163364
9.431270535955722	7.9262147	2.8153534
9.448856924016539	7.851943	2.802132
9.466443535135806	7.7818604	2.7895987
9.484030369736251	7.7825036	2.7897139
9.501617428240658	7.78736	2.790584
9.519204711071852	7.814632	2.7954664
9.536792218652714	7.8248425	2.797292
9.55437995140617	7.813736	2.795306
9.571967909755191	7.771181	2.7876837
9.589556094122802	7.6955295	2.7740817
9.60714450493207	7.7917256	2.7913663
9.624733142606116	7.820964	2.7965987
9.642322007568108	7.8977385	2.8102915
9.659911100241267	7.9917502	2.8269684
9.677500421048851	8.020561	2.8320596
9.695089970414175	8.087513	2.8438554
9.712679748760609	8.050098	2.8372695
9.730269756511557	8.043821	2.836163
9.747859994090492	8.039596	2.835418
9.765450461920915	8.074736	2.841608
9.78304116042639	8.170885	2.858476
9.800632090030527	8.309352	2.8825946
9.81822325115699	8.342256	2.8882964
9.835814644229481	8.308842	2.8825061
9.853406269671762	8.275778	2.8767653
9.870998127907646	8.218369	2.8667698
9.888590219360985	8.227539	2.8683686
9.906182544455698	8.205567	2.864536
9.923775103615734	8.233186	2.8693528
9.941367897265108	8.295974	2.880273
9.958960925827878	8.349144	2.8894885
9.97655418972816	8.330996	2.8863463
9.994147689390106	8.25492	2.8731377
10.011741425237934	8.162955	2.8570886
10.029335397695904	8.11129	2.8480327
10.04692960718833	8.157869	2.8561983
10.06452405413958	8.200719	2.8636897
10.082118738974064	8.28349	2.8781054
10.099713662116246	8.326621	2.8855884
10.117308823990651	8.273461	2.8763626
10.134904225021844	8.130231	2.851356
10.152499865634445	8.089255	2.8441615
10.170095746253125	8.103344	2.8466372
10.18769186730261	8.179584	2.859997
10.205288229207675	8.198567	2.8633142
10.222884832393145	8.167445	2.8578742
10.2404816772839	8.095345	2.845232
10.258078764304868	7.9994297	2.8283262
10.275676093881035	7.966364	2.8224747
10.293273666437438	7.990902	2.8268182
10.310871482399158	8.09074	2.8444226
10.32846954219134	8.101377	2.8462918
10.346067846239173	8.14441	2.8538413
10.363666394967908	8.078802	2.8423233
10.38126518880283	8.063268	2.8395894
10.398864228169298	8.072842	2.8412747
10.416463513492713	8.116252	2.8489037
10.434063045198531	8.091515	2.8445587
10.451662823712262	8.076234	2.8418715
10.469262849459467	8.02945	2.8336284
10.486863122865758	7.988958	2.8264744
10.504463644356806	8.041314	2.835721
10.522064414358338	7.9856153	2.8258832
10.539665433296118	7.8918414	2.8092422
10.557266701595987	7.8093963	2.7945297
10.574868219683818	7.7615085	2.7859485
10.592469987985552	7.753523	2.784515
10.610072006927185	7.596664	2.7562046
10.627674276934751	7.4611335	2.7315075
10.64527679843435	7.2736025	2.6969616
10.662879571852143	7.1639752	2.6765604
10.680482597614331	7.07326	2.65956
10.698085876147173	7.0293336	2.651289
10.715689407876988	6.958617	2.6379192
10.733293193230146	6.865413	2.6201932
10.750897232633072	6.7135134	2.591045
10.76850152651225	6.6054134	2.5700998
10.786106075294207	6.4901476	2.547577
10.803710879405534	6.400422	2.5299056
10.821315939272877	6.3677464	2.5234394
10.83892125532294	6.3260503	2.5151641
10.856526827982472	6.2880793	2.5076044
10.874132657678285	6.2569437	2.5013883
10.891738744837243	6.1875796	2.4874847
10.909345089886271	6.136261	2.4771478
10.926951693252343	6.0638995	2.4624987
10.944558555362494	5.994429	2.4483523
10.96216567664381	5.8357644	2.4157326
10.979773057523436	5.760111	2.400023
10.997380698428573	5.7454877	2.3969748
11.014988599786477	5.7453055	2.3969367
11.032596762024461	5.6954722	2.386519
11.050205185569892	5.6346097	2.3737333
11.067813870850198	5.5782533	2.3618326
11.085422818292859	5.5759845	2.3613522
11.10303202832541	5.5423975	2.3542297
11.120641501375454	5.4934716	2.3438156
11.138251237870636	5.3393054	2.3106937
11.155861238238671	5.181002	2.2761815
11.173471502907317	5.0885515	2.255782
11.191082032304402	5.0746627	2.2527013
11.208692826857805	5.066391	2.2508645
11.226303886995465	5.0271416	2.2421288
11.243915213145371	4.9885993	2.2335172
11.261526805735578	4.946943	2.2241724
11.279138665194196	4.8937926	2.2121918
11.296750791949393	4.83642	2.1991863
11.314363186429393	4.823207	2.19618
11.331975849062479	4.7955694	2.189879
11.34958878027699	4.746526	2.1786523
11.36720198050133	4.6536613	2.1572347
11.384815450163948	4.5277996	2.1278627
11.402429189693366	4.4461627	2.1085925
11.420043199518153	4.41833	2.1019824
11.437657480066942	63.40217	7.962548
11.455272031768422	85.11173	9.225602
11.472886855051353	107.50627	10.368523
11.490501950344528	99.14831	9.957324
11.508117318076819	84.48584	9.191618
11.52573295867715	45.851223	6.7713532
11.543348872574514	4.1216254	2.0301788
11.560965060197946	4.047614	2.0118682
11.57858152197655	4.010901	2.0027235
11.59619825833949	4.000516	2.000129
11.613815269715985	3.9807312	1.995177
11.631432556535323	38.47164	6.2025514
11.649050119226837	83.015945	9.111309
11.666667958219929	93.48239	9.66863
11.68428607394406	107.7659	10.381036
11.701904466828756	82.54866	9.085629
11.719523137303586	65.3203	8.082097
11.737142085798196	4.5530796	2.1337945
11.754761312742286	3.688149	1.9204555
11.772380818565619	3.654946	1.9117913
11.790000603698015	3.6347754	1.9065087
11.80762066856935	3.6151102	1.9013443
11.825241013609572	3.5848503	1.8933702
11.842861639248683	3.5419958	1.882019
11.860482545916748	3.4828467	1.8662387
11.878103734043883	3.4632573	1.8609829
11.895725204060282	3.4504933	1.8575504
11.91334695639619	3.460431	1.8602234
11.930968991481919	3.4314415	1.8524151
11.948591309747824	3.3856623	1.840017
11.966213911624347	3.2851062	1.8124862
11.98383679754198	3.228604	1.7968317
12.001459967931268	3.2443156	1.8011984
12.019083423222835	3.2789266	1.8107806
12.036707163847352	3.236755	1.7990984
12.05433119023556	3.1587982	1.7773008
12.071955502818259	3.1536987	1.7758657
12.089580102026313	3.1465955	1.7738645
12.107204988290643	3.1410544	1.772302
12.12483016204224	3.1117187	1.7640064
12.142455623712152	3.0864162	1.75682
12.16008137373149	3.0798743	1.7549571
12.177707412531431	3.0816245	1.7554556
12.19533374054321	3.07296	1.752986
12.212960358198126	3.0818121	1.7555091
12.230587265927545	3.0472248	1.7456301
12.248214464162889	3.048612	1.7460275
12.265841953335649	3.0086248	1.7345388
12.283469733877375	2.9389205	1.714328
12.301097806219685	2.8823922	1.6977609
12.31872617079425	2.8656945	1.6928363
12.336354828032825	2.921576	1.7092619
12.353983778367205	2.9296346	1.7116176
12.371613022229262	2.9082432	1.7053572
12.389242560050928	2.8892674	1.6997845
12.406872392264201	2.932845	1.7125552
12.424502519301143	2.9241927	1.7100271
12.442132941593874	2.8864653	1.6989601
12.459763659574586	2.825432	1.6809021
12.477394673675532	2.814644	1.6776901
12.49502598432903	2.8041203	1.6745508
12.51265759196746	2.7866244	1.6693186
12.530289497023267	2.789714	1.6702437
12.547921699928967	2.8046286	1.6747025
12.565554201117134	2.7784817	1.6668779
12.583187001020404	2.7771327	1.6664732
12.600820100071486	2.7270873	1.6513895
12.618453498703152	2.7349477	1.6537677
12.636087197348235	2.7380395	1.6547022
12.65372119643964	2.7830503	1.6682477
12.671355496410326	2.7968411	1.6723759
12.68899009769333	2.8114116	1.6767265
12.706625000721749	2.8368983	1.6843095
12.724260205928752	2.8943267	1.7012721
12.741895713747551	2.958534	1.720039
12.759531524611454	3.0033116	1.7330065
12.777167638953818	2.9951358	1.730646
12.794804057208072	3.0179837	1.7372345
12.812440779807702	3.0565853	1.7483093
12.830077807186271	3.2080119	1.7910924
12.847715139777405	3.2425199	1.8006998
12.865352778014795	3.4212997	1.8496755
12.882990722332197	3.488339	1.8677095
12.90062897316344	3.5538054	1.8851539
12.918267530942412	3.663106	1.9139242
12.935906396103071	3.5925274	1.8953964
12.953545569079449	3.7901561	1.9468323
12.971185050305628	3.627716	1.9046564
12.988824840215775	3.627077	1.9044887
13.006464939244115	3.6042025	1.8984737
13.024105347824943	3.440684	1.8549081
13.041746066392617	3.5371535	1.8807322
13.05938709538157	3.3293455	1.8246495
13.077028435226296	3.3781767	1.8379817
13.094670086361363	3.271422	1.8087072
13.112312049221401	3.2063186	1.7906196
13.129954324241112	3.0546546	1.7477571
13.147596911855258	2.8602974	1.6912414
13.165239812498685	2.8483672	1.6877106
13.182883026606293	2.793283	1.6713117
13.200526554613058	2.7608283	1.661574
13.218170396954017	2.6813161	1.6374725
13.235814554064284	2.693305	1.6411291
13.253459026379034	2.696166	1.6420007
13.271103814333523	2.6885564	1.6396818
13.288748918363058	2.6630187	1.6318759
13.306394338903031	2.621922	1.619235
13.32404007638889	2.5860927	1.6081333
13.341686131256164	2.6433372	1.6258343
13.359332503940449	2.6605148	1.6311085
13.376979194877402	2.6495373	1.6277399
13.394626204502751	2.6832404	1.63806
13.412273533252307	2.6982665	1.6426401
13.429921181561937	2.7431853	1.6562564
13.447569149867581	2.7272663	1.6514437
13.465217438605247	2.729049	1.6519834
13.482866048211022	2.7041094	1.6444176
13.500514979121052	2.7047472	1.6446116
13.518164231771568	2.6528072	1.6287441
13.535813806598844	2.6361191	1.623613
13.553463704039254	2.6168637	1.6176723
13.571113924529229	2.6269379	1.6207831
13.588764468505275	2.6545308	1.629273
13.606415336403956	2.6967173	1.6421685
13.624066528661917	2.741052	1.6556122
13.641718045715882	2.7832456	1.6683062
13.659369888002635	2.8207517	1.6795094
13.67702205595903	2.8342783	1.6835315
13.694674550021993	2.9503112	1.717647
13.712327370628532	2.99427	1.7303959
13.729980518215713	3.0927875	1.7586323
13.747633993220681	3.1076035	1.7628397
13.765287796080647	3.1325774	1.7699089
13.7829419272329	3.1946397	1.7873555
13.800596387114801	3.2463152	1.8017534
13.818251176163775	3.2769275	1.8102286
13.835906294817324	3.2866032	1.8128991
13.853561743513023	3.340864	1.827803
13.871217522688525	3.4367082	1.853836
13.888873632781538	3.4761593	1.8644462
13.906530074229858	3.483463	1.8664038
13.92418684747135	3.4701755	1.8628407
13.941843952943948	3.4687748	1.8624647
13.959501391085665	3.4125671	1.8473135
13.977159162334578	3.366837	1.8348943
13.994817267128846	3.319103	1.8218405
14.012475705906693	3.2564569	1.8045655
14.030134479106424	3.2064648	1.7906604
14.047793587166414	3.1368515	1.7711159
14.065453030525108	3.1138904	1.7646219
14.083112809621026	3.0511036	1.7467408
14.100772924892766	2.9865034	1.7281502
14.118433376778997	2.898833	1.702596
14.136094165718458	2.79819	1.6727792
14.153755292149969	2.7271423	1.6514062
14.171416756512416	2.6921253	1.6407697
14.189078559244768	2.653172	1.6288561
14.20674070078606	2.5894465	1.6091757
14.224403181575408	2.527099	1.5896852
14.242066002051999	2.4928186	1.5788662
14.259729162655093	2.4513261	1.5656711
14.277392663824022	2.4355905	1.5606378
14.295056505998208	2.4174855	1.5548265
14.312720689617128	2.4270213	1.55789
14.330385215120348	2.4063148	1.5512301
14.348050082947497	2.41372	1.5536151
14.3657152935383	2.4152749	1.5541154
14.383380847332528	2.393538	1.5471064
14.401046744770051	2.3908832	1.5462481
14.418712986290798	2.3977568	1.5484692
14.436379572334793	2.3926256	1.5468115
14.454046503342123	2.3884852	1.5454725
14.471713779752946	2.3647506	1.5377746
14.489381402007504	2.376021	1.5414346
14.507049370546113	2.3992832	1.548962
14.524717685809168	2.4097152	1.5523257
14.542386348237134	2.4182148	1.555061
14.560055358270553	2.3716884	1.5400287
14.577724716350051	2.346162	1.5317186
14.595394422916325	2.342429	1.5304996
14.61306447841015	2.4109325	1.5527178
14.63073488327237	2.483033	1.5757643
14.648405637943917	2.5311322	1.5909532
14.6660767428658	2.533207	1.5916052
14.683748198479094	2.5501509	1.5969192
14.701420005224954	2.5681496	1.6025447
14.719092163544628	2.6297991	1.6216656
14.73676467387942	2.6604736	1.6310958
14.754437536670727	2.6771874	1.6362113
14.772110752360014	2.6490898	1.6276025
14.78978432138882	2.62635	1.6206018
14.807458244198777	2.6332076	1.6227161
14.82513252123159	2.654837	1.629367
14.842807152929028	2.6875372	1.6393709
14.860482139732962	2.6705253	1.6341742
14.87815748208531	2.6400397	1.6248199
14.8958331804281	2.668132	1.6334418
14.91350923520342	2.6405554	1.6249785
14.931185646853438	2.6871896	1.639265
14.948862415820408	2.6923952	1.640852
14.966539542546656	2.7082398	1.645673
14.98421702747459	2.6781406	1.6365025
15.001894871046696	2.694927	1.6416233
15.019573073705542	2.6809075	1.6373477
15.037251635893766	2.6738455	1.6351898
15.054930558054092	2.6953638	1.6417563
15.072609840629323	2.7556083	1.6600025
15.090289484062351	2.9259727	1.7105474
15.107969488796124	3.218568	1.7940369
15.125649855273691	3.6629024	1.913871
15.14333058393817	4.143987	2.0356786
15.161011675232768	5.0557046	2.2484894
15.17869312960076	6.343766	2.5186834
15.196374947485506	8.108953	2.8476224
15.214057129330447	11.145296	3.338457
15.231739675579114	15.747523	3.968315
15.249422586675102	20.626802	4.541674
15.267105863062092	23.706635	4.868946
15.284789505183847	23.864355	4.8851156
15.302473513484218	21.663471	4.654403
15.320157888407127	17.965965	4.238628
15.337842630396578	13.978681	3.7388074
15.355527739896656	10.925026	3.3053026
15.37321321735153	8.629242	2.9375572
15.39089906320545	6.42852	2.5354526
15.408585277902748	4.8370457	2.1993284
15.42627186188783	3.7342544	1.9324219
15.443958815605198	3.2446685	1.8012964
15.461646139499424	2.992478	1.729878
15.479333834015168	2.8503432	1.688296
15.497021899597165	2.765155	1.6628755
15.514710336690234	2.713634	1.6473111
15.53239914573928	2.6635249	1.6320308
15.550088327189297	2.6155174	1.6172562
15.567777881485336	2.55286	1.5977672
15.58546780907256	2.533003	1.591541
15.6031581103962	2.5093179	1.5840826
15.620848785901568	2.508617	1.5838614
15.638539836034063	2.4494345	1.5650669
15.656231261239173	2.41592	1.554323
15.673923061962451	2.3980486	1.5485634
15.691615238649552	2.4135795	1.5535699
15.709307791746202	2.4317489	1.5594065
15.727000721698221	2.42667	1.5577773
15.744694028951498	2.393073	1.5469561
15.76238771395202	2.35842	1.5357147
15.780081777145844	2.3432164	1.5307568
15.797776218979125	2.3079333	1.5191884
15.815471039898094	2.3121262	1.5205677
15.833166240349064	2.3322878	1.5271829
15.850861820778437	2.3487978	1.5325788
15.868557781632699	2.3455052	1.5315043
15.886254123358412	2.3580644	1.535599
15.903950846402232	2.3692262	1.5392292
15.921647951210897	2.3724926	1.5402898
15.939345438231225	2.3699465	1.539463
15.957043307910133	2.368196	1.5388944
15.974741560694602	2.3803926	1.542852
15.992440197031714	2.4343321	1.5602347
16.01013921736862	2.4455364	1.5638211
16.02783862215259	2.4391837	1.5617887
16.045538411830933	2.4330802	1.5598334
16.06323858685107	2.418002	1.5549926
16.080939147660512	2.4007804	1.5494452
16.09864009470684	2.3682702	1.5389185
16.11634142843774	2.3804243	1.5428624
16.134043149300954	2.4107816	1.5526692
16.15174525774433	2.4189305	1.5552912
16.169447754215817	2.42025	1.5557152
16.18715063916342	2.4376955	1.5613121
16.204853913035244	2.4489906	1.5649251
16.222557576279478	2.4386423	1.5616152
16.240261629344403	22.379795	4.7307286
16.257966072678386	42.93577	6.552539
16.275670906729868	38.07177	6.170233
16.293376131947387	2.5190842	1.5871623
16.31108174877957	2.536616	1.5926758
16.328787757675133	2.5850697	1.6078151
16.34649415908287	2.6030028	1.6133825
16.364200953451657	2.6146371	1.616984
16.38190814123048	2.6084929	1.615083
16.39961572286839	2.6213615	1.619062
16.41732369881455	2.653415	1.6289306
16.43503206951817	2.7168772	1.6482953
16.45274083542859	2.7783773	1.6668465
16.47044999699522	2.8235557	1.6803439
16.488159554667558	2.849237	1.6879683
16.505869508895184	2.8772125	1.6962348
16.523579860127786	2.9387786	1.7142867
16.541290608815117	2.9846966	1.7276274
16.559001755407035	3.0309153	1.7409524
16.57671330035348	3.0486577	1.7460406
16.59442524410448	3.10876	1.7631676
16.61213758711015	3.158108	1.7771066
16.629850329820705	3.2189958	1.7941561
16.647563472686436	3.263307	1.8064626
16.665277016157724	3.3086188	1.8189609
16.682990960685053	3.362794	1.8337922
16.70070530671898	3.4140766	1.8477219
16.718420054710155	3.480372	1.8655756
16.736135205109335	3.5175614	1.8755163
16.753850758367335	3.5731285	1.890272
16.771566714935087	3.6661007	1.9147065
16.789283075263597	3.7192388	1.9285328
16.80699983980398	3.7612064	1.939383
16.82471700900741	3.8162892	1.9535325
16.84243458332518	3.8949685	1.9735675
16.860152563208665	4.002848	2.000712
16.87787094910932	4.0956593	2.0237734
16.89558974147871	4.1501837	2.0372
16.913308940768466	4.1768894	2.043744
16.931028547430333	4.196401	2.048512
16.94874856191613	4.252388	2.062132
16.966468984677785	4.312673	2.0766976
16.98418981616729	4.422344	2.102937
17.00191105683676	4.439768	2.1070757
17.019632707138374	4.473246	2.115005
17.03735476752442	4.4854045	2.1178772
17.05507723844728	4.544442	2.1317697
17.072800120359403	4.6155505	2.1483831
17.090523413713353	4.6450086	2.1552281
17.108247118961785	4.6475496	2.1558175
17.125971236557437	4.6116743	2.147481
17.143695766953133	4.5576963	2.1348763
17.161420710601806	4.523591	2.1268735
17.179146067956477	4.504249	2.1223216
17.19687183947025	4.5091867	2.1234846
17.21459802559634	4.514097	2.1246405
17.232324626788028	4.5648975	2.136562
17.25005164349871	4.5999475	2.144749
17.267779076181863	4.587585	2.1418648
17.285506925291074	4.570746	2.1379304
17.30323519127999	4.582058	2.1405742
17.320963874602384	4.59484	2.1435578
17.33869297571211	4.5578794	2.1349192
17.356422495063114	4.5596824	2.1353412
17.37415243310944	4.4932384	2.119726
17.391882790305218	4.418279	2.1019702
17.40961356710468	4.353076	2.0864027
17.42734476396215	4.3869624	2.0945077
17.445076381332044	4.435365	2.1060307
17.462808419668868	4.5319705	2.1288426
17.48054087942723	4.646252	2.1555166
17.498273761061835	4.946112	2.2239857
17.51600706502747	5.4314923	2.3305562
17.533740791779024	6.1646075	2.4828627
17.551474941771485	7.5924478	2.7554398
17.56920951545993	8.662269	2.9431732
17.586944513299528	10.7128105	3.273043
17.60467993574556	12.209056	3.4941459
17.622415783253373	13.712317	3.7030146
17.64015205627843	15.002342	3.8732858
17.657888755276293	16.026361	4.003294
17.675625880702604	16.505194	4.0626583
17.69336343301311	16.304863	4.037928
17.71110141266366	15.485408	3.9351504
17.728839820110178	14.524	3.8110366
17.746578655808705	13.760779	3.7095525
17.764317920215372	12.463641	3.5303884
17.7820576137864	11.135722	3.337023
17.79979773697811	9.174096	3.028877
17.81753829024692	7.402214	2.720701
17.835279274049356	5.7817388	2.4045246
17.85302068884201	4.8843346	2.210053
17.870762535081607	4.2945976	2.0723412
17.888504813224934	3.9539177	1.9884461
17.90624752372891	3.708669	1.9257904
17.923990667050536	3.5919003	1.8952309
17.941734243646895	3.5305643	1.8789796
17.959478253975185	3.4424846	1.8553934
17.9772226984927	3.3865924	1.8402697
17.994967577656833	3.3538117	1.8313415
18.01271289192506	3.3515697	1.8307292
18.030458641754965	3.3487682	1.829964
18.04820482760425	3.3626559	1.8337545
18.06595144993067	3.345366	1.8290342
18.083698509192125	3.2952633	1.815286
18.101446005846576	3.2562876	1.8045187
18.119193940352105	3.2385838	1.7996066
18.136942313166887	3.2263925	1.7962161
18.1546911247492	3.185307	1.7847428
18.1724403755574	3.1659162	1.7793021
18.19019006604997	3.146254	1.7737683
18.207940196685467	3.1016438	1.7611485
18.225690767922575	3.0837967	1.7560742
18.243441780220046	3.0892706	1.7576321
18.261193234036764	3.0848882	1.756385
18.278945129831676	3.099549	1.7605536
18.29669746806386	3.1280727	1.7686359
18.314450249192483	3.070691	1.7523388
18.3322034736768	2.9986362	1.731657
18.349957141976184	3.0414295	1.7439694
18.3677112545501	3.0623825	1.7499664
18.385465811858108	3.065269	1.750791
18.403220814359884	3.0274165	1.7399473
18.420976262515172	3.092408	1.7585244
18.43873215678387	3.1324906	1.7698843
18.456488497625923	3.141675	1.772477
18.474245285501407	3.1908255	1.7862881
18.492002520870486	3.2609642	1.805814
18.50976020419343	3.348905	1.8300014
18.527518335930615	3.705196	1.9248885
18.545276916542516	4.334659	2.0819845
18.563035946489688	4.5457425	2.1320746
18.580795426232832	4.9595237	2.2269988
18.598555356232698	4.8070507	2.1924987
18.616315736950185	5.133238	2.265665
18.63407656884626	4.7942677	2.1895816
18.65183785238201	5.0060062	2.2374105
18.669599588018617	4.7518954	2.1798842
18.68736177621737	4.7783318	2.1859396
18.705124417439652	4.743341	2.1779213
18.72288751214696	4.5056467	2.1226509
18.740651060800886	4.618675	2.1491103
18.758415063863115	4.361519	2.088425
18.77617952179546	4.531678	2.128774
18.793944435059814	4.230259	2.0567594
18.811709804118184	4.2499714	2.0615458
18.829475629432675	4.1969085	2.0486357
18.8472419114655	4.0117955	2.0029466
18.86500865067897	4.1067543	2.0265129
18.88277584753551	3.7963722	1.9484282
18.90054350249763	3.8646128	1.9658618
18.918311616027957	3.520404	1.876274
18.936080188589226	3.3876202	1.8405489
18.953849220644265	3.009883	1.7349014
18.971618712656007	2.8210769	1.6796062
18.9893886650875	2.7773798	1.6665473
19.007159078401887	7.9733076	2.8237045
19.024929953062408	32.85515	5.731941
19.042701289532435	32.80421	5.727496
19.060473088275405	25.369505	5.036815
19.07824534975489	2.6270769	1.620826
19.096018074434568	2.619419	1.618462
19.113791262778197	2.5828602	1.6071279
19.13156491524966	2.5808086	1.6064895
19.149339032312945	2.5631876	1.6009958
19.167113614432136	2.5704482	1.6032617
19.184888662071433	2.57823	1.6056868
19.202664175695123	2.5533195	1.597911
19.220440155767623	2.5278943	1.5899353
19.238216602753447	2.5207508	1.5876873
19.2559935171172	2.5352201	1.5922375
19.27377089932361	2.5241299	1.5887511
19.291548749837514	2.500063	1.5811588
19.309327069123835	2.5023394	1.5818784
19.32710585764763	2.5267754	1.5895834
19.344885115874032	2.5437486	1.5949134
19.362664844268313	2.5661745	1.6019284
19.380445043295822	2.5539446	1.5981066
19.39822571342203	2.5441585	1.5950419
19.41600685511252	2.502557	1.5819472
19.43378846883297	2.4475632	1.564469
19.451570555049173	2.437908	1.5613801
19.469353114227037	2.453494	1.5663633
19.48713614683254	2.482902	1.5757227
19.50491965333182	2.4546103	1.5667197
19.52270363419109	2.4585998	1.5679923
19.540488089876686	2.421701	1.5561816
19.55827302085503	2.436618	1.5609671
19.576058427592674	2.4316323	1.5593692
19.593844310556282	2.4286947	1.558427
19.611630670212598	2.4451919	1.5637109
19.629417507028506	2.4868033	1.5769601
19.64720482147098	2.4925673	1.5787866
19.6649926140071	2.4740486	1.5729109
19.682780885104084	2.4669995	1.5706685
19.70056963522921	2.467387	1.5707918
19.718358864849908	2.4848542	1.576342
19.7361485744337	2.486901	1.5769911
19.753938764448215	2.5043063	1.5825
19.771729435361202	2.521831	1.5880274
19.789520587640506	2.5279021	1.5899378
19.807312221754092	2.5154324	1.5860114
19.825104338170043	2.503253	1.5821671
19.842896937356517	2.5133092	1.585342
19.860690019781824	2.5145648	1.585738
19.87848358591436	2.504673	1.5826159
19.896277636222635	2.486902	1.5769914
19.914072171175278	2.5265453	1.589511
19.931867191241015	2.5457036	1.5955261
19.94966269688869	2.535077	1.5921925
19.967458688587264	2.4913416	1.5783985
19.985255166805807	2.5092187	1.5840514
20.00305213201348	2.4912813	1.5783793
20.020849584679578	2.463224	1.5694661
20.038647525273507	2.423282	1.5566894
20.05644595426477	2.4310153	1.5591713
20.07424487212299	2.424706	1.5571468
20.092044279317903	2.433548	1.5599834
20.109844176319353	2.412657	1.553273
20.127644563597304	2.3822808	1.543464
20.145445441621817	2.3772826	1.5418439
20.16324681086307	2.4075737	1.5516359
20.181048671791373	2.43458	1.560314
20.198851024877122	2.4660354	1.5703615
20.216653870590836	2.4420035	1.5626911
20.234457209403146	2.4023376	1.5499476
20.252261041784802	2.37853	1.5422484
20.270065368206662	2.3755589	1.5412848
20.287870189139685	2.3549764	1.5345932
20.305675505054968	2.3282568	1.5258627
20.323481316423702	2.3049324	1.5182004
20.341287623717207	2.3287513	1.5260247
20.359094427406884	2.3532584	1.5340334
20.376901727964288	2.372627	1.5403334
20.39470952586107	2.3694315	1.5392958
20.41251782156899	2.3355794	1.5282602
20.430326615559935	2.320836	1.523429
20.448135908305886	2.3384154	1.5291878
20.465945700278965	2.328063	1.5257992
20.483755991951384	2.290074	1.5132991
20.50156678379548	2.3063357	1.5186625
20.519378076283708	2.2900496	1.513291
20.537189869888635	2.3053226	1.5183289
20.55500216508294	2.297491	1.5157477
20.572814962339415	2.31276	1.5207762
20.59062826213098	2.3379993	1.5290518
20.60844206493066	2.3414085	1.5301661
20.626256371211593	2.336362	1.5285163
20.644071181447032	2.2801275	1.5100092
20.66188649611036	2.2637594	1.5045794
20.67970231567506	2.2544312	1.5014764
20.697518640614742	2.2797823	1.5098948
20.715335471403122	2.2783377	1.5094163
20.73315280851404	2.289628	1.5131516
20.750970652421447	2.2745225	1.508152
20.768789003599412	2.2732406	1.5077269
20.786607862522136	2.2373466	1.4957763
20.8044272296639	2.2589133	1.5029682
20.82224710549913	2.3074338	1.519024
20.84006749050237	2.307185	1.518942
20.857888385148268	3.8390884	1.9593592
20.8757097899116	45.92341	6.7766814
20.893531705267254	64.7826	8.048764
20.911354131690224	83.842606	9.156561
20.92917706965566	69.102806	8.31281
20.94700051963877	50.121204	7.079633
20.96482448211493	29.360714	5.418553
20.982648957559622	4.137166	2.0340025
21.00047394644843	2.260416	1.503468
21.01829944925707	2.265428	1.5051339
21.036125466461375	2.2340915	1.4946878
21.053951998537297	2.203669	1.484476
21.071779045960906	2.1842859	1.4779329
21.089606609208378	2.2045498	1.4847727
21.10743468875603	2.2283885	1.4927788
21.12526328508028	2.2180114	1.4892989
21.143092398657675	2.2105188	1.4867814
21.16092202996488	2.1913953	1.4803362
21.17875217947867	2.1999288	1.4832157
21.19658284767596	2.1814678	1.4769793
21.21441403503377	2.171862	1.4737238
21.232245742029225	2.1728516	1.4740596
21.2500779691396	2.1949039	1.4815208
21.26791071684227	2.1893656	1.4796505
21.28574398561475	2.1864712	1.4786721
21.30357777593465	2.1803086	1.4765868
21.321412088279704	2.1658473	1.4716818
21.339246923127792	2.1881266	1.4792317
21.357082280956888	2.1781783	1.4758652
21.3749181622451	2.1635203	1.470891
21.392754567470647	2.109307	1.4523454
21.41059149711187	2.0973475	1.4482222
21.42842895164726	2.1104646	1.4527438
21.446266931555378	2.0929897	1.4467169
21.464105437314945	2.063517	1.4364947
21.481944469404798	2.0677996	1.4379846
21.49978402830388	2.07279	1.4397187
21.51762411449127	2.0650446	1.4370263
21.53546472844617	2.0411782	1.4286981
21.553305870647876	2.0319881	1.4254782
21.571147541575865	2.010251	1.4178332
21.58898974170967	2.0479875	1.4310791
21.60683247152899	2.06701	1.4377099
21.62467573151363	2.0747437	1.440397
21.642519522143523	2.055569	1.4337256
21.660363843898722	2.021754	1.421884
21.6782086972594	2.0453186	1.4301463
21.696054082705864	2.0728862	1.4397521
21.713900000718535	2.0985024	1.4486209
21.73174645177795	2.0757768	1.4407556
21.749593436364794	2.0516324	1.4323521
21.767440954959845	2.0125666	1.4186496
21.785289008044032	1.9794247	1.4069203
21.803137596098388	1.9693642	1.4033403
21.820986719604086	1.9382658	1.3922162
21.838836379042412	1.9323238	1.3900805
21.85668657489478	1.9445946	1.3944873
21.87453730764273	1.9941522	1.4121445
21.892388577767914	2.0107358	1.4180042
21.91024038575213	2.0128067	1.4187342
21.928092732077285	1.9995954	1.4140705
21.945945617225426	1.9639807	1.401421
21.963799041678694	1.9780631	1.4064363
21.981653005919398	31.33282	5.597573
21.999507510429943	78.15838	8.840723
22.01736255569286	73.086914	8.5490885
22.035218142190818	4.16627	2.0411441
22.05307427040661	1.9908395	1.4109712
22.07093094082315	1.9963642	1.4129275
22.088788153923474	1.9795269	1.4069566
22.106645910190746	1.9511652	1.3968412
22.12450421010827	1.9633623	1.4012003
22.142363054159464	1.9972461	1.4132396
22.16022244282787	1.991555	1.4112246
22.178082376597164	1.9831967	1.4082602
22.195942855951145	1.9588299	1.399582
22.213803881373742	1.9418435	1.3935004
22.231665453349002	1.9282687	1.3886211
22.24952757236111	1.9332671	1.3904197
22.26739023889438	1.9377704	1.3920382
22.28525345343323	1.9419891	1.3935527
22.30311721646225	1.9452333	1.3947163
22.320981528466113	1.9589707	1.3996323
22.33884638992964	1.9688997	1.4031749
22.356711801337788	1.9744376	1.4051468
22.37457776317561	1.9741267	1.4050362
22.392444275928337	1.9523389	1.3972613
22.410311340081282	1.9233199	1.3868381
22.428178956119904	1.9286513	1.3887589
22.446047124529805	1.9553449	1.3983365
22.46391584579669	1.95033	1.3965422
22.481785120406414	1.9446151	1.3944945
22.49965494884496	1.9453013	1.3947406
22.51752533159841	1.981621	1.4077007
22.53539626915302	1.9799136	1.407094
22.553267761995137	1.9680703	1.4028792
22.571139810611264	1.9177902	1.384843
22.589012415488025	1.8893656	1.374542
22.60688557711216	1.9120057	1.3827529
22.624759295970566	1.9533554	1.397625
22.642633572550263	1.9409184	1.3931684
22.660508407338362	1.9169909	1.3845544
22.67838380082217	1.8922387	1.3755866
22.696259753489077	1.9308263	1.3895417
22.714136265826614	1.9345226	1.3908712
22.73201333832246	1.9232227	1.386803
22.74989097146439	1.8804028	1.3712778
22.76776916574035	1.8903242	1.3748907
22.785647921638393	1.8872788	1.3737826
22.803527239646712	1.8825902	1.3720751
22.82140712025363	1.8614969	1.3643669
22.839287563947593	1.9020523	1.3791491
22.85716857121719	1.9016824	1.379015
22.875050142551135	1.9297557	1.3891565
22.892932278438277	1.9426756	1.393799
22.910814979367604	1.9489667	1.396054
22.928698245828222	1.937454	1.3919246
22.946582078309387	1.9417969	1.3934838
22.96446647730047	1.927247	1.3882532
22.98235144329098	1.9156208	1.3840595
23.000236976770562	1.8956101	1.3768116
23.018123078229	1.8664345	1.3661752
23.03600974815619	1.8477277	1.3593115
23.053896987042194	1.8374945	1.3555422
23.071784795377173	1.8659137	1.3659846
23.08967317365145	1.8367105	1.3552529
23.10756212235546	1.824181	1.3506224
23.125451641979787	1.8830826	1.3722546
23.143341733015134	1.9299632	1.3892312
23.161232395952357	1.9126892	1.383
23.179123631282426	1.858966	1.3634391
23.197015439496468	1.8909975	1.3751354
23.214907821085717	1.8938941	1.3761883
23.23280077654157	1.9051116	1.3802577
23.250694306355538	1.8945113	1.3764125
23.268588411019277	1.9435463	1.3941113
23.28648309102458	1.9835565	1.4083879
23.304378346863356	1.9702042	1.4036397
23.322274179027676	1.955415	1.3983616
23.340170588009723	1.9213953	1.386144
23.358067574301852	1.8729312	1.3685508
23.37596513839651	1.8312278	1.3532287
23.39386328078629	1.876864	1.3699869
23.411762001963947	1.8928465	1.3758075
23.429661302422353	1.908941	1.3816444
23.4475611826545	1.9351212	1.3910863
23.46546164315356	1.9771993	1.4061292
23.48336268441279	1.9423081	1.3936671
23.501264306925638	1.9353296	1.3911612
23.51916651118564	1.9572352	1.3990122
23.537069297686497	1.9895071	1.4104989
23.554972666922037	1.9786265	1.4066366
23.57287661938623	1.9027549	1.3794038
23.59078115557318	1.9012624	1.3788627
23.608686275977128	1.9351618	1.3911009
23.62659198109246	1.9436737	1.394157
23.6444982714137	1.9322525	1.3900548
23.66240514743549	1.9593966	1.3997844
23.68031260965263	1.965433	1.401939
23.698220658560068	1.938364	1.3922514
23.716129294652845	1.9227656	1.3866383
23.7340385184262	1.9170804	1.3845867
23.75194833037546	1.9123908	1.3828923
23.769858730996123	1.8987126	1.3779378
23.78776972078382	1.9015256	1.3789581
23.80568130023431	1.9278462	1.388469
23.823593469843495	1.9324356	1.3901207
23.841506230107424	1.953994	1.3978534
23.859419581522275	1.9352376	1.3911282
23.87733352458438	1.8938301	1.376165
23.89524805979019	1.8738221	1.3688762
23.913163187636318	1.8762572	1.3697654
23.931078908619508	1.8999115	1.3783728
23.948995223236633	1.9106779	1.3822727
23.966912131984735	1.9446648	1.3945124
23.98482963536096	2.0380251	1.4275942
24.002747733862616	2.056212	1.4339498
24.020666427987155	2.0599124	1.4352396
24.038585718232156	2.0364215	1.4270325
24.056505605095353	2.0666718	1.4375924
24.074426089074617	2.0941617	1.4471219
24.092347170667946	2.0322852	1.4255824
24.110268850373515	2.0211587	1.4216746
24.128191128689586	2.0297494	1.4246927
24.146114006114626	2.0616717	1.4358523
24.164037483147187	2.0583875	1.4347081
24.181961560286005	2.035225	1.4266131
24.199886238029926	1.9803551	1.4072509
24.21781151687797	1.9828074	1.408122
24.235737397329274	1.979721	1.4070256
24.253663879883135	2.0094836	1.4175626
24.271590965038975	2.0792115	1.4419471
24.289518653296376	2.1123507	1.4533929
24.30744694515505	2.0858698	1.444254
24.32537584111486	2.013068	1.4188262
24.34330534167581	1.9963415	1.4129195
24.361235447338046	2.0018687	1.4148741
24.379166158601876	2.01271	1.4187001
24.39709747596772	2.036566	1.427083
24.41502939993615	2.0537558	1.4330931
24.432961931007917	2.0474613	1.4308953
24.450895069683856	1.9976429	1.4133799
24.468828816465	1.9686446	1.4030839
24.4867631718525	1.9354035	1.3911878
24.504698136347656	1.9475944	1.3955624
24.52263371045192	1.8951018	1.376627
24.540569894666874	1.9310951	1.3896385
24.558506689494266	1.9529464	1.3974786
24.57644409543597	1.9367577	1.3916744
24.594382112994012	1.9034973	1.3796729
24.61232074267057	1.9139339	1.38345
24.630259984967953	1.9332546	1.3904153
24.64819984038863	1.9675342	1.4026881
24.66614030943522	1.9458536	1.3949386
24.684081392610462	1.879038	1.3707801
24.702023090417274	1.8199288	1.3490473
24.7199654033587	1.8754334	1.3694646
24.737908331937927	1.9648148	1.4017185
24.755851876658305	2.0468102	1.4306678
24.773796038023324	2.0477011	1.4309791
24.79174081653661	2.052058	1.4325006
24.809686212701962	2.0382738	1.4276813
24.827632227023294	2.0114372	1.4182514
24.8455788600047	2.0538716	1.4331335
24.8635261121504	2.1171975	1.4550593
24.88147398396475	2.1426754	1.463788
24.899422475952303	2.1320214	1.4601443
24.917371588617698	2.139571	1.4627272
24.935321322465768	2.1628635	1.4706677
24.953271678001478	2.2396383	1.4965421
24.97122265572994	2.3975108	1.5483898
24.989174256156414	2.6780064	1.6364615
25.00712647978632	3.0738952	1.7532527
25.02507932712521	3.5818613	1.8925806
25.043032798678798	4.072179	2.0179641
25.060986894952933	4.6442313	2.155048
25.078941616453637	5.283215	2.2985246
25.096896963687055	6.1885576	2.4876812
25.114852937159508	7.2870364	2.6994512
25.132809537377444	7.7957206	2.7920818
25.150766764847468	7.8935537	2.809547
25.168724620076347	7.4013085	2.7205346
25.186683103570985	6.5269246	2.5547845
25.204642215838426	5.4493713	2.334389
25.222601957385894	4.0946293	2.023519
25.24056232872074	3.0952828	1.7593416
25.25852333035048	2.5474145	1.5960622
25.276484962782778	2.2508304	1.5002768
25.294447226525435	2.106261	1.4512963
25.312410122086423	2.0022018	1.4149919
25.330373649973843	1.9235715	1.3869288
25.348337810695988	1.8948237	1.376526
25.366302604761245	1.8789705	1.3707554
25.384268032678207	1.911149	1.3824432
25.40223409495558	1.9627973	1.4009987
25.420200792102257	1.9664857	1.4023144
25.438168124627246	1.9370362	1.3917744
25.45613609303974	1.8842505	1.3726801
25.474104697849057	1.8629338	1.3648933
25.492073939564698	1.8340898	1.3542857
25.510043818696285	1.837206	1.3554357
25.528014335753614	1.8277503	1.3519431
25.54598549124664	1.834646	1.354491
25.56395728568544	1.802879	1.3427132
25.58192971958028	1.824486	1.3507353
25.59990279344156	1.8393862	1.3562398
25.617876507779833	1.8602381	1.3639054
25.635850863105826	1.8603286	1.3639386
25.653825859930386	1.889151	1.3744639
25.671801498764548	1.8889296	1.3743833
25.68977778011949	1.8893765	1.3745459
25.707754704506524	1.9126941	1.3830018
25.725732272437153	1.9091274	1.3817117
25.743710484423012	1.8655128	1.3658378
25.761689340975888	1.8399379	1.3564432
25.77966884260774	1.8437788	1.3578582
25.797648989830662	1.8579524	1.3630673
25.815629783156922	1.85878	1.3633708
25.83361122309895	1.8766636	1.3699137
25.85159331016929	1.8824962	1.3720409
25.869576044880695	1.8739723	1.368931
25.887559427746034	1.8768265	1.3699732
25.90554345927836	1.8752573	1.3694004
25.92352813999086	1.8469218	1.359015
25.94151347039689	1.8268361	1.351605
25.959499451009965	1.8231859	1.350254
25.97748608234374	1.7869205	1.3367574
25.995473364912062	1.806569	1.3440866
26.013461299228904	1.7958437	1.340091
26.03144988580839	1.8104408	1.3455262
26.04943912516483	1.8052591	1.3435993
26.067429017812675	1.82003	1.3490849
26.085419564266537	1.8106748	1.3456131
26.103410765041186	1.794481	1.3395824
26.12140262065155	1.7631407	1.327833
26.139395131612723	1.7668358	1.3292238
26.157388298439948	1.8014239	1.3421713
26.17538212164861	1.8603594	1.3639499
26.193376601754295	1.869823	1.3674147
26.211371739272714	1.8537252	1.3615158
26.229367534719746	1.8305825	1.3529902
26.247363988611433	1.8310575	1.3531657
26.26536110146397	1.7983003	1.3410072
26.283358873793727	1.8012242	1.3420969
26.301357306117204	1.8186216	1.3485628
26.319356398951104	1.811903	1.3460695
26.33735615281224	1.8326608	1.353758
26.35535656821762	1.8178723	1.348285
26.373357645684404	1.8144747	1.3470244
26.39135938572991	1.8153447	1.3473473
26.409361788871614	1.8152064	1.347296
26.427364855627165	1.8061277	1.3439225
26.445368586514352	1.802969	1.3427469
26.46337298205115	1.8163064	1.347704
26.48137804275568	1.8162068	1.3476672
26.499383769146217	1.8187498	1.3486103
26.517390161741215	1.8049939	1.3435006
26.53539722105928	1.7804517	1.3343357
26.553404947619182	1.7491976	1.3225724
26.571413341939856	1.7916552	1.3385272
26.589422404540397	1.8150765	1.3472477
26.60743213594006	1.8431684	1.3576334
26.62544253665827	1.8166068	1.3478155
26.64345360721459	1.7649646	1.3285197
26.66146534812879	1.7428042	1.3201531
26.679477759920758	1.7794347	1.3339546
26.69749084311057	1.801084	1.3420447
26.71550459821847	1.7774472	1.3332094
26.733519025764842	1.756639	1.3253826
26.751534126270258	1.768579	1.3298793
26.769549900255434	1.7883277	1.3372837
26.787566348241267	1.7996889	1.3415248
26.80558347074881	1.8253415	1.3510519
26.823601268299267	1.8087051	1.344881
26.841619741414036	1.7838924	1.3356243
26.85963889061465	1.7571807	1.3255869
26.877658716422832	1.7657294	1.3288075
26.89567921936045	1.8233368	1.3503098
26.913700399949544	1.8398559	1.3564129
26.93172225871233	1.8460898	1.3587089
26.949744796171174	1.8355706	1.3548323
26.967768012848605	1.823635	1.3504204
26.98579190926733	1.7886518	1.3374048
27.003816485950225	1.7838925	1.3356243
27.021841743420318	1.7364036	1.3177267
27.039867682200814	1.7592986	1.3263855
27.057894302815072	1.7967175	1.3404169
27.07592160578664	1.7761426	1.33272
27.0939495916392	1.8130184	1.3464837
27.111978260896635	1.8467007	1.3589337
27.13000761408296	1.8235823	1.3504008
27.148037651722397	1.8050967	1.3435389
27.166068374339304	1.8012352	1.3421011
27.184099782458215	1.7724209	1.331323
27.20213187660384	1.7438662	1.3205552
27.22016465730105	1.7908964	1.3382437
27.23819812507487	1.80509	1.3435364
27.256232280450533	1.8135508	1.3466814
27.274267123953383	1.7985007	1.3410819
27.292302656108987	1.7658067	1.3288366
27.31033887744306	1.8117009	1.3459944
27.32837578848146	1.808299	1.34473
27.34641338975026	1.8223996	1.3499628
27.364451681775673	1.8320538	1.3535339
27.382490665084074	1.8366561	1.3552328
27.400530340202046	1.8213415	1.3495709
27.41857070765629	1.7660348	1.3289224
27.436611767973726	1.7402104	1.3191704
27.454653521681404	1.7243866	1.313159
27.472695969306564	1.7519339	1.3236064
27.490739111376627	1.7806054	1.3343933
27.508782948419153	1.7700704	1.3304399
27.526827480961902	1.7537231	1.3242822
27.54487270953279	1.7389771	1.3187028
27.562918634659898	1.7818872	1.3348734
27.580965256871508	1.7996769	1.3415203
27.599012576696026	1.7655479	1.3287392
27.617060594662068	1.7810223	1.3345494
27.63510931129842	1.8213174	1.3495619
27.65315872713401	1.786232	1.3364999
27.67120884269797	1.7486783	1.322376
27.68925965851958	1.8242165	1.3506355
27.707311175128307	1.8728207	1.3685104
27.725363393053787	1.86087	1.364137
27.74341631282583	1.8616914	1.364438
27.7614699349744	1.8468539	1.35899
27.77952426002968	2.0249088	1.422993
27.797579288521973	2.0938241	1.4470053
27.815635020981784	2.6338854	1.6229249
27.83369145793979	2.7072349	1.6453677
27.85174859992682	2.4594102	1.5682507
27.869806447473923	2.2814555	1.5104488
27.887865001112267	1.9796253	1.4069916
27.905924261373233	1.9289365	1.3888615
27.92398422878836	1.9031308	1.3795401
27.94204490388936	1.869646	1.36735
27.96010628720813	1.8433683	1.357707
27.978168379276728	1.8375485	1.3555621
27.9962311806274	1.8470275	1.359054
28.014294691792568	1.8276367	1.3519012
28.0323589133048	1.8108883	1.3456925
28.050423845696887	1.8359729	1.3549808
28.068489489501758	1.8639367	1.3652606
28.086555845252523	1.8819956	1.3718585
28.104622913482487	1.8844922	1.372768
28.122690694725115	1.8689548	1.3670973
28.14075918951405	1.9256691	1.3876848
28.15882839838312	1.9518609	1.3970902
28.176898321866304	1.925714	1.387701
28.1949689604978	1.872196	1.3682821
28.213040314811945	1.8938277	1.3761641
28.23111238534327	1.906425	1.3807335
28.249185172626493	1.9473736	1.3954833
28.267258677196473	1.936523	1.3915901
28.285332899588294	1.9118828	1.3827084
28.303407840337172	1.9157587	1.3841094
28.321483499978545	1.899502	1.3782243
28.33955987904799	1.8430326	1.3575834
28.357636978081285	1.8631729	1.3649809
28.37571479761439	1.873053	1.3685952
28.393793338183425	1.8869901	1.3736776
28.41187260032469	1.8788265	1.3707029
28.429952584574686	1.9291779	1.3889484
28.448033291470065	1.9941429	1.4121412
28.46611472154769	1.9762717	1.4057993
28.484196875344566	1.9090691	1.3816906
28.502279753397914	1.880036	1.371144
28.52036335624511	1.9072412	1.381029
28.538447684423716	1.9625117	1.4008968
28.556532738471482	2.0236492	1.4225502
28.574618518926325	2.037202	1.4273058
28.59270502632635	1.9778638	1.4063654
28.61079226120985	1.899837	1.3783457
28.628880224115274	1.9009265	1.3787409
28.646968915581287	1.9851437	1.4089513
28.66505833614671	2.0288188	1.4243661
28.68314848635055	2.032914	1.425803
28.701239366732004	2.0397913	1.4282126
28.71933097783044	2.034891	1.426496
28.737423320185403	2.067345	1.4378264
28.75551639433665	2.0925398	1.4465613
28.773610200824074	2.094734	1.4473196
28.791704740187793	2.0796149	1.4420869
28.80980001296809	2.1407456	1.4631287
28.827896019705413	2.195929	1.4818667
28.845992760940433	2.1831846	1.4775604
28.86409023721397	2.2110393	1.4869564
28.88218844906704	2.18891	1.4794965
28.900287397040845	2.2090497	1.4862872
28.918387081676755	2.2629309	1.5043042
28.936487503516343	2.2513225	1.5004407
28.954588663101365	2.2494187	1.4998063
28.97269056097374	2.2991774	1.5163039
28.990793197675597	2.3585455	1.5357556
29.00889657374923	2.369526	1.5393264
29.027000689737125	2.4154584	1.5541745
29.04510554618196	2.456465	1.5673114
29.06321114362659	2.460977	1.5687501
29.08131748261405	2.4700205	1.5716299
29.099424563687567	2.4531293	1.5662469
29.11753238739057	2.4667912	1.5706022
29.13564095426663	2.4664145	1.5704823
29.15375026485954	2.5056148	1.5829134
29.171860319713275	2.5603344	1.6001045
29.18997111937199	2.5680761	1.6025218
29.20808266438002	2.636154	1.6236237
29.226194955281898	2.7668645	1.6633894
29.244307992622335	2.840354	1.6853349
29.26242177694624	2.878661	1.6966617
29.2805363087987	2.8937736	1.7011095
29.29865158872498	2.9040902	1.7041391
29.316767617270557	2.8546455	1.6895696
29.334884394981064	2.8852146	1.698592
29.353001922402367	2.9797666	1.7262001
29.37112020008047	3.0460691	1.7452991
29.389239228561596	3.1404905	1.7721429
29.407359008392152	3.3638384	1.834077
29.42547954011872	3.760031	1.9390799
29.44360082428809	4.349863	2.0856326
29.46172286144722	5.216549	2.2839766
29.479845652143283	6.537475	2.5568488
29.497969196923606	8.468136	2.910006
29.516093496335728	10.806126	3.2872672
29.5342185509274	13.331318	3.6512077
29.55234436124651	15.4400215	3.9293792
29.570470927841175	16.695316	4.0859904
29.588598251259686	16.460047	4.0570984
29.60672633205055	15.336266	3.9161544
29.624855170762405	13.498769	3.674067
29.642984767944146	11.010171	3.3181577
29.66111512414481	8.464407	2.9093654
29.67924623991366	6.455975	2.5408611
29.697378115800138	5.1062856	2.2597091
29.71551075235387	4.198228	2.0489578
29.733644150124675	3.742967	1.9346749
29.751778309662576	3.51925	1.8759664
29.769913231517766	3.3996475	1.8438133
29.78804891624066	3.35213	1.8308823
29.806185364381818	3.3424146	1.8282272
29.82432257649206	3.2963088	1.8155739
29.842460553122333	3.324077	1.8232051
29.86059929482382	3.3119228	1.8198689
29.878738802147872	3.2683055	1.8078456
29.896879075646048	3.25064	1.8029531
29.915020115870114	3.2607698	1.8057601
29.933161923371976	3.2635574	1.8065319
29.951304498703777	3.219036	1.7941673
29.969447842417857	3.1641445	1.7788042
29.987591955066733	3.1540775	1.7759722
30.005736837203123	3.1222262	1.7669822
30.023882489379943	3.1225955	1.7670867
30.04202891215028	3.2025325	1.7895621
30.060176106067455	3.2128782	1.7924503
30.078324071684946	3.138261	1.7715138
30.09647280955646	3.1166291	1.7653977
30.114622320235863	3.0988207	1.7603468
30.132772604277257	3.0502102	1.7464851
30.1509236622349	3.0353131	1.742215
30.16907549466328	3.0224295	1.7385136
30.18722810211705	3.0316374	1.7411598
30.205381485151097	3.04859	1.7460212
30.22353564432045	3.010107	1.734966
30.241690580180403	2.9535375	1.7185858
30.25984629328638	2.9193928	1.708623
30.278002784194037	2.8870816	1.6991414
30.296160053459246	2.90543	1.7045323
30.314318101638033	2.915116	1.7073711
30.332476929286646	2.946876	1.7166468
30.35063653696153	2.935218	1.7132478
30.368796925219307	2.9189568	1.7084955
30.386958094616844	2.9074562	1.7051264
30.40512004571115	2.9164565	1.7077636
30.423282779059463	2.8809965	1.6973498
30.441446295219233	2.8098762	1.6762686
30.459610594748067	2.7785661	1.6669031
30.47777567820382	2.8078172	1.6756543
30.495941546144504	2.7700262	1.6643395
30.51410819912835	2.706262	1.6450721
30.532275637713795	2.7658641	1.6630887
30.55044386245946	2.8434207	1.6862446
30.56861287392416	2.8313673	1.6826667
30.586782672666956	2.779201	1.6670936
30.604953259247047	2.6706593	1.6342152
30.623124634223885	2.6405454	1.6249754
30.641296798157075	2.6731873	1.6349884
30.659469751606462	2.7060633	1.6450117
30.677643495132074	2.7298195	1.6522166
30.695818029294152	2.664531	1.6323391
30.713993354653116	2.669441	1.6338423
30.73216947176962	2.699207	1.6429263
30.75034638120448	2.71237	1.6469275
30.768524083518756	2.7259314	1.6510395
30.786702579273673	2.718192	1.648694
30.80488186903069	2.718231	1.6487058
30.82306195335144	2.8579721	1.6905538
30.841242832797782	3.0534039	1.7473992
30.85942450793176	3.3520632	1.8308641
30.877606979315637	3.656563	1.9122142
30.895790247511883	4.0092688	2.0023158
30.913974313083134	4.3318863	2.0813184
30.932159176592283	4.592126	2.1429245
30.95034483860237	4.6325736	2.1523414
30.968531299676698	4.380196	2.0928917
30.98671856037873	4.0855856	2.0212831
31.00490662127215	3.804294	1.95046
31.023095482920848	3.431144	1.8523347
31.04128514588892	3.0175304	1.737104
31.059475610740662	2.71939	1.6490573
31.07766687804056	2.5864863	1.6082556
31.09585894835335	2.5274775	1.5898043
31.11405182224393	2.5043142	1.5825025
31.132245500277417	2.4299836	1.5588405
31.15043998301914	2.4009945	1.5495143
31.168635271034628	2.42031	1.5557345
31.18683136488964	2.494023	1.5792476
31.20502826515008	2.4643984	1.5698402
31.223225972382135	2.3914492	1.5464311
31.241424487152155	2.3550303	1.5346107
31.259623810026692	2.3829606	1.5436841
31.27782394157253	2.3723164	1.5402325
31.296024882356644	2.3065867	1.5187451
31.314226632946237	2.2532501	1.501083
31.332429193908684	2.3179681	1.5224875
31.350632565811598	2.4393249	1.5618339
31.368836749222787	2.4688077	1.571244
31.387041744710295	2.4967453	1.5801092
31.40524755284232	2.5333207	1.5916408
31.423454174187317	2.5831542	1.6072195
31.441661609313922	2.558076	1.5993986
31.459869858791002	2.4570765	1.5675064
31.478078923187628	2.3542836	1.5343674
31.496288803073064	2.3203306	1.5232631
31.514499499016807	2.35244	1.5337666
31.532711011588546	2.379543	1.5425768
31.550923341358178	2.3000054	1.5165769
31.56913648889584	2.2669332	1.5056338
31.587350454771844	2.3018634	1.5171893
31.605565239556732	2.2890725	1.5129681
31.62378084382127	2.2436886	1.4978948
31.641997268136382	2.2556062	1.5018675
31.660214513073274	2.1996887	1.4831347
31.67843257920331	2.1879077	1.4791578
31.6966514670981	2.2304938	1.4934838
31.71487117732944	2.2508018	1.5002673
31.733091710469346	2.298313	1.5160187
31.751313067090052	2.3054242	1.5183624
31.769535247764008	2.2543452	1.5014477
31.787758253063878	2.1600568	1.4697132
31.805982083562526	2.18161	1.4770274
31.824206739833024	2.164316	1.4711615
31.84243222244869	2.2040071	1.4845899
31.860658531983013	2.2569036	1.5022994
31.878885669009737	2.3159893	1.5218375
31.897113634102784	2.228723	1.4928908
31.91534242783632	2.2233515	1.4910907
31.933572050784694	2.1730533	1.474128
31.951802503522508	2.1612146	1.470107
31.970033786624548	2.201821	1.4838535
31.988265900665834	2.282663	1.5108485
32.006498846221575	2.3242476	1.5245483
32.02473262386724	2.277871	1.5092617
32.04296723417845	2.1959424	1.4818712
32.0612026777311	2.0986736	1.4486799
32.07943895510129	2.091087	1.4460591
32.097676066865304	2.074671	1.4403719
32.115914013599685	2.1129968	1.4536151
32.13415279588115	2.1353443	1.4612818
32.152392414286666	2.1074326	1.4516999
32.1706328693934	2.1279082	1.4587351
32.18887416177875	2.0898418	1.4456285
32.20711629202032	2.0598252	1.4352092
32.225359260695924	2.0963855	1.44789
32.243603068383614	2.1835096	1.4776703
32.26184771566166	2.2288184	1.4929228
32.28009320310852	2.1781754	1.4758643
32.2983395313029	2.166213	1.471806
32.31658670082372	2.176524	1.4753047
32.33483471225012	2.122305	1.4568132
32.35308356616143	2.0740237	1.4401472
32.371333263137245	2.0536392	1.4330524
32.38958380375734	2.0541477	1.4332298
32.407835188601744	2.0655346	1.4371967
32.42608741825067	2.0326805	1.425721
32.444340493284585	2.0146244	1.4193746
32.46259441428416	2.004708	1.4158771
32.48084918183028	1.9823486	1.407959
32.49910479650405	1.9555497	1.3984097
32.51736125888683	2.0776398	1.4414021
32.53561856956014	2.1176288	1.4552075
32.5538767291058	2.1099439	1.4525646
32.572135738105764	2.0704496	1.4389057
32.59039559714228	2.0985658	1.4486427
32.608656306797776	2.0956378	1.4476318
32.62691786765491	2.0572677	1.4343178
32.645180280296586	1.9828948	1.4081529
32.663443545305896	1.9870764	1.409637
32.68170766326619	1.9903355	1.4107925
32.69997263476099	1.9278789	1.3884808
32.7182384603741	1.9008412	1.37871
32.7365051406895	1.9341545	1.3907388
32.75477267629144	1.9802339	1.4072078
32.77304106776434	1.9321911	1.3900328
32.79131031569289	1.8396847	1.3563498
32.809580420661966	1.950325	1.3965404
32.827851383256714	2.0949266	1.4473861
32.84612320406245	2.091018	1.4460353
32.86439588366476	1.9790778	1.406797
32.88266942264945	1.9363202	1.3915173
32.9009438216025	1.9185559	1.3851194
32.9192190811102	1.8625003	1.3647345
32.937495201758985	1.9243242	1.3872001
32.95577218413556	1.981422	1.4076298
32.974050028826866	1.9980353	1.4135188
32.992328736420035	1.9714617	1.4040874
33.010608307502444	1.9802147	1.407201
33.02888874266169	2.0449646	1.4300226
33.047170042485604	2.044966	1.4300231
33.06545220756225	2.0419567	1.4289705
33.083735238479896	1.9943465	1.4122133
33.10201913582707	2.0091555	1.4174469
33.12030390019248	1.9779819	1.4064075
33.138589532165135	1.9492191	1.3961444
33.15687603233419	2.0722268	1.4395231
33.17516340128909	2.0687702	1.438322
33.19345163961947	2.0189805	1.4209083
33.211740747915215	1.9982821	1.413606
33.23003072676643	2.0064063	1.4164767
33.248321576763466	1.9737269	1.4048939
33.266613298496885	1.8766774	1.3699187
33.28490589255747	1.8122205	1.3461874
33.30319935953626	1.946718	1.3952484
33.32149370002451	1.9863325	1.409373
33.339788914613706	1.9418361	1.3934978
33.358085003895575	1.8413363	1.3569585
33.376381968462034	1.7533283	1.324133
33.39467980890529	1.7857567	1.3363221
33.41297852581774	1.840902	1.3567984
33.43127811979204	1.8640484	1.3653016
33.44957859142105	1.8659829	1.3660098
33.467879941297866	1.9227672	1.3866388
33.486182170015844	1.8931587	1.375921
33.50448527816853	1.9021915	1.3791996
33.522789266349754	1.8582727	1.3631848
33.541094135153514	1.8710481	1.3678626
33.55939988517411	1.9238572	1.3870318
33.57770651700602	1.9981167	1.4135475
33.59601403124398	1.9296815	1.3891298
33.61432242848296	1.8782293	1.3704851
33.632631709318154	1.8555205	1.3621749
33.650941874344994	1.8070161	1.344253
33.66925292415916	1.7960919	1.3401835
33.68756485935654	1.8244789	1.3507327
33.70587768053328	1.8371634	1.35542
33.724191388285746	1.8801227	1.3711756
33.74250598321054	1.8700103	1.3674831
33.760821465904506	1.8197484	1.3489805
33.77913783696474	1.7781541	1.3334745
33.79745509698852	1.8321052	1.3535528
33.815773246573414	1.904025	1.3798641
33.8340922863172	1.8989301	1.3780167
33.852412216817896	1.8535912	1.3614665
33.87073303867377	1.8730745	1.3686031
33.889054752483304	1.9375205	1.3919485
33.907377358845245	1.9891578	1.410375
33.92570085835853	1.9068635	1.3808923
33.94402525162239	1.8186673	1.3485798
33.96235053923627	2.026264	1.423469
33.980676721799824	2.1994953	1.4830695
33.999003799912984	2.107778	1.451819
34.01733177417592	1.9905521	1.4108692
34.03566064518901	1.9897103	1.410571
34.0539904135529	1.9612269	1.4004381
34.07232107986846	1.896791	1.3772403
34.090652644736785	1.8869882	1.3736769
34.108985108759235	1.894587	1.3764399
34.12731847253742	1.9620842	1.4007442
34.14565273667313	1.9148728	1.3837893
34.16398790176847	1.8573879	1.3628602
34.18232396842574	1.8280343	1.3520482
34.20066093724749	1.8944111	1.376376
34.21899880883651	1.8126206	1.346336
34.23733758379583	1.7950171	1.3397825
34.25567726272874	1.8328806	1.3538392
34.27401784623872	1.9464711	1.3951598
34.29235933492957	2.0178638	1.4205153
34.31070172940526	2.0610266	1.4356276
34.32904503027003	1.9191027	1.3853168
34.347389238128386	1.8710784	1.3678737
34.36573435358502	2.0972104	1.4481748
34.38408037724492	2.055448	1.4336834
34.402427309713296	1.9394126	1.392628
34.42077515159559	1.9566243	1.3987938
34.43912390349752	1.9207265	1.3859028
34.45747356602499	1.9418416	1.3934997
34.47582413978423	1.9814953	1.407656
34.49417562538163	2.0056202	1.4161992
34.51252802342388	1.9597049	1.3998946
34.53088133451789	1.9481876	1.395775
34.54923555927084	1.919218	1.3853585
34.567590698290104	1.9424691	1.3937249
34.58594675218336	1.8994311	1.3781985
34.6043037215585	1.8159417	1.3475688
34.62266160702365	1.7658298	1.3288453
34.641020409187234	1.9724255	1.4044306
34.65938012865785	2.046031	1.4303954
34.677740766044394	1.9107255	1.3822899
34.69610232195598	1.8066983	1.3441348
34.714464797002016	1.7022716	1.3047113
34.73282819179208	1.7995651	1.3414787
34.751192506936064	1.9515043	1.3969625
34.76955774304408	1.9840772	1.4085728
34.7879239007265	1.9408417	1.3931409
34.80629098059391	2.1391864	1.4625958
34.824658983257194	2.0536294	1.433049
34.843027909327446	1.8689371	1.3670907
34.86139775941603	1.8582835	1.3631887
34.879768534134534	1.8351815	1.3546886
34.89814023409483	1.7545427	1.3245915
34.91651285990901	1.8694278	1.3672702
34.93488641218944	2.0461426	1.4304343
34.95326089154871	1.9896713	1.4105572
34.97163629859967	1.8150709	1.3472457
34.99001263395542	1.9432391	1.3940011
35.00838989822934	2.0803533	1.442343
35.02676809203499	2.0012069	1.4146402
35.04514721598624	1.8008804	1.3419689
35.063527270697215	1.5919247	1.2617149
35.081908256782256	1.8016397	1.3422518
35.10029017485597	1.9330735	1.3903501
35.11867302553321	2.0130947	1.4188356
35.137056809429104	2.0205917	1.4214752
35.155441527159006	1.854524	1.3618091
35.173827179338524	1.6420679	1.281432
35.19221376658354	1.8553101	1.3620976
35.21060128951017	2.0998452	1.4490843
35.2289897487348	1.9663894	1.4022801
35.24737914487405	1.9660338	1.4021533
35.26576947854479	2.1690636	1.4727741
35.28416075036418	2.047196	1.4308026
35.30255296094958	1.724855	1.3133373
35.32094611091867	1.6315267	1.2773123
35.33934020088932	1.7062542	1.3062366
35.35773523147969	1.9733248	1.4047508
35.3761312033082	2.3944447	1.5473993
35.394528116993506	2.3909442	1.5462679
35.41292597315452	2.085987	1.4442947
35.431324772410434	1.8303565	1.3529067
35.449724515380666	1.7494813	1.3226796
35.46812520268491	1.9683238	1.4029696
35.486526834943106	2.048033	1.431095
35.504929412775454	1.7808532	1.3344861
35.52333293680242	1.7840383	1.3356789
35.54173740764471	1.9726663	1.4045163
35.560142825923286	1.7665777	1.3291267
35.5785491922594	1.4332839	1.1971984
35.59695650727454	1.4757863	1.2148194
35.61536477159042	1.0391313	1.019378
