0.008763373481513119	1.0000051	1.0000025
0.026290120649546365	0.5695208	0.754666
0.043816868432600686	0.53814155	0.7335813
0.06134361724069026	0.2942843	0.54247975
0.07887036748382949	0.2587816	0.5087058
0.0963971195720331	0.2557824	0.50574934
0.11392387391531617	0.20051262	0.44778636
0.1314506309236943	0.25027695	0.50027686
0.1489773910071836	0.24363203	0.49359095
0.16650415457580078	0.23536512	0.48514444
0.18403092203956356	0.18820271	0.43382335
0.20155769380849	0.13886563	0.3726468
0.2190844702925996	0.08885439	0.29808453
0.2366112519019124	0.082362674	0.28698897
0.2541380390464497	0.13022938	0.36087307
0.27166483213623416	0.15460823	0.39320254
0.28919163158128947	0.120737635	0.3474732
0.3067184377916406	0.057764143	0.24034172
0.324245251177314	0.094422035	0.30728167
0.34177207214833777	0.1590678	0.39883304
0.3592989011147415	0.22953765	0.47910088
0.37682573848655654	0.24967799	0.4996779
0.39435258467381573	0.21144935	0.4598362
0.41187944008655414	0.1644394	0.4055113
0.42940630513480854	0.14766017	0.38426575
0.446933180228618	0.1705384	0.41296294
0.4644600657780234	0.16149898	0.40186936
0.48198696219306775	0.12512824	0.3537347
0.49951386988379676	0.100867	0.31759566
0.5170407892602581	0.12817083	0.35800955
0.5345677207325025	0.16965169	0.41188794
0.5520946647105822	0.205754	0.45360115
0.5696216216045534	0.22748722	0.47695622
0.5871485918244737	0.21951403	0.46852323
0.6046755757804043	0.18474452	0.42981917
0.6222025738824094	0.113836944	0.3373973
0.6397295865405557	0.09126355	0.30209857
0.6572566141649129	0.11340033	0.33674967
0.6747836571655547	0.13530618	0.36783987
0.6923107159525568	0.1608121	0.40101382
0.7098377909359992	0.19060837	0.43658718
0.7273648825259653	0.25221583	0.5022109
0.7448919911325411	0.27013725	0.5197473
0.762419117165817	0.26259238	0.5124377
0.7799462610358868	0.21943273	0.46843648
0.7974734231528482	0.20903172	0.45719987
0.8150006039268024	0.18717615	0.4326386
0.8325278037678551	0.185493	0.43068898
0.8500550230861152	0.21171568	0.4601257
0.8675822622916969	0.22606297	0.4754608
0.8851095217947171	0.20289597	0.45043975
0.9026368020052984	0.17504077	0.41837874
0.9201641033335665	0.19607987	0.44280908
0.9376914261896523	0.2465726	0.49656078
0.9552187709836915	0.28247488	0.53148365
0.9727461381258234	0.29290482	0.54120684
0.990273528026193	0.25728104	0.5072288
1.0078009410949496	0.22536308	0.4747242
1.0253283777422473	0.22777183	0.47725448
1.0428558383782454	0.24116	0.49108043
1.0603833234131086	0.28226653	0.5312876
1.0779108332570058	0.3133264	0.5597556
1.0954383683201119	0.32328102	0.56857806
1.112965929012607	0.37525365	0.6125795
1.1304935157446763	0.49247578	0.7017662
1.1480211289265108	0.4951837	0.7036929
1.1655487689683062	1.3207107	1.1492218
1.1830764362802655	1.6185888	1.2722377
1.200604131272596	2.009913	1.417714
1.2181318543555117	2.3661976	1.538245
1.235659605939232	2.4135282	1.5535535
1.253187386433982	3.914155	1.9784224
1.270715196249994	6.3301525	2.5159795
1.2882430357975057	11.854444	3.4430282
1.3057709054867608	16.59564	4.073775
1.3232988057280106	22.40119	4.7329893
1.3408267369315112	27.4256	5.2369456
1.358354699507526	31.19546	5.5852895
1.3758826938663256	35.34172	5.9448905
1.3934107204181858	37.031254	6.085331
1.410938779573391	37.413315	6.1166425
1.4284668717422309	38.059284	6.169221
1.4459949973350033	37.72277	6.1418867
1.4635231567620117	37.939995	6.159545
1.4810513504335687	37.080635	6.089387
1.4985795787599925	36.3946	6.0327935
1.5161078421516088	35.486225	5.9570317
1.5336361410187505	34.417664	5.866657
1.5511644757717598	34.489452	5.872772
1.5686928468209842	35.026558	5.918324
1.58622125457678	36.01222	6.001018
1.6037496994495108	37.30357	6.107665
1.621278181849548	37.320793	6.1090746
1.6388067021872719	38.012917	6.1654615
1.6563352608730693	37.065075	6.0881095
1.673863858317336	36.120575	6.0100393
1.6913924949304753	35.083176	5.9231052
1.7089211711228998	33.878918	5.82056
1.7264498873050296	33.08563	5.752011
1.7439786438872935	32.325382	5.6855416
1.7615074412801288	31.282818	5.5931044
1.779036279893981	30.772938	5.547336
1.796565160139305	30.017527	5.478825
1.814094082426564	29.617083	5.4421577
1.8316230471662298	29.03428	5.3883467
1.849152054768784	28.116268	5.3024774
1.8666811056447168	27.796034	5.2721944
1.8842102002045273	27.002304	5.196374
1.901739338858724	26.485506	5.146407
1.9192685220178245	25.497799	5.0495343
1.9367977500923557	24.54327	4.9541163
1.9543270234928547	24.287601	4.928245
1.971856342629867	24.20227	4.9195805
1.9893857079139496	24.096292	4.9087973
2.006915119755667	23.349152	4.832096
2.0244445785655945	22.55898	4.7496295
2.0419740847543175	21.892548	4.6789474
2.0595036387324317	21.561745	4.6434627
2.0770332409105414	21.056883	4.588778
2.094562891699263	20.728384	4.5528436
2.1120925915092217	20.218687	4.4965196
2.129622340751053	19.740232	4.442998
2.1471521398354043	187.80507	13.704199
2.1646819891729323	444.1345	21.0745
2.182211889174303	440.55447	20.98939
2.1997418402501974	453.028	21.284454
2.2172718428113023	432.9331	20.807045
2.234801897268317	320.7405	17.90923
2.2523320040319548	17.258093	4.154286
2.269862163512935	17.236736	4.151715
2.287392376121992	17.169245	4.1435785
2.304922642269869	16.593689	4.073535
2.322452962367322	15.897932	3.987221
2.3399833368251164	15.205409	3.8994114
2.357513766054032	14.998745	3.8728213
2.3750442504648586	14.938867	3.865083
2.3925747904683963	14.534385	3.812399
2.410105386475459	14.336468	3.7863529
2.4276360388968707	14.022966	3.7447252
2.445166748143469	13.941929	3.7338893
2.4626975146261025	13.792379	3.7138093
2.4802283387556323	13.70465	3.7019792
2.4977592209429305	13.559208	3.682283
2.5152901615988825	13.49652	3.6737611
2.5328211611343865	13.308908	3.6481376
2.5503522199603523	12.980812	3.6028893
2.5678833384877024	12.666318	3.5589771
2.5854145171273712	12.366466	3.5165985
2.6029457562903064	12.16022	3.4871507
2.620477056387469	11.987922	3.4623578
2.6380084178298326	11.986241	3.462115
2.655539841028383	11.792746	3.4340568
2.673071326394119	11.5972595	3.405475
2.6906028743380523	11.198564	3.3464255
2.708134485271211	10.945083	3.3083353
2.7256661596046325	10.856048	3.2948518
2.743197897749369	10.714361	3.27328
2.760729700116486	10.623193	3.259324
2.778261567117063	10.420442	3.228071
2.795793499162193	10.31044	3.2109873
2.8133254966629817	10.1425705	3.1847403
2.830857560030551	9.965981	3.1568942
2.8483896896760337	9.814182	3.1327596
2.865921886010578	9.707043	3.1156127
2.883454149445347	9.590107	3.0967898
2.9009864803915177	9.669093	3.1095166
2.91851887926028	9.580169	3.0951848
2.9360513464628384	9.344382	3.0568583
2.953583882410413	8.955788	2.9926221
2.9711164875142373	8.748386	2.957767
2.9886491621855606	8.637922	2.9390342
3.0061819068356455	8.53833	2.9220421
3.023714721875769	8.383167	2.89537
3.041247607717225	8.326722	2.885606
3.0587805647713213	8.303765	2.8816254
3.0763135934493806	8.348991	2.8894622
3.0938466941627407	8.211137	2.865508
3.1113798673227544	8.052052	2.8376138
3.1289131133407904	7.911907	2.8128114
3.1464464326282315	7.8505306	2.80188
3.1639798255964786	7.7510977	2.7840793
3.1815132926569443	7.631029	2.7624319
3.1990468342210603	7.526322	2.7434142
3.216580450700272	7.405655	2.7213333
3.2341141425060416	7.282698	2.6986475
3.251647910049847	7.2109885	2.6853285
3.2691817537431813	7.1569753	2.6752524
3.286715673997555	7.144604	2.6729393
3.3042496712244938	7.0398817	2.6532776
3.32178374583554	6.9782324	2.6416345
3.339317898242251	6.900423	2.6268656
3.3568521288562034	6.8219414	2.6118846
3.3743864380889876	6.8339157	2.6141758
3.3919208263522127	6.8440375	2.616111
3.4094552940575023	6.6251283	2.5739324
3.4269898416164972	6.502359	2.5499723
3.444524469440858	6.40027	2.5298755
3.4620591779422587	6.3403373	2.5180027
3.479593967532391	6.358542	2.521615
3.4971288386229658	6.338615	2.5176606
3.5146637916257086	6.3663063	2.523154
3.5321988269523628	6.2257457	2.4951444
3.5497339450146903	6.228205	2.4956372
3.5672691462244708	6.1722307	2.4843974
3.5848044309934988	6.130327	2.4759498
3.60233979973359	6.1421614	2.4783385
3.619875252856575	6.247249	2.4994497
3.6374107907743034	6.249713	2.4999425
3.6549464138986427	6.21887	2.4937663
3.6724821226414788	6.1223874	2.474346
3.690017917414714	6.0168095	2.4529185
3.7075537986302702	6.1239557	2.4746628
3.7250897667000857	6.3000984	2.5099998
3.7426258220361235	6.4419026	2.5380905
3.7601619650503553	6.847899	2.616849
3.777698196154779	7.299772	2.701809
3.7952345157614067	8.482884	2.9125392
3.8127709242822716	9.287579	3.0475528
3.830307422129425	11.608719	3.407157
3.847844009714936	30.339336	5.5081153
3.8653806874508954	97.74669	9.886692
3.882917455749409	97.00513	9.849118
3.900454315022606	96.73645	9.835469
3.917991265682631	41.462982	6.4391756
3.9355283081416506	11.202974	3.3470845
3.9530654428118495	8.979253	2.99654
3.970602670105433	7.6180873	2.7600882
3.9881399904346244	6.6932817	2.5871377
4.005677404211669	6.565779	2.5623777
4.023214911848827	6.4960504	2.5487351
4.0407525137583855	6.4065766	2.5311217
4.058290210352644	6.282782	2.506548
4.075828002043927	6.1336675	2.4766243
4.0933658892445814	6.135552	2.4770045
4.110903872366966	6.127933	2.4754663
4.128441951823468	6.0973434	2.46928
4.145980128026488	6.003885	2.4502826
4.163518401388452	5.9316955	2.4355073
4.181056772321807	5.955414	2.4403718
4.1985952412390155	5.9890604	2.4472556
4.216133808552567	6.126235	2.4751232
4.233672474674966	6.1729727	2.4845467
4.251211240018741	6.3423786	2.518408
4.268750104996445	6.5370536	2.5567663
4.286289070020643	7.42505	2.7248945
4.303828135503928	9.131731	3.0218754
4.3213673018589125	29.49825	5.431229
4.3389065694982305	90.70163	9.523741
4.356445938834537	165.90298	12.880333
4.3739854102805085	171.15666	13.082685
4.391524984248844	172.00336	13.1150055
4.409064661152262	136.04077	11.663651
4.426604441403504	96.38108	9.817387
4.444144325415337	75.77125	8.704668
4.461684313600543	21.770996	4.66594
4.47922440637193	22.12989	4.7042418
4.496764604142329	20.248976	4.499886
4.5143049073245916	18.347342	4.2833796
4.531845316331589	16.323322	4.040213
4.5493858315762195	13.44898	3.6672852
4.566926453471405	11.163055	3.341116
4.584467182430081	9.132681	3.0220325
4.602008018865218	7.996055	2.8277297
4.619548963189798	7.3780704	2.7162604
4.637090015816834	6.9311533	2.6327083
4.654631177159353	6.728264	2.5938897
4.672172447630417	6.4659286	2.542819
4.689713827643102	6.2452607	2.499052
4.7072553176105085	5.9796844	2.4453392
4.724796917945764	5.8007975	2.4084845
4.742338629062015	5.789562	2.4061508
4.759880451372434	5.719818	2.3916142
4.777422385290215	5.6421695	2.3753252
4.794964431228581	5.6374483	2.3743312
4.812506589600768	5.6943703	2.386288
4.830048860820047	5.7489634	2.3976996
4.847591245299709	5.7128644	2.3901598
4.8651337434530655	5.6518383	2.3773596
4.882676355693457	5.615335	2.36967
4.900219082434242	5.6112113	2.3687994
4.917761924088813	5.531886	2.3519962
4.935304881070575	5.5311704	2.351844
4.952847953792969	5.500297	2.345271
4.970391142669449	5.470424	2.338894
4.9879344481135055	5.4737716	2.3396094
5.005477870538642	5.413365	2.326664
5.023021410358394	5.374341	2.3182626
5.040565067986324	5.4093227	2.3257952
5.05810884383601	5.4822693	2.3414247
5.075652738321066	5.4997854	2.3451622
5.09319675185512	5.428196	2.329849
5.110740884851836	5.347188	2.3123987
5.128285137724894	5.3104124	2.304433
5.145829510888007	5.3091917	2.3041682
5.163374004754908	5.272233	2.2961345
5.1809186197393595	5.2565928	2.292726
5.198463356255145	5.2617617	2.293853
5.216008214716077	5.2798386	2.2977898
5.233553195535998	5.295099	2.3011081
5.251098299128764	5.288805	2.2997403
5.268643525908272	5.298748	2.3019009
5.286188876288432	5.3367004	2.31013
5.3037343506831895	5.3008227	2.3023515
5.32127994950651	5.2922688	2.3004932
5.3388256731723915	5.2996693	2.3021011
5.356371522094851	5.279403	2.2976952
5.373917496687938	5.3183584	2.3061566
5.391463597365729	5.3214025	2.3068166
5.40900982454232	5.372203	2.3178012
5.426556178631843	5.325389	2.3076804
5.444102660048449	5.2337723	2.287744
5.4616492692063225	5.139697	2.26709
5.479196006519669	5.0936265	2.2569065
5.496742872402727	5.0212274	2.2408094
5.514289867269756	5.0442815	2.2459478
5.531836991535049	5.086254	2.2552726
5.549384245612924	5.142382	2.267682
5.566931629917724	5.2047877	2.2814004
5.584479144863822	5.210857	2.28273
5.6020267908656205	5.1557865	2.2706356
5.619574568337545	5.118304	2.2623668
5.637122477694054	5.071758	2.2520564
5.654670519349629	5.1398344	2.2671204
5.672218693718784	5.0703926	2.2517533
5.689767001216059	5.041616	2.2453544
5.707315442256021	5.033633	2.243576
5.724864017253266	5.0861874	2.2552576
5.7424127266224225	5.1767764	2.275253
5.75996157077814	5.1778846	2.2754965
5.777510550135105	5.155167	2.2704992
5.795059665108022	5.0740924	2.2525747
5.812608916111639	5.019199	2.240357
5.830158303560715	5.091261	2.2563822
5.847707827870055	5.1990037	2.2801323
5.86525748945448	5.2975025	2.3016305
5.8828072887288485	5.4547086	2.3355317
5.900357226108044	5.4768224	2.3402612
5.917907302006979	5.571866	2.36048
5.9354575168406	6.2139616	2.4927819
5.9530078710238765	6.9158278	2.629796
5.970558364971812	7.4659166	2.732383
5.988108999099438	7.8923535	2.8093333
6.005659773821818	8.360364	2.8914294
6.023210689554039	8.087016	2.843768
6.040761746711227	8.570925	2.9276142
6.058312945708531	7.909139	2.8123193
6.075864286961132	7.397877	2.719904
6.093415770884244	6.7260065	2.5934546
6.1109673978931065	6.128225	2.4755251
6.128519168402993	5.5197024	2.3494048
6.146071082829204	5.372104	2.31778
6.163623141587075	5.175324	2.2749338
6.181175345091969	5.1658273	2.2728457
6.198727693759281	5.225346	2.2859015
6.216280188004435	5.2680917	2.2952323
6.233832828242885	5.1613464	2.2718596
6.251385614890126	5.112304	2.2610404
6.268938548361669	5.0860777	2.2552333
6.286491629073067	5.086587	2.2553463
6.304044857439898	5.1091733	2.260348
6.321598233877777	5.0170164	2.2398698
6.339151758802344	5.0146766	2.2393475
6.356705432629277	5.0330954	2.2434561
6.37425925577428	4.997255	2.235454
6.391813228653095	4.9564166	2.2263012
6.409367351681486	4.9905715	2.2339587
6.426921625275259	4.9766483	2.2308402
6.44447604985025	4.9889665	2.2335994
6.46203062582232	4.966742	2.2286189
6.47958535360737	4.94462	2.2236502
6.497140233621328	5.007696	2.2377882
6.514695266280161	5.012738	2.2389145
6.532250451999859	5.053288	2.247952
6.549805791196454	5.067501	2.251111
6.567361284286002	5.070173	2.2517045
6.584916931684597	5.0809393	2.254094
6.602472733808367	5.0972524	2.2577095
6.6200286910734665	5.0997	2.2582514
6.637584803896092	5.046752	2.2464976
6.655141072692462	4.989691	2.2337615
6.672697497878842	5.0012956	2.2363577
6.690254079871514	4.984678	2.2326393
6.707810819086808	5.014813	2.2393777
6.725367715941078	5.006232	2.237461
6.742924770850719	4.976146	2.2307277
6.760481984232151	4.9705405	2.229471
6.778039356501836	4.9755616	2.2305968
6.795596888076266	5.070301	2.2517328
6.813154579371963	5.0248027	2.2416072
6.830712430805492	4.9872737	2.2332206
6.84827044279344	5.0012326	2.2363436
6.865828615752445	4.996537	2.2352936
6.883386950099159	5.0590196	2.2492263
6.900945446250287	5.0628943	2.2500877
6.918504104622553	4.993892	2.2347019
6.936062925632727	4.9469023	2.2241633
6.953621909697607	4.927589	2.2198174
6.971181057234028	5.011544	2.238648
6.988740368658859	5.074811	2.2527342
7.006299844389007	5.079398	2.253752
7.023859484841407	5.1614237	2.2718766
7.041419290433036	5.2629094	2.2941031
7.058979261580902	5.494369	2.344007
7.0765393987020495	5.7567906	2.3993313
7.094099702213559	6.1063175	2.4710965
7.111660172532549	6.4639215	2.5424244
7.129220810076164	6.7662635	2.6012042
7.146781615261595	7.3747153	2.7156427
7.16434258850606	7.6163335	2.7597706
7.181903730226821	8.018433	2.8316836
7.1994650408411704	8.080642	2.842647
7.217026520766437	8.243357	2.8711247
7.234588170419983	8.445142	2.9060526
7.252149990219215	8.436106	2.9044974
7.269711980581568	8.267325	2.8752956
7.2872741419245175	8.059226	2.8388777
7.304836474665574	7.6713586	2.7697217
7.322398979222286	7.3786626	2.7163694
7.339961656012233	7.153545	2.674611
7.357524505453039	6.8315277	2.6137192
7.375087527962357	6.5637302	2.5619779
7.392650723957886	6.3195496	2.5138714
7.410214093857353	5.9635754	2.4420433
7.427777638078528	5.729427	2.3936222
7.445341357039213	5.546909	2.3551877
7.4629052511572525	5.3737893	2.3181436
7.480469320850524	5.2604747	2.2935724
7.498033566536948	5.1479893	2.268918
7.5155979886344735	5.122342	2.2632592
7.5331625875610975	5.1511874	2.2696228
7.550727363734844	5.1736364	2.2745628
7.568292317573788	5.162943	2.272211
7.585857449496025	5.1675777	2.2732308
7.603422759919705	5.197357	2.2797713
7.620988249263007	5.2073393	2.2819595
7.638553917944147	5.2337575	2.2877407
7.656119766381391	5.206192	2.2817082
7.673685794993023	5.256509	2.2927077
7.691252004197388	5.2350936	2.2880328
7.70881839441285	5.2254496	2.2859242
7.726384966057826	5.2850323	2.29892
7.743951719550762	5.3188524	2.3062637
7.761518655310149	5.3264685	2.3079143
7.779085773754511	5.320354	2.3065894
7.796653075302419	5.3154187	2.305519
7.814220560372475	5.301524	2.3025038
7.831788229383323	5.270856	2.2958345
7.8493560827536495	5.300531	2.3022883
7.866924120902174	5.330338	2.3087525
7.884492344247663	5.3839297	2.3203297
7.9020607532089135	5.468699	2.338525
7.919629348204771	5.474617	2.3397899
7.937198129654115	5.4318523	2.3306334
7.954767097975865	5.370175	2.3173637
7.972336253588986	5.329717	2.308618
7.989905596912472	5.277554	2.2972927
8.007475128365371	5.2968698	2.301493
8.025044848366756	5.3784633	2.3191514
8.042614757335754	5.56337	2.3586798
8.060184855691523	5.6623144	2.379562
8.07775514385327	5.8268085	2.4138782
8.095325622240228	5.839811	2.41657
8.112896291271687	5.8395095	2.4165077
8.130467151366968	5.7553463	2.3990302
8.148038202945436	5.764613	2.400961
8.165609446426497	5.8793955	2.4247465
8.183180882229594	5.96856	2.4430637
8.200752510774217	5.995169	2.4485035
8.218324332479893	5.9258404	2.434305
8.235896347766193	5.860855	2.4209204
8.253468557052724	5.931859	2.435541
8.27104096075914	5.93095	2.4353542
8.288613559305137	6.029111	2.4554248
8.306186353110448	6.1307855	2.4760423
8.32375934259485	6.245516	2.499103
8.341332528178162	6.238877	2.4977744
8.358905910280246	6.2500744	2.5000148
8.376479489321003	6.2144456	2.492879
8.394053265720377	6.226479	2.4952915
8.411627239898356	6.22155	2.4943035
8.42920141227497	6.2152987	2.49305
8.44677578327029	6.2693176	2.5038605
8.464350353304427	6.1764617	2.4852488
8.48192512279754	6.0905595	2.467906
8.499500092169827	6.0230474	2.4541898
8.51707526184153	6.064936	2.4627092
8.534650632232934	6.1995096	2.4898815
8.552226203764365	6.2583513	2.5016696
8.569801976856192	6.247424	2.4994848
8.587377951928834	6.2362366	2.4972458
8.60495412940274	6.2345896	2.496916
8.622530509698416	6.2257514	2.4951456
8.6401070932364	6.3633647	2.522571
8.657683880437283	6.45882	2.541421
8.675260871721695	6.6418514	2.577179
8.692838067510303	6.81395	2.6103544
8.710415468223834	7.0050945	2.646714
8.727993074283043	7.2163424	2.686325
8.745570886108737	7.2087917	2.6849194
8.763148904121765	7.1746526	2.6785543
8.78072712874302	7.085172	2.6617987
8.798305560393441	7.2815437	2.6984336
8.815884199494006	7.4356666	2.726842
8.833463046465745	7.679698	2.771227
8.851042101729728	7.821176	2.7966366
8.86862136570707	8.160761	2.8567045
8.886200838818924	8.309976	2.8827028
8.903780521486505	8.36089	2.8915205
8.921360414131055	8.440545	2.9052615
8.938940517173874	8.603655	2.9331987
8.956520831036297	8.83477	2.9723341
8.97410135613971	9.129938	3.0215788
8.99168209290554	9.2635355	3.0436056
9.009263041755265	9.483007	3.0794492
9.026844203110405	9.656167	3.1074374
9.044425577392525	9.850351	3.138527
9.062007165023239	9.902376	3.146804
9.079588966424197	10.174237	3.189708
9.097170982017108	10.309903	3.210904
9.11475321222372	11.294903	3.360789
9.132335657465825	12.186602	3.4909313
9.149918318165264	12.254287	3.5006123
9.167501194743924	13.002909	3.6059546
9.18508428762374	12.767543	3.57317
9.202667597226693	12.780701	3.5750105
9.220251123974803	12.410232	3.522816
9.237834868290143	12.037089	3.469451
9.255418830594836	11.722787	3.4238555
9.273003011311046	11.110157	3.3331902
9.290587410860985	10.960503	3.310665
9.308172029666911	10.393521	3.2238984
9.32575686815113	10.144005	3.1849654
9.343341926735997	8.854603	2.9756684
9.360927205843916	8.577059	2.9286616
9.378512705897327	8.338113	2.887579
9.396098427318728	8.10273	2.8465295
9.413684370530664	7.972941	2.8236396
9.431270535955722	7.8736973	2.806011
9.448856924016539	7.832507	2.7986617
9.466443535135806	7.788805	2.790843
9.484030369736251	7.7961864	2.7921653
9.501617428240658	7.7270865	2.7797637
9.519204711071852	7.668836	2.7692664
9.536792218652714	7.653184	2.766439
9.55437995140617	7.7632685	2.7862642
9.571967909755191	7.872995	2.8058858
9.589556094122802	7.9387093	2.8175714
9.60714450493207	7.934125	2.816758
9.624733142606116	7.8880367	2.808565
9.642322007568108	7.9475665	2.8191428
9.659911100241267	8.013369	2.8307893
9.677500421048851	8.033529	2.8343482
9.695089970414175	8.062695	2.8394885
9.712679748760609	7.9891295	2.826505
9.730269756511557	8.018343	2.831668
9.747859994090492	8.029763	2.8336837
9.765450461920915	8.049351	2.8371377
9.78304116042639	8.089289	2.8441675
9.800632090030527	8.122538	2.8500066
9.81822325115699	8.15499	2.8556943
9.835814644229481	8.14508	2.8539586
9.853406269671762	8.169447	2.8582244
9.870998127907646	8.17872	2.859846
9.888590219360985	8.226508	2.868189
9.906182544455698	8.2593975	2.8739169
9.923775103615734	8.30071	2.8810952
9.941367897265108	8.272277	2.8761566
9.958960925827878	8.250689	2.8724012
9.97655418972816	8.234044	2.8695023
9.994147689390106	8.23923	2.870406
10.011741425237934	8.287684	2.8788338
10.029335397695904	8.267302	2.8752916
10.04692960718833	8.263724	2.8746693
10.06452405413958	8.27777	2.8771114
10.082118738974064	8.297939	2.8806143
10.099713662116246	8.225572	2.8680258
10.117308823990651	8.207746	2.8649163
10.134904225021844	8.233191	2.8693538
10.152499865634445	8.280157	2.8775263
10.170095746253125	8.278545	2.8772461
10.18769186730261	8.226917	2.8682604
10.205288229207675	8.162475	2.8570044
10.222884832393145	8.123482	2.8501723
10.2404816772839	8.126544	2.8507094
10.258078764304868	8.11912	2.849407
10.275676093881035	8.136872	2.8525202
10.293273666437438	8.104953	2.8469198
10.310871482399158	8.088242	2.8439834
10.32846954219134	8.068531	2.840516
10.346067846239173	8.135683	2.8523118
10.363666394967908	8.202062	2.8639243
10.38126518880283	8.234007	2.8694959
10.398864228169298	8.242778	2.871024
10.416463513492713	8.204101	2.8642802
10.434063045198531	8.178151	2.8597467
10.451662823712262	8.196465	2.8629467
10.469262849459467	8.3055725	2.881939
10.486863122865758	8.287184	2.878747
10.504463644356806	8.259741	2.8739765
10.522064414358338	8.115224	2.8487232
10.539665433296118	7.983667	2.8255384
10.557266701595987	7.9211583	2.8144553
10.574868219683818	7.854807	2.8026428
10.592469987985552	7.749915	2.783867
10.610072006927185	7.619846	2.7604067
10.627674276934751	7.5371456	2.7453861
10.64527679843435	7.41541	2.723125
10.662879571852143	7.364457	2.7137532
10.680482597614331	7.2535195	2.6932359
10.698085876147173	7.1236944	2.669025
10.715689407876988	6.9937005	2.6445606
10.733293193230146	6.8854284	2.62401
10.750897232633072	6.838799	2.6151097
10.76850152651225	6.7728667	2.6024733
10.786106075294207	6.6608195	2.5808563
10.803710879405534	6.503001	2.5500982
10.821315939272877	6.377169	2.5253057
10.83892125532294	6.3130193	2.5125723
10.856526827982472	6.31169	2.5123076
10.874132657678285	6.3640437	2.5227056
10.891738744837243	6.319191	2.5138001
10.909345089886271	6.244939	2.4989877
10.926951693252343	6.1550927	2.4809458
10.944558555362494	6.075437	2.4648402
10.96216567664381	6.016557	2.452867
10.979773057523436	5.922028	2.4335217
10.997380698428573	5.8709245	2.4229991
11.014988599786477	5.778842	2.4039223
11.032596762024461	5.657705	2.378593
11.050205185569892	5.618034	2.3702393
11.067813870850198	5.595005	2.3653762
11.085422818292859	5.615783	2.3697643
11.10303202832541	5.540839	2.3538988
11.120641501375454	5.470844	2.3389835
11.138251237870636	5.293271	2.300711
11.155861238238671	5.258249	2.2930872
11.173471502907317	5.1743927	2.2747293
11.191082032304402	5.1306524	2.2650943
11.208692826857805	5.1028805	2.2589557
11.226303886995465	5.017543	2.2399871
11.243915213145371	4.9678144	2.2288594
11.261526805735578	4.939499	2.2224984
11.279138665194196	4.903844	2.2144625
11.296750791949393	4.832679	2.1983354
11.314363186429393	4.760099	2.181765
11.331975849062479	4.6850376	2.1644948
11.34958878027699	4.633986	2.1526694
11.36720198050133	4.6022205	2.1452787
11.384815450163948	4.5978312	2.1442554
11.402429189693366	4.5671835	2.137097
11.420043199518153	4.553044	2.1337862
11.437657480066942	63.477528	7.9672785
11.455272031768422	85.17466	9.229012
11.472886855051353	107.4945	10.367955
11.490501950344528	99.04648	9.952209
11.508117318076819	84.448044	9.189562
11.52573295867715	45.943985	6.778199
11.543348872574514	4.266736	2.065608
11.560965060197946	4.1490436	2.03692
11.57858152197655	4.008161	2.0020392
11.59619825833949	3.9753911	1.9938383
11.613815269715985	4.0303526	2.0075738
11.631432556535323	38.581528	6.211403
11.649050119226837	83.12224	9.11714
11.666667958219929	93.48487	9.668757
11.68428607394406	107.742455	10.379907
11.701904466828756	82.608734	9.088935
11.719523137303586	65.48148	8.092063
11.737142085798196	4.679055	2.1631124
11.754761312742286	3.753831	1.9374806
11.772380818565619	3.678736	1.9180031
11.790000603698015	3.6359422	1.9068147
11.80762066856935	3.6367567	1.9070282
11.825241013609572	3.625345	1.9040339
11.842861639248683	3.5655346	1.8882623
11.860482545916748	3.4600108	1.8601104
11.878103734043883	3.4010139	1.8441838
11.895725204060282	3.404159	1.8450364
11.91334695639619	3.4315724	1.8524504
11.930968991481919	3.4081569	1.8461194
11.948591309747824	3.368713	1.8354053
11.966213911624347	3.3317535	1.8253092
11.98383679754198	3.295965	1.8154793
12.001459967931268	3.2526593	1.803513
12.019083423222835	3.2139165	1.79274
12.036707163847352	3.2056684	1.790438
12.05433119023556	3.1852646	1.7847309
12.071955502818259	3.1452055	1.7734727
12.089580102026313	3.1441345	1.7731707
12.107204988290643	3.1698925	1.7804192
12.12483016204224	3.1359463	1.7708603
12.142455623712152	3.1100793	1.7635417
12.16008137373149	3.0705466	1.7522975
12.177707412531431	3.0730383	1.7530084
12.19533374054321	3.0899427	1.7578232
12.212960358198126	3.0783687	1.754528
12.230587265927545	3.0950587	1.7592779
12.248214464162889	3.0605736	1.7494495
12.265841953335649	3.011554	1.7353829
12.283469733877375	2.9776983	1.7256008
12.301097806219685	2.99845	1.7316033
12.31872617079425	3.012598	1.7356837
12.336354828032825	3.007935	1.73434
12.353983778367205	2.9302177	1.7117878
12.371613022229262	2.8881998	1.6994704
12.389242560050928	2.8680356	1.6935276
12.406872392264201	2.8622139	1.6918079
12.424502519301143	2.8960314	1.701773
12.442132941593874	2.894226	1.7012426
12.459763659574586	2.9085321	1.705442
12.477394673675532	2.9174635	1.7080584
12.49502598432903	2.898559	1.7025155
12.51265759196746	2.9000154	1.7029431
12.530289497023267	2.8159764	1.6780871
12.547921699928967	2.7607863	1.6615614
12.565554201117134	2.736972	1.6543797
12.583187001020404	2.763028	1.6622359
12.600820100071486	2.759262	1.6611027
12.618453498703152	2.7516165	1.6587998
12.636087197348235	2.766127	1.6631678
12.65372119643964	2.7814686	1.6677736
12.671355496410326	2.8035605	1.6743836
12.68899009769333	2.8494585	1.6880339
12.706625000721749	2.9394083	1.7144703
12.724260205928752	3.0200534	1.73783
12.741895713747551	3.000887	1.7323068
12.759531524611454	2.9980903	1.7314994
12.777167638953818	2.9862053	1.7280641
12.794804057208072	3.013303	1.7358868
12.812440779807702	3.0887008	1.75747
12.830077807186271	3.2632346	1.8064425
12.847715139777405	3.303893	1.8176614
12.865352778014795	3.4966779	1.8699406
12.882990722332197	3.610404	1.9001063
12.90062897316344	3.6851974	1.9196868
12.918267530942412	3.7178617	1.9281757
12.935906396103071	3.5888753	1.8944327
12.953545569079449	3.745283	1.9352733
12.971185050305628	3.6115875	1.9004177
12.988824840215775	3.6236553	1.9035901
13.006464939244115	3.628426	1.9048429
13.024105347824943	3.442954	1.8555199
13.041746066392617	3.517989	1.8756303
13.05938709538157	3.3314238	1.8252188
13.077028435226296	3.3898492	1.8411543
13.094670086361363	3.322893	1.8228804
13.112312049221401	3.192429	1.786737
13.129954324241112	3.102427	1.7613708
13.147596911855258	2.921468	1.7092302
13.165239812498685	2.8711314	1.6944413
13.182883026606293	2.7918599	1.6708859
13.200526554613058	2.7253745	1.6508708
13.218170396954017	2.7382202	1.6547569
13.235814554064284	2.7259946	1.6510587
13.253459026379034	2.7138093	1.6473644
13.271103814333523	2.7005007	1.6433201
13.288748918363058	2.6918828	1.6406958
13.306394338903031	2.686373	1.6390159
13.32404007638889	2.6835501	1.6381545
13.341686131256164	2.6863832	1.639019
13.359332503940449	2.6819851	1.6376767
13.376979194877402	2.6470437	1.6269737
13.394626204502751	2.6336143	1.6228415
13.412273533252307	2.6535363	1.6289679
13.429921181561937	2.6777785	1.6363919
13.447569149867581	2.734482	1.6536269
13.465217438605247	2.714232	1.6474926
13.482866048211022	2.6842313	1.6383624
13.500514979121052	2.7175999	1.6485144
13.518164231771568	2.6981337	1.6425997
13.535813806598844	2.6741362	1.6352786
13.553463704039254	2.6144884	1.616938
13.571113924529229	2.656007	1.629726
13.588764468505275	2.6724794	1.634772
13.606415336403956	2.6720555	1.6346424
13.624066528661917	2.6398258	1.6247541
13.641718045715882	2.7075658	1.6454682
13.659369888002635	2.7956574	1.672022
13.67702205595903	2.9057739	1.7046331
13.694674550021993	2.9901936	1.7292176
13.712327370628532	3.0456693	1.7451847
13.729980518215713	3.1021388	1.761289
13.747633993220681	3.2064345	1.7906519
13.765287796080647	3.2541132	1.8039161
13.7829419272329	3.2949111	1.815189
13.800596387114801	3.2800372	1.8110873
13.818251176163775	3.2998767	1.8165562
13.835906294817324	3.3589091	1.8327327
13.853561743513023	3.418462	1.8489083
13.871217522688525	3.4867005	1.8672708
13.888873632781538	3.4729574	1.8635873
13.906530074229858	3.5129988	1.8742995
13.92418684747135	3.5047927	1.8721092
13.941843952943948	3.4778388	1.8648964
13.959501391085665	3.4522512	1.8580235
13.977159162334578	3.3793702	1.8383063
13.994817267128846	3.334923	1.8261771
14.012475705906693	3.2496254	1.8026718
14.030134479106424	3.1929471	1.7868819
14.047793587166414	3.1066375	1.7625656
14.065453030525108	3.0452213	1.7450563
14.083112809621026	2.9851687	1.7277641
14.100772924892766	2.9283488	1.7112418
14.118433376778997	2.8947642	1.7014006
14.136094165718458	2.8465877	1.6871834
14.153755292149969	2.79902	1.6730272
14.171416756512416	2.7279265	1.6516435
14.189078559244768	2.5987973	1.6120785
14.20674070078606	2.539235	1.5934978
14.224403181575408	2.5016859	1.5816718
14.242066002051999	2.505157	1.5827688
14.259729162655093	2.4622421	1.5691533
14.277392663824022	2.4355352	1.5606202
14.295056505998208	2.430436	1.5589856
14.312720689617128	2.4394903	1.5618868
14.330385215120348	2.4257023	1.5574666
14.348050082947497	2.4347553	1.5603702
14.3657152935383	2.434287	1.5602202
14.383380847332528	2.398721	1.5487804
14.401046744770051	2.3374803	1.528882
14.418712986290798	2.3215346	1.5236583
14.436379572334793	2.328169	1.525834
14.454046503342123	2.403394	1.5502883
14.471713779752946	2.4258919	1.5575275
14.489381402007504	2.428656	1.5584146
14.507049370546113	2.362078	1.5369053
14.524717685809168	2.359312	1.5360053
14.542386348237134	2.3201766	1.5232126
14.560055358270553	2.3276863	1.5256757
14.577724716350051	2.3842196	1.5440918
14.595394422916325	2.447325	1.5643928
14.61306447841015	2.4851959	1.5764503
14.63073488327237	2.476623	1.573729
14.648405637943917	2.5090044	1.5839837
14.6660767428658	2.4908729	1.5782499
14.683748198479094	2.4791825	1.574542
14.701420005224954	2.5328817	1.591503
14.719092163544628	2.6711977	1.6343799
14.73676467387942	2.7376986	1.6545992
14.754437536670727	2.7233906	1.6502699
14.772110752360014	2.6654332	1.6326154
14.78978432138882	2.6683846	1.633519
14.807458244198777	2.6785588	1.6366303
14.82513252123159	2.6739805	1.635231
14.842807152929028	2.6774988	1.6363064
14.860482139732962	2.6582534	1.6304151
14.87815748208531	2.6447136	1.6262575
14.8958331804281	2.659931	1.6309295
14.91350923520342	2.6412008	1.6251771
14.931185646853438	2.6716278	1.6345115
14.948862415820408	2.6650066	1.6324848
14.966539542546656	2.6506505	1.6280818
14.98421702747459	2.620043	1.6186547
15.001894871046696	2.6215417	1.6191176
15.019573073705542	2.6295571	1.621591
15.037251635893766	2.612278	1.6162543
15.054930558054092	2.621804	1.6191986
15.072609840629323	2.6777194	1.6363739
15.090289484062351	2.8431618	1.6861678
15.107969488796124	3.1137938	1.7645946
15.125649855273691	3.4486003	1.8570408
15.14333058393817	3.9132645	1.9781973
15.161011675232768	4.9469986	2.224185
15.17869312960076	6.405707	2.5309498
15.196374947485506	8.35153	2.8899014
15.214057129330447	11.576666	3.40245
15.231739675579114	16.274517	4.0341687
15.249422586675102	21.280594	4.6130896
15.267105863062092	24.33254	4.9328027
15.284789505183847	24.725224	4.9724464
15.302473513484218	22.739784	4.768625
15.320157888407127	19.210678	4.382999
15.337842630396578	15.001531	3.8731809
15.355527739896656	11.686129	3.418498
15.37321321735153	9.025785	3.0042944
15.39089906320545	6.510708	2.5516088
15.408585277902748	4.883959	2.209968
15.42627186188783	3.782818	1.9449468
15.443958815605198	3.2341263	1.7983677
15.461646139499424	2.901323	1.7033271
15.479333834015168	2.7306657	1.6524726
15.497021899597165	2.6655848	1.6326618
15.514710336690234	2.6098268	1.6154958
15.53239914573928	2.6116736	1.6160673
15.550088327189297	2.5613983	1.6004369
15.567777881485336	2.5346777	1.5920671
15.58546780907256	2.4871578	1.5770725
15.6031581103962	2.4185824	1.5551792
15.620848785901568	2.433201	1.5598722
15.638539836034063	2.4668255	1.5706131
15.656231261239173	2.4776316	1.5740495
15.673923061962451	2.4432755	1.5630981
15.691615238649552	2.4188852	1.5552766
15.709307791746202	2.4067168	1.5513597
15.727000721698221	2.4108696	1.5526975
15.744694028951498	2.41053	1.5525882
15.76238771395202	2.3852782	1.5444345
15.780081777145844	2.4024844	1.549995
15.797776218979125	2.4080737	1.5517969
15.815471039898094	2.4031627	1.5502138
15.833166240349064	2.3950357	1.5475903
15.850861820778437	2.390778	1.5462141
15.868557781632699	2.3681545	1.538881
15.886254123358412	2.3694854	1.5393133
15.903950846402232	2.355711	1.5348326
15.921647951210897	2.3587987	1.5358381
15.939345438231225	2.3531609	1.5340016
15.957043307910133	2.3672655	1.538592
15.974741560694602	2.375397	1.5412323
15.992440197031714	2.4040778	1.5505089
16.01013921736862	2.4553707	1.5669622
16.02783862215259	2.4367146	1.560998
16.045538411830933	2.3987913	1.5488032
16.06323858685107	2.3564444	1.5350715
16.080939147660512	2.3461666	1.5317202
16.09864009470684	2.3380904	1.5290816
16.11634142843774	2.3655257	1.5380266
16.134043149300954	2.3786283	1.5422802
16.15174525774433	2.4119818	1.5530556
16.169447754215817	2.4188776	1.5552741
16.18715063916342	2.439108	1.5617644
16.204853913035244	2.4545221	1.5666915
16.222557576279478	2.475324	1.5733162
16.240261629344403	22.448359	4.73797
16.257966072678386	42.971725	6.555282
16.275670906729868	38.028545	6.166729
16.293376131947387	2.4668736	1.5706284
16.31108174877957	2.5268767	1.5896152
16.328787757675133	2.5844193	1.6076128
16.34649415908287	2.6090212	1.6152465
16.364200953451657	2.605493	1.614154
16.38190814123048	2.6185489	1.618193
16.39961572286839	2.6601686	1.6310023
16.41732369881455	2.6975288	1.6424155
16.43503206951817	2.7227871	1.650087
16.45274083542859	2.7229385	1.6501329
16.47044999699522	2.7349494	1.6537682
16.488159554667558	2.770608	1.6645143
16.505869508895184	2.83239	1.6829706
16.523579860127786	2.8902202	1.7000648
16.541290608815117	2.935904	1.713448
16.559001755407035	2.9929802	1.7300231
16.57671330035348	3.0195282	1.737679
16.59442524410448	3.0756161	1.7537434
16.61213758711015	3.1557016	1.7764294
16.629850329820705	3.27314	1.8091822
16.647563472686436	3.353822	1.8313444
16.665277016157724	3.4073205	1.8458929
16.682990960685053	3.428465	1.8516114
16.70070530671898	3.4522603	1.8580259
16.718420054710155	3.501046	1.8711082
16.736135205109335	3.5420003	1.8820202
16.753850758367335	3.5646222	1.8880208
16.771566714935087	3.6008039	1.8975784
16.789283075263597	3.6492584	1.9103032
16.80699983980398	3.7429085	1.9346598
16.82471700900741	3.8191383	1.9542615
16.84243458332518	3.880528	1.9699056
16.860152563208665	3.9404478	1.9850562
16.87787094910932	3.9826643	1.9956614
16.89558974147871	4.083119	2.0206728
16.913308940768466	4.1874647	2.0463295
16.931028547430333	4.28571	2.0701957
16.94874856191613	4.303022	2.0743728
16.966468984677785	4.375446	2.0917566
16.98418981616729	4.441328	2.107446
17.00191105683676	4.5188036	2.1257477
17.019632707138374	4.5519137	2.1335216
17.03735476752442	4.5498786	2.1330445
17.05507723844728	4.561397	2.1357427
17.072800120359403	4.5912457	2.1427193
17.090523413713353	4.62715	2.151081
17.108247118961785	4.646622	2.1556025
17.125971236557437	4.6744723	2.1620529
17.143695766953133	4.698761	2.1676626
17.161420710601806	4.700924	2.1681614
17.179146067956477	4.701652	2.1683292
17.19687183947025	4.6296434	2.1516607
17.21459802559634	4.613177	2.1478307
17.232324626788028	4.653875	2.1572843
17.25005164349871	4.661804	2.1591213
17.267779076181863	4.6239977	2.1503482
17.285506925291074	4.6107783	2.1472723
17.30323519127999	4.625016	2.1505852
17.320963874602384	4.6268396	2.151009
17.33869297571211	4.5909224	2.1426437
17.356422495063114	4.5853176	2.1413355
17.37415243310944	4.5603642	2.135501
17.391882790305218	4.5565352	2.1346042
17.40961356710468	4.515199	2.1248999
17.42734476396215	4.5316415	2.1287653
17.445076381332044	4.516052	2.1251004
17.462808419668868	4.5404415	2.1308312
17.48054087942723	4.630865	2.1519444
17.498273761061835	4.95141	2.2251763
17.51600706502747	5.4919443	2.34349
17.533740791779024	6.265756	2.5031493
17.551474941771485	7.702121	2.7752695
17.56920951545993	8.781036	2.9632814
17.586944513299528	11.075222	3.3279457
17.60467993574556	12.776355	3.5744028
17.622415783253373	14.559129	3.8156426
17.64015205627843	16.054144	4.0067625
17.657888755276293	17.301384	4.1594934
17.675625880702604	17.902737	4.2311625
17.69336343301311	17.662167	4.202638
17.71110141266366	16.701836	4.0867877
17.728839820110178	15.668705	3.9583714
17.746578655808705	14.745099	3.8399348
17.764317920215372	13.258162	3.6411757
17.7820576137864	11.589797	3.4043791
17.79979773697811	9.407921	3.0672333
17.81753829024692	7.4497595	2.7294247
17.835279274049356	5.7826385	2.4047117
17.85302068884201	4.794723	2.1896856
17.870762535081607	4.1675587	2.04146
17.888504813224934	3.8961492	1.9738666
17.90624752372891	3.7322981	1.9319156
17.923990667050536	3.6230068	1.9034197
17.941734243646895	3.5612135	1.8871177
17.959478253975185	3.571606	1.8898693
17.9772226984927	3.569961	1.8894341
17.994967577656833	3.4575038	1.8594364
18.01271289192506	3.3907502	1.841399
18.030458641754965	3.3649294	1.8343744
18.04820482760425	3.306595	1.8184046
18.06595144993067	3.254017	1.8038894
18.083698509192125	3.2277436	1.7965922
18.101446005846576	3.2479267	1.8022006
18.119193940352105	3.2283587	1.7967634
18.136942313166887	3.1901715	1.7861052
18.1546911247492	3.1375177	1.771304
18.1724403755574	3.1196945	1.7662656
18.19019006604997	3.0972755	1.7599078
18.207940196685467	3.118597	1.765955
18.225690767922575	3.1076694	1.7628583
18.243441780220046	3.100005	1.7606831
18.261193234036764	3.0693893	1.7519673
18.278945129831676	3.06556	1.750874
18.29669746806386	3.0464098	1.7453967
18.314450249192483	3.0312684	1.7410538
18.3322034736768	3.0031712	1.7329661
18.349957141976184	3.0028393	1.7328702
18.3677112545501	3.033247	1.741622
18.385465811858108	3.09364	1.7588747
18.403220814359884	3.114859	1.7648964
18.420976262515172	3.1136017	1.7645401
18.43873215678387	3.1296334	1.769077
18.456488497625923	3.1722522	1.7810818
18.474245285501407	3.2843108	1.8122667
18.492002520870486	3.3049185	1.8179435
18.50976020419343	3.3614147	1.8334161
18.527518335930615	3.6271088	1.904497
18.545276916542516	4.189945	2.0469356
18.563035946489688	4.345322	2.0845437
18.580795426232832	4.804231	2.1918557
18.598555356232698	4.72009	2.172577
18.616315736950185	5.0410066	2.2452185
18.63407656884626	4.6986747	2.1676426
18.65183785238201	4.867799	2.2063088
18.669599588018617	4.606487	2.1462727
18.68736177621737	4.5875053	2.1418462
18.705124417439652	4.607485	2.1465054
18.72288751214696	4.4448633	2.1082845
18.740651060800886	4.596871	2.1440315
18.758415063863115	4.283834	2.0697424
18.77617952179546	4.4491663	2.1093047
18.793944435059814	4.211073	2.05209
18.811709804118184	4.2115803	2.0522134
18.829475629432675	4.1787577	2.044201
18.8472419114655	4.000813	2.0002031
18.86500865067897	4.1001964	2.0248942
18.88277584753551	3.7829251	1.9449743
18.90054350249763	3.8059473	1.9508837
18.918311616027957	3.474753	1.8640689
18.936080188589226	3.3504522	1.8304241
18.953849220644265	3.060827	1.749522
18.971618712656007	2.8881235	1.699448
18.9893886650875	2.8523498	1.6888901
19.007159078401887	8.015786	2.8312163
19.024929953062408	32.897766	5.735657
19.042701289532435	32.84416	5.7309823
19.060473088275405	25.400627	5.0399036
19.07824534975489	2.6482298	1.6273383
19.096018074434568	2.6267476	1.6207244
19.113791262778197	2.6127691	1.6164062
19.13156491524966	2.6248367	1.6201348
19.149339032312945	2.587576	1.6085944
19.167113614432136	2.5782175	1.6056828
19.184888662071433	2.55683	1.599009
19.202664175695123	2.5453362	1.595411
19.220440155767623	2.5589993	1.5996872
19.238216602753447	2.5582278	1.599446
19.2559935171172	2.524129	1.5887507
19.27377089932361	2.5212202	1.5878351
19.291548749837514	2.4997942	1.5810738
19.309327069123835	2.4429817	1.563004
19.32710585764763	2.3868308	1.5449371
19.344885115874032	2.4172692	1.554757
19.362664844268313	2.4730246	1.5725853
19.380445043295822	2.4957857	1.5798056
19.39822571342203	2.4617765	1.5690049
19.41600685511252	2.4503446	1.5653577
19.43378846883297	2.4625254	1.5692436
19.451570555049173	2.4553766	1.5669641
19.469353114227037	2.4735315	1.5727465
19.48713614683254	2.517128	1.586546
19.50491965333182	2.5518367	1.5974469
19.52270363419109	2.5083432	1.583775
19.540488089876686	2.4606571	1.5686482
19.55827302085503	2.4412553	1.5624517
19.576058427592674	2.4540322	1.5665351
19.593844310556282	2.4753244	1.5733163
19.611630670212598	2.506695	1.5832546
19.629417507028506	2.517006	1.5865074
19.64720482147098	2.496945	1.5801724
19.6649926140071	2.4943154	1.5793402
19.682780885104084	2.5049763	1.5827117
19.70056963522921	2.4940476	1.5792555
19.718358864849908	2.4856238	1.5765861
19.7361485744337	2.4962385	1.5799489
19.753938764448215	2.5247734	1.5889535
19.771729435361202	2.5422628	1.5944475
19.789520587640506	2.5129519	1.5852293
19.807312221754092	2.4856749	1.5766023
19.825104338170043	2.4818377	1.575385
19.842896937356517	2.4945962	1.579429
19.860690019781824	2.5235317	1.5885627
19.87848358591436	2.545039	1.5953178
19.896277636222635	2.5601563	1.6000489
19.914072171175278	2.5457437	1.5955387
19.931867191241015	2.5077715	1.5835944
19.94966269688869	2.4826655	1.5756477
19.967458688587264	2.4710147	1.5719461
19.985255166805807	2.4427423	1.5629275
20.00305213201348	2.4556758	1.5670596
20.020849584679578	2.4799006	1.57477
20.038647525273507	2.4608352	1.568705
20.05644595426477	2.4128492	1.5533348
20.07424487212299	2.4022944	1.5499337
20.092044279317903	2.4127789	1.5533122
20.109844176319353	2.4299734	1.5588372
20.127644563597304	2.432308	1.5595858
20.145445441621817	2.4478185	1.5645506
20.16324681086307	2.4869785	1.5770158
20.181048671791373	2.4777675	1.5740926
20.198851024877122	2.4322474	1.5595664
20.216653870590836	2.3837485	1.5439392
20.234457209403146	2.3627496	1.5371238
20.252261041784802	2.3326313	1.5272955
20.270065368206662	2.3789806	1.5423944
20.287870189139685	2.4036272	1.5503635
20.305675505054968	2.388826	1.5455827
20.323481316423702	2.351745	1.53354
20.341287623717207	2.333455	1.5275651
20.359094427406884	2.3461657	1.5317198
20.376901727964288	2.407085	1.5514783
20.39470952586107	2.381808	1.5433108
20.41251782156899	2.3174105	1.5223043
20.430326615559935	2.2808392	1.5102447
20.448135908305886	2.3171182	1.5222083
20.465945700278965	2.3503335	1.5330797
20.483755991951384	2.334136	1.5277879
20.50156678379548	2.3216026	1.5236806
20.519378076283708	2.3245106	1.5246346
20.537189869888635	2.3348694	1.5280279
20.55500216508294	2.3466792	1.5318874
20.572814962339415	2.3620095	1.536883
20.59062826213098	2.3570902	1.5352818
20.60844206493066	2.3595388	1.536079
20.626256371211593	2.3417315	1.5302718
20.644071181447032	2.3127031	1.5207574
20.66188649611036	2.3390203	1.5293856
20.67970231567506	2.3512998	1.5333948
20.697518640614742	2.3320029	1.5270897
20.715335471403122	2.317804	1.5224336
20.73315280851404	2.3318892	1.5270524
20.750970652421447	2.3129869	1.5208507
20.768789003599412	2.2818706	1.5105861
20.786607862522136	2.2585294	1.5028404
20.8044272296639	2.2959456	1.5152378
20.82224710549913	2.2941194	1.5146351
20.84006749050237	2.2703772	1.506777
20.857888385148268	3.8122437	1.9524968
20.8757097899116	45.898365	6.774833
20.893531705267254	64.74739	8.0465765
20.911354131690224	83.7872	9.153535
20.92917706965566	69.073326	8.311036
20.94700051963877	50.125607	7.079944
20.96482448211493	29.380741	5.4204006
20.982648957559622	4.103024	2.0255923
21.00047394644843	2.2753022	1.5084105
21.01829944925707	2.2737033	1.5078804
21.036125466461375	2.273061	1.5076674
21.053951998537297	2.2374594	1.495814
21.071779045960906	2.2092412	1.4863516
21.089606609208378	2.2202077	1.4900361
21.10743468875603	2.2193623	1.4897524
21.12526328508028	2.201757	1.4838319
21.143092398657675	2.1652138	1.4714665
21.16092202996488	2.168081	1.4724405
21.17875217947867	2.1772923	1.4755651
21.19658284767596	2.1997087	1.4831415
21.21441403503377	2.2093942	1.4864031
21.232245742029225	2.2389948	1.4963272
21.2500779691396	2.24485	1.4982823
21.26791071684227	2.2393792	1.4964556
21.28574398561475	2.2140045	1.4879532
21.30357777593465	2.1866124	1.4787198
21.321412088279704	2.1707225	1.4733372
21.339246923127792	2.1771169	1.4755056
21.357082280956888	2.1672854	1.4721704
21.3749181622451	2.1510303	1.4666392
21.392754567470647	2.1576927	1.4689087
21.41059149711187	2.162924	1.4706883
21.42842895164726	2.1576064	1.4688793
21.446266931555378	2.179398	1.4762784
21.464105437314945	2.1717186	1.4736753
21.481944469404798	2.1579158	1.4689846
21.49978402830388	2.1349783	1.4611565
21.51762411449127	2.1277413	1.4586779
21.53546472844617	2.1085925	1.4520993
21.553305870647876	2.09565	1.447636
21.571147541575865	2.0690176	1.438408
21.58898974170967	2.0486789	1.4313207
21.60683247152899	2.0835786	1.4434606
21.62467573151363	2.0863032	1.4444041
21.642519522143523	2.078818	1.4418107
21.660363843898722	2.0645633	1.4368588
21.6782086972594	2.0773876	1.4413146
21.696054082705864	2.0550134	1.4335318
21.713900000718535	2.0458207	1.4303219
21.73174645177795	2.019536	1.4211038
21.749593436364794	2.0337224	1.4260864
21.767440954959845	2.0269668	1.4237158
21.785289008044032	2.031589	1.4253383
21.803137596098388	2.0095506	1.4175862
21.820986719604086	1.9899921	1.4106708
21.838836379042412	2.0084486	1.4171975
21.85668657489478	2.026526	1.423561
21.87453730764273	2.054701	1.4334228
21.892388577767914	2.045145	1.4300857
21.91024038575213	2.0345776	1.4263862
21.928092732077285	2.0330265	1.4258424
21.945945617225426	2.0441554	1.4297396
21.963799041678694	2.0326853	1.4257227
21.981653005919398	31.329912	5.597313
21.999507510429943	78.11391	8.838207
22.01736255569286	73.08388	8.548911
22.035218142190818	4.179729	2.0444386
22.05307427040661	2.018518	1.4207456
22.07093094082315	2.0404265	1.428435
22.088788153923474	2.0785513	1.4417182
22.106645910190746	2.0854747	1.4441173
22.12450421010827	2.0509665	1.4321196
22.142363054159464	2.0048578	1.41593
22.16022244282787	2.016241	1.419944
22.178082376597164	2.0100925	1.4177773
22.195942855951145	2.0006578	1.4144461
22.213803881373742	1.9762241	1.4057823
22.231665453349002	1.9800886	1.4071562
22.24952757236111	1.9792107	1.4068443
22.26739023889438	1.9582205	1.3993644
22.28525345343323	1.9589845	1.3996372
22.30311721646225	1.9787426	1.4066778
22.320981528466113	2.0082583	1.4171304
22.33884638992964	2.0033734	1.4154058
22.356711801337788	2.0082548	1.417129
22.37457776317561	2.0168324	1.4201522
22.392444275928337	2.0351682	1.4265932
22.410311340081282	2.01239	1.4185873
22.428178956119904	2.0056043	1.4161936
22.446047124529805	1.9937708	1.4120095
22.46391584579669	1.9848266	1.4088387
22.481785120406414	1.9755138	1.4055297
22.49965494884496	1.9417318	1.3934604
22.51752533159841	1.9339131	1.3906521
22.53539626915302	1.9200612	1.3856628
22.553267761995137	1.9315293	1.3897947
22.571139810611264	1.9078158	1.381237
22.589012415488025	1.9031682	1.3795537
22.60688557711216	1.9183956	1.3850616
22.624759295970566	1.9598292	1.3999391
22.642633572550263	1.9740194	1.4049981
22.660508407338362	1.970083	1.4035964
22.67838380082217	1.9866956	1.4095019
22.696259753489077	1.9719981	1.4042785
22.714136265826614	1.9447334	1.394537
22.73201333832246	1.9422692	1.3936532
22.74989097146439	1.9359392	1.3913803
22.76776916574035	1.9407505	1.3931082
22.785647921638393	1.9274396	1.3883226
22.803527239646712	1.9552284	1.3982948
22.82140712025363	1.9332181	1.3904022
22.839287563947593	1.9106549	1.3822644
22.85716857121719	1.8853507	1.3730807
22.875050142551135	1.8825941	1.3720765
22.892932278438277	1.9168992	1.3845212
22.910814979367604	1.9526141	1.3973597
22.928698245828222	1.9620013	1.4007145
22.946582078309387	1.9297094	1.3891398
22.96446647730047	1.8893669	1.3745425
22.98235144329098	1.8488129	1.3597106
23.000236976770562	1.8688471	1.3670578
23.018123078229	1.9127306	1.383015
23.03600974815619	1.9205184	1.3858277
23.053896987042194	1.9098821	1.3819848
23.071784795377173	1.9105254	1.3822175
23.08967317365145	1.9148108	1.3837669
23.10756212235546	1.8930562	1.3758838
23.125451641979787	1.9053687	1.380351
23.143341733015134	1.9263272	1.3879219
23.161232395952357	1.9372764	1.3918607
23.179123631282426	1.9506187	1.3966455
23.197015439496468	1.9463565	1.3951188
23.214907821085717	1.9368179	1.3916961
23.23280077654157	1.8962342	1.3770382
23.250694306355538	1.9117134	1.3826473
23.268588411019277	1.8840016	1.3725893
23.28648309102458	1.8792952	1.3708739
23.304378346863356	1.8717831	1.3681313
23.322274179027676	1.8886406	1.3742782
23.340170588009723	1.8993897	1.3781835
23.358067574301852	1.9254011	1.3875883
23.37596513839651	1.944258	1.3943665
23.39386328078629	1.9424218	1.3937079
23.411762001963947	1.9651093	1.4018235
23.429661302422353	1.9894757	1.4104878
23.4475611826545	1.9802166	1.4072016
23.46546164315356	1.9746845	1.4052347
23.48336268441279	1.960163	1.4000583
23.501264306925638	1.9603022	1.400108
23.51916651118564	1.9511378	1.3968314
23.537069297686497	1.9419907	1.3935533
23.554972666922037	1.9168943	1.3845196
23.57287661938623	1.8797735	1.3710483
23.59078115557318	1.8602513	1.3639103
23.608686275977128	1.8546245	1.361846
23.62659198109246	1.9066299	1.3808078
23.6444982714137	1.9235561	1.3869232
23.66240514743549	1.9417576	1.3934696
23.68031260965263	1.9231838	1.3867891
23.698220658560068	1.887835	1.373985
23.716129294652845	1.8829063	1.3721904
23.7340385184262	1.8802221	1.3712119
23.75194833037546	1.8717028	1.3681018
23.769858730996123	1.9196392	1.3855104
23.78776972078382	1.9149923	1.3838325
23.80568130023431	1.899027	1.3780519
23.823593469843495	1.863079	1.3649465
23.841506230107424	1.8943777	1.376364
23.859419581522275	1.8997706	1.3783216
23.87733352458438	1.9095168	1.3818526
23.89524805979019	1.8993472	1.3781681
23.913163187636318	1.9317019	1.3898568
23.931078908619508	1.9680815	1.4028833
23.948995223236633	1.9504476	1.3965843
23.966912131984735	1.9576435	1.3991581
23.98482963536096	1.989933	1.4106499
24.002747733862616	1.981437	1.4076352
24.020666427987155	1.9901774	1.4107364
24.038585718232156	2.0587032	1.4348181
24.056505605095353	2.1216874	1.4566014
24.074426089074617	2.1624756	1.4705359
24.092347170667946	2.113794	1.4538893
24.110268850373515	2.0941222	1.4471083
24.128191128689586	2.066081	1.4373869
24.146114006114626	2.0416956	1.4288791
24.164037483147187	2.0351725	1.4265947
24.181961560286005	2.0269141	1.4236974
24.199886238029926	2.0528805	1.4327877
24.21781151687797	2.051837	1.4324235
24.235737397329274	2.0503366	1.4318997
24.253663879883135	2.0295122	1.4246094
24.271590965038975	2.021691	1.4218619
24.289518653296376	2.011917	1.4184207
24.30744694515505	1.9938402	1.412034
24.32537584111486	2.0141582	1.4192104
24.34330534167581	2.0416594	1.4288665
24.361235447338046	2.0587106	1.4348208
24.379166158601876	2.0825331	1.4430984
24.39709747596772	2.0982432	1.4485314
24.41502939993615	2.0590043	1.434923
24.432961931007917	2.0060654	1.4163563
24.450895069683856	2.014179	1.4192177
24.468828816465	2.0280972	1.4241128
24.4867631718525	1.9775218	1.4062438
24.504698136347656	1.9386542	1.3923557
24.52263371045192	1.9712805	1.4040229
24.540569894666874	2.0026145	1.4151376
24.558506689494266	1.9927068	1.4116327
24.57644409543597	2.0018256	1.4148588
24.594382112994012	2.0137103	1.4190526
24.61232074267057	2.015038	1.4195204
24.630259984967953	1.9896317	1.4105431
24.64819984038863	1.9559655	1.3985584
24.66614030943522	1.9516616	1.3970188
24.684081392610462	1.9759566	1.4056872
24.702023090417274	2.0218418	1.4219148
24.7199654033587	2.0163114	1.4199688
24.737908331937927	2.0235639	1.4225203
24.755851876658305	2.0499332	1.4317588
24.773796038023324	2.0791204	1.4419155
24.79174081653661	2.1183023	1.4554389
24.809686212701962	2.1428041	1.463832
24.827632227023294	2.140325	1.462985
24.8455788600047	2.123373	1.4571798
24.8635261121504	2.1244376	1.457545
24.88147398396475	2.1580112	1.469017
24.899422475952303	2.1679025	1.4723799
24.917371588617698	2.1368334	1.4617912
24.935321322465768	2.147623	1.4654771
24.953271678001478	2.2314425	1.4938014
24.97122265572994	2.4393864	1.5618535
24.989174256156414	2.8029087	1.674189
25.00712647978632	3.3174455	1.8213856
25.02507932712521	3.8967726	1.9740244
25.043032798678798	4.4498777	2.1094732
25.060986894952933	5.127436	2.2643843
25.078941616453637	5.9264355	2.434427
25.096896963687055	6.888879	2.6246674
25.114852937159508	8.07077	2.8409102
25.132809537377444	8.535229	2.9215114
25.150766764847468	8.516448	2.9182954
25.168724620076347	7.94764	2.819156
25.186683103570985	6.9344964	2.6333432
25.204642215838426	5.673724	2.381958
25.222601957385894	4.2414145	2.0594695
25.24056232872074	3.1290169	1.7689028
25.25852333035048	2.562248	1.6007023
25.276484962782778	2.201636	1.4837911
25.294447226525435	2.0816226	1.4427829
25.312410122086423	1.994039	1.4121045
25.330373649973843	1.9624709	1.4008821
25.348337810695988	1.9494615	1.3962312
25.366302604761245	1.9282519	1.3886151
25.384268032678207	1.8609532	1.3641676
25.40223409495558	1.8208041	1.3493718
25.420200792102257	1.8709639	1.3678318
25.438168124627246	1.9183915	1.3850601
25.45613609303974	1.8850121	1.3729575
25.474104697849057	1.8388499	1.356042
25.492073939564698	1.8954285	1.3767456
25.510043818696285	1.9340671	1.3907074
25.528014335753614	1.8977437	1.3775862
25.54598549124664	1.8557522	1.36226
25.56395728568544	1.8258595	1.3512437
25.58192971958028	1.83142	1.3532996
25.59990279344156	1.8562846	1.3624554
25.617876507779833	1.8708993	1.3678082
25.635850863105826	1.82464	1.3507924
25.653825859930386	1.8480173	1.359418
25.671801498764548	1.881296	1.3716035
25.68977778011949	1.9029108	1.3794603
25.707754704506524	1.9203986	1.3857845
25.725732272437153	1.855387	1.3621259
25.743710484423012	1.8494687	1.3599517
25.761689340975888	1.870307	1.3675916
25.77966884260774	1.908316	1.3814181
25.797648989830662	1.8810796	1.3715246
25.815629783156922	1.8881155	1.3740872
25.83361122309895	1.8943574	1.3763566
25.85159331016929	1.9100746	1.3820544
25.869576044880695	1.8829916	1.3722214
25.887559427746034	1.7988787	1.3412229
25.90554345927836	1.8336594	1.3541268
25.92352813999086	1.8581905	1.3631546
25.94151347039689	1.861636	1.3644178
25.959499451009965	1.7882451	1.3372529
25.97748608234374	1.8107594	1.3456446
25.995473364912062	1.8188192	1.348636
26.013461299228904	1.8207766	1.3493615
26.03144988580839	1.783736	1.3355658
26.04943912516483	1.8064834	1.3440548
26.067429017812675	1.8372161	1.3554394
26.085419564266537	1.8584374	1.3632451
26.103410765041186	1.8398447	1.3564087
26.12140262065155	1.8336568	1.3541259
26.139395131612723	1.8205994	1.3492959
26.157388298439948	1.8168498	1.3479058
26.17538212164861	1.7967647	1.3404346
26.193376601754295	1.8057108	1.3437674
26.211371739272714	1.8322664	1.3536124
26.229367534719746	1.8307598	1.3530557
26.247363988611433	1.8108382	1.3456739
26.26536110146397	1.8285633	1.3522438
26.283358873793727	1.8739634	1.3689278
26.301357306117204	1.8853165	1.3730683
26.319356398951104	1.875448	1.36947
26.33735615281224	1.8240738	1.3505827
26.35535656821762	1.8310751	1.3531722
26.373357645684404	1.8226035	1.3500383
26.39135938572991	1.8401349	1.3565156
26.409361788871614	1.8569909	1.3627145
26.427364855627165	1.8432126	1.3576497
26.445368586514352	1.8449014	1.3582715
26.46337298205115	1.8241318	1.3506043
26.48137804275568	1.774995	1.3322893
26.499383769146217	1.767732	1.3295609
26.517390161741215	1.8032472	1.3428504
26.53539722105928	1.8546555	1.3618574
26.553404947619182	1.8423005	1.3573138
26.571413341939856	1.846955	1.3590271
26.589422404540397	1.8035811	1.3429748
26.60743213594006	1.7935023	1.3392171
26.62544253665827	1.7648598	1.3284802
26.64345360721459	1.7975487	1.3407269
26.66146534812879	1.7989081	1.3412338
26.679477759920758	1.8316668	1.3533908
26.69749084311057	1.8037584	1.3430407
26.71550459821847	1.7934219	1.339187
26.733519025764842	1.7663897	1.3290559
26.751534126270258	1.8201962	1.3491465
26.769549900255434	1.8464328	1.3588351
26.787566348241267	1.8366734	1.3552393
26.80558347074881	1.7715902	1.3310109
26.823601268299267	1.7659929	1.3289067
26.841619741414036	1.8096453	1.3452306
26.85963889061465	1.8472574	1.3591385
26.877658716422832	1.8437849	1.3578604
26.89567921936045	1.8699746	1.3674701
26.913700399949544	1.8867794	1.3736008
26.93172225871233	1.8472707	1.3591434
26.949744796171174	1.7944988	1.339589
26.967768012848605	1.8070581	1.3442686
26.98579190926733	1.8342935	1.3543609
27.003816485950225	1.8866347	1.3735483
27.021841743420318	1.8791481	1.3708203
27.039867682200814	1.8160644	1.3476143
27.057894302815072	1.7645185	1.3283519
27.07592160578664	1.7719207	1.3311352
27.0939495916392	1.7808356	1.3344796
27.111978260896635	1.7804998	1.3343537
27.13000761408296	1.7667704	1.3291992
27.148037651722397	1.8337518	1.3541609
27.166068374339304	1.8508545	1.3604611
27.184099782458215	1.8398371	1.356406
27.20213187660384	1.8173196	1.34808
27.22016465730105	1.8698738	1.3674333
27.23819812507487	1.8479509	1.3593936
27.256232280450533	1.8295988	1.3526267
27.274267123953383	1.8338468	1.354196
27.292302656108987	1.849094	1.3598139
27.31033887744306	1.7868809	1.3367426
27.32837578848146	1.8030521	1.3427777
27.34641338975026	1.8467876	1.3589656
27.364451681775673	1.8175228	1.3481553
27.382490665084074	1.7665143	1.3291029
27.400530340202046	1.8161817	1.3476578
27.41857070765629	1.8981816	1.3777452
27.436611767973726	1.8714813	1.3680209
27.454653521681404	1.8151923	1.3472908
27.472695969306564	1.7881695	1.3372246
27.490739111376627	1.8063965	1.3440225
27.508782948419153	1.8026912	1.3426434
27.526827480961902	1.7777851	1.3333361
27.54487270953279	1.8249801	1.3509183
27.562918634659898	1.89221	1.3755763
27.580965256871508	1.8617347	1.364454
27.599012576696026	1.7751999	1.3323662
27.617060594662068	1.7418796	1.3198029
27.63510931129842	1.73424	1.3169055
27.65315872713401	1.7579598	1.3258808
27.67120884269797	1.8074611	1.3444185
27.68925965851958	1.8099979	1.3453616
27.707311175128307	1.8368268	1.3552958
27.725363393053787	1.867133	1.3664308
27.74341631282583	1.9054667	1.3803865
27.7614699349744	1.8513639	1.3606484
27.77952426002968	2.0196886	1.4211575
27.797579288521973	2.1198568	1.4559728
27.815635020981784	2.5080252	1.5836746
27.83369145793979	2.555317	1.5985359
27.85174859992682	2.3950436	1.5475929
27.869806447473923	2.2665062	1.505492
27.887865001112267	2.051469	1.4322951
27.905924261373233	1.9718888	1.4042395
27.92398422878836	1.9016311	1.3789964
27.94204490388936	1.8466973	1.3589324
27.96010628720813	1.836211	1.3550686
27.978168379276728	1.8431251	1.3576174
27.9962311806274	1.8608099	1.3641151
28.014294691792568	1.8608029	1.3641125
28.0323589133048	1.8463073	1.3587888
28.050423845696887	1.8052133	1.3435823
28.068489489501758	1.7896302	1.3377706
28.086555845252523	1.8226812	1.3500671
28.104622913482487	1.8627157	1.3648134
28.122690694725115	1.8734864	1.3687536
28.14075918951405	1.9155507	1.3840342
28.15882839838312	1.9396737	1.3927217
28.176898321866304	1.9544796	1.3980271
28.1949689604978	1.9189354	1.3852564
28.213040314811945	1.893971	1.3762162
28.23111238534327	1.8833357	1.3723468
28.249185172626493	1.8868626	1.3736312
28.267258677196473	1.9100063	1.3820298
28.285332899588294	1.9563563	1.3986981
28.303407840337172	1.9523185	1.397254
28.321483499978545	1.9447176	1.3945314
28.33955987904799	1.94364	1.3941449
28.357636978081285	1.9347373	1.3909483
28.37571479761439	1.9567369	1.3988341
28.393793338183425	1.9457259	1.3948928
28.41187260032469	1.9290652	1.3889079
28.429952584574686	1.9320668	1.3899881
28.448033291470065	1.9728723	1.4045897
28.46611472154769	1.9845334	1.4087347
28.484196875344566	1.9712213	1.404002
28.502279753397914	1.9545245	1.3980432
28.52036335624511	1.9429132	1.3938842
28.538447684423716	1.9732232	1.4047146
28.556532738471482	1.9743932	1.4051311
28.574618518926325	1.9905307	1.4108617
28.59270502632635	2.0155623	1.419705
28.61079226120985	2.0180275	1.420573
28.628880224115274	2.0046082	1.4158418
28.646968915581287	1.9690671	1.4032345
28.66505833614671	1.9578938	1.3992476
28.68314848635055	2.014225	1.4192339
28.701239366732004	2.024489	1.4228454
28.71933097783044	2.0308683	1.4250853
28.737423320185403	2.0198462	1.4212129
28.75551639433665	2.0450804	1.4300631
28.773610200824074	2.0812705	1.4426609
28.791704740187793	2.122552	1.4568981
28.80980001296809	2.1117141	1.4531738
28.827896019705413	2.1314533	1.4599497
28.845992760940433	2.1144457	1.4541134
28.86409023721397	2.1405108	1.4630485
28.88218844906704	2.1509123	1.4665989
28.900287397040845	2.181041	1.4768348
28.918387081676755	2.1959152	1.4818621
28.936487503516343	2.243927	1.4979743
28.954588663101365	2.266506	1.505492
28.97269056097374	2.3281112	1.5258149
28.990793197675597	2.386232	1.5447433
29.00889657374923	2.399505	1.5490335
29.027000689737125	2.3659656	1.5381696
29.04510554618196	2.4135535	1.5535616
29.06321114362659	2.4366589	1.5609801
29.08131748261405	2.4708443	1.5718919
29.099424563687567	2.4805057	1.5749621
29.11753238739057	2.465842	1.5703
29.13564095426663	2.5040705	1.5824255
29.15375026485954	2.585128	1.6078334
29.171860319713275	2.6128206	1.6164222
29.18997111937199	2.603307	1.6134766
29.20808266438002	2.7186713	1.6488394
29.226194955281898	2.8362553	1.6841185
29.244307992622335	2.8369787	1.6843333
29.26242177694624	2.8080904	1.6757358
29.2805363087987	2.8439002	1.6863867
29.29865158872498	2.8680286	1.6935256
29.316767617270557	2.8547103	1.6895888
29.334884394981064	2.8356998	1.6839536
29.353001922402367	2.928662	1.7113334
29.37112020008047	3.1135976	1.7645389
29.389239228561596	3.1897585	1.7859895
29.407359008392152	3.3136568	1.8203453
29.42547954011872	3.6801274	1.9183658
29.44360082428809	4.3322577	2.0814075
29.46172286144722	5.447684	2.3340273
29.479845652143283	7.118018	2.6679614
29.497969196923606	9.288318	3.0476742
29.516093496335728	11.935693	3.4548073
29.5342185509274	14.863576	3.855331
29.55234436124651	17.343182	4.1645145
29.570470927841175	18.623556	4.3155017
29.588598251259686	18.226624	4.269265
29.60672633205055	16.677362	4.0837927
29.624855170762405	14.357642	3.7891479
29.642984767944146	11.514907	3.3933623
29.66111512414481	8.857901	2.9762225
29.67924623991366	6.676768	2.5839443
29.697378115800138	5.1496754	2.2692897
29.71551075235387	4.163226	2.0403986
29.733644150124675	3.6995418	1.9234194
29.751778309662576	3.484116	1.8665787
29.769913231517766	3.4018848	1.84442
29.78804891624066	3.4069932	1.8458042
29.806185364381818	3.3320487	1.82539
29.82432257649206	3.3224013	1.8227456
29.842460553122333	3.3038487	1.8176492
29.86059929482382	3.2143073	1.792849
29.878738802147872	3.1831834	1.7841479
29.896879075646048	3.2561257	1.8044738
29.915020115870114	3.2797654	1.8110123
29.933161923371976	3.2373588	1.7992662
29.951304498703777	3.2055695	1.7904104
29.969447842417857	3.1647403	1.7789717
29.987591955066733	3.144675	1.7733232
30.005736837203123	3.1854038	1.78477
30.023882489379943	3.2365575	1.7990435
30.04202891215028	3.2895982	1.813725
30.060176106067455	3.3109717	1.8196076
30.078324071684946	3.310108	1.8193702
30.09647280955646	3.3170104	1.8212662
30.114622320235863	3.2654223	1.807048
30.132772604277257	3.1284292	1.7687366
30.1509236622349	3.1574874	1.776932
30.16907549466328	3.1831896	1.7841495
30.18722810211705	3.1654773	1.7791789
30.205381485151097	3.143895	1.7731032
30.22353564432045	3.0714507	1.7525555
30.241690580180403	3.0661576	1.7510448
30.25984629328638	3.0574155	1.7485467
30.278002784194037	3.0111732	1.7352732
30.296160053459246	3.0320995	1.7412925
30.314318101638033	2.980535	1.7264227
30.332476929286646	2.9379041	1.7140316
30.35063653696153	2.912966	1.7067413
30.368796925219307	2.92014	1.7088417
30.386958094616844	2.9024005	1.7036433
30.40512004571115	2.9643836	1.7217386
30.423282779059463	2.9706562	1.7235591
30.441446295219233	2.873525	1.6951475
30.459610594748067	2.8143482	1.6776019
30.47777567820382	2.8103654	1.6764145
30.495941546144504	2.8351192	1.6837813
30.51410819912835	2.7977097	1.6726356
30.532275637713795	2.7748196	1.665779
30.55044386245946	2.809854	1.6762619
30.56861287392416	2.883205	1.6980003
30.586782672666956	2.90156	1.7033967
30.604953259247047	2.8814368	1.6974796
30.623124634223885	2.8527744	1.6890157
30.641296798157075	2.8447354	1.6866343
30.659469751606462	2.776671	1.6663346
30.677643495132074	2.730948	1.652558
30.695818029294152	2.7285628	1.6518362
30.713993354653116	2.8072908	1.6754972
30.73216947176962	2.8394887	1.6850783
30.75034638120448	2.8270376	1.6813797
30.768524083518756	2.8251834	1.6808282
30.786702579273673	2.8355582	1.6839116
30.80488186903069	2.8688202	1.6937592
30.82306195335144	2.950643	1.7177436
30.841242832797782	3.1272078	1.7683913
30.85942450793176	3.4411478	1.8550332
30.877606979315637	3.8936772	1.9732403
30.895790247511883	4.277859	2.0682986
30.913974313083134	4.6406984	2.154228
30.932159176592283	4.8406725	2.2001529
30.95034483860237	4.852392	2.2028146
30.968531299676698	4.6944847	2.166676
30.98671856037873	4.383637	2.0937138
31.00490662127215	3.988971	1.9972409
31.023095482920848	3.4535265	1.8583666
31.04128514588892	3.0092275	1.7347125
31.059475610740662	2.7270164	1.651368
31.07766687804056	2.5702744	1.6032075
31.09585894835335	2.504474	1.582553
31.11405182224393	2.5087621	1.5839072
31.132245500277417	2.5205493	1.5876238
31.15043998301914	2.4736345	1.5727792
31.168635271034628	2.497082	1.5802158
31.18683136488964	2.4382818	1.5614998
31.20502826515008	2.4215713	1.5561398
31.223225972382135	2.4857135	1.5766146
31.241424487152155	2.5304506	1.590739
31.259623810026692	2.4817524	1.5753579
31.27782394157253	2.4952452	1.5796345
31.296024882356644	2.510134	1.5843402
31.314226632946237	2.4605162	1.5686033
31.332429193908684	2.470897	1.5719087
31.350632565811598	2.4138055	1.5536426
31.368836749222787	2.3624613	1.53703
31.387041744710295	2.401449	1.5496609
31.40524755284232	2.482715	1.5756633
31.423454174187317	2.4918616	1.5785631
31.441661609313922	2.4880557	1.5773572
31.459869858791002	2.434405	1.560258
31.478078923187628	2.404657	1.5506957
31.496288803073064	2.339583	1.5295695
31.514499499016807	2.2465198	1.4988395
31.532711011588546	2.2143369	1.4880648
31.550923341358178	2.2771528	1.5090238
31.56913648889584	2.2943535	1.5147123
31.587350454771844	2.2964587	1.5154071
31.605565239556732	2.3399892	1.5297023
31.62378084382127	2.4096007	1.5522889
31.641997268136382	2.3950815	1.547605
31.660214513073274	2.3745177	1.540947
31.67843257920331	2.3958547	1.5478549
31.6966514670981	2.4251094	1.5572762
31.71487117732944	2.3624954	1.5370411
31.733091710469346	2.3056118	1.5184242
31.751313067090052	2.2771304	1.5090164
31.769535247764008	2.3421063	1.5303942
31.787758253063878	2.3635993	1.5374001
31.805982083562526	2.2690787	1.5063461
31.824206739833024	2.221785	1.4905653
31.84243222244869	2.243649	1.4978815
31.860658531983013	2.2661138	1.5053617
31.878885669009737	2.245715	1.4985709
31.897113634102784	2.2146802	1.4881802
31.91534242783632	2.2257898	1.4919081
31.933572050784694	2.2636116	1.5045303
31.951802503522508	2.294356	1.5147132
31.970033786624548	2.310513	1.5200372
31.988265900665834	2.1852944	1.4782741
32.006498846221575	2.1646447	1.4712732
32.02473262386724	2.120786	1.4562918
32.04296723417845	2.1446495	1.4644622
32.0612026777311	2.1025941	1.4500325
32.07943895510129	2.085645	1.4441762
32.097676066865304	2.0532641	1.4329215
32.115914013599685	2.1487317	1.4658552
32.13415279588115	2.1657531	1.4716498
32.152392414286666	2.1368136	1.4617844
32.1706328693934	2.1354103	1.4613043
32.18887416177875	2.1440468	1.4642564
32.20711629202032	2.1446023	1.4644461
32.225359260695924	2.1222887	1.4568077
32.243603068383614	2.1368616	1.4618008
32.26184771566166	2.1035511	1.4503624
32.28009320310852	2.0814161	1.4427114
32.2983395313029	2.1294482	1.4592628
32.31658670082372	2.1713443	1.4735482
32.33483471225012	2.194766	1.4814743
32.35308356616143	2.161772	1.4702966
32.371333263137245	2.2028756	1.4842087
32.38958380375734	2.1835942	1.4776989
32.407835188601744	2.124215	1.4574686
32.42608741825067	2.1112726	1.4530219
32.444340493284585	2.1368606	1.4618005
32.46259441428416	2.1128569	1.4535669
32.48084918183028	2.1093073	1.4523455
32.49910479650405	2.074801	1.4404169
32.51736125888683	1.9789968	1.4067682
32.53561856956014	1.9527276	1.3974003
32.5538767291058	1.9596003	1.3998573
32.572135738105764	1.9857916	1.4091811
32.59039559714228	2.018221	1.4206411
32.608656306797776	2.1029806	1.4501657
32.62691786765491	2.178476	1.4759662
32.645180280296586	2.0855894	1.444157
32.663443545305896	1.9953235	1.4125593
32.68170766326619	2.0184913	1.4207362
32.69997263476099	1.9824651	1.4080003
32.7182384603741	1.9113052	1.3824996
32.7365051406895	1.8939656	1.3762143
32.75477267629144	1.8898765	1.3747278
32.77304106776434	1.9156492	1.3840698
32.79131031569289	1.9610926	1.4003901
32.809580420661966	1.899083	1.3780723
32.827851383256714	1.9320624	1.3899865
32.84612320406245	1.9590411	1.3996575
32.86439588366476	2.024249	1.4227611
32.88266942264945	2.03358	1.4260365
32.9009438216025	2.0174527	1.4203706
32.9192190811102	1.9828783	1.4081471
32.937495201758985	1.9660069	1.4021437
32.95577218413556	1.9156325	1.3840637
32.974050028826866	1.8651302	1.3656977
32.992328736420035	1.7505336	1.3230773
33.010608307502444	1.8074917	1.3444299
33.02888874266169	1.9621512	1.400768
33.047170042485604	2.087974	1.4449824
33.06545220756225	2.0167148	1.4201108
33.083735238479896	1.9169472	1.3845387
33.10201913582707	2.010423	1.4178939
33.12030390019248	2.0400035	1.4282869
33.138589532165135	1.9011343	1.3788162
33.15687603233419	1.811446	1.3458997
33.17516340128909	1.8300189	1.3527819
33.19345163961947	1.8937232	1.3761262
33.211740747915215	1.8770906	1.3700695
33.23003072676643	1.8764753	1.369845
33.248321576763466	1.9441116	1.394314
33.266613298496885	2.0508072	1.4320639
33.28490589255747	2.0530303	1.4328399
33.30319935953626	2.1086745	1.4521276
33.32149370002451	2.0362697	1.4269792
33.339788914613706	1.961311	1.4004681
33.358085003895575	1.9824901	1.4080093
33.376381968462034	2.0088851	1.4173515
33.39467980890529	1.9208008	1.3859296
33.41297852581774	1.8614068	1.3643339
33.43127811979204	1.9376194	1.391984
33.44957859142105	1.934164	1.3907423
33.467879941297866	1.9223107	1.3864743
33.486182170015844	1.9583067	1.3993951
33.50448527816853	1.8847471	1.3728609
33.522789266349754	1.9118491	1.3826963
33.541094135153514	1.9662702	1.4022375
33.55939988517411	1.9186145	1.3851407
33.57770651700602	1.8688142	1.3670458
33.59601403124398	1.8726574	1.3684508
33.61432242848296	1.9070203	1.380949
33.632631709318154	1.9381403	1.392171
33.650941874344994	1.917205	1.3846318
33.66925292415916	1.8412973	1.3569441
33.68756485935654	1.9142514	1.3835647
33.70587768053328	1.9855852	1.4091079
33.724191388285746	1.9924849	1.4115541
33.74250598321054	1.9158005	1.3841244
33.760821465904506	1.8827062	1.3721174
33.77913783696474	1.9429228	1.3938876
33.79745509698852	2.0330088	1.4258362
33.815773246573414	1.9942049	1.4121631
33.8340922863172	1.906482	1.3807541
33.852412216817896	2.0305543	1.4249752
33.87073303867377	2.0870628	1.444667
33.889054752483304	2.0688105	1.438336
33.907377358845245	2.0312998	1.4252368
33.92570085835853	2.0714653	1.4392586
33.94402525162239	2.1595788	1.4695505
33.96235053923627	2.279832	1.5099112
33.980676721799824	2.1816757	1.4770497
33.999003799912984	1.9511456	1.3968341
34.01733177417592	1.7564069	1.325295
34.03566064518901	1.7728271	1.3314755
34.0539904135529	1.8283021	1.3521472
34.07232107986846	1.8341986	1.3543259
34.090652644736785	1.813119	1.3465211
34.108985108759235	1.780292	1.3342758
34.12731847253742	1.8092449	1.3450817
34.14565273667313	1.8304423	1.3529384
34.16398790176847	2.0083911	1.4171772
34.18232396842574	2.0179312	1.420539
34.20066093724749	1.9827263	1.4080932
34.21899880883651	1.9833436	1.4083123
34.23733758379583	1.8827152	1.3721207
34.25567726272874	1.846304	1.3587878
34.27401784623872	1.9107087	1.3822838
34.29235933492957	1.9861169	1.4092966
34.31070172940526	1.9843024	1.4086527
34.32904503027003	2.0338588	1.4261342
34.347389238128386	2.0705874	1.4389535
34.36573435358502	1.9766973	1.4059507
34.38408037724492	1.9008217	1.3787029
34.402427309713296	1.7645966	1.3283812
34.42077515159559	1.8031502	1.3428143
34.43912390349752	1.8640963	1.3653191
34.45747356602499	1.9699452	1.4035474
34.47582413978423	2.0492706	1.4315274
34.49417562538163	1.9689112	1.4031789
34.51252802342388	1.9391065	1.392518
34.53088133451789	2.0339491	1.4261659
34.54923555927084	2.0275688	1.4239273
34.567590698290104	1.9697065	1.4034623
34.58594675218336	1.972094	1.4043126
34.6043037215585	2.1175067	1.4551655
34.62266160702365	2.0883102	1.4450986
34.641020409187234	2.0134058	1.4189453
34.65938012865785	2.0496874	1.4316729
34.677740766044394	2.0144398	1.4193096
34.69610232195598	1.9481019	1.3957442
34.714464797002016	1.869179	1.3671793
34.73282819179208	1.7650701	1.3285594
34.751192506936064	1.6698697	1.2922344
34.76955774304408	1.7059251	1.3061106
34.7879239007265	1.6337048	1.2781646
34.80629098059391	1.5639579	1.250583
34.824658983257194	1.8129187	1.3464466
34.843027909327446	2.0407255	1.4285396
34.86139775941603	2.0214741	1.4217856
34.879768534134534	1.8471177	1.3590871
34.89814023409483	1.7612379	1.3271164
34.91651285990901	1.9324766	1.3901355
34.93488641218944	2.0979958	1.448446
34.95326089154871	2.0030978	1.4153084
34.97163629859967	1.9059899	1.3805759
34.99001263395542	1.9730349	1.4046476
35.00838989822934	2.0756228	1.4407022
35.02676809203499	1.9863816	1.4093906
35.04514721598624	1.7412398	1.3195604
35.063527270697215	1.7042222	1.3054587
35.081908256782256	1.9842485	1.4086336
35.10029017485597	1.9144148	1.3836238
35.11867302553321	1.9270678	1.3881887
35.137056809429104	2.1016037	1.4496909
35.155441527159006	2.1823018	1.4772615
35.173827179338524	2.1849794	1.4781677
35.19221376658354	2.0227156	1.422222
35.21060128951017	1.8842871	1.3726934
35.2289897487348	1.8940196	1.3762338
35.24737914487405	1.8611401	1.3642361
35.26576947854479	1.8239824	1.3505489
35.28416075036418	1.9942715	1.4121867
35.30255296094958	2.24809	1.4993632
35.32094611091867	2.0650802	1.4370387
35.33934020088932	1.8645482	1.3654846
35.35773523147969	1.9199407	1.3856193
35.3761312033082	1.99961	1.4140756
35.394528116993506	1.993709	1.4119875
35.41292597315452	1.887367	1.3738148
35.431324772410434	2.1517928	1.466899
35.449724515380666	2.3431768	1.5307438
35.46812520268491	2.3204477	1.5233016
35.486526834943106	2.295094	1.5149567
35.504929412775454	2.1778383	1.4757501
35.52333293680242	2.3454366	1.5314819
35.54173740764471	2.4176643	1.554884
35.560142825923286	1.6932089	1.3012336
35.5785491922594	1.5357059	1.239236
35.59695650727454	1.5053205	1.226915
35.61536477159042	1.5606846	1.2492737
