0.008763373481513119	0.0	0.0
0.026290120649546365	0.0	0.0
0.043816868432600686	0.03550094	0.18841693
0.06134361724069026	0.082251735	0.28679565
0.07887036748382949	0.09020074	0.30033436
0.0963971195720331	0.10669297	0.3266389
0.11392387391531617	0.056412775	0.23751374
0.1314506309236943	0.040605724	0.20150863
0.1489773910071836	0.07086154	0.2661983
0.16650415457580078	0.065417096	0.25576767
0.18403092203956356	0.09000355	0.3000059
0.20155769380849	0.06359682	0.2521841
0.2190844702925996	0.052932087	0.23006974
0.2366112519019124	0.06516146	0.25526744
0.2541380390464497	0.16817841	0.4100956
0.27166483213623416	0.25435007	0.5043313
0.28919163158128947	0.28426254	0.5331628
0.3067184377916406	0.24157065	0.49149838
0.324245251177314	0.1595355	0.39941895
0.34177207214833777	0.093086444	0.3051007
0.3592989011147415	0.09391529	0.30645603
0.37682573848655654	0.048327677	0.21983556
0.39435258467381573	0.07459741	0.27312526
0.41187944008655414	0.090217546	0.30036235
0.42940630513480854	0.10421102	0.32281733
0.446933180228618	0.1326106	0.36415738
0.4644600657780234	0.16336071	0.40417907
0.48198696219306775	0.17292883	0.41584712
0.49951386988379676	0.21119829	0.45956314
0.5170407892602581	0.21493842	0.46361452
0.5345677207325025	0.23333131	0.4830438
0.5520946647105822	0.21503237	0.46371582
0.5696216216045534	0.20107378	0.4484125
0.5871485918244737	0.1918359	0.43799075
0.6046755757804043	0.23769046	0.4875351
0.6222025738824094	0.25367725	0.50366384
0.6397295865405557	0.2524347	0.5024288
0.6572566141649129	0.22915341	0.4786997
0.6747836571655547	0.1763212	0.41990617
0.6923107159525568	0.18622877	0.4315423
0.7098377909359992	0.19885887	0.44593596
0.7273648825259653	0.1944787	0.4409974
0.7448919911325411	0.19186392	0.43802273
0.762419117165817	0.17142382	0.4140336
0.7799462610358868	0.18753748	0.43305597
0.7974734231528482	0.20405422	0.4517236
0.8150006039268024	0.22825235	0.47775763
0.8325278037678551	0.2180022	0.46690705
0.8500550230861152	0.20852607	0.45664656
0.8675822622916969	0.21714263	0.46598566
0.8851095217947171	0.24294168	0.49289113
0.9026368020052984	0.23806323	0.48791724
0.9201641033335665	0.20760189	0.4556335
0.9376914261896523	0.16593613	0.4073526
0.9552187709836915	0.18342806	0.42828503
0.9727461381258234	0.23088159	0.48050138
0.990273528026193	0.279673	0.5288412
1.0078009410949496	0.29242086	0.5407595
1.0253283777422473	0.28910866	0.53768826
1.0428558383782454	0.28671938	0.53546184
1.0603833234131086	0.28409034	0.53300124
1.0779108332570058	0.2846664	0.5335414
1.0954383683201119	0.29696828	0.544948
1.112965929012607	0.31430689	0.5606308
1.1304935157446763	0.4604871	0.67859197
1.1480211289265108	0.48032615	0.6930556
1.1655487689683062	1.3545097	1.1638341
1.1830764362802655	1.6647838	1.2902651
1.200604131272596	2.0419104	1.4289544
1.2181318543555117	2.213001	1.4876158
1.235659605939232	2.2619402	1.5039748
1.253187386433982	3.9323428	1.9830135
1.270715196249994	6.4816103	2.5459006
1.2882430357975057	12.082508	3.4759903
1.3057709054867608	16.55504	4.0687885
1.3232988057280106	21.985876	4.68891
1.3408267369315112	26.662962	5.163619
1.358354699507526	30.293264	5.5039315
1.3758826938663256	34.211647	5.8490725
1.3934107204181858	36.128685	6.010714
1.410938779573391	36.45172	6.037526
1.4284668717422309	36.890247	6.0737343
1.4459949973350033	36.645775	6.0535755
1.4635231567620117	36.56113	6.04658
1.4810513504335687	35.709675	5.975757
1.4985795787599925	34.826286	5.90138
1.5161078421516088	34.437912	5.8683825
1.5336361410187505	33.895428	5.821978
1.5511644757717598	34.137257	5.8427095
1.5686928468209842	34.85095	5.903469
1.58622125457678	35.18479	5.931677
1.6037496994495108	36.66192	6.0549088
1.621278181849548	36.627277	6.0520473
1.6388067021872719	37.290424	6.1065884
1.6563352608730693	36.33807	6.0281067
1.673863858317336	35.463146	5.9550943
1.6913924949304753	35.018585	5.91765
1.7089211711228998	34.294933	5.856188
1.7264498873050296	33.403942	5.7796144
1.7439786438872935	32.337765	5.6866302
1.7615074412801288	31.198978	5.5856047
1.779036279893981	30.266668	5.501515
1.796565160139305	29.314487	5.4142857
1.814094082426564	28.613325	5.3491426
1.8316230471662298	28.0934	5.3003206
1.849152054768784	27.326761	5.2275004
1.8666811056447168	26.823164	5.1791086
1.8842102002045273	26.103298	5.1091385
1.901739338858724	25.79355	5.0787354
1.9192685220178245	25.164516	5.0164247
1.9367977500923557	24.329126	4.9324565
1.9543270234928547	23.672655	4.865455
1.971856342629867	23.030087	4.7989674
1.9893857079139496	22.757963	4.7705307
2.006915119755667	22.282314	4.7204146
2.0244445785655945	21.963737	4.6865487
2.0419740847543175	21.548285	4.642013
2.0595036387324317	21.169775	4.6010623
2.0770332409105414	20.510979	4.528905
2.094562891699263	20.08626	4.4817696
2.1120925915092217	19.476887	4.4132624
2.129622340751053	19.198523	4.381612
2.1471521398354043	187.2503	13.683944
2.1646819891729323	443.73166	21.06494
2.182211889174303	440.14084	20.979534
2.1997418402501974	452.60806	21.274588
2.2172718428113023	432.57562	20.798452
2.234801897268317	320.3465	17.898226
2.2523320040319548	16.88286	4.1088758
2.269862163512935	16.723917	4.0894885
2.287392376121992	16.598848	4.074168
2.304922642269869	16.292078	4.0363445
2.322452962367322	15.841452	3.980132
2.3399833368251164	15.481915	3.9347064
2.357513766054032	15.117854	3.8881686
2.3750442504648586	14.780027	3.84448
2.3925747904683963	14.443488	3.800459
2.410105386475459	14.083066	3.752741
2.4276360388968707	14.029972	3.7456605
2.445166748143469	13.832804	3.7192478
2.4626975146261025	13.59428	3.6870422
2.4802283387556323	13.177845	3.63013
2.4977592209429305	12.977942	3.6024911
2.5152901615988825	12.843438	3.5837743
2.5328211611343865	12.800897	3.5778341
2.5503522199603523	12.543253	3.5416455
2.5678833384877024	12.392997	3.5203688
2.5854145171273712	12.148706	3.4854994
2.6029457562903064	11.900635	3.4497297
2.620477056387469	11.759797	3.429256
2.6380084178298326	11.537104	3.3966312
2.655539841028383	11.458637	3.3850608
2.673071326394119	11.295219	3.360836
2.6906028743380523	11.026663	3.320642
2.708134485271211	10.766455	3.2812276
2.7256661596046325	10.380549	3.221886
2.743197897749369	10.16033	3.1875272
2.760729700116486	10.231141	3.1986156
2.778261567117063	10.263772	3.2037122
2.795793499162193	10.170069	3.1890545
2.8133254966629817	10.036594	3.1680584
2.830857560030551	9.7393465	3.1207926
2.8483896896760337	9.429739	3.070788
2.865921886010578	9.207847	3.0344434
2.883454149445347	9.05835	3.0097091
2.9009864803915177	9.089224	3.014834
2.91851887926028	8.981697	2.996948
2.9360513464628384	8.972367	2.995391
2.953583882410413	8.696048	2.9489062
2.9711164875142373	8.631028	2.9378612
2.9886491621855606	8.576884	2.9286318
3.0061819068356455	8.437198	2.9046855
3.023714721875769	8.323252	2.8850045
3.041247607717225	8.2923	2.8796353
3.0587805647713213	8.350225	2.8896756
3.0763135934493806	8.261755	2.874327
3.0938466941627407	8.000908	2.8285875
3.1113798673227544	7.758224	2.785359
3.1289131133407904	7.69706	2.7743576
3.1464464326282315	7.622283	2.7608483
3.1639798255964786	7.494134	2.7375417
3.1815132926569443	7.3517075	2.7114031
3.1990468342210603	7.3275843	2.7069511
3.216580450700272	7.264753	2.6953206
3.2341141425060416	7.3075137	2.7032413
3.251647910049847	7.3285165	2.7071233
3.2691817537431813	7.216271	2.6863117
3.286715673997555	7.08048	2.660917
3.3042496712244938	6.9171734	2.630052
3.32178374583554	6.839781	2.6152976
3.339317898242251	6.7909093	2.6059372
3.3568521288562034	6.77108	2.60213
3.3743864380889876	6.738705	2.5959015
3.3919208263522127	6.703351	2.589083
3.4094552940575023	6.472781	2.544166
3.4269898416164972	6.404138	2.53064
3.444524469440858	6.4200478	2.5337813
3.4620591779422587	6.3779	2.5254505
3.479593967532391	6.3506527	2.52005
3.4971288386229658	6.222345	2.4944627
3.5146637916257086	6.2706017	2.504117
3.5321988269523628	6.287609	2.5075104
3.5497339450146903	6.2743077	2.5048568
3.5672691462244708	6.2022204	2.4904258
3.5848044309934988	6.1504545	2.480011
3.60233979973359	6.10075	2.4699695
3.619875252856575	6.1089683	2.4716327
3.6374107907743034	6.112939	2.4724357
3.6549464138986427	6.203387	2.49066
3.6724821226414788	6.196733	2.4893239
3.690017917414714	6.259987	2.5019965
3.7075537986302702	6.261877	2.5023742
3.7250897667000857	6.327723	2.5154965
3.7426258220361235	6.4474807	2.5391889
3.7601619650503553	6.684627	2.5854645
3.777698196154779	7.22243	2.687458
3.7952345157614067	8.296577	2.880378
3.8127709242822716	9.076242	3.0126803
3.830307422129425	11.182021	3.343953
3.847844009714936	30.026115	5.479609
3.8653806874508954	97.47271	9.872827
3.882917455749409	96.7482	9.836066
3.900454315022606	96.46268	9.821542
3.917991265682631	41.053158	6.407274
3.9355283081416506	10.724029	3.2747562
3.9530654428118495	8.633044	2.9382043
3.970602670105433	7.3990326	2.7201164
3.9881399904346244	6.4863534	2.546832
4.005677404211669	6.351535	2.520225
4.023214911848827	6.292943	2.508574
4.0407525137583855	6.157519	2.4814348
4.058290210352644	6.1402225	2.4779472
4.075828002043927	6.1151385	2.4728806
4.0933658892445814	6.117676	2.4733937
4.110903872366966	6.0927806	2.468356
4.128441951823468	5.975169	2.4444158
4.145980128026488	6.082345	2.4662411
4.163518401388452	6.104674	2.470764
4.181056772321807	6.135711	2.4770367
4.1985952412390155	6.0411825	2.4578817
4.216133808552567	5.9763722	2.444662
4.233672474674966	6.011492	2.4518344
4.251211240018741	6.2007318	2.4901268
4.268750104996445	6.4376636	2.537255
4.286289070020643	7.5330353	2.7446375
4.303828135503928	9.201408	3.0333824
4.3213673018589125	29.52592	5.433776
4.3389065694982305	90.55127	9.515843
4.356445938834537	165.53154	12.865906
4.3739854102805085	170.91464	13.073433
4.391524984248844	171.86987	13.109915
4.409064661152262	136.0971	11.666066
4.426604441403504	96.43971	9.820373
4.444144325415337	75.5511	8.692014
4.461684313600543	21.501598	4.6369815
4.47922440637193	21.798082	4.668842
4.496764604142329	20.136843	4.4874096
4.5143049073245916	18.076244	4.2516165
4.531845316331589	15.951375	3.9939172
4.5493858315762195	13.12136	3.6223419
4.566926453471405	10.918384	3.3042977
4.584467182430081	8.883831	2.9805756
4.602008018865218	7.764412	2.7864695
4.619548963189798	7.1798725	2.6795285
4.637090015816834	6.6984935	2.5881448
4.654631177159353	6.47434	2.5444725
4.672172447630417	6.177323	2.4854221
4.689713827643102	6.0732937	2.4644053
4.7072553176105085	5.953461	2.4399714
4.724796917945764	5.8010244	2.4085317
4.742338629062015	5.69652	2.3867383
4.759880451372434	5.672153	2.3816283
4.777422385290215	5.6508455	2.3771508
4.794964431228581	5.655999	2.3782344
4.812506589600768	5.5718684	2.3604805
4.830048860820047	5.49886	2.3449647
4.847591245299709	5.5164013	2.348702
4.8651337434530655	5.482396	2.3414516
4.882676355693457	5.497825	2.3447442
4.900219082434242	5.4474897	2.3339858
4.917761924088813	5.4169645	2.3274374
4.935304881070575	5.4159136	2.3272116
4.952847953792969	5.420898	2.328282
4.970391142669449	5.4016705	2.3241494
4.9879344481135055	5.394145	2.3225298
5.005477870538642	5.352229	2.3134885
5.023021410358394	5.304702	2.3031938
5.040565067986324	5.287906	2.2995448
5.05810884383601	5.3107967	2.3045166
5.075652738321066	5.291361	2.3002958
5.09319675185512	5.338815	2.3105876
5.110740884851836	5.304009	2.3030434
5.128285137724894	5.293718	2.3008082
5.145829510888007	5.2561812	2.2926364
5.163374004754908	5.2355647	2.2881355
5.1809186197393595	5.246651	2.290557
5.198463356255145	5.245732	2.2903562
5.216008214716077	5.2313037	2.2872043
5.233553195535998	5.196101	2.2794957
5.251098299128764	5.219425	2.2846062
5.268643525908272	5.20112	2.2805965
5.286188876288432	5.175886	2.2750573
5.3037343506831895	5.0041666	2.2369995
5.32127994950651	4.9526825	2.2254622
5.3388256731723915	4.9138594	2.2167227
5.356371522094851	5.015073	2.239436
5.373917496687938	5.0463824	2.2464154
5.391463597365729	5.0606728	2.249594
5.40900982454232	5.0670443	2.2510097
5.426556178631843	5.0188203	2.2402723
5.444102660048449	5.016335	2.2397177
5.4616492692063225	4.9901004	2.2338533
5.479196006519669	5.0060916	2.2374296
5.496742872402727	4.958422	2.2267516
5.514289867269756	5.0149856	2.2394164
5.531836991535049	4.977741	2.231085
5.549384245612924	5.006385	2.2374952
5.566931629917724	5.0905356	2.2562215
5.584479144863822	5.0915346	2.256443
5.6020267908656205	5.131624	2.2653089
5.619574568337545	5.043209	2.245709
5.637122477694054	4.9606004	2.2272406
5.654670519349629	4.9386115	2.2222986
5.672218693718784	4.9753737	2.2305546
5.689767001216059	5.021588	2.24089
5.707315442256021	5.097611	2.257789
5.724864017253266	5.102847	2.2589483
5.7424127266224225	5.103427	2.2590766
5.75996157077814	5.1080766	2.2601054
5.777510550135105	5.109772	2.2604806
5.795059665108022	5.0942116	2.257036
5.812608916111639	5.1323113	2.2654605
5.830158303560715	5.1962366	2.2795255
5.847707827870055	5.184003	2.2768404
5.86525748945448	5.216541	2.283975
5.8828072887288485	5.3785563	2.3191714
5.900357226108044	5.475099	2.3398929
5.917907302006979	5.6106954	2.3686907
5.9354575168406	6.2424603	2.4984915
5.9530078710238765	6.8387494	2.6151004
5.970558364971812	7.3237796	2.7062483
5.988108999099438	7.661115	2.7678719
6.005659773821818	8.228535	2.8685422
6.023210689554039	8.0660515	2.8400795
6.040761746711227	8.490987	2.9139297
6.058312945708531	7.7382917	2.7817786
6.075864286961132	7.2037334	2.6839771
6.093415770884244	6.509037	2.5512815
6.1109673978931065	5.9967017	2.4488163
6.128519168402993	5.45585	2.335776
6.146071082829204	5.308249	2.3039637
6.163623141587075	5.106445	2.2597444
6.181175345091969	4.968605	2.2290368
6.198727693759281	4.95795	2.2266455
6.216280188004435	4.9988956	2.235821
6.233832828242885	5.038425	2.2446437
6.251385614890126	5.084583	2.254902
6.268938548361669	5.035535	2.2439997
6.286491629073067	4.923495	2.218895
6.304044857439898	4.92192	2.21854
6.321598233877777	4.88639	2.2105181
6.339151758802344	4.8898587	2.2113025
6.356705432629277	4.845824	2.2013233
6.37425925577428	4.8530664	2.2029676
6.391813228653095	4.8436866	2.2008376
6.409367351681486	4.8855286	2.210323
6.426921625275259	4.9254827	2.219343
6.44447604985025	4.9221144	2.2185838
6.46203062582232	4.9583254	2.2267299
6.47958535360737	4.962145	2.2275872
6.497140233621328	4.9927745	2.2344518
6.514695266280161	4.917279	2.2174938
6.532250451999859	4.851597	2.202634
6.549805791196454	4.8213162	2.1957495
6.567361284286002	4.8696136	2.20672
6.584916931684597	4.9148774	2.2169523
6.602472733808367	4.9259405	2.219446
6.6200286910734665	4.950779	2.2250347
6.637584803896092	4.869903	2.2067857
6.655141072692462	4.8564396	2.2037332
6.672697497878842	4.846707	2.2015238
6.690254079871514	4.8572664	2.2039206
6.707810819086808	4.896389	2.2127786
6.725367715941078	4.867863	2.2063234
6.742924770850719	4.872898	2.2074642
6.760481984232151	4.850387	2.2023594
6.778039356501836	4.8413405	2.2003047
6.795596888076266	4.848059	2.2018309
6.813154579371963	4.858149	2.2041209
6.830712430805492	4.844574	2.2010393
6.84827044279344	4.878977	2.2088406
6.865828615752445	4.926217	2.2195084
6.883386950099159	4.985768	2.2328832
6.900945446250287	4.9533405	2.2256103
6.918504104622553	4.9121256	2.2163315
6.936062925632727	4.9087925	2.2155795
6.953621909697607	4.9401813	2.222652
6.971181057234028	5.0200768	2.2405527
6.988740368658859	5.0107255	2.238465
7.006299844389007	5.035964	2.2440953
7.023859484841407	5.089875	2.2560751
7.041419290433036	5.170442	2.2738607
7.058979261580902	5.3931994	2.3223262
7.0765393987020495	5.6548133	2.3779852
7.094099702213559	5.966667	2.4426763
7.111660172532549	6.185391	2.4870446
7.129220810076164	6.4330764	2.536351
7.146781615261595	6.87957	2.6228933
7.16434258850606	7.1542754	2.6747477
7.181903730226821	7.530754	2.744222
7.1994650408411704	7.731071	2.7804804
7.217026520766437	7.8795033	2.8070452
7.234588170419983	8.147385	2.8543625
7.252149990219215	8.23719	2.8700507
7.269711980581568	8.191721	2.8621182
7.2872741419245175	8.108402	2.8475256
7.304836474665574	7.767728	2.7870643
7.322398979222286	7.4336934	2.72648
7.339961656012233	7.08157	2.661122
7.357524505453039	6.665352	2.5817342
7.375087527962357	6.3690696	2.5237017
7.392650723957886	6.1057963	2.470991
7.410214093857353	5.814912	2.4114127
7.427777638078528	5.6586633	2.3787944
7.445341357039213	5.4777594	2.3404613
7.4629052511572525	5.312893	2.3049715
7.480469320850524	5.2313933	2.287224
7.498033566536948	5.1359305	2.2662592
7.5155979886344735	5.1229763	2.2633994
7.5331625875610975	5.1253557	2.2639248
7.550727363734844	5.1709523	2.2739727
7.568292317573788	5.156729	2.2708433
7.585857449496025	5.109826	2.2604923
7.603422759919705	5.092377	2.2566297
7.620988249263007	5.0885224	2.2557755
7.638553917944147	5.081936	2.254315
7.656119766381391	5.098531	2.2579927
7.673685794993023	5.1098924	2.260507
7.691252004197388	5.150938	2.2695677
7.70881839441285	5.1197734	2.2626917
7.726384966057826	5.1466966	2.2686331
7.743951719550762	5.186967	2.2774913
7.761518655310149	5.2626696	2.294051
7.779085773754511	5.296612	2.301437
7.796653075302419	5.2654343	2.2946534
7.814220560372475	5.256184	2.2926369
7.831788229383323	5.1998773	2.280324
7.8493560827536495	5.166549	2.2730045
7.866924120902174	5.1555314	2.2705796
7.884492344247663	5.129711	2.2648866
7.9020607532089135	5.133983	2.2658296
7.919629348204771	5.142208	2.2676437
7.937198129654115	5.282482	2.298365
7.954767097975865	5.382033	2.3199208
7.972336253588986	5.364738	2.3161905
7.989905596912472	5.290535	2.3001163
8.007475128365371	5.295744	2.3012483
8.025044848366756	5.3373227	2.3102646
8.042614757335754	5.4767833	2.3402529
8.060184855691523	5.58417	2.3630848
8.07775514385327	5.6658516	2.380305
8.095325622240228	5.655147	2.3780553
8.112896291271687	5.679098	2.3830857
8.130467151366968	5.776754	2.403488
8.148038202945436	5.8462963	2.4179115
8.165609446426497	5.855565	2.4198275
8.183180882229594	5.8088403	2.4101536
8.200752510774217	5.789116	2.406058
8.218324332479893	5.8415446	2.4169288
8.235896347766193	5.870685	2.4229496
8.253468557052724	5.9111276	2.431281
8.27104096075914	5.8968143	2.4283357
8.288613559305137	5.9334893	2.4358754
8.306186353110448	5.9859366	2.4466174
8.32375934259485	6.0148525	2.4525197
8.341332528178162	6.054735	2.460637
8.358905910280246	6.112222	2.472291
8.376479489321003	6.155738	2.481076
8.394053265720377	6.165812	2.4831054
8.411627239898356	6.1280737	2.4754946
8.42920141227497	6.1941185	2.4887986
8.44677578327029	6.2429585	2.4985914
8.464350353304427	6.2300315	2.4960032
8.48192512279754	6.1700354	2.4839556
8.499500092169827	6.0764346	2.4650426
8.51707526184153	6.072934	2.4643323
8.534650632232934	6.094285	2.4686606
8.552226203764365	6.111425	2.4721296
8.569801976856192	6.0862403	2.4670308
8.587377951928834	6.076402	2.465036
8.60495412940274	6.1020956	2.470242
8.622530509698416	6.192164	2.488406
8.6401070932364	6.3586936	2.521645
8.657683880437283	6.4584556	2.5413492
8.675260871721695	6.5776763	2.564698
8.692838067510303	6.7140217	2.591143
8.710415468223834	6.845238	2.6163406
8.727993074283043	6.9499545	2.6362767
8.745570886108737	6.9063067	2.6279852
8.763148904121765	6.9568944	2.6375926
8.78072712874302	7.0303364	2.651478
8.798305560393441	7.250295	2.6926372
8.815884199494006	7.389162	2.7183013
8.833463046465745	7.558473	2.7492678
8.851042101729728	7.6973596	2.7744117
8.86862136570707	8.017598	2.8315363
8.886200838818924	8.1534395	2.8554227
8.903780521486505	8.184316	2.8608243
8.921360414131055	8.256842	2.873472
8.938940517173874	8.379389	2.8947175
8.956520831036297	8.58674	2.9303138
8.97410135613971	8.799433	2.9663837
8.99168209290554	8.995681	2.99928
9.009263041755265	9.281549	3.0465636
9.026844203110405	9.661755	3.1083362
9.044425577392525	9.889658	3.1447825
9.062007165023239	9.915668	3.1489153
9.079588966424197	10.066713	3.1728084
9.097170982017108	10.045254	3.1694248
9.11475321222372	11.056463	3.325126
9.132335657465825	12.035745	3.469257
9.149918318165264	12.270226	3.5028882
9.167501194743924	12.780062	3.5749211
9.18508428762374	12.461928	3.5301456
9.202667597226693	12.497206	3.5351386
9.220251123974803	12.074699	3.4748669
9.237834868290143	11.794074	3.43425
9.255418830594836	11.596085	3.4053025
9.273003011311046	11.117488	3.3342898
9.290587410860985	10.869924	3.2969568
9.308172029666911	10.153053	3.1863856
9.32575686815113	9.879765	3.1432092
9.343341926735997	8.543379	2.922906
9.360927205843916	8.334064	2.8868778
9.378512705897327	8.145089	2.8539603
9.396098427318728	7.9422426	2.8181984
9.413684370530664	7.844617	2.8008244
9.431270535955722	7.729962	2.7802808
9.448856924016539	7.718186	2.7781622
9.466443535135806	7.6100297	2.7586281
9.484030369736251	7.637229	2.7635536
9.501617428240658	7.589863	2.7549706
9.519204711071852	7.5628414	2.750062
9.536792218652714	7.522942	2.7427983
9.55437995140617	7.528005	2.743721
9.571967909755191	7.6191115	2.760274
9.589556094122802	7.6962557	2.7742126
9.60714450493207	7.777546	2.7888253
9.624733142606116	7.8097935	2.7946007
9.642322007568108	7.7844477	2.7900622
9.659911100241267	7.7893834	2.7909467
9.677500421048851	7.8258696	2.7974756
9.695089970414175	7.8849244	2.8080108
9.712679748760609	8.010275	2.8302429
9.730269756511557	8.052403	2.8376758
9.747859994090492	8.127587	2.8508923
9.765450461920915	8.142608	2.8535254
9.78304116042639	8.160473	2.8566542
9.800632090030527	8.138555	2.8528152
9.81822325115699	8.152101	2.8551884
9.835814644229481	8.14357	2.8536942
9.853406269671762	8.217886	2.8666856
9.870998127907646	8.169894	2.8583026
9.888590219360985	8.183626	2.8607037
9.906182544455698	8.196496	2.8629522
9.923775103615734	8.15597	2.8558657
9.941367897265108	8.168339	2.8580306
9.958960925827878	8.15968	2.8565154
9.97655418972816	8.165005	2.8574471
9.994147689390106	8.159456	2.8564763
10.011741425237934	8.11364	2.8484452
10.029335397695904	8.169159	2.858174
10.04692960718833	8.204208	2.8642988
10.06452405413958	8.222498	2.8674898
10.082118738974064	8.185752	2.8610754
10.099713662116246	8.132631	2.8517768
10.117308823990651	8.089004	2.8441174
10.134904225021844	8.070952	2.8409421
10.152499865634445	8.106279	2.847153
10.170095746253125	8.09667	2.845465
10.18769186730261	8.059302	2.838891
10.205288229207675	7.979409	2.8247848
10.222884832393145	7.97028	2.8231685
10.2404816772839	7.9256225	2.8152483
10.258078764304868	7.9085417	2.812213
10.275676093881035	7.867946	2.804986
10.293273666437438	7.9014635	2.810954
10.310871482399158	8.013697	2.8308473
10.32846954219134	8.08185	2.8428595
10.346067846239173	8.109166	2.8476598
10.363666394967908	7.9879155	2.8262901
10.38126518880283	7.939943	2.8177905
10.398864228169298	8.016288	2.831305
10.416463513492713	8.064704	2.8398423
10.434063045198531	8.0575075	2.838575
10.451662823712262	7.9793224	2.8247695
10.469262849459467	8.045196	2.8364055
10.486863122865758	8.025521	2.832935
10.504463644356806	8.012368	2.8306127
10.522064414358338	7.9075055	2.8120286
10.539665433296118	7.825781	2.7974596
10.557266701595987	7.759618	2.785609
10.574868219683818	7.6625433	2.7681298
10.592469987985552	7.48407	2.7357028
10.610072006927185	7.3521814	2.7114906
10.627674276934751	7.310541	2.7038012
10.64527679843435	7.252313	2.693012
10.662879571852143	7.174035	2.678439
10.680482597614331	7.0428514	2.6538372
10.698085876147173	6.9486165	2.6360228
10.715689407876988	6.887759	2.624454
10.733293193230146	6.8438444	2.6160743
10.750897232633072	6.82397	2.612273
10.76850152651225	6.674647	2.5835338
10.786106075294207	6.539143	2.557175
10.803710879405534	6.4088635	2.5315733
10.821315939272877	6.3611817	2.5221384
10.83892125532294	6.2853136	2.5070527
10.856526827982472	6.1589193	2.481717
10.874132657678285	6.0582643	2.4613543
10.891738744837243	6.001999	2.4498978
10.909345089886271	5.9563994	2.4405737
10.926951693252343	5.9321775	2.4356062
10.944558555362494	5.9540586	2.440094
10.96216567664381	5.920728	2.4332547
10.979773057523436	5.8711677	2.4230492
10.997380698428573	5.8209553	2.4126656
11.014988599786477	5.789338	2.4061043
11.032596762024461	5.7005463	2.3875816
11.050205185569892	5.5915384	2.3646433
11.067813870850198	5.490684	2.343221
11.085422818292859	5.422035	2.3285265
11.10303202832541	5.34982	2.3129678
11.120641501375454	5.2796702	2.2977533
11.138251237870636	5.2648935	2.2945356
11.155861238238671	5.2763042	2.2970207
11.173471502907317	5.140104	2.2671797
11.191082032304402	5.064491	2.2504423
11.208692826857805	4.9206257	2.2182484
11.226303886995465	4.8741813	2.2077549
11.243915213145371	4.8464975	2.2014763
11.261526805735578	4.878738	2.2087865
11.279138665194196	4.8883357	2.210958
11.296750791949393	4.864126	2.2054765
11.314363186429393	4.772072	2.1845071
11.331975849062479	4.6528254	2.1570408
11.34958878027699	4.5992155	2.1445782
11.36720198050133	4.586044	2.141505
11.384815450163948	4.5096703	2.1235983
11.402429189693366	4.4566545	2.111079
11.420043199518153	4.4083457	2.099606
11.437657480066942	63.3681	7.960408
11.455272031768422	85.074394	9.223578
11.472886855051353	107.45168	10.3658905
11.490501950344528	99.067406	9.953261
11.508117318076819	84.417046	9.187875
11.52573295867715	45.784702	6.7664394
11.543348872574514	4.044957	2.0112078
11.560965060197946	4.0514903	2.0128314
11.57858152197655	4.0300016	2.0074863
11.59619825833949	4.0283237	2.0070684
11.613815269715985	4.0087795	2.0021937
11.631432556535323	38.519424	6.206402
11.649050119226837	83.02404	9.1117525
11.666667958219929	93.41515	9.665152
11.68428607394406	107.66438	10.376145
11.701904466828756	82.464676	9.081006
11.719523137303586	65.28768	8.080079
11.737142085798196	4.515208	2.1249018
11.754761312742286	3.6139328	1.9010347
11.772380818565619	3.571454	1.8898292
11.790000603698015	3.568489	1.8890445
11.80762066856935	3.5380607	1.8809733
11.825241013609572	3.5056942	1.8723499
11.842861639248683	3.4588041	1.859786
11.860482545916748	3.4182572	1.848853
11.878103734043883	3.3836532	1.8394709
11.895725204060282	3.3893914	1.84103
11.91334695639619	3.383445	1.8394144
11.930968991481919	3.3756716	1.8373001
11.948591309747824	3.3568766	1.8321781
11.966213911624347	3.329692	1.8247443
11.98383679754198	3.2852998	1.8125396
12.001459967931268	3.2369804	1.7991611
12.019083423222835	3.2120411	1.7922168
12.036707163847352	3.1956131	1.7876278
12.05433119023556	3.1590815	1.7773805
12.071955502818259	3.145258	1.7734876
12.089580102026313	3.146991	1.7739761
12.107204988290643	3.1136534	1.7645547
12.12483016204224	3.0793357	1.7548037
12.142455623712152	3.073813	1.7532293
12.16008137373149	3.0704165	1.7522603
12.177707412531431	3.0348284	1.7420759
12.19533374054321	2.987054	1.7283096
12.212960358198126	2.9970088	1.7311871
12.230587265927545	3.0026953	1.7328287
12.248214464162889	2.9927597	1.7299595
12.265841953335649	2.991056	1.7294669
12.283469733877375	2.941882	1.7151915
12.301097806219685	2.9241302	1.7100089
12.31872617079425	2.8967838	1.7019941
12.336354828032825	2.9308157	1.7119626
12.353983778367205	2.8949065	1.7014425
12.371613022229262	2.8401618	1.6852779
12.389242560050928	2.797611	1.672606
12.406872392264201	2.7956197	1.6720107
12.424502519301143	2.8265152	1.6812243
12.442132941593874	2.851967	1.6887769
12.459763659574586	2.8270638	1.6813874
12.477394673675532	2.8247445	1.6806976
12.49502598432903	2.8141649	1.6775473
12.51265759196746	2.8028598	1.6741743
12.530289497023267	2.783509	1.6683851
12.547921699928967	2.7533822	1.6593318
12.565554201117134	2.7391434	1.6550357
12.583187001020404	2.7049663	1.6446782
12.600820100071486	2.7057657	1.6449212
12.618453498703152	2.7190132	1.6489431
12.636087197348235	2.7392702	1.6550741
12.65372119643964	2.7150009	1.6477259
12.671355496410326	2.71421	1.647486
12.68899009769333	2.7383318	1.6547905
12.706625000721749	2.8151703	1.6778469
12.724260205928752	2.8799405	1.6970388
12.741895713747551	2.9120123	1.7064619
12.759531524611454	2.954384	1.7188321
12.777167638953818	2.9853556	1.7278181
12.794804057208072	2.9699655	1.7233588
12.812440779807702	2.995468	1.730742
12.830077807186271	3.1520994	1.7754153
12.847715139777405	3.2475917	1.8021076
12.865352778014795	3.4463992	1.856448
12.882990722332197	3.5286968	1.8784826
12.90062897316344	3.585461	1.8935313
12.918267530942412	3.6998568	1.9235011
12.935906396103071	3.5879228	1.8941813
12.953545569079449	3.7505927	1.9366447
12.971185050305628	3.544634	1.8827199
12.988824840215775	3.5474684	1.8834724
13.006464939244115	3.5253656	1.8775957
13.024105347824943	3.333807	1.8258716
13.041746066392617	3.4397786	1.854664
13.05938709538157	3.278523	1.8106692
13.077028435226296	3.3161209	1.8210219
13.094670086361363	3.2126713	1.7923926
13.112312049221401	3.1143541	1.7647532
13.129954324241112	3.043104	1.7444495
13.147596911855258	2.8573384	1.6903664
13.165239812498685	2.8466413	1.6871992
13.182883026606293	2.805126	1.6748511
13.200526554613058	2.7656527	1.6630251
13.218170396954017	2.7240458	1.6504683
13.235814554064284	2.702757	1.6440064
13.253459026379034	2.6509497	1.6281737
13.271103814333523	2.5748022	1.604619
13.288748918363058	2.5769784	1.605297
13.306394338903031	2.6358495	1.6235299
13.32404007638889	2.6495767	1.6277521
13.341686131256164	2.6676145	1.6332834
13.359332503940449	2.664584	1.6323553
13.376979194877402	2.6411924	1.6251746
13.394626204502751	2.6480398	1.6272799
13.412273533252307	2.660655	1.6311514
13.429921181561937	2.6628013	1.6318092
13.447569149867581	2.663618	1.6320595
13.465217438605247	2.6535692	1.628978
13.482866048211022	2.6682014	1.633463
13.500514979121052	2.6766694	1.636053
13.518164231771568	2.690611	1.6403081
13.535813806598844	2.6338866	1.6229253
13.553463704039254	2.6142974	1.6168789
13.571113924529229	2.579162	1.6059769
13.588764468505275	2.597115	1.6115568
13.606415336403956	2.6506302	1.6280756
13.624066528661917	2.679339	1.6368686
13.641718045715882	2.7206612	1.6494427
13.659369888002635	2.7692256	1.664099
13.67702205595903	2.8282444	1.6817385
13.694674550021993	2.915069	1.7073573
13.712327370628532	3.000356	1.7321535
13.729980518215713	3.0838263	1.7560827
13.747633993220681	3.1369152	1.7711339
13.765287796080647	3.1811073	1.7835659
13.7829419272329	3.245517	1.8015319
13.800596387114801	3.2673857	1.8075911
13.818251176163775	3.2519987	1.8033298
13.835906294817324	3.2470198	1.8019489
13.853561743513023	3.3040493	1.8177044
13.871217522688525	3.3525844	1.8310064
13.888873632781538	3.4179847	1.8487792
13.906530074229858	3.4049895	1.8452613
13.92418684747135	3.3854523	1.8399599
13.941843952943948	3.3409588	1.827829
13.959501391085665	3.3603837	1.833135
13.977159162334578	3.3830376	1.8393036
13.994817267128846	3.4016786	1.844364
14.012475705906693	3.310428	1.8194581
14.030134479106424	3.2145286	1.7929107
14.047793587166414	3.0764165	1.7539716
14.065453030525108	3.0053694	1.7336001
14.083112809621026	2.9183125	1.7083069
14.100772924892766	2.874863	1.6955421
14.118433376778997	2.8626654	1.6919413
14.136094165718458	2.8419335	1.6858035
14.153755292149969	2.7885792	1.669904
14.171416756512416	2.6703815	1.6341302
14.189078559244768	2.5617735	1.6005541
14.20674070078606	2.4651833	1.5700902
14.224403181575408	2.470662	1.571834
14.242066002051999	2.4639742	1.5697051
14.259729162655093	2.4179773	1.5549847
14.277392663824022	2.3785775	1.5422637
14.295056505998208	2.3556075	1.5347989
14.312720689617128	2.3457406	1.531581
14.330385215120348	2.3501832	1.5330307
14.348050082947497	2.3541508	1.5343242
14.3657152935383	2.3889825	1.5456334
14.383380847332528	2.3677528	1.5387504
14.401046744770051	2.3391159	1.5294168
14.418712986290798	2.309649	1.519753
14.436379572334793	2.2903075	1.5133762
14.454046503342123	2.2953086	1.5150276
14.471713779752946	2.2921786	1.5139942
14.489381402007504	2.3293438	1.5262188
14.507049370546113	2.3638926	1.5374955
14.524717685809168	2.3653514	1.53797
14.542386348237134	2.3525393	1.5337989
14.560055358270553	2.3664603	1.5383303
14.577724716350051	2.4143586	1.5538206
14.595394422916325	2.4259737	1.5575538
14.61306447841015	2.4299896	1.5588424
14.63073488327237	2.426939	1.5578636
14.648405637943917	2.45452	1.5666908
14.6660767428658	2.4634144	1.5695268
14.683748198479094	2.4738836	1.5728585
14.701420005224954	2.4782872	1.5742577
14.719092163544628	2.5406556	1.5939434
14.73676467387942	2.607147	1.6146662
14.754437536670727	2.6503177	1.6279796
14.772110752360014	2.6778731	1.6364208
14.78978432138882	2.6536283	1.6289961
14.807458244198777	2.6304066	1.6218529
14.82513252123159	2.6082537	1.615009
14.842807152929028	2.6552339	1.6294888
14.860482139732962	2.6541014	1.6291413
14.87815748208531	2.6532972	1.6288944
14.8958331804281	2.6190805	1.6183573
14.91350923520342	2.5572164	1.5991299
14.931185646853438	2.5968785	1.6114833
14.948862415820408	2.6084473	1.6150688
14.966539542546656	2.6305761	1.6219051
14.98421702747459	2.6237278	1.6197925
15.001894871046696	2.6052783	1.6140875
15.019573073705542	2.6095128	1.6153986
15.037251635893766	2.577176	1.6053586
15.054930558054092	2.598302	1.6119249
15.072609840629323	2.6023488	1.6131797
15.090289484062351	2.6861796	1.6389569
15.107969488796124	2.8160305	1.6781032
15.125649855273691	3.054424	1.747691
15.14333058393817	3.40698	1.8458006
15.161011675232768	3.9778666	1.994459
15.17869312960076	4.6175923	2.1488583
15.196374947485506	5.298921	2.3019385
15.214057129330447	6.6413155	2.577075
15.231739675579114	8.800537	2.96657
15.249422586675102	13.574184	3.684316
15.267105863062092	18.23017	4.26968
15.284789505183847	25.50806	5.0505505
15.302473513484218	30.442278	5.5174522
15.320157888407127	34.566822	5.8793554
15.337842630396578	33.236706	5.7651286
15.355527739896656	30.188988	5.4944506
15.37321321735153	23.420666	4.8394904
15.39089906320545	15.876131	3.9844863
15.408585277902748	10.144295	3.185011
15.42627186188783	6.2379155	2.497582
15.443958815605198	4.452535	2.1101031
15.461646139499424	3.6404672	1.9080008
15.479333834015168	3.2336748	1.7982421
15.497021899597165	2.96826	1.7228639
15.514710336690234	2.7730114	1.6652361
15.53239914573928	2.6229002	1.619537
15.550088327189297	2.568127	1.6025376
15.567777881485336	2.5453153	1.5954044
15.58546780907256	2.5303972	1.5907222
15.6031581103962	2.4720054	1.5722612
15.620848785901568	2.440486	1.5622054
15.638539836034063	2.41459	1.5538951
15.656231261239173	2.4203172	1.5557369
15.673923061962451	2.4319777	1.55948
15.691615238649552	2.4429014	1.5629784
15.709307791746202	2.4161377	1.554393
15.727000721698221	2.3829787	1.54369
15.744694028951498	2.3546424	1.5344844
15.76238771395202	2.3328788	1.5273764
15.780081777145844	2.360668	1.5364466
15.797776218979125	2.3905766	1.546149
15.815471039898094	2.4558437	1.5671132
15.833166240349064	2.4214668	1.5561063
15.850861820778437	2.3846068	1.5442172
15.868557781632699	2.3591952	1.5359672
15.886254123358412	2.3945706	1.54744
15.903950846402232	2.4429886	1.5630063
15.921647951210897	2.489242	1.5777332
15.939345438231225	2.5262427	1.5894158
15.957043307910133	2.4661028	1.5703831
15.974741560694602	2.4489653	1.5649171
15.992440197031714	2.4519048	1.565856
16.01013921736862	2.4701934	1.5716848
16.02783862215259	2.447646	1.5644954
16.045538411830933	2.4278467	1.558155
16.06323858685107	2.4506347	1.5654503
16.080939147660512	2.43974	1.5619667
16.09864009470684	2.3871944	1.5450548
16.11634142843774	2.3336508	1.5276291
16.134043149300954	2.338637	1.5292603
16.15174525774433	2.3508425	1.5332457
16.169447754215817	2.3867555	1.5449128
16.18715063916342	2.3919327	1.5465875
16.204853913035244	2.3697498	1.5393991
16.222557576279478	2.4272387	1.5579598
16.240261629344403	22.439234	4.7370067
16.257966072678386	42.97718	6.5556984
16.275670906729868	38.03817	6.167509
16.293376131947387	2.4981647	1.5805583
16.31108174877957	2.5582721	1.59946
16.328787757675133	2.5971406	1.6115646
16.34649415908287	2.5799415	1.6062196
16.364200953451657	2.555147	1.5984827
16.38190814123048	2.576644	1.6051928
16.39961572286839	2.6039374	1.613672
16.41732369881455	2.6343722	1.6230749
16.43503206951817	2.6635594	1.6320415
16.45274083542859	2.701605	1.643656
16.47044999699522	2.7152054	1.647788
16.488159554667558	2.739779	1.6552278
16.505869508895184	2.8020082	1.67392
16.523579860127786	2.8818166	1.6975914
16.541290608815117	2.9225426	1.7095445
16.559001755407035	2.9736986	1.7244415
16.57671330035348	3.0927067	1.7586093
16.59442524410448	3.220847	1.7946718
16.61213758711015	3.432961	1.8528252
16.629850329820705	3.4945924	1.8693829
16.647563472686436	3.5255024	1.8776321
16.665277016157724	3.4391942	1.8545065
16.682990960685053	3.4609914	1.860374
16.70070530671898	3.4829419	1.8662641
16.718420054710155	3.5385203	1.8810955
16.736135205109335	3.5654042	1.8882278
16.753850758367335	3.5857675	1.8936123
16.771566714935087	3.6638322	1.914114
16.789283075263597	3.7102075	1.9261899
16.80699983980398	3.7499194	1.9364709
16.82471700900741	3.7788465	1.9439255
16.84243458332518	3.8864386	1.9714053
16.860152563208665	4.0271797	2.0067835
16.87787094910932	4.13324	2.0330372
16.89558974147871	4.1993694	2.0492363
16.913308940768466	4.1965404	2.0485458
16.931028547430333	4.19744	2.0487654
16.94874856191613	4.228312	2.0562859
16.966468984677785	4.319241	2.0782783
16.98418981616729	4.3590407	2.0878315
17.00191105683676	4.422839	2.1030548
17.019632707138374	4.4465666	2.1086884
17.03735476752442	4.5027056	2.121958
17.05507723844728	4.503289	2.1220956
17.072800120359403	4.479758	2.1165438
17.090523413713353	4.447015	2.1087947
17.108247118961785	4.511104	2.123936
17.125971236557437	4.583067	2.1408098
17.143695766953133	4.6242914	2.1504166
17.161420710601806	4.642359	2.1546133
17.179146067956477	4.632923	2.1524227
17.19687183947025	4.60208	2.1452458
17.21459802559634	4.560045	2.135426
17.232324626788028	4.525589	2.1273432
17.25005164349871	4.516685	2.1252494
17.267779076181863	4.494334	2.1199844
17.285506925291074	4.508116	2.1232324
17.30323519127999	4.5180955	2.1255813
17.320963874602384	4.5007696	2.1215017
17.33869297571211	4.4732695	2.1150105
17.356422495063114	4.472644	2.1148627
17.37415243310944	4.451579	2.1098766
17.391882790305218	4.439592	2.107034
17.40961356710468	4.458912	2.1116135
17.42734476396215	4.5034075	2.1221232
17.445076381332044	4.6083345	2.1467032
17.462808419668868	4.685585	2.164621
17.48054087942723	4.726921	2.1741483
17.498273761061835	4.790605	2.188745
17.51600706502747	5.112881	2.261168
17.533740791779024	5.6927934	2.3859575
17.551474941771485	6.636854	2.5762093
17.56920951545993	8.582597	2.929607
17.586944513299528	9.850119	3.13849
17.60467993574556	12.712347	3.5654378
17.622415783253373	15.42622	3.9276228
17.64015205627843	18.27193	4.274568
17.657888755276293	20.755991	4.5558743
17.675625880702604	22.3585	4.7284775
17.69336343301311	20.871138	4.568494
17.71110141266366	18.687143	4.3228626
17.728839820110178	15.869541	3.9836593
17.746578655808705	12.64743	3.5563226
17.764317920215372	10.454454	3.2333348
17.7820576137864	8.716423	2.952359
17.79979773697811	7.310166	2.7037318
17.81753829024692	6.0148683	2.4525228
17.835279274049356	5.220599	2.284863
17.85302068884201	4.452269	2.11004
17.870762535081607	4.0333877	2.0083296
17.888504813224934	3.8355286	1.9584506
17.90624752372891	3.7423794	1.9345231
17.923990667050536	3.67331	1.9165881
17.941734243646895	3.5870621	1.893954
17.959478253975185	3.5086045	1.873127
17.9772226984927	3.4186568	1.848961
17.994967577656833	3.3703642	1.8358551
18.01271289192506	3.3060021	1.8182415
18.030458641754965	3.3110874	1.8196393
18.04820482760425	3.2767434	1.8101777
18.06595144993067	3.2442029	1.8011671
18.083698509192125	3.2268357	1.7963395
18.101446005846576	3.223514	1.7954147
18.119193940352105	3.2116568	1.7921096
18.136942313166887	3.2049937	1.7902496
18.1546911247492	3.2021134	1.789445
18.1724403755574	3.133448	1.7701547
18.19019006604997	3.0791864	1.7547611
18.207940196685467	3.0942209	1.7590398
18.225690767922575	3.0821087	1.7555935
18.243441780220046	3.065804	1.7509438
18.261193234036764	3.039973	1.7435519
18.278945129831676	2.997282	1.731266
18.29669746806386	3.030272	1.7407676
18.314450249192483	3.0274787	1.7399652
18.3322034736768	3.03383	1.7417893
18.349957141976184	2.992885	1.7299957
18.3677112545501	2.9976172	1.7313628
18.385465811858108	3.028378	1.7402235
18.403220814359884	3.076144	1.753894
18.420976262515172	3.0773113	1.7542267
18.43873215678387	3.0675082	1.7514304
18.456488497625923	3.1060965	1.7624121
18.474245285501407	3.1888924	1.785747
18.492002520870486	3.234936	1.7985928
18.50976020419343	3.3295968	1.8247182
18.527518335930615	3.6388152	1.9075679
18.545276916542516	4.179412	2.044361
18.563035946489688	4.307933	2.075556
18.580795426232832	4.7112246	2.1705356
18.598555356232698	4.619417	2.149283
18.616315736950185	4.915791	2.2171583
18.63407656884626	4.607599	2.1465318
18.65183785238201	4.8014274	2.191216
18.669599588018617	4.6567464	2.1579497
18.68736177621737	4.637908	2.1535802
18.705124417439652	4.6295037	2.1516283
18.72288751214696	4.407876	2.0994942
18.740651060800886	4.5127444	2.1243222
18.758415063863115	4.1947575	2.0481107
18.77617952179546	4.3496	2.0855694
18.793944435059814	4.1714616	2.0424156
18.811709804118184	4.1855483	2.0458612
18.829475629432675	4.1252933	2.0310817
18.8472419114655	3.9035685	1.9757451
18.86500865067897	4.0008254	2.0002062
18.88277584753551	3.6758854	1.9172599
18.90054350249763	3.7161927	1.927743
18.918311616027957	3.4203901	1.8494297
18.936080188589226	3.3520052	1.8308482
18.953849220644265	3.0622683	1.7499338
18.971618712656007	2.8774915	1.6963171
18.9893886650875	2.8425193	1.6859772
19.007159078401887	8.011389	2.8304396
19.024929953062408	32.87477	5.7336526
19.042701289532435	32.794582	5.7266555
19.060473088275405	25.372591	5.0371213
19.07824534975489	2.6586378	1.630533
19.096018074434568	2.604376	1.6138079
19.113791262778197	2.5422509	1.5944438
19.13156491524966	2.4993467	1.5809323
19.149339032312945	2.4895976	1.5778458
19.167113614432136	2.5016162	1.5816499
19.184888662071433	2.509126	1.584022
19.202664175695123	2.4891431	1.5777018
19.220440155767623	2.4662702	1.5704364
19.238216602753447	2.4706976	1.5718453
19.2559935171172	2.4909263	1.5782669
19.27377089932361	2.5267942	1.5895894
19.291548749837514	2.5403	1.5938318
19.309327069123835	2.5535126	1.5979714
19.32710585764763	2.5544808	1.5982744
19.344885115874032	2.4908836	1.5782534
19.362664844268313	2.4511395	1.5656115
19.380445043295822	2.4186327	1.5551955
19.39822571342203	2.4502096	1.5653145
19.41600685511252	2.4635527	1.5695709
19.43378846883297	2.4425104	1.5628533
19.451570555049173	2.4060988	1.5511605
19.469353114227037	2.4137037	1.5536098
19.48713614683254	2.4303348	1.5589532
19.50491965333182	2.4348843	1.5604116
19.52270363419109	2.4454489	1.5637931
19.540488089876686	2.4465892	1.5641577
19.55827302085503	2.463456	1.56954
19.576058427592674	2.4500804	1.5652733
19.593844310556282	2.4691005	1.5713371
19.611630670212598	2.4634426	1.5695357
19.629417507028506	2.4665754	1.5705335
19.64720482147098	2.4658043	1.570288
19.6649926140071	2.4623356	1.5691831
19.682780885104084	2.4729013	1.5725461
19.70056963522921	2.475823	1.5734748
19.718358864849908	2.4649992	1.5700316
19.7361485744337	2.4762828	1.5736209
19.753938764448215	2.4770522	1.5738654
19.771729435361202	2.468197	1.5710497
19.789520587640506	2.4564047	1.5672921
19.807312221754092	2.4673858	1.5707915
19.825104338170043	2.4886217	1.5775366
19.842896937356517	2.5143216	1.5856613
19.860690019781824	2.5178626	1.5867774
19.87848358591436	2.503211	1.5821539
19.896277636222635	2.4600606	1.5684581
19.914072171175278	2.4656177	1.5702286
19.931867191241015	2.4708781	1.5719028
19.94966269688869	2.484011	1.5760745
19.967458688587264	2.475456	1.5733582
19.985255166805807	2.4909325	1.5782688
20.00305213201348	2.4856966	1.5766093
20.020849584679578	2.4862978	1.5767999
20.038647525273507	2.431336	1.5592742
20.05644595426477	2.3870788	1.5450174
20.07424487212299	2.351123	1.5333372
20.092044279317903	2.358696	1.5358046
20.109844176319353	2.3620474	1.5368954
20.127644563597304	2.358096	1.5356092
20.145445441621817	2.3699741	1.539472
20.16324681086307	2.3823848	1.5434976
20.181048671791373	2.4130497	1.5533994
20.198851024877122	2.3726976	1.5403563
20.216653870590836	2.3202126	1.5232244
20.234457209403146	2.2929149	1.5142374
20.252261041784802	2.312431	1.520668
20.270065368206662	2.3398933	1.529671
20.287870189139685	2.3090215	1.5195465
20.305675505054968	2.2953393	1.5150378
20.323481316423702	2.3134341	1.5209978
20.341287623717207	2.35172	1.5335319
20.359094427406884	2.381856	1.5433263
20.376901727964288	2.3727639	1.5403779
20.39470952586107	2.3395188	1.5295485
20.41251782156899	2.3227847	1.5240685
20.430326615559935	2.3376658	1.5289427
20.448135908305886	2.3179634	1.522486
20.465945700278965	2.2911973	1.5136701
20.483755991951384	2.257478	1.5024906
20.50156678379548	2.2563047	1.5021001
20.519378076283708	2.280385	1.5100944
20.537189869888635	2.296074	1.5152801
20.55500216508294	2.3354394	1.5282145
20.572814962339415	2.35972	1.536138
20.59062826213098	2.3305047	1.526599
20.60844206493066	2.3240206	1.5244739
20.626256371211593	2.3004034	1.516708
20.644071181447032	2.2995086	1.5164131
20.66188649611036	2.2698767	1.506611
20.67970231567506	2.2642741	1.5047505
20.697518640614742	2.2866855	1.512179
20.715335471403122	2.2940886	1.514625
20.73315280851404	2.2924852	1.5140955
20.750970652421447	2.2629147	1.5042987
20.768789003599412	2.2737534	1.507897
20.786607862522136	2.2798905	1.5099306
20.8044272296639	2.2724178	1.507454
20.82224710549913	2.2524877	1.500829
20.84006749050237	2.2182798	1.4893891
20.857888385148268	3.807121	1.9511845
20.8757097899116	45.959045	6.77931
20.893531705267254	64.82432	8.051355
20.911354131690224	83.80808	9.1546755
20.92917706965566	69.02512	8.308136
20.94700051963877	50.081177	7.0768056
20.96482448211493	29.347366	5.4173207
20.982648957559622	4.0796137	2.0198054
21.00047394644843	2.1948392	1.481499
21.01829944925707	2.2289186	1.4929563
21.036125466461375	2.2549324	1.5016432
21.053951998537297	2.2492418	1.4997473
21.071779045960906	2.2503145	1.5001048
21.089606609208378	2.2368443	1.4956083
21.10743468875603	2.2078624	1.4858878
21.12526328508028	2.1767113	1.4753681
21.143092398657675	2.1530805	1.4673378
21.16092202996488	2.1830857	1.4775269
21.17875217947867	2.1619334	1.4703515
21.19658284767596	2.1605518	1.4698815
21.21441403503377	2.1297061	1.4593513
21.232245742029225	2.146236	1.4650037
21.2500779691396	2.130363	1.4595762
21.26791071684227	2.1259396	1.4580603
21.28574398561475	2.1080499	1.4519125
21.30357777593465	2.0933723	1.4468491
21.321412088279704	2.1170707	1.4550157
21.339246923127792	2.1413286	1.4633279
21.357082280956888	2.1402903	1.4629731
21.3749181622451	2.1232765	1.4571466
21.392754567470647	2.1212995	1.4564681
21.41059149711187	2.1106026	1.4527913
21.42842895164726	2.1024976	1.4499992
21.446266931555378	2.1348314	1.4611062
21.464105437314945	2.144077	1.4642668
21.481944469404798	2.1257408	1.4579921
21.49978402830388	2.1032531	1.4502597
21.51762411449127	2.0940495	1.4470831
21.53546472844617	2.058741	1.4348314
21.553305870647876	2.040729	1.4285408
21.571147541575865	2.0451071	1.4300724
21.58898974170967	2.081507	1.4427428
21.60683247152899	2.0795236	1.4420553
21.62467573151363	2.043589	1.4295416
21.642519522143523	2.0323513	1.4256055
21.660363843898722	2.0371726	1.4272956
21.6782086972594	2.031825	1.425421
21.696054082705864	2.0402443	1.4283712
21.713900000718535	2.0264564	1.4235365
21.73174645177795	2.0048883	1.4159408
21.749593436364794	1.9653721	1.4019173
21.767440954959845	1.9839416	1.4085246
21.785289008044032	2.0433495	1.4294578
21.803137596098388	2.0484228	1.4312313
21.820986719604086	1.9951409	1.4124945
21.838836379042412	1.9621308	1.4007608
21.85668657489478	1.9714183	1.404072
21.87453730764273	1.9931623	1.411794
21.892388577767914	2.0027113	1.4151719
21.91024038575213	1.995226	1.4125247
21.928092732077285	1.9782482	1.4065021
21.945945617225426	1.9627427	1.4009792
21.963799041678694	1.9557664	1.3984872
21.981653005919398	31.265905	5.5915923
21.999507510429943	78.05288	8.834754
22.01736255569286	73.06108	8.547578
22.035218142190818	4.2135005	2.0526812
22.05307427040661	2.0376077	1.4274479
22.07093094082315	1.9906148	1.4108915
22.088788153923474	1.9848986	1.4088643
22.106645910190746	1.9778798	1.4063711
22.12450421010827	1.9925791	1.4115875
22.142363054159464	1.9606012	1.4002147
22.16022244282787	1.9252568	1.3875363
22.178082376597164	1.9043343	1.3799762
22.195942855951145	1.9388063	1.3924103
22.213803881373742	1.9569619	1.3989146
22.231665453349002	1.9414637	1.3933642
22.24952757236111	1.9265373	1.3879976
22.26739023889438	1.9412278	1.3932796
22.28525345343323	1.9554985	1.3983914
22.30311721646225	1.9656007	1.4019989
22.320981528466113	1.964152	1.4014821
22.33884638992964	1.9697242	1.4034686
22.356711801337788	1.9573066	1.3990377
22.37457776317561	1.9284545	1.3886881
22.392444275928337	1.9303904	1.3893849
22.410311340081282	1.9420384	1.3935704
22.428178956119904	1.9429215	1.3938872
22.446047124529805	1.9291439	1.3889363
22.46391584579669	1.9376898	1.3920093
22.481785120406414	1.9791887	1.4068364
22.49965494884496	1.9828855	1.4081497
22.51752533159841	1.9623963	1.4008555
22.53539626915302	1.947872	1.3956618
22.553267761995137	1.9567189	1.3988277
22.571139810611264	1.948452	1.3958696
22.589012415488025	1.9211506	1.3860557
22.60688557711216	1.9305623	1.3894467
22.624759295970566	1.9548647	1.3981647
22.642633572550263	1.9500462	1.3964405
22.660508407338362	1.9217113	1.386258
22.67838380082217	1.9336475	1.3905566
22.696259753489077	1.9351591	1.3910999
22.714136265826614	1.9361011	1.3914385
22.73201333832246	1.930988	1.3895999
22.74989097146439	1.9502342	1.3965079
22.76776916574035	1.9522344	1.3972238
22.785647921638393	1.923172	1.3867848
22.803527239646712	1.9358903	1.3913628
22.82140712025363	1.9537239	1.3977567
22.839287563947593	1.9580393	1.3992996
22.85716857121719	1.9228461	1.3866673
22.875050142551135	1.8909079	1.3751029
22.892932278438277	1.8537664	1.3615309
22.910814979367604	1.8437234	1.3578378
22.928698245828222	1.889072	1.3744352
22.946582078309387	1.8993113	1.378155
22.96446647730047	1.886234	1.3734024
22.98235144329098	1.8678993	1.3667111
23.000236976770562	1.8891433	1.374461
23.018123078229	1.8834717	1.3723963
23.03600974815619	1.8884962	1.3742256
23.053896987042194	1.9196804	1.3855253
23.071784795377173	1.9506851	1.3966693
23.08967317365145	1.9777331	1.406319
23.10756212235546	1.9506952	1.3966728
23.125451641979787	1.9172031	1.384631
23.143341733015134	1.9150143	1.3838404
23.161232395952357	1.9299812	1.3892376
23.179123631282426	1.9161489	1.3842503
23.197015439496468	1.9249035	1.387409
23.214907821085717	1.9048827	1.3801749
23.23280077654157	1.8772168	1.3701156
23.250694306355538	1.8970846	1.377347
23.268588411019277	1.9633123	1.4011824
23.28648309102458	1.9774995	1.4062359
23.304378346863356	1.925437	1.3876011
23.322274179027676	1.8976657	1.3775579
23.340170588009723	1.8953112	1.376703
23.358067574301852	1.9043689	1.3799887
23.37596513839651	1.883475	1.3723975
23.39386328078629	1.8702438	1.3675686
23.411762001963947	1.9002655	1.3785012
23.429661302422353	1.9244937	1.3872613
23.4475611826545	1.9218432	1.3863056
23.46546164315356	1.882257	1.3719537
23.48336268441279	1.8480085	1.3594148
23.501264306925638	1.8524694	1.3610545
23.51916651118564	1.8335042	1.3540695
23.537069297686497	1.8707823	1.3677654
23.554972666922037	1.9350241	1.3910514
23.57287661938623	1.9259918	1.387801
23.59078115557318	1.8475537	1.3592474
23.608686275977128	1.8202173	1.3491542
23.62659198109246	1.8760793	1.3697004
23.6444982714137	1.8810343	1.371508
23.66240514743549	1.8965188	1.3771416
23.68031260965263	1.8580765	1.3631128
23.698220658560068	1.861118	1.364228
23.716129294652845	1.8913819	1.3752751
23.7340385184262	1.929912	1.3892127
23.75194833037546	1.917738	1.3848242
23.769858730996123	1.9111407	1.3824401
23.78776972078382	1.9000728	1.3784313
23.80568130023431	1.8989885	1.3780379
23.823593469843495	1.8789115	1.370734
23.841506230107424	1.8439771	1.3579311
23.859419581522275	1.8361957	1.355063
23.87733352458438	1.841518	1.3570254
23.89524805979019	1.9127352	1.3830167
23.913163187636318	1.945865	1.3949426
23.931078908619508	1.9901989	1.4107441
23.948995223236633	1.9856334	1.4091251
23.966912131984735	1.9888312	1.4102592
23.98482963536096	2.008926	1.4173658
24.002747733862616	2.0058258	1.4162718
24.020666427987155	2.0127792	1.4187245
24.038585718232156	2.020411	1.4214116
24.056505605095353	2.0387998	1.4278655
24.074426089074617	2.0552201	1.4336039
24.092347170667946	2.035917	1.4268557
24.110268850373515	2.010139	1.4177938
24.128191128689586	2.0067065	1.4165827
24.146114006114626	2.033935	1.4261609
24.164037483147187	2.0380578	1.4276056
24.181961560286005	2.0177548	1.4204769
24.199886238029926	1.9898633	1.4106251
24.21781151687797	1.9969466	1.4131336
24.235737397329274	1.9532232	1.3975776
24.253663879883135	1.9494345	1.3962215
24.271590965038975	1.977711	1.4063112
24.289518653296376	2.0288913	1.4243915
24.30744694515505	2.036023	1.4268928
24.32537584111486	2.01963	1.4211369
24.34330534167581	2.0024426	1.4150769
24.361235447338046	2.0067673	1.4166042
24.379166158601876	2.0408208	1.428573
24.39709747596772	2.0909202	1.4460014
24.41502939993615	2.0835588	1.4434538
24.432961931007917	1.9894394	1.4104749
24.450895069683856	1.9777894	1.406339
24.468828816465	1.9691331	1.4032581
24.4867631718525	1.9850607	1.4089218
24.504698136347656	1.936325	1.391519
24.52263371045192	1.9082263	1.3813857
24.540569894666874	1.9078299	1.3812422
24.558506689494266	1.8650305	1.3656613
24.57644409543597	1.8724551	1.3683769
24.594382112994012	1.8814659	1.3716654
24.61232074267057	1.9329913	1.3903205
24.630259984967953	1.9442166	1.3943517
24.64819984038863	1.9571177	1.3989702
24.66614030943522	1.9634756	1.4012407
24.684081392610462	1.9429504	1.3938975
24.702023090417274	1.9172397	1.3846443
24.7199654033587	1.915281	1.3839368
24.737908331937927	1.9467238	1.3952504
24.755851876658305	2.01557	1.4197077
24.773796038023324	2.0745788	1.4403398
24.79174081653661	2.0732417	1.4398756
24.809686212701962	2.0960283	1.4477667
24.827632227023294	2.0729349	1.439769
24.8455788600047	2.1213849	1.4564974
24.8635261121504	2.0992358	1.448874
24.88147398396475	2.0784783	1.4416928
24.899422475952303	2.030735	1.4250386
24.917371588617698	2.0732505	1.4398787
24.935321322465768	2.141403	1.4633533
24.953271678001478	2.2916772	1.5138286
24.97122265572994	2.4441452	1.5633762
24.989174256156414	2.7952683	1.6719056
25.00712647978632	3.3851051	1.8398656
25.02507932712521	4.447184	2.1088347
25.043032798678798	5.9478407	2.4388196
25.060986894952933	7.5931787	2.7555723
25.078941616453637	9.088827	3.0147681
25.096896963687055	10.046003	3.169543
25.114852937159508	10.634112	3.2609987
25.132809537377444	10.339718	3.2155433
25.150766764847468	9.592434	3.0971656
25.168724620076347	8.2130785	2.8658469
25.186683103570985	7.0291133	2.6512475
25.204642215838426	5.691648	2.3857174
25.222601957385894	4.5761337	2.13919
25.24056232872074	3.532048	1.8793744
25.25852333035048	2.855996	1.6899692
25.276484962782778	2.376025	1.541436
25.294447226525435	2.147399	1.4654006
25.312410122086423	2.0317626	1.4253991
25.330373649973843	1.9624257	1.400866
25.348337810695988	1.9348931	1.3910043
25.366302604761245	1.9254665	1.3876119
25.384268032678207	1.8926815	1.3757476
25.40223409495558	1.8690512	1.3671324
25.420200792102257	1.8517051	1.3607737
25.438168124627246	1.8850936	1.3729872
25.45613609303974	1.8802339	1.3712162
25.474104697849057	1.8537778	1.3615351
25.492073939564698	1.8604577	1.3639859
25.510043818696285	1.9175714	1.3847641
25.528014335753614	1.9068533	1.3808886
25.54598549124664	1.8949108	1.3765576
25.56395728568544	1.8613607	1.3643169
25.58192971958028	1.8225384	1.3500142
25.59990279344156	1.7700797	1.3304434
25.617876507779833	1.7749103	1.3322576
25.635850863105826	1.787773	1.3370763
25.653825859930386	1.7966399	1.340388
25.671801498764548	1.813164	1.3465378
25.68977778011949	1.8407344	1.3567367
25.707754704506524	1.866522	1.3662071
25.725732272437153	1.8097774	1.3452797
25.743710484423012	1.7985992	1.3411187
25.761689340975888	1.8247036	1.3508159
25.77966884260774	1.8576033	1.3629392
25.797648989830662	1.8882792	1.3741467
25.815629783156922	1.875307	1.3694185
25.83361122309895	1.8472327	1.3591294
25.85159331016929	1.8091077	1.3450308
25.869576044880695	1.7955003	1.3399628
25.887559427746034	1.820664	1.3493198
25.90554345927836	1.8329707	1.3538725
25.92352813999086	1.8219146	1.3497832
25.94151347039689	1.837385	1.3555018
25.959499451009965	1.8485936	1.35963
25.97748608234374	1.8184094	1.3484842
25.995473364912062	1.7943947	1.3395503
26.013461299228904	1.7626095	1.327633
26.03144988580839	1.761151	1.3270836
26.04943912516483	1.8070923	1.3442813
26.067429017812675	1.8384798	1.3559055
26.085419564266537	1.8644133	1.3654352
26.103410765041186	1.8294091	1.3525565
26.12140262065155	1.8094759	1.3451676
26.139395131612723	1.8044865	1.3433118
26.157388298439948	1.8088326	1.3449285
26.17538212164861	1.7722377	1.3312541
26.193376601754295	1.807518	1.3444396
26.211371739272714	1.8772167	1.3701155
26.229367534719746	1.8489925	1.3597766
26.247363988611433	1.809011	1.3449948
26.26536110146397	1.7691233	1.330084
26.283358873793727	1.8445519	1.3581429
26.301357306117204	1.8841563	1.3726457
26.319356398951104	1.8406781	1.3567159
26.33735615281224	1.799127	1.3413154
26.35535656821762	1.7825549	1.3351235
26.373357645684404	1.7769216	1.3330122
26.39135938572991	1.7813708	1.3346801
26.409361788871614	1.8004867	1.3418221
26.427364855627165	1.8515319	1.36071
26.445368586514352	1.8202977	1.349184
26.46337298205115	1.8519056	1.3608474
26.48137804275568	1.8794683	1.370937
26.499383769146217	1.8967859	1.3772385
26.517390161741215	1.8386985	1.3559861
26.53539722105928	1.8191711	1.3487664
26.553404947619182	1.8083332	1.3447428
26.571413341939856	1.7893856	1.3376791
26.589422404540397	1.7623289	1.3275274
26.60743213594006	1.7547897	1.3246847
26.62544253665827	1.7383614	1.3184693
26.64345360721459	1.7314737	1.3158548
26.66146534812879	1.7328855	1.3163911
26.679477759920758	1.7606457	1.3268932
26.69749084311057	1.8000542	1.341661
26.71550459821847	1.8418832	1.35716
26.733519025764842	1.8199239	1.3490455
26.751534126270258	1.7866089	1.336641
26.769549900255434	1.8147005	1.3471082
26.787566348241267	1.8533407	1.3613746
26.80558347074881	1.8309314	1.3531191
26.823601268299267	1.7830893	1.3353237
26.841619741414036	1.807819	1.3445516
26.85963889061465	1.81713	1.3480096
26.877658716422832	1.8115691	1.3459455
26.89567921936045	1.7999148	1.341609
26.913700399949544	1.7934593	1.339201
26.93172225871233	1.7634326	1.327943
26.949744796171174	1.7766259	1.3329012
26.967768012848605	1.7884525	1.3373303
26.98579190926733	1.7636267	1.328016
27.003816485950225	1.7896267	1.3377693
27.021841743420318	1.7482414	1.3222108
27.039867682200814	1.7837281	1.3355628
27.057894302815072	1.7933762	1.33917
27.07592160578664	1.811875	1.3460591
27.0939495916392	1.8012791	1.3421174
27.111978260896635	1.7309811	1.3156675
27.13000761408296	1.7446167	1.3208394
27.148037651722397	1.7898629	1.3378576
27.166068374339304	1.8372201	1.3554409
27.184099782458215	1.8435785	1.3577844
27.20213187660384	1.8403172	1.3565829
27.22016465730105	1.8299384	1.3527522
27.23819812507487	1.8377328	1.35563
27.256232280450533	1.8479924	1.3594089
27.274267123953383	1.8179134	1.3483002
27.292302656108987	1.7923845	1.3387996
27.31033887744306	1.7722313	1.3312517
27.32837578848146	1.8033811	1.3429003
27.34641338975026	1.8414843	1.357013
27.364451681775673	1.8423299	1.3573245
27.382490665084074	1.8361849	1.355059
27.400530340202046	1.8612931	1.3642921
27.41857070765629	1.866943	1.3663613
27.436611767973726	1.8493772	1.3599181
27.454653521681404	1.844575	1.3581513
27.472695969306564	1.8444692	1.3581123
27.490739111376627	1.8326168	1.3537418
27.508782948419153	1.7485224	1.322317
27.526827480961902	1.7259182	1.313742
27.54487270953279	1.7288966	1.3148751
27.562918634659898	1.7634829	1.3279619
27.580965256871508	1.7754008	1.3324417
27.599012576696026	1.7932128	1.339109
27.617060594662068	1.8066244	1.3441073
27.63510931129842	1.82996	1.3527602
27.65315872713401	1.8084981	1.3448042
27.67120884269797	1.7899059	1.3378737
27.68925965851958	1.8009266	1.3419861
27.707311175128307	1.8212348	1.3495313
27.725363393053787	1.8562535	1.3624439
27.74341631282583	1.9134898	1.3832895
27.7614699349744	1.9027534	1.3794032
27.77952426002968	2.067391	1.4378425
27.797579288521973	2.1332178	1.4605539
27.815635020981784	2.5610695	1.6003342
27.83369145793979	2.6516418	1.6283863
27.85174859992682	2.4800267	1.57481
27.869806447473923	2.29367	1.5144867
27.887865001112267	2.0479372	1.4310615
27.905924261373233	1.9474654	1.3955162
27.92398422878836	1.9299144	1.3892136
27.94204490388936	1.9323913	1.3901048
27.96010628720813	1.8856103	1.3731753
27.978168379276728	1.8395036	1.3562831
27.9962311806274	1.8003037	1.341754
28.014294691792568	1.793275	1.3391322
28.0323589133048	1.7899592	1.3378936
28.050423845696887	1.8331097	1.3539238
28.068489489501758	1.8228337	1.3501235
28.086555845252523	1.809937	1.345339
28.104622913482487	1.8498977	1.3601094
28.122690694725115	1.8968307	1.3772547
28.14075918951405	1.8625802	1.3647637
28.15882839838312	1.8441628	1.3579996
28.176898321866304	1.8535995	1.3614696
28.1949689604978	1.8864796	1.3734918
28.213040314811945	1.8902351	1.3748581
28.23111238534327	1.909054	1.3816853
28.249185172626493	1.9253849	1.3875824
28.267258677196473	1.8620518	1.3645703
28.285332899588294	1.8472611	1.3591398
28.303407840337172	1.8824412	1.3720208
28.321483499978545	1.9355702	1.3912477
28.33955987904799	1.956514	1.3987545
28.357636978081285	1.9920214	1.41139
28.37571479761439	1.9746149	1.4052099
28.393793338183425	1.9383416	1.3922434
28.41187260032469	1.9772007	1.4061297
28.429952584574686	2.0360343	1.4268968
28.448033291470065	2.0897243	1.4455879
28.46611472154769	2.0603004	1.4353746
28.484196875344566	2.029417	1.424576
28.502279753397914	1.993644	1.4119645
28.52036335624511	2.0488873	1.4313935
28.538447684423716	2.0544891	1.4333489
28.556532738471482	2.024782	1.4229484
28.574618518926325	2.0082488	1.417127
28.59270502632635	2.023197	1.4223913
28.61079226120985	2.0516176	1.4323469
28.628880224115274	2.0204966	1.4214418
28.646968915581287	2.0320513	1.4255004
28.66505833614671	2.07779	1.4414542
28.68314848635055	2.0725663	1.439641
28.701239366732004	2.0589848	1.4349163
28.71933097783044	2.0581403	1.434622
28.737423320185403	2.0442567	1.429775
28.75551639433665	2.0217118	1.4218692
28.773610200824074	2.0888917	1.4452999
28.791704740187793	2.1859493	1.4784956
28.80980001296809	2.236472	1.4954839
28.827896019705413	2.1758177	1.4750654
28.845992760940433	2.092082	1.4464031
28.86409023721397	2.1481955	1.4656724
28.88218844906704	2.1817074	1.4770604
28.900287397040845	2.171191	1.4734962
28.918387081676755	2.2019463	1.4838957
28.936487503516343	2.26742	1.5057955
28.954588663101365	2.2514844	1.5004947
28.97269056097374	2.2208738	1.4902596
28.990793197675597	2.2547936	1.501597
29.00889657374923	2.330506	1.5265995
29.027000689737125	2.3736756	1.5406737
29.04510554618196	2.3650978	1.5378875
29.06321114362659	2.3968086	1.5481629
29.08131748261405	2.4356527	1.5606577
29.099424563687567	2.4735334	1.5727471
29.11753238739057	2.5356302	1.5923662
29.13564095426663	2.57375	1.6042911
29.15375026485954	2.557893	1.5993414
29.171860319713275	2.5892	1.6090991
29.18997111937199	2.6375315	1.6240479
29.20808266438002	2.706598	1.6451741
29.226194955281898	2.7681382	1.6637722
29.244307992622335	2.8006275	1.6735076
29.26242177694624	2.8131533	1.6772457
29.2805363087987	2.9069133	1.7049673
29.29865158872498	2.862192	1.6918014
29.316767617270557	2.776994	1.6664315
29.334884394981064	2.8002415	1.6733922
29.353001922402367	2.928489	1.7112828
29.37112020008047	3.0474691	1.7457002
29.389239228561596	3.16994	1.7804326
29.407359008392152	3.3574986	1.8323479
29.42547954011872	3.6711314	1.9160197
29.44360082428809	4.093086	2.0231376
29.46172286144722	4.9005303	2.2137141
29.479845652143283	6.5400324	2.5573487
29.497969196923606	9.260827	3.0431607
29.516093496335728	13.045196	3.6118133
29.5342185509274	16.686638	4.084928
29.55234436124651	19.874287	4.458059
29.570470927841175	21.217728	4.6062703
29.588598251259686	20.949839	4.5770993
29.60672633205055	19.166988	4.3780117
29.624855170762405	15.961319	3.995162
29.642984767944146	12.590516	3.5483117
29.66111512414481	9.374238	3.0617378
29.67924623991366	6.9744387	2.6409163
29.697378115800138	5.190852	2.2783442
29.71551075235387	4.322823	2.07914
29.733644150124675	3.8357496	1.958507
29.751778309662576	3.5722497	1.8900396
29.769913231517766	3.3643773	1.8342239
29.78804891624066	3.3195682	1.8219682
29.806185364381818	3.316524	1.8211327
29.82432257649206	3.3049781	1.8179599
29.842460553122333	3.3144996	1.8205767
29.86059929482382	3.3403618	1.8276657
29.878738802147872	3.326793	1.8239498
29.896879075646048	3.3252635	1.8235306
29.915020115870114	3.3280675	1.8242992
29.933161923371976	3.3323274	1.8254664
29.951304498703777	3.3203661	1.8221872
29.969447842417857	3.3034759	1.8175466
29.987591955066733	3.2418447	1.8005123
30.005736837203123	3.201613	1.7893052
30.023882489379943	3.1510174	1.7751105
30.04202891215028	3.1350687	1.7706125
30.060176106067455	3.1260376	1.7680604
30.078324071684946	3.1842246	1.7844396
30.09647280955646	3.1849654	1.7846471
30.114622320235863	3.1827533	1.7840272
30.132772604277257	3.0736253	1.7531757
30.1509236622349	3.0389214	1.7432503
30.16907549466328	3.0251303	1.7392901
30.18722810211705	3.024761	1.739184
30.205381485151097	3.0151494	1.7364185
30.22353564432045	2.962811	1.7212818
30.241690580180403	2.9466708	1.716587
30.25984629328638	3.0237985	1.7389072
30.278002784194037	3.0499825	1.7464199
30.296160053459246	3.0033548	1.733019
30.314318101638033	2.962991	1.7213341
30.332476929286646	2.877803	1.6964089
30.35063653696153	2.850129	1.6882324
30.368796925219307	2.884873	1.6984913
30.386958094616844	2.8374982	1.6844875
30.40512004571115	2.9055135	1.7045567
30.423282779059463	2.9123278	1.7065544
30.441446295219233	2.896105	1.7017946
30.459610594748067	2.8629768	1.6920333
30.47777567820382	2.8261223	1.6811074
30.495941546144504	2.832537	1.6830143
30.51410819912835	2.8056493	1.6750072
30.532275637713795	2.737731	1.654609
30.55044386245946	2.8110387	1.6766152
30.56861287392416	2.8943222	1.7012707
30.586782672666956	2.8810525	1.6973664
30.604953259247047	2.8274374	1.6814985
30.623124634223885	2.786134	1.6691717
30.641296798157075	2.777107	1.6664654
30.659469751606462	2.7778955	1.6667019
30.677643495132074	2.813286	1.6772853
30.695818029294152	2.7933712	1.6713382
30.713993354653116	2.7647545	1.6627551
30.73216947176962	2.7778118	1.6666769
30.75034638120448	2.8116527	1.6767983
30.768524083518756	2.8299437	1.6822436
30.786702579273673	2.9061127	1.7047324
30.80488186903069	2.95701	1.7195959
30.82306195335144	3.0730276	1.7530053
30.841242832797782	3.2792306	1.8108646
30.85942450793176	3.6220937	1.9031799
30.877606979315637	4.025863	2.0064554
30.895790247511883	4.368475	2.0900898
30.913974313083134	4.780667	2.1864736
30.932159176592283	5.265008	2.2945604
30.95034483860237	5.597348	2.3658717
30.968531299676698	5.4830236	2.3415856
30.98671856037873	5.211719	2.282919
31.00490662127215	4.825335	2.1966646
31.023095482920848	4.2631235	2.0647333
31.04128514588892	3.7466795	1.9356341
31.059475610740662	3.252298	1.8034129
31.07766687804056	2.8565145	1.6901226
31.09585894835335	2.6200085	1.618644
31.11405182224393	2.5276453	1.589857
31.132245500277417	2.4806466	1.5750068
31.15043998301914	2.393736	1.5471703
31.168635271034628	2.4010208	1.5495228
31.18683136488964	2.4949038	1.5795264
31.20502826515008	2.4989777	1.5808156
31.223225972382135	2.416051	1.5543652
31.241424487152155	2.372212	1.5401987
31.259623810026692	2.3880646	1.5453364
31.27782394157253	2.4535668	1.5663866
31.296024882356644	2.4701867	1.5716828
31.314226632946237	2.477709	1.574074
31.332429193908684	2.4505234	1.5654148
31.350632565811598	2.460903	1.5687265
31.368836749222787	2.436062	1.560789
31.387041744710295	2.4250174	1.5572467
31.40524755284232	2.4608557	1.5687115
31.423454174187317	2.5204248	1.5875846
31.441661609313922	2.4890034	1.5776576
31.459869858791002	2.3708694	1.5397627
31.478078923187628	2.3727813	1.5403835
31.496288803073064	2.410885	1.5527025
31.514499499016807	2.3538265	1.5342185
31.532711011588546	2.345728	1.531577
31.550923341358178	2.330465	1.526586
31.56913648889584	2.327484	1.5256094
31.587350454771844	2.2984767	1.5160728
31.605565239556732	2.2744603	1.5081314
31.62378084382127	2.342895	1.5306518
31.641997268136382	2.3689022	1.5391239
31.660214513073274	2.3028784	1.5175238
31.67843257920331	2.325402	1.5249269
31.6966514670981	2.3194273	1.5229666
31.71487117732944	2.328765	1.5260291
31.733091710469346	2.2964432	1.515402
31.751313067090052	2.2777174	1.5092108
31.769535247764008	2.259934	1.5033077
31.787758253063878	2.3010395	1.5169177
31.805982083562526	2.2696273	1.5065283
31.824206739833024	2.2402327	1.4967407
31.84243222244869	2.2714767	1.507142
31.860658531983013	2.3236842	1.5243635
31.878885669009737	2.273011	1.5076509
31.897113634102784	2.1957538	1.4818076
31.91534242783632	2.2154639	1.4884435
31.933572050784694	2.2947812	1.5148535
31.951802503522508	2.3229117	1.5241102
31.970033786624548	2.256927	1.5023072
31.988265900665834	2.202252	1.4839987
32.006498846221575	2.163884	1.4710146
32.02473262386724	2.1624677	1.4705331
32.04296723417845	2.1076941	1.45179
32.0612026777311	2.1082597	1.4519848
32.07943895510129	2.1037784	1.4504408
32.097676066865304	2.156032	1.4683433
32.115914013599685	2.196797	1.4821595
32.13415279588115	2.1396575	1.4627569
32.152392414286666	2.128998	1.4591086
32.1706328693934	2.1474555	1.4654199
32.18887416177875	2.1505773	1.4664847
32.20711629202032	2.1572492	1.4687577
32.225359260695924	2.2254934	1.4918088
32.243603068383614	2.2628164	1.504266
32.26184771566166	2.2615418	1.5038424
32.28009320310852	2.2344253	1.4947994
32.2983395313029	2.2047613	1.4848439
32.31658670082372	2.164476	1.4712158
32.33483471225012	2.13769	1.4620842
32.35308356616143	2.0936239	1.446936
32.371333263137245	2.062053	1.435985
32.38958380375734	2.0679483	1.4380363
32.407835188601744	2.0905194	1.4458629
32.42608741825067	2.034633	1.4264055
32.444340493284585	2.1000702	1.4491619
32.46259441428416	2.1855464	1.4783593
32.48084918183028	2.2650447	1.5050066
32.49910479650405	2.2101998	1.4866741
32.51736125888683	2.1001103	1.4491757
32.53561856956014	1.9991903	1.4139273
32.5538767291058	2.0129619	1.4187889
32.572135738105764	2.0317593	1.4253979
32.59039559714228	2.0010517	1.4145854
32.608656306797776	2.0331242	1.4258766
32.62691786765491	2.0397718	1.4282058
32.645180280296586	2.121634	1.456583
32.663443545305896	2.0649652	1.4369987
32.68170766326619	1.966821	1.402434
32.69997263476099	1.9178625	1.3848691
32.7182384603741	1.9530106	1.3975016
32.7365051406895	1.9666597	1.4023764
32.75477267629144	2.0034623	1.4154371
32.77304106776434	2.082561	1.4431081
32.79131031569289	2.1739192	1.4744216
32.809580420661966	2.1797655	1.4764029
32.827851383256714	2.1019437	1.4498081
32.84612320406245	2.074891	1.4404483
32.86439588366476	2.0513585	1.4322565
32.88266942264945	2.0200772	1.4212942
32.9009438216025	1.9641787	1.4014916
32.9192190811102	1.9933407	1.4118572
32.937495201758985	1.9873344	1.4097285
32.95577218413556	1.9530864	1.3975286
32.974050028826866	1.9816563	1.4077132
32.992328736420035	1.9596682	1.3998815
33.010608307502444	1.9661144	1.402182
33.02888874266169	1.8977127	1.3775749
33.047170042485604	1.8844258	1.3727438
33.06545220756225	1.8700242	1.3674883
33.083735238479896	1.9253379	1.3875655
33.10201913582707	1.9919695	1.4113715
33.12030390019248	2.0042713	1.4157228
33.138589532165135	1.9671237	1.4025419
33.15687603233419	1.9204316	1.3857964
33.17516340128909	1.8816932	1.3717482
33.19345163961947	1.9432195	1.3939941
33.211740747915215	2.013947	1.419136
33.23003072676643	2.0227985	1.4222512
33.248321576763466	1.9828513	1.4081376
33.266613298496885	1.9496932	1.3963141
33.28490589255747	1.9430034	1.3939166
33.30319935953626	1.9540805	1.3978842
33.32149370002451	1.979729	1.4070284
33.339788914613706	2.0330229	1.4258411
33.358085003895575	2.0014532	1.4147272
33.376381968462034	1.8964514	1.377117
33.39467980890529	1.7863218	1.3365334
33.41297852581774	1.8752837	1.36941
33.43127811979204	1.9635794	1.4012778
33.44957859142105	1.9426923	1.3938049
33.467879941297866	1.9160701	1.3842218
33.486182170015844	1.9808931	1.4074421
33.50448527816853	2.0394049	1.4280773
33.522789266349754	1.8913443	1.3752615
33.541094135153514	1.7847044	1.3359283
33.55939988517411	1.7636758	1.3280345
33.57770651700602	1.8225274	1.3500102
33.59601403124398	1.8423312	1.357325
33.61432242848296	1.8360138	1.3549958
33.632631709318154	1.8088179	1.344923
33.650941874344994	1.8612194	1.3642652
33.66925292415916	1.8585213	1.363276
33.68756485935654	1.9161048	1.3842344
33.70587768053328	1.9432627	1.3940096
33.724191388285746	1.9731822	1.4047
33.74250598321054	1.9392171	1.3925577
33.760821465904506	1.8927401	1.3757689
33.77913783696474	1.8918102	1.375431
33.79745509698852	1.9675825	1.4027054
33.815773246573414	1.9259421	1.3877832
33.8340922863172	1.8501914	1.3602175
33.852412216817896	1.9847047	1.4087955
33.87073303867377	2.039028	1.4279454
33.889054752483304	2.002285	1.4150212
33.907377358845245	1.9723223	1.4043939
33.92570085835853	2.0306692	1.4250156
33.94402525162239	2.011737	1.4183571
33.96235053923627	1.9279957	1.3885229
33.980676721799824	1.8793416	1.3708909
33.999003799912984	1.7893499	1.3376658
34.01733177417592	1.72387	1.3129623
34.03566064518901	1.877582	1.3702489
34.0539904135529	1.989054	1.4103383
34.07232107986846	1.978775	1.4066894
34.090652644736785	2.1139596	1.4539462
34.108985108759235	2.061914	1.4359366
34.12731847253742	1.8972645	1.3774122
34.14565273667313	1.7625827	1.3276229
34.16398790176847	1.8108157	1.3456656
34.18232396842574	2.0031157	1.4153147
34.20066093724749	2.2007701	1.4834993
34.21899880883651	2.1285226	1.4589458
34.23733758379583	1.8800067	1.3711333
34.25567726272874	1.9589461	1.3996235
34.27401784623872	2.0610096	1.4356217
34.29235933492957	2.065287	1.4371107
34.31070172940526	2.1549459	1.4679734
34.32904503027003	2.0607977	1.4355478
34.347389238128386	1.8481343	1.3594611
34.36573435358502	1.875296	1.3694144
34.38408037724492	1.9702433	1.4036536
34.402427309713296	1.924224	1.387164
34.42077515159559	1.9677911	1.4027798
34.43912390349752	2.1015089	1.4496582
34.45747356602499	2.1593337	1.4694672
34.47582413978423	2.118922	1.4556518
34.49417562538163	2.0393226	1.4280485
34.51252802342388	1.901205	1.3788419
34.53088133451789	1.8671573	1.3664397
34.54923555927084	1.9143417	1.3835974
34.567590698290104	2.0001068	1.4142513
34.58594675218336	1.9358073	1.391333
34.6043037215585	1.8745393	1.3691381
34.62266160702365	1.8508911	1.3604746
34.641020409187234	1.8983847	1.3778188
34.65938012865785	1.8186644	1.3485787
34.677740766044394	1.9518605	1.3970901
34.69610232195598	2.114884	1.454264
34.714464797002016	2.1486936	1.4658422
34.73282819179208	2.0347602	1.4264503
34.751192506936064	1.861061	1.364207
34.76955774304408	1.8772124	1.370114
34.7879239007265	1.8864932	1.3734967
34.80629098059391	1.8056623	1.3437493
34.824658983257194	1.9174119	1.3847065
34.843027909327446	2.0441666	1.4297435
34.86139775941603	1.9813362	1.4075994
34.879768534134534	2.0387356	1.427843
34.89814023409483	1.9517285	1.3970428
34.91651285990901	1.8913647	1.3752689
34.93488641218944	2.0020027	1.4149214
34.95326089154871	1.909342	1.3817894
34.97163629859967	1.9361705	1.3914634
34.99001263395542	1.9942745	1.4121878
35.00838989822934	2.0799751	1.4422119
35.02676809203499	2.1669137	1.4720441
35.04514721598624	2.1373456	1.4619663
35.063527270697215	2.0745547	1.4403315
35.081908256782256	2.1012928	1.4495836
35.10029017485597	2.101993	1.4498252
35.11867302553321	2.0916502	1.4462539
35.137056809429104	1.9258416	1.3877469
35.155441527159006	1.8244381	1.3507177
35.173827179338524	2.0691829	1.4384655
35.19221376658354	2.2135262	1.4877924
35.21060128951017	2.059946	1.4352512
35.2289897487348	2.0809548	1.4425515
35.24737914487405	2.0663333	1.4374746
35.26576947854479	1.8407214	1.3567319
35.28416075036418	1.9937588	1.4120052
35.30255296094958	2.198969	1.482892
35.32094611091867	2.1407855	1.4631423
35.33934020088932	1.8747936	1.369231
35.35773523147969	1.8104883	1.3455439
35.3761312033082	1.837227	1.3554435
35.394528116993506	1.7917453	1.3385609
35.41292597315452	1.9246669	1.3873236
35.431324772410434	2.1404674	1.4630337
35.449724515380666	2.151735	1.4668794
35.46812520268491	2.2668452	1.5056046
35.486526834943106	2.2648036	1.5049264
35.504929412775454	2.007349	1.4168094
35.52333293680242	1.8889608	1.3743948
35.54173740764471	1.7231896	1.3127031
35.560142825923286	1.7759619	1.3326522
35.5785491922594	1.8606272	1.3640481
35.59695650727454	2.1500018	1.4662884
35.61536477159042	2.9491389	1.7173057
