0.008763373481513119	0.56609195	0.7523908
0.026290120649546365	0.33515513	0.57892585
0.043816868432600686	0.25197133	0.5019675
0.06134361724069026	0.21369754	0.4622743
0.07887036748382949	0.20202807	0.44947532
0.0963971195720331	0.19982962	0.44702306
0.11392387391531617	0.14109129	0.3756212
0.1314506309236943	0.081096336	0.28477418
0.1489773910071836	0.047471415	0.21787935
0.16650415457580078	0.072286345	0.2688612
0.18403092203956356	0.1505589	0.3880192
0.20155769380849	0.21004607	0.45830783
0.2190844702925996	0.22016308	0.4692154
0.2366112519019124	0.2816991	0.5307533
0.2541380390464497	0.19838756	0.44540718
0.27166483213623416	0.17905469	0.42314854
0.28919163158128947	0.16256098	0.40318853
0.3067184377916406	0.18090676	0.42533135
0.324245251177314	0.214918	0.4635925
0.34177207214833777	0.26869416	0.51835716
0.3592989011147415	0.27300316	0.52249706
0.37682573848655654	0.27987462	0.52903175
0.39435258467381573	0.21679392	0.46561134
0.41187944008655414	0.15185383	0.38968426
0.42940630513480854	0.13512363	0.36759165
0.446933180228618	0.12621829	0.35527214
0.4644600657780234	0.13214734	0.36352077
0.48198696219306775	0.13254929	0.3640732
0.49951386988379676	0.15937163	0.39921376
0.5170407892602581	0.15362288	0.39194754
0.5345677207325025	0.1625594	0.40318656
0.5520946647105822	0.10796831	0.32858533
0.5696216216045534	0.10048909	0.31700015
0.5871485918244737	0.15037797	0.387786
0.6046755757804043	0.18127716	0.42576656
0.6222025738824094	0.19389415	0.44033414
0.6397295865405557	0.1650419	0.4062535
0.6572566141649129	0.17016862	0.41251498
0.6747836571655547	0.18281831	0.42757258
0.6923107159525568	0.18686685	0.432281
0.7098377909359992	0.21218	0.46063
0.7273648825259653	0.20955127	0.4577677
0.7448919911325411	0.20027044	0.44751585
0.762419117165817	0.2381475	0.48800358
0.7799462610358868	0.22364455	0.47291073
0.7974734231528482	0.2386479	0.488516
0.8150006039268024	0.19392526	0.44036946
0.8325278037678551	0.13141122	0.36250687
0.8500550230861152	0.13034883	0.36103854
0.8675822622916969	0.11859515	0.34437647
0.8851095217947171	0.1796955	0.42390507
0.9026368020052984	0.22152053	0.47065967
0.9201641033335665	0.2530411	0.5030319
0.9376914261896523	0.28357962	0.53252196
0.9552187709836915	0.27153644	0.5210916
0.9727461381258234	0.26032108	0.5102167
0.990273528026193	0.2761031	0.5254551
1.0078009410949496	0.2702622	0.5198675
1.0253283777422473	0.26019254	0.5100907
1.0428558383782454	0.20725204	0.45524943
1.0603833234131086	0.2338368	0.48356676
1.0779108332570058	0.25041372	0.50041354
1.0954383683201119	0.2892236	0.5377951
1.112965929012607	0.3418471	0.5846769
1.1304935157446763	0.40681744	0.6378224
1.1480211289265108	0.45847064	0.6771046
1.1655487689683062	1.281727	1.1321338
1.1830764362802655	1.5723492	1.2539334
1.200604131272596	1.9783838	1.4065503
1.2181318543555117	2.2490222	1.4996741
1.235659605939232	2.262769	1.5042503
1.253187386433982	3.8711507	1.967524
1.270715196249994	6.4557724	2.5408213
1.2882430357975057	12.000635	3.4641933
1.3057709054867608	16.804111	4.099282
1.3232988057280106	22.752934	4.7700033
1.3408267369315112	27.677956	5.2609844
1.358354699507526	31.177116	5.5836473
1.3758826938663256	35.43437	5.9526772
1.3934107204181858	37.682995	6.1386476
1.410938779573391	37.9023	6.1564846
1.4284668717422309	38.38254	6.1953645
1.4459949973350033	37.96788	6.161808
1.4635231567620117	38.13883	6.1756644
1.4810513504335687	37.29338	6.1068306
1.4985795787599925	36.266727	6.0221863
1.5161078421516088	35.544086	5.961886
1.5336361410187505	34.82995	5.9016905
1.5511644757717598	34.840496	5.902584
1.5686928468209842	35.58225	5.965086
1.58622125457678	36.356194	6.0296097
1.6037496994495108	37.38519	6.1143427
1.621278181849548	37.519073	6.1252813
1.6388067021872719	38.09951	6.17248
1.6563352608730693	37.90497	6.156701
1.673863858317336	37.004375	6.0831223
1.6913924949304753	36.248573	6.020679
1.7089211711228998	34.82719	5.901457
1.7264498873050296	34.112343	5.840577
1.7439786438872935	33.384785	5.777957
1.7615074412801288	32.677975	5.716465
1.779036279893981	31.849907	5.6435723
1.796565160139305	30.710787	5.5417314
1.814094082426564	29.786686	5.457718
1.8316230471662298	29.178303	5.4016943
1.849152054768784	28.606766	5.3485293
1.8666811056447168	27.789663	5.27159
1.8842102002045273	26.78902	5.1758113
1.901739338858724	26.160166	5.114701
1.9192685220178245	25.69269	5.0687957
1.9367977500923557	25.266602	5.0265894
1.9543270234928547	24.68985	4.9688883
1.971856342629867	23.874422	4.886146
1.9893857079139496	23.255564	4.8224025
2.006915119755667	22.804703	4.775427
2.0244445785655945	22.109491	4.702073
2.0419740847543175	21.728283	4.6613607
2.0595036387324317	21.435701	4.6298704
2.0770332409105414	21.06445	4.5896025
2.094562891699263	20.737478	4.553842
2.1120925915092217	20.253769	4.5004187
2.129622340751053	19.65244	4.4331074
2.1471521398354043	187.65428	13.698696
2.1646819891729323	444.10236	21.073736
2.182211889174303	440.709	20.99307
2.1997418402501974	453.18976	21.288254
2.2172718428113023	432.99258	20.808474
2.234801897268317	320.85312	17.912373
2.2523320040319548	17.197117	4.1469407
2.269862163512935	16.94324	4.1162167
2.287392376121992	16.657461	4.081355
2.304922642269869	16.19609	4.0244365
2.322452962367322	15.982781	3.997847
2.3399833368251164	15.815479	3.976868
2.357513766054032	15.722444	3.9651537
2.3750442504648586	15.419152	3.9267228
2.3925747904683963	15.07402	3.8825276
2.410105386475459	14.819792	3.8496482
2.4276360388968707	14.431186	3.79884
2.445166748143469	14.202356	3.7686014
2.4626975146261025	13.776736	3.7117026
2.4802283387556323	13.470548	3.6702244
2.4977592209429305	13.142819	3.6253026
2.5152901615988825	12.814295	3.579706
2.5328211611343865	12.840709	3.5833936
2.5503522199603523	12.694106	3.5628788
2.5678833384877024	12.621651	3.5526962
2.5854145171273712	12.343597	3.5133457
2.6029457562903064	12.143022	3.4846838
2.620477056387469	11.976141	3.4606562
2.6380084178298326	11.711358	3.4221861
2.655539841028383	11.539263	3.396949
2.673071326394119	11.389683	3.3748605
2.6906028743380523	11.352658	3.3693707
2.708134485271211	11.152412	3.3395228
2.7256661596046325	10.863668	3.2960079
2.743197897749369	10.59195	3.2545276
2.760729700116486	10.457872	3.2338634
2.778261567117063	10.270705	3.2047942
2.795793499162193	10.096221	3.1774552
2.8133254966629817	10.069213	3.1732023
2.830857560030551	10.073722	3.1739128
2.8483896896760337	10.040384	3.1686566
2.865921886010578	9.801855	3.1307914
2.883454149445347	9.66803	3.1093457
2.9009864803915177	9.649955	3.1064377
2.91851887926028	9.61901	3.1014528
2.9360513464628384	9.443467	3.0730224
2.953583882410413	9.1977	3.0327709
2.9711164875142373	8.927823	2.9879463
2.9886491621855606	8.70572	2.9505458
3.0061819068356455	8.439214	2.9050324
3.023714721875769	8.412158	2.900372
3.041247607717225	8.344939	2.8887608
3.0587805647713213	8.418988	2.9015493
3.0763135934493806	8.306906	2.8821702
3.0938466941627407	8.249456	2.8721867
3.1113798673227544	8.100695	2.8461719
3.1289131133407904	8.001413	2.828677
3.1464464326282315	7.88334	2.8077285
3.1639798255964786	7.7887387	2.790831
3.1815132926569443	7.597555	2.7563663
3.1990468342210603	7.487617	2.736351
3.216580450700272	7.374664	2.7156332
3.2341141425060416	7.2945743	2.700847
3.251647910049847	7.2565384	2.6937964
3.2691817537431813	7.2655797	2.695474
3.286715673997555	7.319346	2.705429
3.3042496712244938	7.279887	2.6981266
3.32178374583554	7.23958	2.690647
3.339317898242251	7.0574737	2.6565907
3.3568521288562034	6.9577518	2.6377552
3.3743864380889876	6.7364135	2.5954602
3.3919208263522127	6.684214	2.5853846
3.4094552940575023	6.651282	2.5790079
3.4269898416164972	6.5687284	2.562953
3.444524469440858	6.391128	2.528068
3.4620591779422587	6.3410172	2.5181377
3.479593967532391	6.3837714	2.5266125
3.4971288386229658	6.4181795	2.5334127
3.5146637916257086	6.42875	2.535498
3.5321988269523628	6.407704	2.5313442
3.5497339450146903	6.4376245	2.5372474
3.5672691462244708	6.417647	2.5333076
3.5848044309934988	6.3991094	2.5296462
3.60233979973359	6.300372	2.510054
3.619875252856575	6.3312726	2.516202
3.6374107907743034	6.3356476	2.5170712
3.6549464138986427	6.29336	2.508657
3.6724821226414788	6.24149	2.4982975
3.690017917414714	6.170444	2.4840379
3.7075537986302702	6.2622414	2.5024471
3.7250897667000857	6.42715	2.5351825
3.7426258220361235	6.576793	2.5645258
3.7601619650503553	6.8547144	2.618151
3.777698196154779	7.360923	2.713102
3.7952345157614067	8.350781	2.889772
3.8127709242822716	9.180085	3.0298655
3.830307422129425	11.202239	3.3469746
3.847844009714936	29.973852	5.4748383
3.8653806874508954	97.496864	9.87405
3.882917455749409	96.83978	9.84072
3.900454315022606	96.67911	9.832554
3.917991265682631	41.271233	6.424269
3.9355283081416506	10.881894	3.2987716
3.9530654428118495	8.665942	2.9437973
3.970602670105433	7.429871	2.725779
3.9881399904346244	6.5831428	2.5657635
4.005677404211669	6.5653124	2.5622866
4.023214911848827	6.556656	2.5605967
4.0407525137583855	6.6213684	2.573202
4.058290210352644	6.6820836	2.5849726
4.075828002043927	6.552305	2.5597472
4.0933658892445814	6.435634	2.5368552
4.110903872366966	6.2591243	2.5018241
4.128441951823468	6.179155	2.4857905
4.145980128026488	6.261388	2.5022764
4.163518401388452	6.30523	2.5110216
4.181056772321807	6.210965	2.4921808
4.1985952412390155	6.120576	2.4739797
4.216133808552567	6.104214	2.4706707
4.233672474674966	6.178603	2.4856796
4.251211240018741	6.368054	2.5235004
4.268750104996445	6.5468216	2.5586758
4.286289070020643	7.4839025	2.7356722
4.303828135503928	9.178109	3.0295393
4.3213673018589125	29.417648	5.423804
4.3389065694982305	90.56191	9.516402
4.356445938834537	165.70215	12.872535
4.3739854102805085	171.49734	13.095699
4.391524984248844	172.46802	13.132708
4.409064661152262	136.85014	11.698297
4.426604441403504	97.228546	9.860454
4.444144325415337	75.97404	8.716309
4.461684313600543	21.750742	4.6637692
4.47922440637193	21.879015	4.6775007
4.496764604142329	20.209124	4.4954557
4.5143049073245916	18.513262	4.302704
4.531845316331589	16.340439	4.0423307
4.5493858315762195	13.647319	3.6942277
4.566926453471405	11.328249	3.3657465
4.584467182430081	9.51057	3.0839212
4.602008018865218	8.324867	2.8852847
4.619548963189798	7.6836133	2.771933
4.637090015816834	7.1830916	2.680129
4.654631177159353	6.8460364	2.6164932
4.672172447630417	6.447417	2.5391765
4.689713827643102	6.225275	2.4950502
4.7072553176105085	5.999702	2.4494288
4.724796917945764	5.8433504	2.4173024
4.742338629062015	5.689301	2.3852255
4.759880451372434	5.7352176	2.3948314
4.777422385290215	5.735872	2.394968
4.794964431228581	5.7407093	2.3959777
4.812506589600768	5.7423067	2.396311
4.830048860820047	5.7617273	2.4003599
4.847591245299709	5.748948	2.3976965
4.8651337434530655	5.715504	2.390712
4.882676355693457	5.639048	2.374668
4.900219082434242	5.6831446	2.3839347
4.917761924088813	5.6651278	2.380153
4.935304881070575	5.6903524	2.385446
4.952847953792969	5.605718	2.3676398
4.970391142669449	5.4942856	2.3439891
4.9879344481135055	5.4039407	2.3246377
5.005477870538642	5.4942217	2.3439755
5.023021410358394	5.5193768	2.3493354
5.040565067986324	5.548481	2.3555214
5.05810884383601	5.484775	2.3419597
5.075652738321066	5.439829	2.332344
5.09319675185512	5.4024725	2.324322
5.110740884851836	5.416247	2.3272831
5.128285137724894	5.4259863	2.3293746
5.145829510888007	5.413952	2.32679
5.163374004754908	5.3547378	2.3140306
5.1809186197393595	5.3417344	2.3112192
5.198463356255145	5.327113	2.308054
5.216008214716077	5.364963	2.3162389
5.233553195535998	5.3609786	2.3153787
5.251098299128764	5.354331	2.3139427
5.268643525908272	5.316692	2.3057952
5.286188876288432	5.331751	2.3090584
5.3037343506831895	5.3590417	2.3149605
5.32127994950651	5.3031025	2.3028467
5.3388256731723915	5.3237376	2.3073225
5.356371522094851	5.2944703	2.3009715
5.373917496687938	5.3232126	2.3072088
5.391463597365729	5.3018346	2.3025713
5.40900982454232	5.245188	2.2902377
5.426556178631843	5.29153	2.3003325
5.444102660048449	5.309588	2.3042543
5.4616492692063225	5.232096	2.2873776
5.479196006519669	5.1809664	2.2761736
5.496742872402727	5.1091404	2.2603407
5.514289867269756	5.12681	2.264246
5.531836991535049	5.073824	2.252515
5.549384245612924	5.081461	2.2542095
5.566931629917724	5.111339	2.260827
5.584479144863822	5.183594	2.2767508
5.6020267908656205	5.212809	2.2831576
5.619574568337545	5.1983366	2.2799861
5.637122477694054	5.1566467	2.2708251
5.654670519349629	5.144803	2.268216
5.672218693718784	5.1332846	2.2656753
5.689767001216059	5.1299133	2.2649312
5.707315442256021	5.0084815	2.2379637
5.724864017253266	5.0140824	2.2392147
5.7424127266224225	5.0504	2.2473094
5.75996157077814	5.1159573	2.2618482
5.777510550135105	5.1476684	2.2688475
5.795059665108022	5.1902733	2.278217
5.812608916111639	5.242063	2.2895553
5.830158303560715	5.2981296	2.3017666
5.847707827870055	5.311469	2.3046625
5.86525748945448	5.321201	2.3067727
5.8828072887288485	5.379073	2.319283
5.900357226108044	5.3969517	2.323134
5.917907302006979	5.457529	2.3361354
5.9354575168406	6.0248613	2.4545593
5.9530078710238765	6.721464	2.5925786
5.970558364971812	7.3030744	2.70242
5.988108999099438	7.6088586	2.758416
6.005659773821818	7.943949	2.8185012
6.023210689554039	7.6856403	2.7722988
6.040761746711227	8.139367	2.8529577
6.058312945708531	7.6127977	2.75913
6.075864286961132	7.1520953	2.6743402
6.093415770884244	6.533322	2.5560365
6.1109673978931065	5.948274	2.4389083
6.128519168402993	5.5209084	2.3496614
6.146071082829204	5.4173703	2.3275244
6.163623141587075	5.296507	2.301414
6.181175345091969	5.2200456	2.2847419
6.198727693759281	5.0742846	2.2526174
6.216280188004435	5.076697	2.2531526
6.233832828242885	5.05458	2.2482393
6.251385614890126	5.0605507	2.2495668
6.268938548361669	5.0529094	2.2478678
6.286491629073067	4.967186	2.2287185
6.304044857439898	4.9458055	2.2239168
6.321598233877777	4.9805	2.2317035
6.339151758802344	4.9651527	2.2282622
6.356705432629277	4.983882	2.232461
6.37425925577428	4.963214	2.227827
6.391813228653095	5.0039144	2.236943
6.409367351681486	5.0129094	2.2389526
6.426921625275259	4.996352	2.2352521
6.44447604985025	5.0276914	2.2422514
6.46203062582232	5.015011	2.239422
6.47958535360737	4.998136	2.2356513
6.497140233621328	4.9659076	2.2284317
6.514695266280161	4.962685	2.2277086
6.532250451999859	5.033497	2.2435455
6.549805791196454	5.122296	2.263249
6.567361284286002	5.104057	2.259216
6.584916931684597	5.1071024	2.2598898
6.602472733808367	5.0589533	2.2492118
6.6200286910734665	5.0698943	2.2516425
6.637584803896092	5.105738	2.259588
6.655141072692462	5.094252	2.257045
6.672697497878842	5.0971007	2.257676
6.690254079871514	5.0274363	2.2421944
6.707810819086808	5.0103617	2.2383838
6.725367715941078	4.944365	2.2235928
6.742924770850719	5.026793	2.2420511
6.760481984232151	5.08222	2.254378
6.778039356501836	5.0861607	2.255252
6.795596888076266	5.038174	2.2445877
6.813154579371963	4.9536943	2.2256896
6.830712430805492	4.912655	2.216451
6.84827044279344	4.9350824	2.2215044
6.865828615752445	4.955854	2.2261748
6.883386950099159	5.0284624	2.2424233
6.900945446250287	5.080831	2.2540698
6.918504104622553	5.105409	2.2595153
6.936062925632727	5.0980964	2.2578964
6.953621909697607	5.1214705	2.2630665
6.971181057234028	5.1538124	2.270201
6.988740368658859	5.205192	2.281489
7.006299844389007	5.2180715	2.2843099
7.023859484841407	5.2862496	2.2991846
7.041419290433036	5.3764963	2.3187273
7.058979261580902	5.4637785	2.3374727
7.0765393987020495	5.6302276	2.3728101
7.094099702213559	6.0350633	2.4566367
7.111660172532549	6.465442	2.5427234
7.129220810076164	6.883672	2.6236753
7.146781615261595	7.525055	2.7431834
7.16434258850606	7.7567387	2.785092
7.181903730226821	8.232426	2.8692205
7.1994650408411704	8.308382	2.8824265
7.217026520766437	8.344942	2.8887613
7.234588170419983	8.576214	2.9285173
7.252149990219215	8.481646	2.9123266
7.269711980581568	8.396124	2.8976066
7.2872741419245175	8.221277	2.867277
7.304836474665574	7.7209845	2.778666
7.322398979222286	7.5215187	2.7425387
7.339961656012233	7.275119	2.6972427
7.357524505453039	6.9669714	2.639502
7.375087527962357	6.678488	2.584277
7.392650723957886	6.3567443	2.5212584
7.410214093857353	6.024264	2.4544375
7.427777638078528	5.771732	2.402443
7.445341357039213	5.577825	2.361742
7.4629052511572525	5.4010005	2.3240054
7.480469320850524	5.2685494	2.2953322
7.498033566536948	5.213993	2.283417
7.5155979886344735	5.2066708	2.2818131
7.5331625875610975	5.170158	2.2737982
7.550727363734844	5.187964	2.2777102
7.568292317573788	5.233275	2.2876353
7.585857449496025	5.323857	2.3073485
7.603422759919705	5.3691006	2.317132
7.620988249263007	5.3038	2.302998
7.638553917944147	5.152155	2.269836
7.656119766381391	5.1113286	2.2608247
7.673685794993023	5.179708	2.2758973
7.691252004197388	5.192195	2.2786388
7.70881839441285	5.192574	2.278722
7.726384966057826	5.154079	2.2702596
7.743951719550762	5.1661882	2.2729251
7.761518655310149	5.2014523	2.2806692
7.779085773754511	5.238005	2.2886689
7.796653075302419	5.237208	2.2884946
7.814220560372475	5.243495	2.2898679
7.831788229383323	5.1885166	2.2778316
7.8493560827536495	5.162721	2.2721622
7.866924120902174	5.208814	2.2822826
7.884492344247663	5.316532	2.3057606
7.9020607532089135	5.3934393	2.322378
7.919629348204771	5.387811	2.3211658
7.937198129654115	5.350236	2.3130577
7.954767097975865	5.326457	2.3079119
7.972336253588986	5.3772354	2.3188868
7.989905596912472	5.400746	2.3239505
8.007475128365371	5.416789	2.3273997
8.025044848366756	5.4498467	2.3344908
8.042614757335754	5.594985	2.3653722
8.060184855691523	5.65701	2.378447
8.07775514385327	5.7752976	2.403185
8.095325622240228	5.856448	2.4200099
8.112896291271687	5.9758196	2.4445488
8.130467151366968	6.0701623	2.46377
8.148038202945436	6.0720224	2.4641473
8.165609446426497	5.988108	2.447061
8.183180882229594	6.0241413	2.4544127
8.200752510774217	6.0294347	2.4554908
8.218324332479893	5.9825583	2.445927
8.235896347766193	6.007715	2.451064
8.253468557052724	6.0350747	2.4566388
8.27104096075914	6.1189303	2.473647
8.288613559305137	6.197764	2.4895308
8.306186353110448	6.2462254	2.499245
8.32375934259485	6.304207	2.510818
8.341332528178162	6.2783327	2.50566
8.358905910280246	6.2242427	2.4948432
8.376479489321003	6.2187347	2.4937391
8.394053265720377	6.259433	2.501886
8.411627239898356	6.2602386	2.5020468
8.42920141227497	6.2810907	2.5062103
8.44677578327029	6.248147	2.4996293
8.464350353304427	6.1792464	2.485809
8.48192512279754	6.1310773	2.4761012
8.499500092169827	6.13913	2.4777267
8.51707526184153	6.2018666	2.4903548
8.534650632232934	6.1972675	2.4894311
8.552226203764365	6.2286034	2.495717
8.569801976856192	6.207251	2.4914355
8.587377951928834	6.3158393	2.5131333
8.60495412940274	6.2805753	2.5061076
8.622530509698416	6.275104	2.5050159
8.6401070932364	6.395391	2.528911
8.657683880437283	6.565071	2.5622394
8.675260871721695	6.725066	2.5932732
8.692838067510303	6.8615623	2.6194584
8.710415468223834	7.0238676	2.650258
8.727993074283043	7.146834	2.6733563
8.745570886108737	7.235927	2.6899679
8.763148904121765	7.2800355	2.698154
8.78072712874302	7.330516	2.7074926
8.798305560393441	7.5171013	2.7417333
8.815884199494006	7.620668	2.7605557
8.833463046465745	7.7935576	2.7916944
8.851042101729728	7.9102554	2.8125176
8.86862136570707	8.291373	2.8794744
8.886200838818924	8.407201	2.8995173
8.903780521486505	8.431573	2.903717
8.921360414131055	8.457996	2.9082634
8.938940517173874	8.525447	2.9198368
8.956520831036297	8.751195	2.958242
8.97410135613971	9.038016	3.0063293
8.99168209290554	9.277787	3.0459461
9.009263041755265	9.498074	3.0818944
9.026844203110405	9.695351	3.113736
9.044425577392525	9.8667555	3.1411393
9.062007165023239	9.922337	3.149974
9.079588966424197	10.234446	3.199132
9.097170982017108	10.329332	3.213928
9.11475321222372	11.3010025	3.3616965
9.132335657465825	12.1365385	3.4837534
9.149918318165264	12.193371	3.4919007
9.167501194743924	12.61458	3.551701
9.18508428762374	12.319987	3.509984
9.202667597226693	12.3613615	3.5158727
9.220251123974803	12.014861	3.466246
9.237834868290143	11.667705	3.4158022
9.255418830594836	11.431752	3.3810875
9.273003011311046	10.953099	3.3095467
9.290587410860985	10.825331	3.2901871
9.308172029666911	10.251381	3.2017777
9.32575686815113	9.94278	3.1532173
9.343341926735997	8.723996	2.9536412
9.360927205843916	8.484941	2.912892
9.378512705897327	8.325481	2.885391
9.396098427318728	8.103868	2.8467293
9.413684370530664	8.007865	2.829817
9.431270535955722	7.97844	2.8246133
9.448856924016539	7.912038	2.8128345
9.466443535135806	7.7908554	2.7912104
9.484030369736251	7.744601	2.7829123
9.501617428240658	7.7859025	2.790323
9.519204711071852	7.8773746	2.8066661
9.536792218652714	7.980642	2.825003
9.55437995140617	8.055294	2.838185
9.571967909755191	7.949854	2.8195486
9.589556094122802	7.8807817	2.807273
9.60714450493207	7.806731	2.7940528
9.624733142606116	7.8555045	2.8027673
9.642322007568108	7.9997644	2.8283856
9.659911100241267	8.033057	2.8342648
9.677500421048851	8.019149	2.8318102
9.695089970414175	8.052559	2.837703
9.712679748760609	8.095396	2.8452408
9.730269756511557	8.162162	2.8569498
9.747859994090492	8.225955	2.8680925
9.765450461920915	8.21305	2.8658419
9.78304116042639	8.219462	2.8669605
9.800632090030527	8.235956	2.8698356
9.81822325115699	8.238	2.8701916
9.835814644229481	8.235178	2.8697
9.853406269671762	8.206899	2.8647685
9.870998127907646	8.154268	2.855568
9.888590219360985	8.146829	2.854265
9.906182544455698	8.168302	2.8580241
9.923775103615734	8.228197	2.8684833
9.941367897265108	8.246251	2.8716288
9.958960925827878	8.224139	2.867776
9.97655418972816	8.262154	2.8743963
9.994147689390106	8.221156	2.867256
10.011741425237934	8.220558	2.8671515
10.029335397695904	8.261762	2.8743281
10.04692960718833	8.311277	2.8829286
10.06452405413958	8.357167	2.8908765
10.082118738974064	8.338416	2.8876317
10.099713662116246	8.309466	2.8826146
10.117308823990651	8.254077	2.8729908
10.134904225021844	8.184396	2.8608384
10.152499865634445	8.206172	2.8646417
10.170095746253125	8.253211	2.8728402
10.18769186730261	8.271721	2.87606
10.205288229207675	8.204291	2.8643134
10.222884832393145	8.133842	2.8519893
10.2404816772839	8.141439	2.8533208
10.258078764304868	8.182144	2.8604448
10.275676093881035	8.157969	2.856216
10.293273666437438	8.089896	2.8442743
10.310871482399158	8.102166	2.8464305
10.32846954219134	8.018764	2.831742
10.346067846239173	8.059391	2.8389068
10.363666394967908	7.990137	2.826683
10.38126518880283	8.027008	2.8331976
10.398864228169298	8.081877	2.8428643
10.416463513492713	8.110232	2.847847
10.434063045198531	8.167881	2.8579504
10.451662823712262	8.11492	2.8486698
10.469262849459467	8.195306	2.8627446
10.486863122865758	8.17025	2.8583648
10.504463644356806	8.153791	2.8554845
10.522064414358338	8.164486	2.8573565
10.539665433296118	8.126138	2.8506382
10.557266701595987	8.041967	2.8358362
10.574868219683818	7.8852687	2.808072
10.592469987985552	7.7550974	2.7847974
10.610072006927185	7.680459	2.7713642
10.627674276934751	7.5858445	2.7542412
10.64527679843435	7.39802	2.7199302
10.662879571852143	7.2850533	2.6990838
10.680482597614331	7.1324005	2.6706555
10.698085876147173	7.072211	2.6593628
10.715689407876988	6.944973	2.6353316
10.733293193230146	6.8683515	2.620754
10.750897232633072	6.7763314	2.6031387
10.76850152651225	6.709013	2.5901763
10.786106075294207	6.630898	2.575053
10.803710879405534	6.54062	2.5574636
10.821315939272877	6.461753	2.541998
10.83892125532294	6.383084	2.5264766
10.856526827982472	6.306065	2.511188
10.874132657678285	6.2397523	2.4979496
10.891738744837243	6.203148	2.490612
10.909345089886271	6.15789	2.4815097
10.926951693252343	6.0899253	2.4677775
10.944558555362494	6.0071545	2.4509497
10.96216567664381	5.957343	2.4407668
10.979773057523436	5.8687105	2.422542
10.997380698428573	5.83795	2.4161851
11.014988599786477	5.7336755	2.3945096
11.032596762024461	5.6585636	2.3787735
11.050205185569892	5.6079555	2.3681123
11.067813870850198	5.599477	2.3663213
11.085422818292859	5.4959073	2.344335
11.10303202832541	5.4220967	2.3285396
11.120641501375454	5.3431315	2.3115215
11.138251237870636	5.2810493	2.2980533
11.155861238238671	5.2092047	2.2823682
11.173471502907317	5.1736917	2.274575
11.191082032304402	5.136683	2.2664251
11.208692826857805	5.0909266	2.256308
11.226303886995465	5.0376177	2.2444637
11.243915213145371	4.98989	2.2338061
11.261526805735578	4.963161	2.2278154
11.279138665194196	4.8789077	2.2088249
11.296750791949393	4.792419	2.1891594
11.314363186429393	4.7288585	2.174594
11.331975849062479	4.6541443	2.1573465
11.34958878027699	4.6481147	2.1559486
11.36720198050133	4.61858	2.1490881
11.384815450163948	4.6192155	2.149236
11.402429189693366	4.571202	2.138037
11.420043199518153	4.5130396	2.1243916
11.437657480066942	63.450428	7.9655776
11.455272031768422	85.16398	9.228434
11.472886855051353	107.54403	10.370344
11.490501950344528	99.158066	9.957814
11.508117318076819	84.49184	9.191944
11.52573295867715	45.845154	6.770905
11.543348872574514	4.1609464	2.0398397
11.560965060197946	4.1219854	2.0302672
11.57858152197655	4.11178	2.0277524
11.59619825833949	4.096526	2.0239878
11.613815269715985	4.040069	2.0099924
11.631432556535323	38.559223	6.209607
11.649050119226837	83.00519	9.110719
11.666667958219929	93.40548	9.664651
11.68428607394406	107.656235	10.375752
11.701904466828756	82.47113	9.081362
11.719523137303586	65.301544	8.080937
11.737142085798196	4.5316334	2.1287634
11.754761312742286	3.6572635	1.9123973
11.772380818565619	3.6571019	1.9123551
11.790000603698015	3.617477	1.9019666
11.80762066856935	3.5761278	1.8910652
11.825241013609572	3.5018237	1.8713161
11.842861639248683	3.5163527	1.8751941
11.860482545916748	3.5130475	1.8743125
11.878103734043883	3.4878268	1.8675724
11.895725204060282	3.4233549	1.850231
11.91334695639619	3.3521757	1.8308948
11.930968991481919	3.330798	1.8250474
11.948591309747824	3.3002026	1.816646
11.966213911624347	3.3219614	1.8226249
11.98383679754198	3.3178313	1.8214915
12.001459967931268	3.2989464	1.8163002
12.019083423222835	3.2527463	1.8035371
12.036707163847352	3.2223408	1.7950879
12.05433119023556	3.2426689	1.8007412
12.071955502818259	3.2442005	1.8011664
12.089580102026313	3.2327256	1.7979782
12.107204988290643	3.1650329	1.7790539
12.12483016204224	3.1370363	1.7711681
12.142455623712152	3.1078494	1.7629093
12.16008137373149	3.089755	1.75777
12.177707412531431	3.1532576	1.7757415
12.19533374054321	3.1366217	1.771051
12.212960358198126	3.1076083	1.762841
12.230587265927545	3.0677364	1.7514955
12.248214464162889	3.066522	1.7511487
12.265841953335649	3.0652132	1.750775
12.283469733877375	2.9987552	1.7316915
12.301097806219685	2.9863374	1.7281022
12.31872617079425	2.9598873	1.7204323
12.336354828032825	2.9715552	1.72382
12.353983778367205	2.970055	1.7233847
12.371613022229262	2.9507127	1.7177639
12.389242560050928	2.93562	1.7133651
12.406872392264201	2.9045084	1.7042618
12.424502519301143	2.8839464	1.6982186
12.442132941593874	2.8785582	1.6966314
12.459763659574586	2.830908	1.6825303
12.477394673675532	2.8144875	1.6776434
12.49502598432903	2.773643	1.6654258
12.51265759196746	2.7820866	1.6679589
12.530289497023267	2.7969153	1.6723981
12.547921699928967	2.8194914	1.6791341
12.565554201117134	2.8405368	1.6853893
12.583187001020404	2.8320396	1.6828665
12.600820100071486	2.8185565	1.6788558
12.618453498703152	2.821053	1.679599
12.636087197348235	2.8059423	1.6750947
12.65372119643964	2.775661	1.6660315
12.671355496410326	2.7575219	1.6605787
12.68899009769333	2.8116512	1.6767979
12.706625000721749	2.8399541	1.6852163
12.724260205928752	2.909104	1.7056096
12.741895713747551	2.9211733	1.709144
12.759531524611454	2.9754536	1.7249503
12.777167638953818	2.986956	1.7282811
12.794804057208072	2.9901617	1.7292084
12.812440779807702	3.019149	1.7375699
12.830077807186271	3.1617746	1.7781379
12.847715139777405	3.1750968	1.7818801
12.865352778014795	3.3628097	1.8337965
12.882990722332197	3.460799	1.8603222
12.90062897316344	3.5771968	1.8913479
12.918267530942412	3.6190042	1.9023681
12.935906396103071	3.5210474	1.8764454
12.953545569079449	3.692704	1.921641
12.971185050305628	3.58857	1.8943522
12.988824840215775	3.6199784	1.9026241
13.006464939244115	3.5476038	1.8835084
13.024105347824943	3.407197	1.8458594
13.041746066392617	3.484925	1.8667954
13.05938709538157	3.3286922	1.8244704
13.077028435226296	3.2833588	1.8120041
13.094670086361363	3.14879	1.774483
13.112312049221401	3.0912614	1.7581984
13.129954324241112	3.0553937	1.7479684
13.147596911855258	2.8830712	1.6979609
13.165239812498685	2.8366466	1.6842347
13.182883026606293	2.8003855	1.6734352
13.200526554613058	2.7549772	1.6598125
13.218170396954017	2.7355616	1.6539533
13.235814554064284	2.7117507	1.6467395
13.253459026379034	2.74487	1.6567649
13.271103814333523	2.740895	1.6555649
13.288748918363058	2.7250392	1.6507692
13.306394338903031	2.6965277	1.6421107
13.32404007638889	2.6663182	1.6328864
13.341686131256164	2.6753502	1.6356498
13.359332503940449	2.6726499	1.6348242
13.376979194877402	2.7152035	1.6477875
13.394626204502751	2.7391589	1.6550405
13.412273533252307	2.760145	1.6613684
13.429921181561937	2.7289217	1.6519448
13.447569149867581	2.71192	1.6467909
13.465217438605247	2.707955	1.6455865
13.482866048211022	2.6699877	1.6340097
13.500514979121052	2.6892316	1.6398877
13.518164231771568	2.664766	1.6324111
13.535813806598844	2.6679199	1.6333768
13.553463704039254	2.6663055	1.6328826
13.571113924529229	2.652641	1.6286931
13.588764468505275	2.625202	1.6202475
13.606415336403956	2.640504	1.6249627
13.624066528661917	2.7079794	1.645594
13.641718045715882	2.8065732	1.675283
13.659369888002635	2.8579373	1.6905435
13.67702205595903	2.8867202	1.699035
13.694674550021993	2.956194	1.7193586
13.712327370628532	3.0069623	1.7340595
13.729980518215713	3.081644	1.7554612
13.747633993220681	3.148693	1.7744557
13.765287796080647	3.244886	1.8013567
13.7829419272329	3.3177066	1.8214573
13.800596387114801	3.371802	1.8362467
13.818251176163775	3.370276	1.8358312
13.835906294817324	3.383152	1.8393346
13.853561743513023	3.3843496	1.8396602
13.871217522688525	3.4147687	1.8479093
13.888873632781538	3.4595797	1.8599945
13.906530074229858	3.4807746	1.8656834
13.92418684747135	3.497086	1.8700497
13.941843952943948	3.4922326	1.8687516
13.959501391085665	3.4752772	1.8642095
13.977159162334578	3.3868325	1.8403349
13.994817267128846	3.305669	1.8181499
14.012475705906693	3.219941	1.7944194
14.030134479106424	3.1697667	1.7803838
14.047793587166414	3.1640446	1.7787762
14.065453030525108	3.1229792	1.7671952
14.083112809621026	3.0561483	1.7481843
14.100772924892766	2.9781284	1.7257255
14.118433376778997	2.9234295	1.7098039
14.136094165718458	2.8588762	1.6908212
14.153755292149969	2.8146145	1.6776813
14.171416756512416	2.7214868	1.6496929
14.189078559244768	2.6595018	1.6307979
14.20674070078606	2.6222851	1.6193471
14.224403181575408	2.6226277	1.619453
14.242066002051999	2.606034	1.6143216
14.259729162655093	2.571409	1.6035614
14.277392663824022	2.5216544	1.5879718
14.295056505998208	2.4863694	1.5768225
14.312720689617128	2.4157684	1.5542742
14.330385215120348	2.3598537	1.5361816
14.348050082947497	2.3557992	1.5348613
14.3657152935383	2.3868856	1.5449549
14.383380847332528	2.40349	1.5503193
14.401046744770051	2.370348	1.5395935
14.418712986290798	2.361255	1.5366375
14.436379572334793	2.365465	1.5380068
14.454046503342123	2.4063587	1.5512443
14.471713779752946	2.3797486	1.5426434
14.489381402007504	2.3878694	1.5452732
14.507049370546113	2.3845754	1.544207
14.524717685809168	2.4203377	1.5557435
14.542386348237134	2.4242382	1.5569966
14.560055358270553	2.424278	1.5570093
14.577724716350051	2.4306977	1.5590695
14.595394422916325	2.4067407	1.5513674
14.61306447841015	2.4093215	1.5521989
14.63073488327237	2.422738	1.5565147
14.648405637943917	2.479038	1.5744962
14.6660767428658	2.4988813	1.580785
14.683748198479094	2.536187	1.592541
14.701420005224954	2.555857	1.5987048
14.719092163544628	2.5854564	1.6079354
14.73676467387942	2.621437	1.6190853
14.754437536670727	2.6315343	1.6222005
14.772110752360014	2.622412	1.6193863
14.78978432138882	2.629509	1.6215761
14.807458244198777	2.6715517	1.6344882
14.82513252123159	2.6980999	1.6425893
14.842807152929028	2.718349	1.6487416
14.860482139732962	2.688222	1.6395798
14.87815748208531	2.6925714	1.6409056
14.8958331804281	2.696643	1.6421459
14.91350923520342	2.7007802	1.6434051
14.931185646853438	2.7256992	1.6509691
14.948862415820408	2.6815493	1.6375437
14.966539542546656	2.6520212	1.6285027
14.98421702747459	2.6265547	1.620665
15.001894871046696	2.6391056	1.6245325
15.019573073705542	2.619881	1.6186047
15.037251635893766	2.5962791	1.6112974
15.054930558054092	2.652388	1.6286154
15.072609840629323	2.7120852	1.646841
15.090289484062351	2.862451	1.691878
15.107969488796124	3.120672	1.7665424
15.125649855273691	3.5337257	1.8798207
15.14333058393817	4.0427876	2.0106685
15.161011675232768	5.067769	2.2511706
15.17869312960076	6.4191504	2.5336041
15.196374947485506	8.305771	2.8819735
15.214057129330447	11.380291	3.3734686
15.231739675579114	15.930408	3.9912915
15.249422586675102	20.77963	4.558468
15.267105863062092	23.66354	4.8645186
15.284789505183847	23.867012	4.8853874
15.302473513484218	21.64981	4.6529355
15.320157888407127	18.13217	4.2581887
15.337842630396578	14.136335	3.759832
15.355527739896656	11.015111	3.318902
15.37321321735153	8.626766	2.9371357
15.39089906320545	6.3838797	2.526634
15.408585277902748	4.869053	2.206593
15.42627186188783	3.7684317	1.9412448
15.443958815605198	3.2350686	1.7986296
15.461646139499424	2.9291897	1.7114875
15.479333834015168	2.8081985	1.675768
15.497021899597165	2.756289	1.6602075
15.514710336690234	2.7064068	1.6451161
15.53239914573928	2.6901052	1.640154
15.550088327189297	2.6451385	1.6263882
15.567777881485336	2.6149662	1.6170857
15.58546780907256	2.5590277	1.5996962
15.6031581103962	2.481724	1.5753489
15.620848785901568	2.463862	1.5696694
15.638539836034063	2.4433534	1.563123
15.656231261239173	2.4574552	1.5676272
15.673923061962451	2.454783	1.5667747
15.691615238649552	2.4699636	1.5716118
15.709307791746202	2.454171	1.5665793
15.727000721698221	2.4590898	1.5681485
15.744694028951498	2.4350069	1.5604508
15.76238771395202	2.3980448	1.5485622
15.780081777145844	2.3866854	1.54489
15.797776218979125	2.3630548	1.5372231
15.815471039898094	2.3698819	1.5394421
15.833166240349064	2.358951	1.5358877
15.850861820778437	2.3697681	1.5394051
15.868557781632699	2.3799968	1.5427238
15.886254123358412	2.422601	1.5564706
15.903950846402232	2.3906994	1.5461887
15.921647951210897	2.3410928	1.530063
15.939345438231225	2.3501563	1.5330219
15.957043307910133	2.381171	1.5431043
15.974741560694602	2.3839896	1.5440173
15.992440197031714	2.3707283	1.539717
16.01013921736862	2.3595116	1.5360702
16.02783862215259	2.3648493	1.5378066
16.045538411830933	2.3589177	1.5358769
16.06323858685107	2.3255517	1.524976
16.080939147660512	2.297571	1.515774
16.09864009470684	2.317175	1.5222269
16.11634142843774	2.3922062	1.5466758
16.134043149300954	2.4007466	1.5494343
16.15174525774433	2.3822773	1.5434628
16.169447754215817	2.39114	1.5463312
16.18715063916342	2.4753313	1.5733186
16.204853913035244	2.5474505	1.5960735
16.222557576279478	2.5393076	1.5935205
16.240261629344403	22.475512	4.7408347
16.257966072678386	42.99821	6.557302
16.275670906729868	38.11319	6.1735883
16.293376131947387	2.5117633	1.5848544
16.31108174877957	2.4774063	1.5739778
16.328787757675133	2.4819608	1.575424
16.34649415908287	2.52136	1.5878791
16.364200953451657	2.5765114	1.6051515
16.38190814123048	2.6221302	1.6192993
16.39961572286839	2.6848042	1.6385372
16.41732369881455	2.731194	1.6526325
16.43503206951817	2.7946877	1.671732
16.45274083542859	2.8241599	1.6805236
16.47044999699522	2.8567715	1.6901987
16.488159554667558	2.8597608	1.6910827
16.505869508895184	2.8999157	1.7029139
16.523579860127786	2.916195	1.707687
16.541290608815117	2.988461	1.7287166
16.559001755407035	3.0418634	1.7440939
16.57671330035348	3.0789552	1.7546952
16.59442524410448	3.1416059	1.7724576
16.61213758711015	3.2183197	1.7939676
16.629850329820705	3.24897	1.80249
16.647563472686436	3.304149	1.8177319
16.665277016157724	3.3426642	1.8282955
16.682990960685053	3.4165912	1.8484024
16.70070530671898	3.402571	1.8446059
16.718420054710155	3.4228246	1.8500878
16.736135205109335	3.4600985	1.860134
16.753850758367335	3.5810654	1.8923703
16.771566714935087	3.6646028	1.9143152
16.789283075263597	3.7476997	1.9358977
16.80699983980398	3.8168926	1.953687
16.82471700900741	3.8717353	1.9676726
16.84243458332518	3.8915744	1.9727074
16.860152563208665	3.9631991	1.9907786
16.87787094910932	4.028076	2.007007
16.89558974147871	4.086014	2.021389
16.913308940768466	4.156282	2.038696
16.931028547430333	4.2772903	2.068161
16.94874856191613	4.3371267	2.082577
16.966468984677785	4.3641176	2.089047
16.98418981616729	4.37062	2.0906026
17.00191105683676	4.4053288	2.0988874
17.019632707138374	4.4892607	2.1187875
17.03735476752442	4.544325	2.1317422
17.05507723844728	4.5771084	2.1394176
17.072800120359403	4.6473002	2.1557598
17.090523413713353	4.6314716	2.1520853
17.108247118961785	4.6288686	2.1514804
17.125971236557437	4.611082	2.147343
17.143695766953133	4.6420765	2.154548
17.161420710601806	4.6890426	2.1654198
17.179146067956477	4.6688695	2.1607566
17.19687183947025	4.650624	2.1565306
17.21459802559634	4.6072273	2.1464453
17.232324626788028	4.5956073	2.1437368
17.25005164349871	4.6445274	2.1551166
17.267779076181863	4.6486316	2.1560686
17.285506925291074	4.6358223	2.153096
17.30323519127999	4.5526137	2.1336856
17.320963874602384	4.556939	2.1346989
17.33869297571211	4.5384197	2.1303568
17.356422495063114	4.565261	2.1366472
17.37415243310944	4.566374	2.1369076
17.391882790305218	4.523909	2.1269484
17.40961356710468	4.4828	2.1172624
17.42734476396215	4.457494	2.1112778
17.445076381332044	4.4537106	2.1103816
17.462808419668868	4.5157847	2.1250377
17.48054087942723	4.6647296	2.1597986
17.498273761061835	4.9650536	2.22824
17.51600706502747	5.438911	2.3321474
17.533740791779024	6.1505537	2.480031
17.551474941771485	7.6037874	2.7574966
17.56920951545993	8.665524	2.943726
17.586944513299528	10.7174015	3.2737443
17.60467993574556	12.272227	3.5031738
17.622415783253373	13.842486	3.720549
17.64015205627843	15.087248	3.8842306
17.657888755276293	16.124395	4.015519
17.675625880702604	16.667969	4.0826426
17.69336343301311	16.487486	4.0604787
17.71110141266366	15.750439	3.9686823
17.728839820110178	14.813581	3.8488417
17.746578655808705	13.987775	3.7400234
17.764317920215372	12.710092	3.5651217
17.7820576137864	11.30898	3.3628826
17.79979773697811	9.348672	3.0575597
17.81753829024692	7.3925414	2.7189229
17.835279274049356	5.7816787	2.4045122
17.85302068884201	4.844274	2.2009711
17.870762535081607	4.2745414	2.0674963
17.888504813224934	3.9796143	1.994897
17.90624752372891	3.7926707	1.947478
17.923990667050536	3.6871817	1.9202036
17.941734243646895	3.5380805	1.8809786
17.959478253975185	3.446143	1.856379
17.9772226984927	3.4176867	1.8486986
17.994967577656833	3.3962998	1.8429053
18.01271289192506	3.3986442	1.8435413
18.030458641754965	3.3706343	1.8359287
18.04820482760425	3.349487	1.8301604
18.06595144993067	3.2966635	1.8156717
18.083698509192125	3.2684536	1.8078865
18.101446005846576	3.232742	1.7979828
18.119193940352105	3.2181993	1.793934
18.136942313166887	3.2052088	1.7903097
18.1546911247492	3.174979	1.7818471
18.1724403755574	3.174644	1.7817531
18.19019006604997	3.1586487	1.7772588
18.207940196685467	3.131683	1.7696562
18.225690767922575	3.1145425	1.7648066
18.243441780220046	3.1010222	1.7609719
18.261193234036764	3.084107	1.7561625
18.278945129831676	3.0353923	1.7422377
18.29669746806386	3.0120068	1.7355134
18.314450249192483	2.994191	1.730373
18.3322034736768	3.019264	1.737603
18.349957141976184	3.0746076	1.7534559
18.3677112545501	3.091437	1.7582483
18.385465811858108	3.0597396	1.7492112
18.403220814359884	3.0476613	1.7457552
18.420976262515172	3.0440323	1.7447156
18.43873215678387	3.0581539	1.7487578
18.456488497625923	3.0943038	1.7590634
18.474245285501407	3.1992693	1.7886502
18.492002520870486	3.271489	1.8087257
18.50976020419343	3.3168857	1.821232
18.527518335930615	3.6039577	1.8984092
18.545276916542516	4.2185717	2.0539162
18.563035946489688	4.493629	2.1198182
18.580795426232832	4.9837375	2.2324286
18.598555356232698	4.855624	2.2035482
18.616315736950185	5.08202	2.2543335
18.63407656884626	4.7118893	2.1706886
18.65183785238201	4.9350796	2.221504
18.669599588018617	4.728497	2.1745107
18.68736177621737	4.734128	2.175805
18.705124417439652	4.7235575	2.1733747
18.72288751214696	4.5273895	2.1277664
18.740651060800886	4.7408657	2.177353
18.758415063863115	4.4664803	2.113405
18.77617952179546	4.5981455	2.1443286
18.793944435059814	4.267122	2.0657012
18.811709804118184	4.2978063	2.073115
18.829475629432675	4.255076	2.0627835
18.8472419114655	4.0383296	2.0095596
18.86500865067897	4.079815	2.0198553
18.88277584753551	3.7427642	1.9346225
18.90054350249763	3.7935817	1.947712
18.918311616027957	3.4259315	1.8509272
18.936080188589226	3.3163562	1.8210865
18.953849220644265	2.9871466	1.7283363
18.971618712656007	2.8671584	1.6932685
18.9893886650875	2.8675044	1.6933707
19.007159078401887	8.072623	2.841236
19.024929953062408	32.9105	5.7367673
19.042701289532435	32.83492	5.730176
19.060473088275405	25.410961	5.0409284
19.07824534975489	2.7238162	1.6503987
19.096018074434568	2.708995	1.6459025
19.113791262778197	2.6685903	1.633582
19.13156491524966	2.6462345	1.6267251
19.149339032312945	2.6034248	1.6135132
19.167113614432136	2.5619833	1.6006197
19.184888662071433	2.5715523	1.603606
19.202664175695123	2.5646577	1.6014549
19.220440155767623	2.5732362	1.604131
19.238216602753447	2.5600584	1.6000183
19.2559935171172	2.554426	1.5982572
19.27377089932361	2.5094895	1.5841368
19.291548749837514	2.501365	1.5815704
19.309327069123835	2.518245	1.586898
19.32710585764763	2.5309637	1.5909003
19.344885115874032	2.5113976	1.584739
19.362664844268313	2.4969633	1.5801783
19.380445043295822	2.484723	1.5763005
19.39822571342203	2.4854283	1.5765241
19.41600685511252	2.4981694	1.5805598
19.43378846883297	2.4847803	1.5763186
19.451570555049173	2.4984994	1.5806643
19.469353114227037	2.471999	1.5722592
19.48713614683254	2.454703	1.5667492
19.50491965333182	2.4790154	1.5744889
19.52270363419109	2.4722314	1.5723331
19.540488089876686	2.5084817	1.5838187
19.55827302085503	2.520713	1.5876753
19.576058427592674	2.5070407	1.5833638
19.593844310556282	2.466566	1.5705305
19.611630670212598	2.478484	1.5743202
19.629417507028506	2.4849837	1.5763831
19.64720482147098	2.4884458	1.5774808
19.6649926140071	2.5120614	1.5849484
19.682780885104084	2.5017362	1.5816878
19.70056963522921	2.46079	1.5686905
19.718358864849908	2.4588945	1.5680863
19.7361485744337	2.492543	1.578779
19.753938764448215	2.507549	1.5835242
19.771729435361202	2.4994907	1.5809778
19.789520587640506	2.4874337	1.57716
19.807312221754092	2.4916625	1.5785
19.825104338170043	2.5009563	1.5814412
19.842896937356517	2.5423052	1.5944608
19.860690019781824	2.5448194	1.5952489
19.87848358591436	2.5259764	1.5893321
19.896277636222635	2.4856946	1.5766085
19.914072171175278	2.4699125	1.5715955
19.931867191241015	2.432797	1.5597426
19.94966269688869	2.4438255	1.5632739
19.967458688587264	2.437568	1.5612713
19.985255166805807	2.4801133	1.5748376
20.00305213201348	2.4651523	1.5700803
20.020849584679578	2.507522	1.5835158
20.038647525273507	2.4943993	1.5793667
20.05644595426477	2.467542	1.5708412
20.07424487212299	2.4142358	1.5537812
20.092044279317903	2.3966467	1.5481107
20.109844176319353	2.3786216	1.542278
20.127644563597304	2.4050086	1.550809
20.145445441621817	2.385925	1.544644
20.16324681086307	2.3809385	1.5430291
20.181048671791373	2.406821	1.5513933
20.198851024877122	2.4205165	1.5558009
20.216653870590836	2.4539087	1.5664957
20.234457209403146	2.4474072	1.5644192
20.252261041784802	2.4119675	1.553051
20.270065368206662	2.3495169	1.5328134
20.287870189139685	2.3554702	1.5347542
20.305675505054968	2.3609047	1.5365236
20.323481316423702	2.3679428	1.5388122
20.341287623717207	2.3554535	1.5347487
20.359094427406884	2.3503983	1.5331008
20.376901727964288	2.31989	1.5231185
20.39470952586107	2.3488479	1.5325952
20.41251782156899	2.3582325	1.5356537
20.430326615559935	2.3183682	1.5226189
20.448135908305886	2.3023455	1.5173482
20.465945700278965	2.3335738	1.527604
20.483755991951384	2.331472	1.5269158
20.50156678379548	2.3425922	1.5305529
20.519378076283708	2.3093178	1.519644
20.537189869888635	2.3167403	1.5220842
20.55500216508294	2.3269062	1.52542
20.572814962339415	2.334183	1.5278033
20.59062826213098	2.3686106	1.5390291
20.60844206493066	2.3408382	1.5299798
20.626256371211593	2.3270884	1.5254797
20.644071181447032	2.2832484	1.5110421
20.66188649611036	2.262927	1.5043029
20.67970231567506	2.2636821	1.5045538
20.697518640614742	2.2766383	1.5088533
20.715335471403122	2.3098679	1.519825
20.73315280851404	2.3256915	1.5250218
20.750970652421447	2.3175786	1.5223595
20.768789003599412	2.3059075	1.5185214
20.786607862522136	2.3007162	1.5168111
20.8044272296639	2.3130655	1.5208765
20.82224710549913	2.320208	1.5232229
20.84006749050237	2.300901	1.516872
20.857888385148268	3.8111129	1.9522072
20.8757097899116	45.91168	6.7758155
20.893531705267254	64.776245	8.048369
20.911354131690224	83.78998	9.153687
20.92917706965566	69.05179	8.309741
20.94700051963877	50.12194	7.079685
20.96482448211493	29.400717	5.4222426
20.982648957559622	4.154513	2.0382621
21.00047394644843	2.2492466	1.4997488
21.01829944925707	2.2167664	1.4888809
21.036125466461375	2.2245662	1.491498
21.053951998537297	2.2500918	1.5000306
21.071779045960906	2.2537217	1.50124
21.089606609208378	2.216572	1.4888157
21.10743468875603	2.1947489	1.4814684
21.12526328508028	2.188588	1.4793876
21.143092398657675	2.1979227	1.4825393
21.16092202996488	2.2538505	1.5012829
21.17875217947867	2.2895708	1.5131328
21.19658284767596	2.2561438	1.5020466
21.21441403503377	2.2105107	1.4867786
21.232245742029225	2.181823	1.4770995
21.2500779691396	2.193703	1.4811155
21.26791071684227	2.1870039	1.4788522
21.28574398561475	2.1956992	1.4817892
21.30357777593465	2.1913066	1.4803063
21.321412088279704	2.1702766	1.4731859
21.339246923127792	2.1211472	1.4564159
21.357082280956888	2.1018057	1.4497606
21.3749181622451	2.1163318	1.4547617
21.392754567470647	2.1475642	1.465457
21.41059149711187	2.1792707	1.4762353
21.42842895164726	2.1537895	1.4675795
21.446266931555378	2.1218855	1.4566693
21.464105437314945	2.1005626	1.4493318
21.481944469404798	2.084188	1.4436717
21.49978402830388	2.0569746	1.4342157
21.51762411449127	2.0341375	1.4262319
21.53546472844617	2.0447938	1.4299629
21.553305870647876	2.0551538	1.4335808
21.571147541575865	2.05912	1.4349633
21.58898974170967	2.0547223	1.4334303
21.60683247152899	2.0613053	1.4357246
21.62467573151363	2.0495903	1.4316391
21.642519522143523	2.0323973	1.4256217
21.660363843898722	2.0158029	1.4197897
21.6782086972594	2.0042965	1.4157318
21.696054082705864	2.0051703	1.4160404
21.713900000718535	2.0220492	1.4219878
21.73174645177795	2.0225189	1.4221529
21.749593436364794	2.018464	1.4207267
21.767440954959845	2.0198543	1.4212158
21.785289008044032	2.0247545	1.4229387
21.803137596098388	2.0086503	1.4172686
21.820986719604086	2.0070732	1.416712
21.838836379042412	2.0419977	1.4289849
21.85668657489478	2.051572	1.432331
21.87453730764273	2.0239038	1.4226397
21.892388577767914	1.9698949	1.4035294
21.91024038575213	1.9361569	1.3914585
21.928092732077285	1.9406946	1.3930881
21.945945617225426	1.9402086	1.3929137
21.963799041678694	1.9647505	1.4016956
21.981653005919398	31.33397	5.5976753
21.999507510429943	78.12191	8.83866
22.01736255569286	73.07695	8.548506
22.035218142190818	4.2251515	2.0555174
22.05307427040661	2.078284	1.4416255
22.07093094082315	2.0572278	1.434304
22.088788153923474	2.048496	1.4312568
22.106645910190746	2.04661	1.4305978
22.12450421010827	2.0219865	1.4219657
22.142363054159464	1.9911777	1.411091
22.16022244282787	1.9848331	1.408841
22.178082376597164	1.9958457	1.412744
22.195942855951145	1.9839923	1.4085426
22.213803881373742	1.9591875	1.3997098
22.231665453349002	1.9442881	1.3943774
22.24952757236111	1.9387279	1.392382
22.26739023889438	1.9285902	1.3887368
22.28525345343323	1.9465009	1.3951706
22.30311721646225	1.9644498	1.4015883
22.320981528466113	1.9571762	1.3989911
22.33884638992964	1.8913096	1.3752489
22.356711801337788	1.9067168	1.3808392
22.37457776317561	1.9416953	1.3934473
22.392444275928337	1.9520992	1.3971754
22.410311340081282	1.9313034	1.3897134
22.428178956119904	1.9519337	1.3971162
22.446047124529805	1.984861	1.4088509
22.46391584579669	2.0082233	1.417118
22.481785120406414	1.9710634	1.4039457
22.49965494884496	1.9079195	1.3812746
22.51752533159841	1.8772622	1.3701322
22.53539626915302	1.8804305	1.371288
22.553267761995137	1.9034183	1.3796443
22.571139810611264	1.9142724	1.3835723
22.589012415488025	1.9231768	1.3867865
22.60688557711216	1.9398402	1.3927815
22.624759295970566	1.9774048	1.4062023
22.642633572550263	1.9933786	1.4118706
22.660508407338362	1.9660714	1.4021667
22.67838380082217	1.9310151	1.3896097
22.696259753489077	1.9023628	1.3792617
22.714136265826614	1.9031111	1.3795329
22.73201333832246	1.922134	1.3864105
22.74989097146439	1.9548364	1.3981546
22.76776916574035	1.9712757	1.4040213
22.785647921638393	1.9567814	1.39885
22.803527239646712	1.8989222	1.3780138
22.82140712025363	1.878172	1.3704642
22.839287563947593	1.9049791	1.3802098
22.85716857121719	1.9454767	1.3948034
22.875050142551135	1.9345335	1.3908751
22.892932278438277	1.8943657	1.3763596
22.910814979367604	1.8657846	1.3659372
22.928698245828222	1.8468215	1.3589782
22.946582078309387	1.8277919	1.3519585
22.96446647730047	1.8321042	1.3535525
22.98235144329098	1.8463614	1.3588089
23.000236976770562	1.8607737	1.3641018
23.018123078229	1.8602555	1.3639119
23.03600974815619	1.8875794	1.3738921
23.053896987042194	1.8835211	1.3724144
23.071784795377173	1.8905632	1.3749776
23.08967317365145	1.875405	1.3694543
23.10756212235546	1.8775401	1.3702337
23.125451641979787	1.8832316	1.3723089
23.143341733015134	1.8823663	1.3719935
23.161232395952357	1.8990072	1.3780447
23.179123631282426	1.9137712	1.3833911
23.197015439496468	1.9341288	1.3907295
23.214907821085717	1.9028662	1.3794441
23.23280077654157	1.9327846	1.3902463
23.250694306355538	1.9252295	1.3875264
23.268588411019277	1.9089894	1.3816619
23.28648309102458	1.8754512	1.3694712
23.304378346863356	1.9052682	1.3803145
23.322274179027676	1.9281478	1.3885776
23.340170588009723	1.9424719	1.3937259
23.358067574301852	1.9256485	1.3876773
23.37596513839651	1.9222797	1.386463
23.39386328078629	1.9011084	1.3788068
23.411762001963947	1.8808404	1.3714373
23.429661302422353	1.8965994	1.3771708
23.4475611826545	1.9187645	1.3851948
23.46546164315356	1.9324332	1.3901199
23.48336268441279	1.9474096	1.3954962
23.501264306925638	1.9501957	1.396494
23.51916651118564	1.9940313	1.4121017
23.537069297686497	1.9878138	1.4098985
23.554972666922037	1.9536369	1.3977256
23.57287661938623	1.8895807	1.3746202
23.59078115557318	1.8712589	1.3679396
23.608686275977128	1.8613902	1.3643278
23.62659198109246	1.8499067	1.3601128
23.6444982714137	1.8600518	1.3638371
23.66240514743549	1.8938371	1.3761675
23.68031260965263	1.9029901	1.3794891
23.698220658560068	1.8965311	1.377146
23.716129294652845	1.8863944	1.3734608
23.7340385184262	1.8831075	1.3722637
23.75194833037546	1.8632137	1.3649958
23.769858730996123	1.8648378	1.3655906
23.78776972078382	1.8309373	1.3531213
23.80568130023431	1.8527036	1.3611405
23.823593469843495	1.8664645	1.3661861
23.841506230107424	1.9081143	1.3813452
23.859419581522275	1.9318652	1.3899156
23.87733352458438	1.9427128	1.3938123
23.89524805979019	1.8980362	1.3776923
23.913163187636318	1.8701401	1.3675307
23.931078908619508	1.8954821	1.376765
23.948995223236633	1.944046	1.3942906
23.966912131984735	2.0077915	1.4169656
23.98482963536096	2.0739877	1.4401346
24.002747733862616	2.0834029	1.4433998
24.020666427987155	2.0702736	1.4388446
24.038585718232156	2.0304093	1.4249244
24.056505605095353	2.0068052	1.4166175
24.074426089074617	2.0158465	1.419805
24.092347170667946	2.0239356	1.4226509
24.110268850373515	2.062634	1.4361873
24.128191128689586	2.0543585	1.4333034
24.146114006114626	2.0393548	1.4280598
24.164037483147187	2.0259874	1.4233718
24.181961560286005	2.012233	1.418532
24.199886238029926	2.0261989	1.4234462
24.21781151687797	2.035512	1.4267137
24.235737397329274	1.9849944	1.4088984
24.253663879883135	2.0019412	1.4148997
24.271590965038975	2.001932	1.4148965
24.289518653296376	2.0123832	1.418585
24.30744694515505	2.0022082	1.4149941
24.32537584111486	2.038522	1.4277682
24.34330534167581	2.0312526	1.4252203
24.361235447338046	2.0515897	1.4323372
24.379166158601876	2.017709	1.4204608
24.39709747596772	2.0207324	1.4215246
24.41502939993615	1.9778982	1.4063777
24.432961931007917	1.9697047	1.4034617
24.450895069683856	1.9773492	1.4061825
24.468828816465	1.9887604	1.4102341
24.4867631718525	1.9953104	1.4125546
24.504698136347656	1.9771241	1.4061024
24.52263371045192	1.9774697	1.4062253
24.540569894666874	1.9478709	1.3956615
24.558506689494266	1.9052043	1.3802913
24.57644409543597	1.9213303	1.3861206
24.594382112994012	1.9239634	1.3870701
24.61232074267057	1.949983	1.396418
24.630259984967953	1.959683	1.3998867
24.64819984038863	1.9656327	1.4020102
24.66614030943522	1.9675404	1.4026904
24.684081392610462	1.9984325	1.4136592
24.702023090417274	2.028098	1.424113
24.7199654033587	2.011222	1.4181756
24.737908331937927	1.9622606	1.4008071
24.755851876658305	2.0079026	1.4170048
24.773796038023324	2.046551	1.4305772
24.79174081653661	2.0655992	1.4372193
24.809686212701962	2.1049905	1.4508585
24.827632227023294	2.133545	1.460666
24.8455788600047	2.1314766	1.4599577
24.8635261121504	2.1499414	1.4662678
24.88147398396475	2.108173	1.4519548
24.899422475952303	2.0647688	1.4369303
24.917371588617698	2.0244513	1.4228321
24.935321322465768	2.0933356	1.4468365
24.953271678001478	2.2663684	1.5054462
24.97122265572994	2.52638	1.5894591
24.989174256156414	2.8914084	1.7004142
25.00712647978632	3.279583	1.8109618
25.02507932712521	3.745327	1.9352847
25.043032798678798	4.246745	2.0607631
25.060986894952933	4.8577747	2.204036
25.078941616453637	5.5229826	2.3501027
25.096896963687055	6.4000454	2.5298312
25.114852937159508	7.5129223	2.740971
25.132809537377444	7.958047	2.821001
25.150766764847468	7.9537616	2.8202415
25.168724620076347	7.4405904	2.7277446
25.186683103570985	6.6062536	2.5702634
25.204642215838426	5.5931606	2.3649864
25.222601957385894	4.236101	2.0581791
25.24056232872074	3.2073424	1.7909055
25.25852333035048	2.5955338	1.6110661
25.276484962782778	2.2888403	1.5128914
25.294447226525435	2.0930011	1.4467208
25.312410122086423	1.9725534	1.4044762
25.330373649973843	1.9137199	1.3833727
25.348337810695988	1.9172935	1.3846637
25.366302604761245	1.8904858	1.3749493
25.384268032678207	1.8822467	1.37195
25.40223409495558	1.939383	1.3926173
25.420200792102257	1.9217508	1.3862723
25.438168124627246	1.854445	1.36178
25.45613609303974	1.8295443	1.3526065
25.474104697849057	1.8520639	1.3609055
25.492073939564698	1.8598179	1.3637514
25.510043818696285	1.8829404	1.3722028
25.528014335753614	1.8526384	1.3611165
25.54598549124664	1.8800956	1.3711658
25.56395728568544	1.8929964	1.3758621
25.58192971958028	1.9109322	1.3823647
25.59990279344156	1.9022087	1.3792058
25.617876507779833	1.8445091	1.3581271
25.635850863105826	1.7993369	1.3413936
25.653825859930386	1.802744	1.342663
25.671801498764548	1.8298252	1.3527102
25.68977778011949	1.8658336	1.3659552
25.707754704506524	1.9096549	1.3819026
25.725732272437153	1.8865218	1.3735071
25.743710484423012	1.852067	1.3609067
25.761689340975888	1.787122	1.3368329
25.77966884260774	1.8344625	1.3544233
25.797648989830662	1.8484267	1.3595686
25.815629783156922	1.8475257	1.3592372
25.83361122309895	1.8439347	1.3579155
25.85159331016929	1.8412582	1.3569297
25.869576044880695	1.8401173	1.3565092
25.887559427746034	1.845707	1.3585681
25.90554345927836	1.8435163	1.3577615
25.92352813999086	1.806133	1.3439245
25.94151347039689	1.7839104	1.3356311
25.959499451009965	1.799845	1.341583
25.97748608234374	1.8447974	1.3582332
25.995473364912062	1.858232	1.3631698
26.013461299228904	1.8407634	1.3567474
26.03144988580839	1.7982916	1.3410039
26.04943912516483	1.79314	1.3390818
26.067429017812675	1.8192949	1.3488125
26.085419564266537	1.8303418	1.3529012
26.103410765041186	1.8208114	1.3493744
26.12140262065155	1.7656062	1.3287611
26.139395131612723	1.7389646	1.318698
26.157388298439948	1.7605791	1.3268682
26.17538212164861	1.7645783	1.3283743
26.193376601754295	1.7752104	1.3323702
26.211371739272714	1.8350855	1.3546532
26.229367534719746	1.9132149	1.3831902
26.247363988611433	1.8684616	1.3669168
26.26536110146397	1.8084084	1.3447708
26.283358873793727	1.7727169	1.3314341
26.301357306117204	1.7859707	1.3364022
26.319356398951104	1.7916609	1.3385293
26.33735615281224	1.7983052	1.341009
26.35535656821762	1.8452268	1.3583913
26.373357645684404	1.8697655	1.3673937
26.39135938572991	1.8205864	1.3492911
26.409361788871614	1.7759533	1.332649
26.427364855627165	1.723026	1.3126409
26.445368586514352	1.7291647	1.314977
26.46337298205115	1.7855535	1.336246
26.48137804275568	1.7809632	1.3345274
26.499383769146217	1.7657826	1.3288275
26.517390161741215	1.7546604	1.324636
26.53539722105928	1.7733369	1.331667
26.553404947619182	1.7913932	1.3384293
26.571413341939856	1.8611296	1.3642323
26.589422404540397	1.8652222	1.3657314
26.60743213594006	1.806591	1.3440949
26.62544253665827	1.722551	1.31246
26.64345360721459	1.7013669	1.3043646
26.66146534812879	1.7256556	1.3136421
26.679477759920758	1.7747855	1.3322108
26.69749084311057	1.7636304	1.3280175
26.71550459821847	1.7454964	1.3211724
26.733519025764842	1.7237868	1.3129306
26.751534126270258	1.7283236	1.3146572
26.769549900255434	1.7302867	1.3154036
26.787566348241267	1.7303796	1.315439
26.80558347074881	1.74825	1.322214
26.823601268299267	1.7720908	1.331199
26.841619741414036	1.7940122	1.3394074
26.85963889061465	1.811182	1.3458016
26.877658716422832	1.7945703	1.3396157
26.89567921936045	1.7469035	1.3217047
26.913700399949544	1.7316688	1.3159289
26.93172225871233	1.818359	1.3484654
26.949744796171174	1.8664753	1.3661901
26.967768012848605	1.7928041	1.3389564
26.98579190926733	1.7353594	1.3173304
27.003816485950225	1.72495	1.3133734
27.021841743420318	1.7630385	1.3277946
27.039867682200814	1.7776136	1.3332717
27.057894302815072	1.8033559	1.3428909
27.07592160578664	1.8268178	1.3515983
27.0939495916392	1.8151991	1.3472933
27.111978260896635	1.789786	1.3378289
27.13000761408296	1.769135	1.3300884
27.148037651722397	1.7802984	1.3342782
27.166068374339304	1.7754608	1.3324642
27.184099782458215	1.7769052	1.333006
27.20213187660384	1.7703606	1.330549
27.22016465730105	1.8323003	1.3536248
27.23819812507487	1.8332305	1.3539684
27.256232280450533	1.7903318	1.3380328
27.274267123953383	1.796686	1.3404052
27.292302656108987	1.7568628	1.325467
27.31033887744306	1.751088	1.3232868
27.32837578848146	1.7888384	1.3374746
27.34641338975026	1.8493724	1.3599163
27.364451681775673	1.8452173	1.3583878
27.382490665084074	1.8300291	1.3527857
27.400530340202046	1.8240525	1.3505749
27.41857070765629	1.8230587	1.350207
27.436611767973726	1.817758	1.3482425
27.454653521681404	1.809683	1.3452445
27.472695969306564	1.7947816	1.3396946
27.490739111376627	1.7986257	1.3411285
27.508782948419153	1.8205963	1.3492948
27.526827480961902	1.8184351	1.3484936
27.54487270953279	1.8055786	1.3437182
27.562918634659898	1.8303589	1.3529075
27.580965256871508	1.8407985	1.3567603
27.599012576696026	1.8312062	1.3532207
27.617060594662068	1.7472947	1.3218527
27.63510931129842	1.7693176	1.330157
27.65315872713401	1.8220502	1.3498334
27.67120884269797	1.8269696	1.3516544
27.68925965851958	1.8459777	1.3586676
27.707311175128307	1.914737	1.3837402
27.725363393053787	1.8922808	1.375602
27.74341631282583	1.8544706	1.3617895
27.7614699349744	1.803968	1.3431188
27.77952426002968	2.0053144	1.4160912
27.797579288521973	2.0769122	1.4411496
27.815635020981784	2.614288	1.616876
27.83369145793979	2.7127423	1.6470405
27.85174859992682	2.4474247	1.5644248
27.869806447473923	2.25667	1.5022217
27.887865001112267	1.9914641	1.4111924
27.905924261373233	1.9046463	1.3800893
27.92398422878836	1.8993375	1.3781645
27.94204490388936	1.8894453	1.374571
27.96010628720813	1.9144098	1.3836219
27.978168379276728	1.9324628	1.3901305
27.9962311806274	1.889526	1.3746003
28.014294691792568	1.8663108	1.3661299
28.0323589133048	1.8889214	1.3743804
28.050423845696887	1.8843735	1.3727249
28.068489489501758	1.8322701	1.3536137
28.086555845252523	1.8136746	1.3467274
28.104622913482487	1.837352	1.3554896
28.122690694725115	1.8609833	1.3641787
28.14075918951405	1.8693726	1.36725
28.15882839838312	1.8629444	1.3648973
28.176898321866304	1.8434329	1.3577307
28.1949689604978	1.8457519	1.3585845
28.213040314811945	1.8709836	1.367839
28.23111238534327	1.8909656	1.3751239
28.249185172626493	1.9232857	1.3868258
28.267258677196473	1.9223361	1.3864833
28.285332899588294	1.9091806	1.381731
28.303407840337172	1.8938143	1.3761593
28.321483499978545	1.8982549	1.3777717
28.33955987904799	1.8807051	1.3713881
28.357636978081285	1.8584222	1.3632395
28.37571479761439	1.8627692	1.364833
28.393793338183425	1.8855778	1.3731635
28.41187260032469	1.9265243	1.3879929
28.429952584574686	1.9336895	1.3905716
28.448033291470065	1.8784009	1.3705477
28.46611472154769	1.8841875	1.3726571
28.484196875344566	1.9035157	1.3796796
28.502279753397914	1.9696305	1.4034352
28.52036335624511	1.9960489	1.4128159
28.538447684423716	1.9481784	1.3957716
28.556532738471482	1.9035842	1.3797044
28.574618518926325	1.909653	1.381902
28.59270502632635	1.9181234	1.3849633
28.61079226120985	1.9375596	1.3919625
28.628880224115274	1.9537784	1.3977762
28.646968915581287	1.9432423	1.3940023
28.66505833614671	1.940622	1.3930621
28.68314848635055	1.9617666	1.4006308
28.701239366732004	1.9511267	1.3968273
28.71933097783044	1.9657297	1.4020449
28.737423320185403	2.0013463	1.4146895
28.75551639433665	2.0789113	1.441843
28.773610200824074	2.1092417	1.4523228
28.791704740187793	2.1225405	1.4568942
28.80980001296809	2.1457644	1.4648428
28.827896019705413	2.1389832	1.4625263
28.845992760940433	2.1418076	1.4634916
28.86409023721397	2.112278	1.4533678
28.88218844906704	2.1611722	1.4700925
28.900287397040845	2.2541637	1.5013872
28.918387081676755	2.2899754	1.5132664
28.936487503516343	2.273579	1.5078392
28.954588663101365	2.2308373	1.4935988
28.97269056097374	2.2561622	1.5020527
28.990793197675597	2.3285418	1.525956
29.00889657374923	2.3494253	1.5327835
29.027000689737125	2.3679898	1.5388274
29.04510554618196	2.363717	1.5374385
29.06321114362659	2.3597016	1.536132
29.08131748261405	2.4212656	1.5560416
29.099424563687567	2.4569793	1.5674754
29.11753238739057	2.500145	1.5811846
29.13564095426663	2.539911	1.5937098
29.15375026485954	2.5579813	1.599369
29.171860319713275	2.5707185	1.603346
29.18997111937199	2.6087573	1.6151648
29.20808266438002	2.6264064	1.6206192
29.226194955281898	2.741048	1.655611
29.244307992622335	2.838253	1.6847116
29.26242177694624	2.8669682	1.6932124
29.2805363087987	2.8815098	1.6975011
29.29865158872498	2.8893576	1.699811
29.316767617270557	2.9298978	1.7116944
29.334884394981064	2.9247253	1.7101828
29.353001922402367	2.8819723	1.6976373
29.37112020008047	2.9382663	1.7141372
29.389239228561596	3.0693696	1.7519616
29.407359008392152	3.2953677	1.8153148
29.42547954011872	3.6682744	1.915274
29.44360082428809	4.293294	2.0720265
29.46172286144722	5.2980776	2.3017554
29.479845652143283	6.7950964	2.6067405
29.497969196923606	8.658428	2.9425206
29.516093496335728	10.971171	3.312276
29.5342185509274	13.525371	3.6776855
29.55234436124651	15.803395	3.9753485
29.570470927841175	17.100052	4.135221
29.588598251259686	16.77713	4.0959897
29.60672633205055	15.40059	3.9243586
29.624855170762405	13.521684	3.677184
29.642984767944146	11.071209	3.3273425
29.66111512414481	8.5484705	2.9237769
29.67924623991366	6.457516	2.5411644
29.697378115800138	5.037352	2.2444046
29.71551075235387	4.1561756	2.03867
29.733644150124675	3.6556368	1.9119719
29.751778309662576	3.393347	1.842104
29.769913231517766	3.3571253	1.832246
29.78804891624066	3.4450579	1.8560867
29.806185364381818	3.427264	1.8512871
29.82432257649206	3.3840652	1.8395829
29.842460553122333	3.3703394	1.8358485
29.86059929482382	3.3109276	1.8195955
29.878738802147872	3.2748926	1.8096664
29.896879075646048	3.23311	1.7980851
29.915020115870114	3.2225127	1.7951359
29.933161923371976	3.2451744	1.8014368
29.951304498703777	3.3267403	1.8239354
29.969447842417857	3.3129203	1.820143
29.987591955066733	3.2831876	1.8119569
30.005736837203123	3.2164707	1.7934521
30.023882489379943	3.2216833	1.7949048
30.04202891215028	3.1904497	1.786183
30.060176106067455	3.1928053	1.7868422
30.078324071684946	3.1846333	1.7845541
30.09647280955646	3.1565764	1.7766757
30.114622320235863	3.1396544	1.771907
30.132772604277257	3.1104963	1.76366
30.1509236622349	3.132566	1.7699057
30.16907549466328	3.1452293	1.7734795
30.18722810211705	3.0811834	1.75533
30.205381485151097	3.040465	1.743693
30.22353564432045	3.0529878	1.7472801
30.241690580180403	3.019018	1.7375321
30.25984629328638	3.001711	1.7325447
30.278002784194037	3.0131726	1.7358493
30.296160053459246	3.0278032	1.7400584
30.314318101638033	3.0396826	1.7434685
30.332476929286646	2.9500523	1.7175716
30.35063653696153	2.9507096	1.717763
30.368796925219307	2.985027	1.7277231
30.386958094616844	3.0023296	1.7327231
30.40512004571115	2.8938878	1.701143
30.423282779059463	2.8054886	1.6749593
30.441446295219233	2.7601469	1.661369
30.459610594748067	2.7950337	1.6718354
30.47777567820382	2.7982814	1.6728065
30.495941546144504	2.7885365	1.6698912
30.51410819912835	2.804965	1.674803
30.532275637713795	2.863171	1.6920907
30.55044386245946	2.8298893	1.6822275
30.56861287392416	2.7781487	1.666778
30.586782672666956	2.776496	1.666282
30.604953259247047	2.7819865	1.6679288
30.623124634223885	2.765392	1.6629468
30.641296798157075	2.7220435	1.6498617
30.659469751606462	2.7339935	1.6534792
30.677643495132074	2.7257116	1.650973
30.695818029294152	2.6426935	1.6256363
30.713993354653116	2.6350734	1.6232909
30.73216947176962	2.7123525	1.6469221
30.75034638120448	2.7356596	1.653983
30.768524083518756	2.81325	1.6772746
30.786702579273673	2.8768823	1.6961374
30.80488186903069	2.878728	1.6966815
30.82306195335144	2.9018636	1.7034857
30.841242832797782	3.1172628	1.7655772
30.85942450793176	3.379936	1.8384602
30.877606979315637	3.6554112	1.911913
30.895790247511883	3.9872012	1.9967977
30.913974313083134	4.406168	2.0990875
30.932159176592283	4.683428	2.1641228
30.95034483860237	4.7572756	2.181118
30.968531299676698	4.585071	2.141278
30.98671856037873	4.3045735	2.0747466
31.00490662127215	3.9660077	1.9914838
31.023095482920848	3.5676455	1.8888212
31.04128514588892	3.11597	1.765211
31.059475610740662	2.7584481	1.6608577
31.07766687804056	2.5581193	1.5994122
31.09585894835335	2.457545	1.5676559
31.11405182224393	2.4537914	1.5664582
31.132245500277417	2.5329714	1.5915312
31.15043998301914	2.5383072	1.5932065
31.168635271034628	2.4940717	1.579263
31.18683136488964	2.398364	1.5486653
31.20502826515008	2.3976593	1.5484377
31.223225972382135	2.4471211	1.5643277
31.241424487152155	2.4320877	1.5595152
31.259623810026692	2.389589	1.5458295
31.27782394157253	2.4066403	1.551335
31.296024882356644	2.4590225	1.568127
31.314226632946237	2.5026698	1.5819829
31.332429193908684	2.4672596	1.5707513
31.350632565811598	2.4671566	1.5707185
31.368836749222787	2.462542	1.5692489
31.387041744710295	2.537803	1.5930483
31.40524755284232	2.571693	1.6036499
31.423454174187317	2.599252	1.6122196
31.441661609313922	2.549403	1.5966849
31.459869858791002	2.4949284	1.5795342
31.478078923187628	2.3632658	1.5372916
31.496288803073064	2.2811146	1.5103359
31.514499499016807	2.307065	1.5189025
31.532711011588546	2.3353214	1.5281758
31.550923341358178	2.3207068	1.5233866
31.56913648889584	2.2910447	1.5136198
31.587350454771844	2.2912583	1.5136904
31.605565239556732	2.3242445	1.5245473
31.62378084382127	2.3199646	1.523143
31.641997268136382	2.3096213	1.5197438
31.660214513073274	2.2366173	1.4955325
31.67843257920331	2.2117207	1.4871855
31.6966514670981	2.2435217	1.497839
31.71487117732944	2.2642417	1.5047398
31.733091710469346	2.26615	1.5053737
31.751313067090052	2.2330415	1.4943365
31.769535247764008	2.1834667	1.4776558
31.787758253063878	2.1925914	1.4807402
31.805982083562526	2.2338362	1.4946023
31.824206739833024	2.3046227	1.5180984
31.84243222244869	2.2629995	1.5043269
31.860658531983013	2.2074928	1.4857634
31.878885669009737	2.2282112	1.4927194
31.897113634102784	2.3413694	1.5301534
31.91534242783632	2.428048	1.5582194
31.933572050784694	2.3681955	1.5388943
31.951802503522508	2.2409947	1.4969952
31.970033786624548	2.2089145	1.4862417
31.988265900665834	2.2294145	1.4931223
32.006498846221575	2.2415712	1.4971877
32.02473262386724	2.1666706	1.4719615
32.04296723417845	2.1932993	1.4809792
32.0612026777311	2.215903	1.488591
32.07943895510129	2.2541802	1.5013927
32.097676066865304	2.2450309	1.4983428
32.115914013599685	2.242011	1.4973346
32.13415279588115	2.1886268	1.4794008
32.152392414286666	2.1879117	1.4791591
32.1706328693934	2.2325633	1.4941765
32.18887416177875	2.15506	1.4680123
32.20711629202032	2.0472546	1.4308231
32.225359260695924	2.0189023	1.4208808
32.243603068383614	2.0358672	1.4268382
32.26184771566166	2.0946536	1.4472919
32.28009320310852	2.107803	1.4518275
32.2983395313029	2.08422	1.4436828
32.31658670082372	2.0571296	1.4342697
32.33483471225012	2.161478	1.4701966
32.35308356616143	2.1041148	1.4505568
32.371333263137245	2.0304143	1.424926
32.38958380375734	2.0374467	1.4273915
32.407835188601744	2.107378	1.4516811
32.42608741825067	2.0922477	1.4464604
32.444340493284585	2.0303063	1.4248881
32.46259441428416	2.1029053	1.4501398
32.48084918183028	2.0984619	1.4486068
32.49910479650405	2.0517914	1.4324076
32.51736125888683	1.9659073	1.4021082
32.53561856956014	1.9390644	1.3925029
32.5538767291058	1.970668	1.4038048
32.572135738105764	2.031351	1.4252547
32.59039559714228	2.0317976	1.4254113
32.608656306797776	2.0434923	1.4295077
32.62691786765491	2.04163	1.4288563
32.645180280296586	1.983782	1.408468
32.663443545305896	1.9073759	1.3810778
32.68170766326619	1.9248832	1.3874016
32.69997263476099	1.9538563	1.3978041
32.7182384603741	2.0623713	1.4360958
32.7365051406895	2.1271918	1.4584895
32.75477267629144	2.0786858	1.4417648
32.77304106776434	2.0181582	1.4206189
32.79131031569289	2.0037673	1.4155449
32.809580420661966	1.9871525	1.4096639
32.827851383256714	2.0105422	1.4179358
32.84612320406245	2.031892	1.4254445
32.86439588366476	1.9999193	1.414185
32.88266942264945	1.9923288	1.4114988
32.9009438216025	1.9695194	1.4033957
32.9192190811102	1.9744693	1.4051582
32.937495201758985	1.9938605	1.4120413
32.95577218413556	2.0455792	1.4302374
32.974050028826866	2.0359833	1.4268789
32.992328736420035	1.9790751	1.406796
33.010608307502444	2.003424	1.4154236
33.02888874266169	2.0151927	1.4195749
33.047170042485604	1.9964997	1.4129754
33.06545220756225	1.9838022	1.4084752
33.083735238479896	1.9592187	1.3997209
33.10201913582707	1.8994151	1.3781927
33.12030390019248	1.8808795	1.3714516
33.138589532165135	1.9182223	1.384999
33.15687603233419	1.9276237	1.3883889
33.17516340128909	1.901178	1.3788321
33.19345163961947	1.8319069	1.3534795
33.211740747915215	1.8432133	1.3576499
33.23003072676643	1.9464544	1.3951539
33.248321576763466	2.0487413	1.4313425
33.266613298496885	2.031859	1.4254329
33.28490589255747	2.053589	1.4330349
33.30319935953626	1.995659	1.412678
33.32149370002451	1.8869612	1.3736671
33.339788914613706	1.9089285	1.3816398
33.358085003895575	1.9209889	1.3859974
33.376381968462034	1.8937918	1.3761511
33.39467980890529	1.927344	1.3882881
33.41297852581774	1.9658841	1.4020998
33.43127811979204	1.9369649	1.3917489
33.44957859142105	1.8589585	1.3634362
33.467879941297866	1.7800708	1.334193
33.486182170015844	1.7414093	1.3196247
33.50448527816853	1.7829347	1.3352658
33.522789266349754	1.8635844	1.3651316
33.541094135153514	1.8648717	1.3656031
33.55939988517411	1.8424774	1.3573788
33.57770651700602	1.8746201	1.3691677
33.59601403124398	1.883886	1.3725473
33.61432242848296	1.9555324	1.3984035
33.632631709318154	2.0521731	1.4325408
33.650941874344994	2.016146	1.4199106
33.66925292415916	1.9060897	1.380612
33.68756485935654	1.8427777	1.3574895
33.70587768053328	1.8756104	1.3695292
33.724191388285746	1.9125775	1.3829597
33.74250598321054	1.8991468	1.3780954
33.760821465904506	1.9351369	1.391092
33.77913783696474	1.9667459	1.4024072
33.79745509698852	1.9468269	1.3952874
33.815773246573414	1.9834726	1.4083581
33.8340922863172	1.9870533	1.4096287
33.852412216817896	1.9854954	1.4090761
33.87073303867377	2.0266025	1.4235879
33.889054752483304	1.9203019	1.3857496
33.907377358845245	1.8752236	1.3693881
33.92570085835853	1.91422	1.3835534
33.94402525162239	1.9066037	1.3807982
33.96235053923627	1.9415705	1.3934025
33.980676721799824	1.9636424	1.4013002
33.999003799912984	1.8902465	1.3748623
34.01733177417592	1.7704297	1.330575
34.03566064518901	1.7574587	1.3256918
34.0539904135529	1.7891977	1.3376089
34.07232107986846	1.839076	1.3561254
34.090652644736785	1.7545589	1.3245976
34.108985108759235	1.7593136	1.3263912
34.12731847253742	1.9677199	1.4027544
34.14565273667313	2.0831232	1.4433029
34.16398790176847	2.0059004	1.4162982
34.18232396842574	1.8814679	1.3716661
34.20066093724749	1.8780025	1.3704023
34.21899880883651	1.9300722	1.3892704
34.23733758379583	1.9449013	1.3945972
34.25567726272874	1.9249543	1.3874272
34.27401784623872	1.9044846	1.3800306
34.29235933492957	1.9085238	1.3814933
34.31070172940526	1.8873891	1.3738228
34.32904503027003	1.902163	1.3791893
34.347389238128386	1.9360023	1.391403
34.36573435358502	1.9992967	1.4139649
34.38408037724492	1.9278427	1.3884678
34.402427309713296	1.9832641	1.4082841
34.42077515159559	1.9973958	1.4132925
34.43912390349752	2.0256813	1.4232643
34.45747356602499	1.9380711	1.3921462
34.47582413978423	1.819788	1.3489952
34.49417562538163	1.8183236	1.3484523
34.51252802342388	2.0415142	1.4288156
34.53088133451789	2.1004248	1.4492842
34.54923555927084	1.9504261	1.3965765
34.567590698290104	1.8928198	1.3757979
34.58594675218336	2.0328574	1.425783
34.6043037215585	2.1110756	1.452954
34.62266160702365	2.0205555	1.4214624
34.641020409187234	1.9820354	1.4078478
34.65938012865785	1.993067	1.4117602
34.677740766044394	1.9129257	1.3830856
34.69610232195598	1.8796184	1.3709917
34.714464797002016	1.7752404	1.3323815
34.73282819179208	1.8644476	1.3654478
34.751192506936064	1.9331127	1.3903643
34.76955774304408	1.8224384	1.3499771
34.7879239007265	1.7129837	1.30881
34.80629098059391	1.791128	1.3383303
34.824658983257194	1.8619351	1.3645275
34.843027909327446	1.9636904	1.4013174
34.86139775941603	2.0018392	1.4148637
34.879768534134534	2.0694156	1.4385463
34.89814023409483	2.106719	1.4514542
34.91651285990901	2.0984182	1.4485918
34.93488641218944	2.0679333	1.4380311
34.95326089154871	1.8754716	1.3694786
34.97163629859967	1.730868	1.3156246
34.99001263395542	1.9662219	1.4022204
35.00838989822934	2.1215813	1.4565649
35.02676809203499	1.9947759	1.4123653
35.04514721598624	1.9139489	1.3834554
35.063527270697215	1.944279	1.394374
35.081908256782256	1.9372094	1.3918366
35.10029017485597	1.9986103	1.4137222
35.11867302553321	2.0550508	1.4335449
35.137056809429104	2.0937638	1.4469844
35.155441527159006	1.8447393	1.3582118
35.173827179338524	1.8520501	1.3609004
35.19221376658354	2.053156	1.4328837
35.21060128951017	2.2225096	1.4908084
35.2289897487348	2.0960495	1.447774
35.24737914487405	1.9793121	1.4068803
35.26576947854479	1.9343343	1.3908035
35.28416075036418	1.939116	1.3925215
35.30255296094958	1.9205347	1.3858336
35.32094611091867	2.20055	1.4834251
35.33934020088932	2.2454083	1.4984686
35.35773523147969	2.1663513	1.471853
35.3761312033082	2.2385302	1.4961718
35.394528116993506	2.285209	1.5116907
35.41292597315452	2.2530859	1.5010283
35.431324772410434	2.020173	1.421328
35.449724515380666	1.8327031	1.3537737
35.46812520268491	2.047833	1.4310251
35.486526834943106	2.08613	1.4443442
35.504929412775454	1.9067448	1.3808494
35.52333293680242	1.8080473	1.3446364
35.54173740764471	1.2857014	1.1338878
35.560142825923286	1.1115259	1.0542893
35.5785491922594	1.1839992	1.0881172
35.59695650727454	1.1640537	1.0789132
35.61536477159042	1.2298433	1.108983
