0.008763373481513119	0.61777776	0.7859884
0.026290120649546365	0.5449788	0.7382268
0.043816868432600686	0.33460003	0.5784462
0.06134361724069026	0.168237	0.41016704
0.07887036748382949	0.09322837	0.3053332
0.0963971195720331	0.16213124	0.40265524
0.11392387391531617	0.15624349	0.39527646
0.1314506309236943	0.17583074	0.41932175
0.1489773910071836	0.0854565	0.29232943
0.16650415457580078	0.077581525	0.2785346
0.18403092203956356	0.15207495	0.3899679
0.20155769380849	0.20462982	0.45236027
0.2190844702925996	0.24754767	0.49754164
0.2366112519019124	0.17246962	0.41529462
0.2541380390464497	0.06671909	0.2583004
0.27166483213623416	0.053866766	0.23209216
0.28919163158128947	0.05784605	0.24051206
0.3067184377916406	0.09239725	0.30396917
0.324245251177314	0.07654353	0.27666503
0.34177207214833777	0.056012236	0.23666905
0.3592989011147415	0.054928366	0.23436801
0.37682573848655654	0.10195192	0.3192991
0.39435258467381573	0.11933999	0.3454562
0.41187944008655414	0.13875258	0.37249509
0.42940630513480854	0.14083894	0.37528515
0.446933180228618	0.13541076	0.367982
0.4644600657780234	0.13593373	0.36869192
0.48198696219306775	0.10491535	0.3239064
0.49951386988379676	0.104071505	0.32260117
0.5170407892602581	0.1057266	0.32515627
0.5345677207325025	0.14929773	0.38639066
0.5520946647105822	0.14379221	0.37919945
0.5696216216045534	0.13729045	0.37052727
0.5871485918244737	0.1288924	0.35901588
0.6046755757804043	0.10646975	0.32629701
0.6222025738824094	0.10323777	0.32130635
0.6397295865405557	0.10752937	0.3279167
0.6572566141649129	0.14517315	0.38101593
0.6747836571655547	0.18425912	0.42925414
0.6923107159525568	0.16068736	0.40085828
0.7098377909359992	0.14004049	0.37421983
0.7273648825259653	0.12945071	0.3597926
0.7448919911325411	0.13796976	0.37144282
0.762419117165817	0.13549644	0.3680984
0.7799462610358868	0.12791912	0.35765782
0.7974734231528482	0.11904743	0.3450325
0.8150006039268024	0.13356335	0.3654632
0.8325278037678551	0.13551323	0.3681212
0.8500550230861152	0.14244936	0.37742466
0.8675822622916969	0.18235542	0.42703092
0.8851095217947171	0.23904324	0.48892048
0.9026368020052984	0.2767672	0.5260867
0.9201641033335665	0.3228148	0.5681679
0.9376914261896523	0.30629846	0.55344236
0.9552187709836915	0.26679105	0.5165182
0.9727461381258234	0.2386234	0.48849094
0.990273528026193	0.1639242	0.40487555
1.0078009410949496	0.18488604	0.42998376
1.0253283777422473	0.19847365	0.4455038
1.0428558383782454	0.23781356	0.48766133
1.0603833234131086	0.24282737	0.49277517
1.0779108332570058	0.2535601	0.5035475
1.0954383683201119	0.27786684	0.5271308
1.112965929012607	0.34888276	0.590663
1.1304935157446763	0.48691905	0.69779587
1.1480211289265108	0.5459329	0.7388727
1.1655487689683062	1.4216827	1.1923434
1.1830764362802655	1.7100879	1.3077033
1.200604131272596	2.140185	1.4629371
1.2181318543555117	2.4414203	1.5625045
1.235659605939232	2.4673984	1.5707954
1.253187386433982	4.0458364	2.0114264
1.270715196249994	6.4495435	2.5395951
1.2882430357975057	11.990529	3.4627342
1.3057709054867608	16.87377	4.1077695
1.3232988057280106	22.815882	4.7765975
1.3408267369315112	27.743114	5.2671733
1.358354699507526	31.366707	5.600599
1.3758826938663256	34.75752	5.8955507
1.3934107204181858	36.803436	6.0665836
1.410938779573391	36.90066	6.0745916
1.4284668717422309	38.15079	6.176633
1.4459949973350033	38.14581	6.1762295
1.4635231567620117	38.069244	6.1700277
1.4810513504335687	36.9455	6.078281
1.4985795787599925	36.28648	6.023826
1.5161078421516088	35.94997	5.9958296
1.5336361410187505	35.57986	5.9648857
1.5511644757717598	35.437397	5.952932
1.5686928468209842	35.99708	5.999757
1.58622125457678	36.65566	6.054392
1.6037496994495108	37.887054	6.1552463
1.621278181849548	37.965313	6.1615996
1.6388067021872719	38.649426	6.216866
1.6563352608730693	37.96077	6.161231
1.673863858317336	36.850315	6.070446
1.6913924949304753	35.927666	5.993969
1.7089211711228998	34.977634	5.9141893
1.7264498873050296	34.27691	5.8546486
1.7439786438872935	33.524284	5.7900157
1.7615074412801288	32.401634	5.6922436
1.779036279893981	31.431715	5.6063995
1.796565160139305	30.486437	5.5214524
1.814094082426564	29.943836	5.472096
1.8316230471662298	29.298254	5.412786
1.849152054768784	28.595018	5.347431
1.8666811056447168	28.186142	5.3090625
1.8842102002045273	27.555653	5.2493477
1.901739338858724	26.803682	5.1772275
1.9192685220178245	26.027029	5.1016693
1.9367977500923557	25.35286	5.0351624
1.9543270234928547	24.53511	4.953293
1.971856342629867	23.96642	4.8955507
1.9893857079139496	23.122633	4.8086
2.006915119755667	22.706553	4.765139
2.0244445785655945	22.165436	4.7080183
2.0419740847543175	21.881918	4.677811
2.0595036387324317	21.268015	4.611726
2.0770332409105414	20.737537	4.5538487
2.094562891699263	20.528921	4.530885
2.1120925915092217	20.063982	4.479284
2.129622340751053	20.027897	4.475254
2.1471521398354043	188.2091	13.718932
2.1646819891729323	444.57904	21.085043
2.182211889174303	440.7291	20.99355
2.1997418402501974	453.147	21.28725
2.2172718428113023	433.13275	20.811842
2.234801897268317	321.16827	17.921167
2.2523320040319548	17.72913	4.2105975
2.269862163512935	17.574373	4.19218
2.287392376121992	17.262762	4.154848
2.304922642269869	16.67405	4.083387
2.322452962367322	16.20646	4.025725
2.3399833368251164	15.674173	3.959062
2.357513766054032	15.458793	3.9317672
2.3750442504648586	15.076372	3.8828304
2.3925747904683963	14.853597	3.8540363
2.410105386475459	14.482141	3.8055408
2.4276360388968707	14.1769705	3.7652318
2.445166748143469	14.05019	3.7483582
2.4626975146261025	13.937661	3.7333176
2.4802283387556323	13.791939	3.71375
2.4977592209429305	13.474308	3.6707368
2.5152901615988825	13.226654	3.6368468
2.5328211611343865	12.986302	3.6036513
2.5503522199603523	12.86554	3.5868566
2.5678833384877024	12.68896	3.5621567
2.5854145171273712	12.5582485	3.543762
2.6029457562903064	12.340853	3.512955
2.620477056387469	12.192423	3.491765
2.6380084178298326	11.832889	3.4398966
2.655539841028383	11.461302	3.3854544
2.673071326394119	11.16798	3.341853
2.6906028743380523	11.080846	3.3287904
2.708134485271211	11.143569	3.3381984
2.7256661596046325	11.132359	3.336519
2.743197897749369	10.969384	3.312006
2.760729700116486	10.720897	3.2742782
2.778261567117063	10.459542	3.2341216
2.795793499162193	10.19117	3.192361
2.8133254966629817	9.913182	3.1485207
2.830857560030551	9.820056	3.1336968
2.8483896896760337	9.728622	3.1190739
2.865921886010578	9.722904	3.1181571
2.883454149445347	9.595597	3.097676
2.9009864803915177	9.563923	3.0925593
2.91851887926028	9.391871	3.064616
2.9360513464628384	9.2391205	3.0395923
2.953583882410413	9.181259	3.0300593
2.9711164875142373	9.131557	3.0218468
2.9886491621855606	8.968571	2.9947572
3.0061819068356455	8.655983	2.9421053
3.023714721875769	8.595364	2.931785
3.041247607717225	8.50363	2.9160984
3.0587805647713213	8.440486	2.9052515
3.0763135934493806	8.245984	2.8715823
3.0938466941627407	7.959448	2.8212492
3.1113798673227544	7.879137	2.8069801
3.1289131133407904	7.836423	2.7993612
3.1464464326282315	7.8654017	2.8045323
3.1639798255964786	7.891008	2.8090937
3.1815132926569443	7.7775407	2.7888243
3.1990468342210603	7.680854	2.7714353
3.216580450700272	7.41157	2.72242
3.2341141425060416	7.3013687	2.7021046
3.251647910049847	7.237356	2.6902335
3.2691817537431813	7.1878004	2.6810074
3.286715673997555	7.1410875	2.6722813
3.3042496712244938	7.1699433	2.677675
3.32178374583554	7.1767683	2.678949
3.339317898242251	7.030196	2.6514518
3.3568521288562034	6.934258	2.633298
3.3743864380889876	6.8637276	2.6198716
3.3919208263522127	6.8049893	2.6086373
3.4094552940575023	6.665317	2.5817275
3.4269898416164972	6.6542363	2.5795805
3.444524469440858	6.6731067	2.5832357
3.4620591779422587	6.6209283	2.5731165
3.479593967532391	6.5887227	2.5668507
3.4971288386229658	6.5246487	2.5543392
3.5146637916257086	6.5235953	2.554133
3.5321988269523628	6.484741	2.5465155
3.5497339450146903	6.409863	2.5317707
3.5672691462244708	6.344649	2.5188587
3.5848044309934988	6.3557816	2.5210676
3.60233979973359	6.393164	2.5284708
3.619875252856575	6.4257293	2.5349023
3.6374107907743034	6.383735	2.5266054
3.6549464138986427	6.4017596	2.53017
3.6724821226414788	6.352827	2.5204816
3.690017917414714	6.34955	2.5198312
3.7075537986302702	6.3877754	2.5274048
3.7250897667000857	6.4455476	2.5388083
3.7426258220361235	6.5962534	2.5683172
3.7601619650503553	6.9033446	2.6274216
3.777698196154779	7.4758883	2.7342072
3.7952345157614067	8.612496	2.9347055
3.8127709242822716	9.487129	3.0801184
3.830307422129425	11.921741	3.4527874
3.847844009714936	30.683514	5.53927
3.8653806874508954	98.06403	9.902729
3.882917455749409	97.14998	9.856469
3.900454315022606	96.8122	9.839319
3.917991265682631	41.20739	6.419298
3.9355283081416506	10.822857	3.2898111
3.9530654428118495	8.670524	2.9445753
3.970602670105433	7.450904	2.7296343
3.9881399904346244	6.620211	2.572977
4.005677404211669	6.4342265	2.5365777
4.023214911848827	6.4665675	2.5429447
4.0407525137583855	6.434828	2.5366962
4.058290210352644	6.527171	2.554833
4.075828002043927	6.3737235	2.5246234
4.0933658892445814	6.3384843	2.5176346
4.110903872366966	6.258816	2.5017626
4.128441951823468	6.2263737	2.4952703
4.145980128026488	6.1833572	2.4866357
4.163518401388452	6.144078	2.478725
4.181056772321807	6.18153	2.4862683
4.1985952412390155	6.263135	2.5026257
4.216133808552567	6.281011	2.5061946
4.233672474674966	6.3300886	2.5159667
4.251211240018741	6.4282556	2.5354004
4.268750104996445	6.651891	2.5791261
4.286289070020643	7.6075397	2.7581768
4.303828135503928	9.263759	3.0436423
4.3213673018589125	29.516827	5.432939
4.3389065694982305	90.751945	9.5263815
4.356445938834537	166.0374	12.88555
4.3739854102805085	171.70863	13.103765
4.391524984248844	172.74625	13.143296
4.409064661152262	136.85754	11.698613
4.426604441403504	97.01383	9.84956
4.444144325415337	76.11603	8.72445
4.461684313600543	22.142595	4.705592
4.47922440637193	22.707748	4.765265
4.496764604142329	20.870096	4.56838
4.5143049073245916	18.838612	4.340347
4.531845316331589	16.551582	4.0683637
4.5493858315762195	13.675113	3.6979876
4.566926453471405	11.239187	3.3524897
4.584467182430081	9.187436	3.0310783
4.602008018865218	8.07317	2.8413324
4.619548963189798	7.40065	2.7204137
4.637090015816834	6.9426966	2.6348996
4.654631177159353	6.7592688	2.5998595
4.672172447630417	6.590729	2.5672417
4.689713827643102	6.444312	2.538565
4.7072553176105085	6.1589546	2.481724
4.724796917945764	5.9769673	2.4447837
4.742338629062015	5.9370074	2.4365976
4.759880451372434	5.955252	2.4403386
4.777422385290215	5.825863	2.4136825
4.794964431228581	5.7008142	2.3876379
4.812506589600768	5.662464	2.3795934
4.830048860820047	5.629689	2.3726966
4.847591245299709	5.6421547	2.375322
4.8651337434530655	5.6927867	2.385956
4.882676355693457	5.652625	2.377525
4.900219082434242	5.6248345	2.3716733
4.917761924088813	5.5682273	2.3597093
4.935304881070575	5.544802	2.3547404
4.952847953792969	5.5608325	2.3581417
4.970391142669449	5.532356	2.352096
4.9879344481135055	5.542735	2.3543015
5.005477870538642	5.5456414	2.3549185
5.023021410358394	5.613094	2.369197
5.040565067986324	5.651447	2.3772771
5.05810884383601	5.580403	2.3622875
5.075652738321066	5.5317044	2.3519576
5.09319675185512	5.4842987	2.341858
5.110740884851836	5.4603324	2.3367355
5.128285137724894	5.3783326	2.3191233
5.145829510888007	5.3658857	2.3164382
5.163374004754908	5.40001	2.3237922
5.1809186197393595	5.458079	2.3362532
5.198463356255145	5.3975782	2.323269
5.216008214716077	5.332861	2.3092988
5.233553195535998	5.33338	2.3094113
5.251098299128764	5.4104705	2.3260417
5.268643525908272	5.4329443	2.3308678
5.286188876288432	5.32856	2.3083673
5.3037343506831895	5.3188457	2.3062623
5.32127994950651	5.303645	2.3029644
5.3388256731723915	5.323683	2.3073108
5.356371522094851	5.2828927	2.2984545
5.373917496687938	5.2801437	2.2978563
5.391463597365729	5.332474	2.309215
5.40900982454232	5.3666096	2.3165944
5.426556178631843	5.3906465	2.3217766
5.444102660048449	5.3212767	2.3067892
5.4616492692063225	5.2515497	2.291626
5.479196006519669	5.1882753	2.2777786
5.496742872402727	5.2039275	2.2812119
5.514289867269756	5.2101946	2.2825851
5.531836991535049	5.219407	2.2846022
5.549384245612924	5.228896	2.286678
5.566931629917724	5.2169375	2.2840617
5.584479144863822	5.184852	2.2770271
5.6020267908656205	5.1330953	2.2656336
5.619574568337545	5.117583	2.2622075
5.637122477694054	5.180819	2.2761412
5.654670519349629	5.2196426	2.2846537
5.672218693718784	5.209759	2.2824898
5.689767001216059	5.1609	2.2717614
5.707315442256021	5.168926	2.2735271
5.724864017253266	5.1695485	2.273664
5.7424127266224225	5.248075	2.2908678
5.75996157077814	5.227224	2.2863123
5.777510550135105	5.1223793	2.2632673
5.795059665108022	5.146719	2.2686381
5.812608916111639	5.2477083	2.2907877
5.830158303560715	5.4154696	2.3271163
5.847707827870055	5.447741	2.3340397
5.86525748945448	5.532163	2.352055
5.8828072887288485	5.6742024	2.3820584
5.900357226108044	5.7305236	2.3938513
5.917907302006979	5.7243724	2.392566
5.9354575168406	6.278434	2.5056803
5.9530078710238765	6.8730364	2.6216476
5.970558364971812	7.4144163	2.7229426
5.988108999099438	7.78927	2.7909265
6.005659773821818	8.344206	2.888634
6.023210689554039	8.199532	2.8634825
6.040761746711227	8.712531	2.9516997
6.058312945708531	8.064077	2.839732
6.075864286961132	7.488389	2.7364922
6.093415770884244	6.711273	2.5906124
6.1109673978931065	6.2080207	2.49159
6.128519168402993	5.6306095	2.3728905
6.146071082829204	5.4626427	2.3372297
6.163623141587075	5.343413	2.3115823
6.181175345091969	5.191875	2.2785687
6.198727693759281	5.1671844	2.2731442
6.216280188004435	5.1778827	2.2754962
6.233832828242885	5.239289	2.2889493
6.251385614890126	5.357461	2.314619
6.268938548361669	5.2699924	2.2956464
6.286491629073067	5.2235117	2.2855003
6.304044857439898	5.191137	2.2784066
6.321598233877777	5.1134596	2.261296
6.339151758802344	5.0716057	2.2520225
6.356705432629277	5.044014	2.2458882
6.37425925577428	5.008587	2.2379873
6.391813228653095	5.005359	2.237266
6.409367351681486	5.0421047	2.2454631
6.426921625275259	5.0852327	2.2550461
6.44447604985025	5.095042	2.25722
6.46203062582232	5.082529	2.2544465
6.47958535360737	5.059895	2.2494211
6.497140233621328	5.037467	2.2444303
6.514695266280161	5.0507617	2.24739
6.532250451999859	4.985336	2.2327867
6.549805791196454	4.9977283	2.23556
6.567361284286002	5.0196953	2.2404675
6.584916931684597	5.0738235	2.2525148
6.602472733808367	5.0660563	2.25079
6.6200286910734665	4.982627	2.2321799
6.637584803896092	4.9604197	2.2272
6.655141072692462	5.0039034	2.2369406
6.672697497878842	5.031895	2.2431886
6.690254079871514	5.1204453	2.26284
6.707810819086808	5.1021156	2.2587862
6.725367715941078	5.1141906	2.2614577
6.742924770850719	5.0706115	2.2518017
6.760481984232151	5.042598	2.245573
6.778039356501836	4.9962044	2.235219
6.795596888076266	4.9824524	2.2321408
6.813154579371963	4.997678	2.2355487
6.830712430805492	5.045293	2.246173
6.84827044279344	5.071105	2.2519114
6.865828615752445	5.0276575	2.2422438
6.883386950099159	5.0317807	2.243163
6.900945446250287	5.038676	2.2446995
6.918504104622553	5.0546765	2.2482607
6.936062925632727	5.0417795	2.2453907
6.953621909697607	5.0419436	2.2454274
6.971181057234028	5.0825343	2.2544477
6.988740368658859	5.141614	2.2675128
7.006299844389007	5.23312	2.2876015
7.023859484841407	5.325054	2.307608
7.041419290433036	5.4144797	2.3269036
7.058979261580902	5.549146	2.3556626
7.0765393987020495	5.7540994	2.3987703
7.094099702213559	6.1258745	2.4750504
7.111660172532549	6.514197	2.5522926
7.129220810076164	6.854245	2.6180613
7.146781615261595	7.4189878	2.7237818
7.16434258850606	7.6199074	2.760418
7.181903730226821	8.004224	2.8291738
7.1994650408411704	8.087243	2.843808
7.217026520766437	8.187256	2.8613381
7.234588170419983	8.468909	2.910139
7.252149990219215	8.499052	2.9153135
7.269711980581568	8.362093	2.8917284
7.2872741419245175	8.168095	2.8579879
7.304836474665574	7.8404713	2.800084
7.322398979222286	7.548442	2.7474427
7.339961656012233	7.274237	2.6970794
7.357524505453039	6.868132	2.620712
7.375087527962357	6.5896554	2.5670323
7.392650723957886	6.239799	2.497959
7.410214093857353	5.8407927	2.416773
7.427777638078528	5.5248184	2.3504932
7.445341357039213	5.382427	2.320006
7.4629052511572525	5.2652664	2.294617
7.480469320850524	5.2077703	2.282054
7.498033566536948	5.144107	2.2680624
7.5155979886344735	5.127163	2.264324
7.5331625875610975	5.1597333	2.2715046
7.550727363734844	5.1833405	2.276695
7.568292317573788	5.175324	2.2749338
7.585857449496025	5.159343	2.2714186
7.603422759919705	5.2406096	2.2892377
7.620988249263007	5.2264853	2.2861507
7.638553917944147	5.1595187	2.2714574
7.656119766381391	5.1418247	2.2675593
7.673685794993023	5.146253	2.2685354
7.691252004197388	5.2949295	2.3010714
7.70881839441285	5.3036237	2.3029597
7.726384966057826	5.3674655	2.3167791
7.743951719550762	5.356447	2.3144
7.761518655310149	5.413919	2.326783
7.779085773754511	5.4347568	2.3312564
7.796653075302419	5.3687243	2.3170507
7.814220560372475	5.336258	2.3100343
7.831788229383323	5.263354	2.2942
7.8493560827536495	5.332324	2.3091826
7.866924120902174	5.3248897	2.3075721
7.884492344247663	5.3466897	2.312291
7.9020607532089135	5.316426	2.3057375
7.919629348204771	5.295893	2.3012807
7.937198129654115	5.3175077	2.305972
7.954767097975865	5.3893156	2.32149
7.972336253588986	5.451286	2.3347988
7.989905596912472	5.532278	2.3520796
8.007475128365371	5.5753927	2.361227
8.025044848366756	5.6584063	2.3787405
8.042614757335754	5.748138	2.3975275
8.060184855691523	5.784835	2.4051683
8.07775514385327	5.84351	2.4173353
8.095325622240228	5.7952113	2.4073246
8.112896291271687	5.8106813	2.4105356
8.130467151366968	5.846368	2.4179263
8.148038202945436	5.90813	2.4306645
8.165609446426497	5.9715424	2.4436738
8.183180882229594	6.043733	2.4584005
8.200752510774217	6.031586	2.4559288
8.218324332479893	6.062762	2.4622676
8.235896347766193	5.99025	2.4474988
8.253468557052724	6.027101	2.4550154
8.27104096075914	5.990693	2.4475892
8.288613559305137	6.045898	2.4588408
8.306186353110448	6.059278	2.46156
8.32375934259485	6.141829	2.4782715
8.341332528178162	6.189892	2.4879494
8.358905910280246	6.2609677	2.5021925
8.376479489321003	6.2806034	2.5061133
8.394053265720377	6.3138437	2.5127363
8.411627239898356	6.305429	2.5110614
8.42920141227497	6.3219476	2.5143483
8.44677578327029	6.370823	2.5240488
8.464350353304427	6.348599	2.5196426
8.48192512279754	6.3383226	2.5176024
8.499500092169827	6.2746983	2.5049348
8.51707526184153	6.221353	2.4942641
8.534650632232934	6.2226253	2.494519
8.552226203764365	6.2099466	2.4919765
8.569801976856192	6.2196903	2.4939306
8.587377951928834	6.3072987	2.5114336
8.60495412940274	6.403417	2.5304973
8.622530509698416	6.438945	2.5375075
8.6401070932364	6.48963	2.5474753
8.657683880437283	6.5410113	2.5575402
8.675260871721695	6.751819	2.5984263
8.692838067510303	6.9663496	2.6393843
8.710415468223834	7.099307	2.6644526
8.727993074283043	7.2064495	2.684483
8.745570886108737	7.17686	2.6789663
8.763148904121765	7.2138925	2.685869
8.78072712874302	7.270754	2.6964335
8.798305560393441	7.4979324	2.7382352
8.815884199494006	7.7075295	2.7762437
8.833463046465745	7.8259687	2.7974932
8.851042101729728	7.998307	2.8281279
8.86862136570707	8.290986	2.8794072
8.886200838818924	8.405099	2.899155
8.903780521486505	8.471411	2.9105687
8.921360414131055	8.566409	2.926843
8.938940517173874	8.766905	2.960896
8.956520831036297	8.878577	2.9796941
8.97410135613971	9.123798	3.0205626
8.99168209290554	9.264942	3.0438368
9.009263041755265	9.6072445	3.0995555
9.026844203110405	9.835384	3.1361415
9.044425577392525	9.967211	3.157089
9.062007165023239	10.062663	3.1721702
9.079588966424197	10.274583	3.205399
9.097170982017108	10.389178	3.2232249
9.11475321222372	11.435599	3.3816564
9.132335657465825	12.311942	3.5088377
9.149918318165264	12.533857	3.5403187
9.167501194743924	13.066522	3.6147645
9.18508428762374	12.838223	3.5830467
9.202667597226693	12.795365	3.577061
9.220251123974803	12.486904	3.5336814
9.237834868290143	12.115438	3.4807239
9.255418830594836	11.842316	3.4412665
9.273003011311046	11.293488	3.3605785
9.290587410860985	11.0473995	3.323763
9.308172029666911	10.417038	3.2275436
9.32575686815113	10.1509075	3.186049
9.343341926735997	8.869561	2.978181
9.360927205843916	8.591772	2.9311724
9.378512705897327	8.420106	2.901742
9.396098427318728	8.190322	2.8618739
9.413684370530664	8.116114	2.8488793
9.431270535955722	8.050822	2.837397
9.448856924016539	8.014764	2.8310359
9.466443535135806	7.89595	2.8099732
9.484030369736251	7.840181	2.8000324
9.501617428240658	7.8623505	2.8039882
9.519204711071852	7.881822	2.8074584
9.536792218652714	7.907631	2.812051
9.55437995140617	7.923098	2.8147998
9.571967909755191	7.95607	2.8206506
9.589556094122802	8.023681	2.8326101
9.60714450493207	8.031517	2.8339932
9.624733142606116	8.048727	2.8370278
9.642322007568108	8.042956	2.8360107
9.659911100241267	8.035494	2.8346946
9.677500421048851	8.034881	2.8345866
9.695089970414175	8.168435	2.8580475
9.712679748760609	8.237643	2.8701296
9.730269756511557	8.336158	2.8872404
9.747859994090492	8.271833	2.8760796
9.765450461920915	8.260027	2.8740263
9.78304116042639	8.273348	2.8763428
9.800632090030527	8.294496	2.8800166
9.81822325115699	8.394119	2.8972607
9.835814644229481	8.404517	2.8990545
9.853406269671762	8.45135	2.9071207
9.870998127907646	8.496793	2.9149258
9.888590219360985	8.545314	2.9232368
9.906182544455698	8.54873	2.9238212
9.923775103615734	8.457435	2.908167
9.941367897265108	8.464466	2.9093757
9.958960925827878	8.401628	2.898556
9.97655418972816	8.469212	2.910191
9.994147689390106	8.487593	2.9133472
10.011741425237934	8.46924	2.9101958
10.029335397695904	8.445678	2.9061449
10.04692960718833	8.349954	2.8896286
10.06452405413958	8.376145	2.8941572
10.082118738974064	8.335273	2.8870873
10.099713662116246	8.331732	2.886474
10.117308823990651	8.305342	2.8818989
10.134904225021844	8.335234	2.8870804
10.152499865634445	8.327234	2.8856947
10.170095746253125	8.39243	2.896969
10.18769186730261	8.366269	2.8924503
10.205288229207675	8.430174	2.9034762
10.222884832393145	8.370079	2.8931088
10.2404816772839	8.345191	2.8888044
10.258078764304868	8.303434	2.881568
10.275676093881035	8.241598	2.8708184
10.293273666437438	8.166087	2.8576367
10.310871482399158	8.162489	2.857007
10.32846954219134	8.116278	2.8489082
10.346067846239173	8.223457	2.8676572
10.363666394967908	8.208406	2.8650317
10.38126518880283	8.241656	2.8708284
10.398864228169298	8.240926	2.8707013
10.416463513492713	8.247904	2.8719163
10.434063045198531	8.214661	2.866123
10.451662823712262	8.236934	2.8700058
10.469262849459467	8.290991	2.8794081
10.486863122865758	8.180102	2.8600879
10.504463644356806	8.181479	2.8603287
10.522064414358338	8.123383	2.8501549
10.539665433296118	8.113778	2.8484695
10.557266701595987	7.9851694	2.8258042
10.574868219683818	7.879841	2.8071055
10.592469987985552	7.827535	2.7977734
10.610072006927185	7.7982664	2.7925377
10.627674276934751	7.740178	2.7821176
10.64527679843435	7.5859027	2.7542517
10.662879571852143	7.4707975	2.733276
10.680482597614331	7.347822	2.7106867
10.698085876147173	7.2688594	2.696082
10.715689407876988	7.1456766	2.6731398
10.733293193230146	7.0653872	2.6580796
10.750897232633072	6.99196	2.6442316
10.76850152651225	6.8779964	2.6225934
10.786106075294207	6.738867	2.5959327
10.803710879405534	6.62486	2.5738802
10.821315939272877	6.512059	2.5518737
10.83892125532294	6.410922	2.5319798
10.856526827982472	6.2795725	2.5059075
10.874132657678285	6.227861	2.4955683
10.891738744837243	6.26166	2.502331
10.909345089886271	6.209115	2.4918096
10.926951693252343	6.2068157	2.4913483
10.944558555362494	6.1445904	2.4788284
10.96216567664381	6.074319	2.4646134
10.979773057523436	6.005189	2.4505486
10.997380698428573	5.905591	2.4301422
11.014988599786477	5.8619957	2.421156
11.032596762024461	5.787052	2.4056292
11.050205185569892	5.7460895	2.3971002
11.067813870850198	5.690388	2.3854535
11.085422818292859	5.6366467	2.3741624
11.10303202832541	5.5306387	2.351731
11.120641501375454	5.4258285	2.3293407
11.138251237870636	5.345521	2.3120382
11.155861238238671	5.2957196	2.301243
11.173471502907317	5.2436247	2.2898962
11.191082032304402	5.168459	2.2734244
11.208692826857805	5.115755	2.2618034
11.226303886995465	5.074517	2.2526689
11.243915213145371	5.0253425	2.2417276
11.261526805735578	4.9966187	2.2353117
11.279138665194196	4.9882507	2.2334392
11.296750791949393	4.899707	2.2135282
11.314363186429393	4.82567	2.1967406
11.331975849062479	4.7774916	2.1857474
11.34958878027699	4.7581415	2.1813164
11.36720198050133	4.7286744	2.1745515
11.384815450163948	4.679566	2.1632304
11.402429189693366	4.6486363	2.1560698
11.420043199518153	4.481947	2.117061
11.437657480066942	63.35421	7.9595356
11.455272031768422	85.082855	9.224037
11.472886855051353	107.55528	10.370886
11.490501950344528	99.216446	9.960745
11.508117318076819	84.558495	9.195569
11.52573295867715	45.936047	6.7776136
11.543348872574514	4.2160325	2.053298
11.560965060197946	4.163098	2.0403671
11.57858152197655	4.1119227	2.0277877
11.59619825833949	4.060873	2.0151608
11.613815269715985	4.0060005	2.0014997
11.631432556535323	38.522495	6.2066493
11.649050119226837	83.06385	9.113937
11.666667958219929	93.49482	9.669271
11.68428607394406	107.753716	10.380448
11.701904466828756	82.57649	9.087161
11.719523137303586	65.47305	8.091542
11.737142085798196	4.6967654	2.1672022
11.754761312742286	3.850337	1.9622276
11.772380818565619	3.8116214	1.9523374
11.790000603698015	3.8148515	1.9531645
11.80762066856935	3.7466273	1.9356207
11.825241013609572	3.6713033	1.9160645
11.842861639248683	3.5608988	1.8870344
11.860482545916748	3.468469	1.8623825
11.878103734043883	3.4610379	1.8603865
11.895725204060282	3.465581	1.8616071
11.91334695639619	3.4791088	1.8652369
11.930968991481919	3.439919	1.8547019
11.948591309747824	3.4283173	1.8515716
11.966213911624347	3.4050252	1.845271
11.98383679754198	3.3740728	1.836865
12.001459967931268	3.3174214	1.821379
12.019083423222835	3.3119853	1.8198861
12.036707163847352	3.319026	1.8218194
12.05433119023556	3.341447	1.8279625
12.071955502818259	3.2730832	1.8091664
12.089580102026313	3.239778	1.7999383
12.107204988290643	3.1748183	1.7818019
12.12483016204224	3.2050865	1.7902756
12.142455623712152	3.220015	1.79444
12.16008137373149	3.2369719	1.7991587
12.177707412531431	3.2040122	1.7899754
12.19533374054321	3.2092059	1.7914257
12.212960358198126	3.1898005	1.7860012
12.230587265927545	3.150468	1.7749557
12.248214464162889	3.0667624	1.7512174
12.265841953335649	3.0069482	1.7340554
12.283469733877375	2.9950676	1.7306263
12.301097806219685	2.9758906	1.725077
12.31872617079425	2.9727218	1.7241583
12.336354828032825	2.9598284	1.7204152
12.353983778367205	3.0016782	1.7325352
12.371613022229262	2.9959419	1.730879
12.389242560050928	2.969194	1.7231349
12.406872392264201	2.8917038	1.7005011
12.424502519301143	2.8799977	1.6970556
12.442132941593874	2.9002807	1.703021
12.459763659574586	2.9413188	1.7150273
12.477394673675532	2.939496	1.7144959
12.49502598432903	2.904081	1.7041365
12.51265759196746	2.8867834	1.6990536
12.530289497023267	2.8755023	1.6957306
12.547921699928967	2.8341382	1.6834899
12.565554201117134	2.8107626	1.6765329
12.583187001020404	2.7811005	1.6676632
12.600820100071486	2.8092856	1.6760924
12.618453498703152	2.795395	1.6719434
12.636087197348235	2.7940903	1.6715533
12.65372119643964	2.8091364	1.6760478
12.671355496410326	2.8530657	1.689102
12.68899009769333	2.8617077	1.6916583
12.706625000721749	2.8656027	1.6928091
12.724260205928752	2.8795793	1.6969323
12.741895713747551	2.9122558	1.7065333
12.759531524611454	2.970582	1.7235377
12.777167638953818	3.0174766	1.7370886
12.794804057208072	3.0409958	1.7438451
12.812440779807702	3.1118512	1.764044
12.830077807186271	3.2858307	1.8126861
12.847715139777405	3.3262315	1.8237959
12.865352778014795	3.4717221	1.8632557
12.882990722332197	3.558752	1.8864655
12.90062897316344	3.6165307	1.9017178
12.918267530942412	3.7304153	1.9314283
12.935906396103071	3.637282	1.9071659
12.953545569079449	3.837648	1.9589915
12.971185050305628	3.6529195	1.9112612
12.988824840215775	3.6256764	1.9041209
13.006464939244115	3.5882711	1.8942733
13.024105347824943	3.466323	1.8618064
13.041746066392617	3.6177385	1.9020354
13.05938709538157	3.4108222	1.8468411
13.077028435226296	3.3954384	1.8426715
13.094670086361363	3.2862203	1.8127935
13.112312049221401	3.200391	1.7889637
13.129954324241112	3.1209083	1.7666093
13.147596911855258	2.889742	1.6999241
13.165239812498685	2.8894515	1.6998386
13.182883026606293	2.8186295	1.6788775
13.200526554613058	2.7952292	1.671894
13.218170396954017	2.7252524	1.6508338
13.235814554064284	2.7080276	1.6456085
13.253459026379034	2.7216303	1.6497364
13.271103814333523	2.7093241	1.6460024
13.288748918363058	2.7154417	1.6478597
13.306394338903031	2.7084062	1.6457236
13.32404007638889	2.7283673	1.651777
13.341686131256164	2.7461393	1.6571479
13.359332503940449	2.7111263	1.6465498
13.376979194877402	2.6803713	1.6371839
13.394626204502751	2.7477803	1.657643
13.412273533252307	2.803779	1.6744488
13.429921181561937	2.7997596	1.6732482
13.447569149867581	2.7691634	1.6640804
13.465217438605247	2.7310581	1.6525913
13.482866048211022	2.728518	1.6518227
13.500514979121052	2.7207928	1.6494826
13.518164231771568	2.6893787	1.6399325
13.535813806598844	2.677205	1.6362166
13.553463704039254	2.6829233	1.6379632
13.571113924529229	2.7447705	1.656735
13.588764468505275	2.7873914	1.6695483
13.606415336403956	2.7990522	1.6730368
13.624066528661917	2.7601707	1.6613761
13.641718045715882	2.7990458	1.6730349
13.659369888002635	2.8257463	1.6809956
13.67702205595903	2.8956125	1.7016499
13.694674550021993	2.9675953	1.722671
13.712327370628532	3.033209	1.741611
13.729980518215713	3.123153	1.7672445
13.747633993220681	3.1541848	1.7760025
13.765287796080647	3.2060685	1.7905498
13.7829419272329	3.2784264	1.8106425
13.800596387114801	3.2976243	1.8159362
13.818251176163775	3.3480136	1.8297578
13.835906294817324	3.4237063	1.850326
13.853561743513023	3.503643	1.8718021
13.871217522688525	3.5690517	1.8891934
13.888873632781538	3.5958855	1.8962821
13.906530074229858	3.621718	1.9030812
13.92418684747135	3.5921075	1.8952856
13.941843952943948	3.5962048	1.8963662
13.959501391085665	3.5703123	1.889527
13.977159162334578	3.5007896	1.8710397
13.994817267128846	3.4107618	1.8468248
14.012475705906693	3.298536	1.8161873
14.030134479106424	3.2169752	1.7935928
14.047793587166414	3.1610234	1.7779267
14.065453030525108	3.0900543	1.757855
14.083112809621026	3.0268457	1.7397833
14.100772924892766	2.971209	1.7237196
14.118433376778997	2.9054217	1.7045298
14.136094165718458	2.8306825	1.6824633
14.153755292149969	2.7822106	1.6679959
14.171416756512416	2.7454395	1.6569368
14.189078559244768	2.7145605	1.6475923
14.20674070078606	2.6530526	1.6288193
14.224403181575408	2.5725844	1.6039279
14.242066002051999	2.5730946	1.6040869
14.259729162655093	2.5558276	1.5986956
14.277392663824022	2.516375	1.5863086
14.295056505998208	2.4724114	1.5723903
14.312720689617128	2.4293888	1.5586497
14.330385215120348	2.4022775	1.5499282
14.348050082947497	2.383336	1.5438057
14.3657152935383	2.3746982	1.5410056
14.383380847332528	2.3609293	1.5365316
14.401046744770051	2.3647301	1.5377679
14.418712986290798	2.3688996	1.5391229
14.436379572334793	2.395426	1.5477164
14.454046503342123	2.3868468	1.5449424
14.471713779752946	2.3893054	1.5457377
14.489381402007504	2.3900743	1.5459865
14.507049370546113	2.413847	1.553656
14.524717685809168	2.443825	1.5632738
14.542386348237134	2.4897778	1.577903
14.560055358270553	2.517208	1.5865712
14.577724716350051	2.5307996	1.5908487
14.595394422916325	2.464025	1.5697213
14.61306447841015	2.4877157	1.5772494
14.63073488327237	2.4754193	1.5733465
14.648405637943917	2.47784	1.5741156
14.6660767428658	2.44962	1.5651262
14.683748198479094	2.4815958	1.5753082
14.701420005224954	2.5454347	1.5954418
14.719092163544628	2.6530435	1.6288166
14.73676467387942	2.7031348	1.6441213
14.754437536670727	2.7441912	1.6565601
14.772110752360014	2.712552	1.6469827
14.78978432138882	2.6944706	1.6414843
14.807458244198777	2.670068	1.6340343
14.82513252123159	2.628676	1.6213192
14.842807152929028	2.6453168	1.626443
14.860482139732962	2.650377	1.6279979
14.87815748208531	2.676226	1.6359174
14.8958331804281	2.694464	1.6414822
14.91350923520342	2.6749766	1.6355356
14.931185646853438	2.6972382	1.6423271
14.948862415820408	2.7093122	1.6459988
14.966539542546656	2.7242692	1.6505361
14.98421702747459	2.6870055	1.6392088
15.001894871046696	2.6496289	1.627768
15.019573073705542	2.6400924	1.6248361
15.037251635893766	2.6358178	1.6235201
15.054930558054092	2.6841938	1.638351
15.072609840629323	2.7075682	1.645469
15.090289484062351	2.8918712	1.7005503
15.107969488796124	3.1861548	1.7849803
15.125649855273691	3.5741618	1.8905454
15.14333058393817	4.0689917	2.0171742
15.161011675232768	5.0426936	2.2455943
15.17869312960076	6.4197917	2.5337307
15.196374947485506	8.27793	2.8771393
15.214057129330447	11.325339	3.3653142
15.231739675579114	16.175251	4.021847
15.249422586675102	21.344748	4.6200376
15.267105863062092	24.695267	4.9694333
15.284789505183847	24.949213	4.994919
15.302473513484218	22.96193	4.7918606
15.320157888407127	19.296356	4.3927617
15.337842630396578	15.03976	3.8781128
15.355527739896656	11.6270275	3.4098427
15.37321321735153	9.061999	3.0103154
15.39089906320545	6.656158	2.5799532
15.408585277902748	4.999078	2.2358618
15.42627186188783	3.808579	1.9515581
15.443958815605198	3.2057302	1.7904553
15.461646139499424	2.957604	1.7197685
15.479333834015168	2.8657348	1.6928481
15.497021899597165	2.816996	1.678391
15.514710336690234	2.7551575	1.6598667
15.53239914573928	2.6662366	1.6328615
15.550088327189297	2.6276686	1.6210085
15.567777881485336	2.5967417	1.6114409
15.58546780907256	2.5803149	1.6063359
15.6031581103962	2.5626822	1.600838
15.620848785901568	2.5349476	1.5921519
15.638539836034063	2.5301497	1.5906445
15.656231261239173	2.4874907	1.5771781
15.673923061962451	2.4333522	1.5599205
15.691615238649552	2.3743134	1.5408807
15.709307791746202	2.3774457	1.5418968
15.727000721698221	2.400675	1.5494112
15.744694028951498	2.3932283	1.5470062
15.76238771395202	2.3831854	1.543757
15.780081777145844	2.3675551	1.5386862
15.797776218979125	2.3480344	1.5323297
15.815471039898094	2.3477252	1.5322288
15.833166240349064	2.35308	1.5339752
15.850861820778437	2.3958244	1.5478451
15.868557781632699	2.4044473	1.5506281
15.886254123358412	2.4080212	1.55178
15.903950846402232	2.3839984	1.5440202
15.921647951210897	2.390034	1.5459734
15.939345438231225	2.4009778	1.5495089
15.957043307910133	2.4086611	1.5519862
15.974741560694602	2.3992143	1.5489397
15.992440197031714	2.4133272	1.5534887
16.01013921736862	2.4298396	1.5587943
16.02783862215259	2.4426157	1.562887
16.045538411830933	2.4663239	1.5704534
16.06323858685107	2.4992447	1.5809
16.080939147660512	2.5250065	1.5890269
16.09864009470684	2.4919949	1.5786053
16.11634142843774	2.4621227	1.5691153
16.134043149300954	2.4276774	1.5581006
16.15174525774433	2.4217322	1.5561916
16.169447754215817	2.4393845	1.5618529
16.18715063916342	2.4353118	1.5605485
16.204853913035244	2.4126515	1.5532713
16.222557576279478	2.4218674	1.556235
16.240261629344403	22.428564	4.7358804
16.257966072678386	43.02959	6.5596943
16.275670906729868	38.137188	6.1755314
16.293376131947387	2.5658317	1.6018213
16.31108174877957	2.563193	1.6009976
16.328787757675133	2.5783846	1.605735
16.34649415908287	2.6151147	1.6171316
16.364200953451657	2.6411412	1.6251588
16.38190814123048	2.6209524	1.6189356
16.39961572286839	2.6203616	1.6187531
16.41732369881455	2.652286	1.628584
16.43503206951817	2.7322419	1.6529495
16.45274083542859	2.807833	1.675659
16.47044999699522	2.852292	1.688873
16.488159554667558	2.8509614	1.6884791
16.505869508895184	2.848797	1.687838
16.523579860127786	2.913571	1.7069185
16.541290608815117	2.9356942	1.7133868
16.559001755407035	3.0338595	1.7417978
16.57671330035348	3.1196103	1.7662419
16.59442524410448	3.2188015	1.7941018
16.61213758711015	3.2304938	1.7973574
16.629850329820705	3.2479556	1.8022085
16.647563472686436	3.3069925	1.8185139
16.665277016157724	3.3862057	1.8401645
16.682990960685053	3.4533124	1.858309
16.70070530671898	3.4841177	1.8665792
16.718420054710155	3.4931645	1.8690009
16.736135205109335	3.5252094	1.877554
16.753850758367335	3.60992	1.899979
16.771566714935087	3.6948915	1.9222101
16.789283075263597	3.8074522	1.9512694
16.80699983980398	3.8669598	1.9664587
16.82471700900741	3.8849792	1.9710351
16.84243458332518	3.9015172	1.9752258
16.860152563208665	3.9858685	1.996464
16.87787094910932	4.0838447	2.0208526
16.89558974147871	4.150108	2.0371814
16.913308940768466	4.1973915	2.0487537
16.931028547430333	4.264379	2.0650373
16.94874856191613	4.354584	2.086764
16.966468984677785	4.425979	2.103801
16.98418981616729	4.485401	2.1178765
17.00191105683676	4.524902	2.1271818
17.019632707138374	4.5669317	2.137038
17.03735476752442	4.609475	2.1469688
17.05507723844728	4.641769	2.1544764
17.072800120359403	4.6252437	2.1506379
17.090523413713353	4.647006	2.1556916
17.108247118961785	4.6751413	2.1622076
17.125971236557437	4.655483	2.1576567
17.143695766953133	4.6606336	2.15885
17.161420710601806	4.728514	2.1745148
17.179146067956477	4.834618	2.1987765
17.19687183947025	4.834429	2.1987336
17.21459802559634	4.7760997	2.1854289
17.232324626788028	4.72345	2.17335
17.25005164349871	4.702727	2.1685772
17.267779076181863	4.684486	2.1643674
17.285506925291074	4.6076565	2.1465452
17.30323519127999	4.552853	2.1337416
17.320963874602384	4.556692	2.134641
17.33869297571211	4.581238	2.1403825
17.356422495063114	4.58883	2.1421554
17.37415243310944	4.5441823	2.1317089
17.391882790305218	4.48889	2.1187
17.40961356710468	4.477722	2.1160629
17.42734476396215	4.4929013	2.1196465
17.445076381332044	4.52405	2.1269815
17.462808419668868	4.566975	2.1370482
17.48054087942723	4.701634	2.1683252
17.498273761061835	4.9782414	2.2311974
17.51600706502747	5.418504	2.327768
17.533740791779024	6.114866	2.4728255
17.551474941771485	7.538779	2.7456837
17.56920951545993	8.689099	2.947728
17.586944513299528	10.904971	3.3022676
17.60467993574556	12.670413	3.5595524
17.622415783253373	14.449183	3.8012083
17.64015205627843	16.022173	4.0027704
17.657888755276293	17.220215	4.1497245
17.675625880702604	17.721447	4.209685
17.69336343301311	17.522919	4.1860385
17.71110141266366	16.705355	4.0872183
17.728839820110178	15.674255	3.9590726
17.746578655808705	14.631252	3.825082
17.764317920215372	13.066296	3.6147332
17.7820576137864	11.543219	3.3975313
17.79979773697811	9.490867	3.080725
17.81753829024692	7.5000753	2.7386265
17.835279274049356	5.807883	2.409955
17.85302068884201	4.791533	2.188957
17.870762535081607	4.2037168	2.0502968
17.888504813224934	3.8705106	1.9673613
17.90624752372891	3.6934006	1.9218222
17.923990667050536	3.6139567	1.9010409
17.941734243646895	3.5512555	1.8844775
17.959478253975185	3.5192196	1.8759583
17.9772226984927	3.4899335	1.8681364
17.994967577656833	3.4846308	1.8667166
18.01271289192506	3.4578028	1.8595169
18.030458641754965	3.3965034	1.8429605
18.04820482760425	3.3555768	1.8318233
18.06595144993067	3.3529365	1.8311025
18.083698509192125	3.4005682	1.8440629
18.101446005846576	3.3866813	1.8402938
18.119193940352105	3.372381	1.8364043
18.136942313166887	3.3165686	1.8211448
18.1546911247492	3.2751918	1.8097491
18.1724403755574	3.2224166	1.795109
18.19019006604997	3.2031977	1.789748
18.207940196685467	3.175277	1.7819307
18.225690767922575	3.113367	1.7644736
18.243441780220046	3.0858598	1.7566615
18.261193234036764	3.0785909	1.7545913
18.278945129831676	3.0742228	1.7533462
18.29669746806386	3.0502617	1.7464999
18.314450249192483	3.044726	1.7449143
18.3322034736768	3.047379	1.7456744
18.349957141976184	3.0596354	1.7491814
18.3677112545501	3.0464756	1.7454156
18.385465811858108	3.0513713	1.7468175
18.403220814359884	3.046878	1.7455308
18.420976262515172	3.0829732	1.7558397
18.43873215678387	3.1613276	1.7780123
18.456488497625923	3.2182093	1.7939368
18.474245285501407	3.3028033	1.8173616
18.492002520870486	3.3679192	1.8351891
18.50976020419343	3.428834	1.851711
18.527518335930615	3.7320032	1.9318393
18.545276916542516	4.376775	2.0920744
18.563035946489688	4.518441	2.1256626
18.580795426232832	4.864668	2.2055993
18.598555356232698	4.730703	2.1750178
18.616315736950185	5.109936	2.260517
18.63407656884626	4.774624	2.1850913
18.65183785238201	4.9730496	2.2300336
18.669599588018617	4.812266	2.1936877
18.68736177621737	4.8194265	2.1953192
18.705124417439652	4.7570972	2.181077
18.72288751214696	4.4959965	2.1203766
18.740651060800886	4.663185	2.159441
18.758415063863115	4.387959	2.0947456
18.77617952179546	4.5909314	2.1426458
18.793944435059814	4.3215737	2.0788395
18.811709804118184	4.3153634	2.0773454
18.829475629432675	4.234337	2.0577505
18.8472419114655	4.031874	2.0079527
18.86500865067897	4.141665	2.035108
18.88277584753551	3.8021605	1.9499129
18.90054350249763	3.75166	1.9369203
18.918311616027957	3.3767312	1.8375884
18.936080188589226	3.2846303	1.8123549
18.953849220644265	3.0315166	1.7411251
18.971618712656007	2.9167721	1.707856
18.9893886650875	2.8570275	1.6902744
19.007159078401887	8.027697	2.833319
19.024929953062408	32.90272	5.736089
19.042701289532435	32.82607	5.729404
19.060473088275405	25.381031	5.037959
19.07824534975489	2.6270602	1.6208209
19.096018074434568	2.605119	1.6140381
19.113791262778197	2.6040456	1.6137055
19.13156491524966	2.6181474	1.618069
19.149339032312945	2.6337345	1.6228784
19.167113614432136	2.627581	1.6209815
19.184888662071433	2.6244597	1.6200185
19.202664175695123	2.6558428	1.6296756
19.220440155767623	2.648227	1.6273373
19.238216602753447	2.6329103	1.6226245
19.2559935171172	2.5939066	1.610561
19.27377089932361	2.5817676	1.6067879
19.291548749837514	2.5813313	1.6066521
19.309327069123835	2.5658088	1.6018143
19.32710585764763	2.567687	1.6024004
19.344885115874032	2.5510902	1.5972133
19.362664844268313	2.5675507	1.6023579
19.380445043295822	2.5502722	1.5969572
19.39822571342203	2.5292003	1.590346
19.41600685511252	2.4632227	1.5694658
19.43378846883297	2.449208	1.5649946
19.451570555049173	2.4624307	1.5692134
19.469353114227037	2.473924	1.5728712
19.48713614683254	2.5033007	1.5821823
19.50491965333182	2.5372403	1.5928717
19.52270363419109	2.5652535	1.6016408
19.540488089876686	2.565005	1.6015633
19.55827302085503	2.5587316	1.5996035
19.576058427592674	2.5386477	1.5933135
19.593844310556282	2.5254846	1.5891774
19.611630670212598	2.5066736	1.5832478
19.629417507028506	2.4882116	1.5774066
19.64720482147098	2.4854205	1.5765216
19.6649926140071	2.5165343	1.5863588
19.682780885104084	2.5065966	1.5832235
19.70056963522921	2.4759722	1.5735222
19.718358864849908	2.452105	1.5659199
19.7361485744337	2.4639108	1.569685
19.753938764448215	2.487892	1.5773053
19.771729435361202	2.5143876	1.585682
19.789520587640506	2.5178838	1.5867841
19.807312221754092	2.5301926	1.590658
19.825104338170043	2.5233893	1.588518
19.842896937356517	2.5501795	1.5969281
19.860690019781824	2.5389452	1.5934068
19.87848358591436	2.550812	1.5971261
19.896277636222635	2.5222957	1.5881737
19.914072171175278	2.520365	1.5875658
19.931867191241015	2.5283082	1.5900655
19.94966269688869	2.5247371	1.5889422
19.967458688587264	2.511094	1.5846432
19.985255166805807	2.4684467	1.5711291
20.00305213201348	2.467359	1.5707829
20.020849584679578	2.4510815	1.565593
20.038647525273507	2.4825134	1.5755994
20.05644595426477	2.4984522	1.5806493
20.07424487212299	2.5038517	1.5823563
20.092044279317903	2.4522629	1.5659703
20.109844176319353	2.4480124	1.5646125
20.127644563597304	2.437701	1.5613139
20.145445441621817	2.4221811	1.5563358
20.16324681086307	2.4250643	1.5572618
20.181048671791373	2.4098392	1.5523657
20.198851024877122	2.3504875	1.5331299
20.216653870590836	2.3227193	1.524047
20.234457209403146	2.3493695	1.5327653
20.252261041784802	2.4086578	1.5519851
20.270065368206662	2.4543715	1.5666434
20.287870189139685	2.4438267	1.5632744
20.305675505054968	2.4477942	1.5645428
20.323481316423702	2.418136	1.5550357
20.341287623717207	2.4116368	1.5529445
20.359094427406884	2.3602936	1.5363247
20.376901727964288	2.3296506	1.5263193
20.39470952586107	2.3392348	1.5294558
20.41251782156899	2.377367	1.5418713
20.430326615559935	2.3754852	1.541261
20.448135908305886	2.3670754	1.5385302
20.465945700278965	2.3791494	1.5424491
20.483755991951384	2.3618922	1.5368448
20.50156678379548	2.3540647	1.5342962
20.519378076283708	2.3291178	1.5261447
20.537189869888635	2.3221598	1.5238634
20.55500216508294	2.3486345	1.5325255
20.572814962339415	2.3612068	1.5366219
20.59062826213098	2.35233	1.5337307
20.60844206493066	2.3545566	1.5344565
20.626256371211593	2.3594983	1.5360658
20.644071181447032	2.335163	1.5281241
20.66188649611036	2.3162527	1.521924
20.67970231567506	2.3094132	1.5196754
20.697518640614742	2.316023	1.5218486
20.715335471403122	2.3258603	1.5250771
20.73315280851404	2.326138	1.5251682
20.750970652421447	2.34976	1.5328927
20.768789003599412	2.3733187	1.5405579
20.786607862522136	2.3714378	1.5399474
20.8044272296639	2.3150547	1.5215304
20.82224710549913	2.2738297	1.5079223
20.84006749050237	2.287353	1.5123998
20.857888385148268	3.853661	1.9630744
20.8757097899116	45.968414	6.780001
20.893531705267254	64.8232	8.051286
20.911354131690224	83.83446	9.156116
20.92917706965566	69.05986	8.310226
20.94700051963877	50.119144	7.079488
20.96482448211493	29.392391	5.421475
20.982648957559622	4.1607447	2.0397904
21.00047394644843	2.2758834	1.5086031
21.01829944925707	2.2866602	1.5121707
21.036125466461375	2.2779894	1.509301
21.053951998537297	2.2564886	1.5021613
21.071779045960906	2.2142754	1.4880441
21.089606609208378	2.209769	1.4865292
21.10743468875603	2.2082503	1.4860183
21.12526328508028	2.246383	1.4987938
21.143092398657675	2.2192202	1.4897047
21.16092202996488	2.198621	1.4827747
21.17875217947867	2.205804	1.4851949
21.19658284767596	2.2284942	1.4928142
21.21441403503377	2.2048624	1.484878
21.232245742029225	2.2193563	1.4897504
21.2500779691396	2.2040057	1.4845895
21.26791071684227	2.2063038	1.4853632
21.28574398561475	2.1512766	1.4667231
21.30357777593465	2.150168	1.4663451
21.321412088279704	2.1555748	1.4681876
21.339246923127792	2.1754487	1.4749402
21.357082280956888	2.1841714	1.4778943
21.3749181622451	2.2051046	1.4849595
21.392754567470647	2.2130792	1.4876422
21.41059149711187	2.1876848	1.4790825
21.42842895164726	2.169692	1.4729874
21.446266931555378	2.1700287	1.4731017
21.464105437314945	2.178157	1.4758581
21.481944469404798	2.1627448	1.4706273
21.49978402830388	2.127013	1.4584283
21.51762411449127	2.0915232	1.4462099
21.53546472844617	2.1037385	1.450427
21.553305870647876	2.1135602	1.4538089
21.571147541575865	2.1239202	1.4573675
21.58898974170967	2.1096823	1.4524746
21.60683247152899	2.094747	1.4473242
21.62467573151363	2.0994678	1.448954
21.642519522143523	2.0465674	1.4305829
21.660363843898722	2.0052264	1.4160602
21.6782086972594	1.9652455	1.4018722
21.696054082705864	1.9739054	1.4049574
21.713900000718535	2.0389316	1.4279116
21.73174645177795	2.074073	1.4401642
21.749593436364794	2.0496936	1.4316751
21.767440954959845	2.005112	1.4160198
21.785289008044032	1.9925853	1.4115896
21.803137596098388	1.9817415	1.4077435
21.820986719604086	1.9910687	1.4110523
21.838836379042412	2.0658665	1.4373122
21.85668657489478	2.1189063	1.4556464
21.87453730764273	2.0911393	1.4460772
21.892388577767914	2.052896	1.4327931
21.91024038575213	2.0260313	1.4233873
21.928092732077285	2.02056	1.4214641
21.945945617225426	2.0096157	1.4176091
21.963799041678694	2.033543	1.4260235
21.981653005919398	31.353182	5.599391
21.999507510429943	78.14843	8.84016
22.01736255569286	73.104706	8.550129
22.035218142190818	4.1941915	2.0479724
22.05307427040661	1.9734753	1.4048043
22.07093094082315	1.9739349	1.4049679
22.088788153923474	2.0094962	1.417567
22.106645910190746	2.011448	1.4182552
22.12450421010827	2.0107453	1.4180075
22.142363054159464	2.0413096	1.4287441
22.16022244282787	2.0437207	1.4295876
22.178082376597164	2.0358756	1.4268411
22.195942855951145	2.0302265	1.4248601
22.213803881373742	2.033637	1.4260565
22.231665453349002	2.0170386	1.4202248
22.24952757236111	1.9803694	1.407256
22.26739023889438	1.9679149	1.4028239
22.28525345343323	1.9527645	1.3974135
22.30311721646225	1.967474	1.4026667
22.320981528466113	1.9636077	1.4012879
22.33884638992964	1.9763596	1.4058306
22.356711801337788	1.9420437	1.3935722
22.37457776317561	1.9431593	1.3939725
22.392444275928337	1.9504191	1.396574
22.410311340081282	1.9429113	1.3938835
22.428178956119904	1.9782615	1.4065068
22.446047124529805	2.0191927	1.420983
22.46391584579669	2.043762	1.429602
22.481785120406414	2.0132444	1.4188884
22.49965494884496	2.0000947	1.414247
22.51752533159841	1.9883646	1.4100938
22.53539626915302	1.9873394	1.4097302
22.553267761995137	1.9497488	1.396334
22.571139810611264	1.9315443	1.3898001
22.589012415488025	1.95284	1.3974406
22.60688557711216	1.9693507	1.4033356
22.624759295970566	1.9610689	1.4003817
22.642633572550263	1.9332029	1.3903967
22.660508407338362	1.95157	1.396986
22.67838380082217	1.9270387	1.3881782
22.696259753489077	1.88874	1.3743143
22.714136265826614	1.8810409	1.3715105
22.73201333832246	1.8964889	1.3771306
22.74989097146439	1.9070995	1.3809777
22.76776916574035	1.9439731	1.3942643
22.785647921638393	1.9709208	1.4038949
22.803527239646712	1.9889251	1.4102925
22.82140712025363	1.979661	1.4070042
22.839287563947593	1.9476559	1.3955845
22.85716857121719	1.9379246	1.3920937
22.875050142551135	1.9461985	1.3950622
22.892932278438277	1.9285343	1.3887168
22.910814979367604	1.9010483	1.3787851
22.928698245828222	1.9205341	1.3858334
22.946582078309387	1.9521289	1.397186
22.96446647730047	1.9612677	1.4004527
22.98235144329098	1.9586205	1.3995073
23.000236976770562	1.91145	1.382552
23.018123078229	1.8796893	1.3710176
23.03600974815619	1.8677183	1.366645
23.053896987042194	1.9132801	1.3832136
23.071784795377173	1.9407614	1.3931122
23.08967317365145	1.9597374	1.3999063
23.10756212235546	1.9687512	1.403122
23.125451641979787	1.9444193	1.3944243
23.143341733015134	1.9497449	1.3963326
23.161232395952357	1.9486148	1.3959279
23.179123631282426	1.9428754	1.3938706
23.197015439496468	1.9487606	1.3959801
23.214907821085717	1.9542929	1.3979603
23.23280077654157	1.9448307	1.3945719
23.250694306355538	1.9011095	1.3788073
23.268588411019277	1.8926618	1.3757404
23.28648309102458	1.9013367	1.3788897
23.304378346863356	1.9412043	1.3932711
23.322274179027676	1.9561676	1.3986306
23.340170588009723	1.925259	1.387537
23.358067574301852	1.9164015	1.3843416
23.37596513839651	1.8910788	1.375165
23.39386328078629	1.9076358	1.381172
23.411762001963947	1.8964938	1.3771324
23.429661302422353	1.9097123	1.3819234
23.4475611826545	1.8792714	1.3708652
23.46546164315356	1.9032186	1.3795719
23.48336268441279	1.9259164	1.3877739
23.501264306925638	1.8960578	1.3769741
23.51916651118564	1.8627656	1.3648317
23.537069297686497	1.8598677	1.3637697
23.554972666922037	1.9258419	1.387747
23.57287661938623	1.9667836	1.4024206
23.59078115557318	1.9913286	1.4111444
23.608686275977128	1.9984155	1.4136533
23.62659198109246	1.9810011	1.4074805
23.6444982714137	1.9494869	1.3962402
23.66240514743549	1.9592334	1.3997262
23.68031260965263	1.9458027	1.3949203
23.698220658560068	1.921198	1.3860729
23.716129294652845	1.9240798	1.387112
23.7340385184262	1.9124997	1.3829316
23.75194833037546	1.9082772	1.381404
23.769858730996123	1.9318873	1.3899235
23.78776972078382	1.960072	1.4000257
23.80568130023431	1.9367936	1.3916873
23.823593469843495	1.9027894	1.3794163
23.841506230107424	1.875155	1.369363
23.859419581522275	1.8889248	1.3743817
23.87733352458438	1.9203973	1.385784
23.89524805979019	1.9377404	1.3920275
23.913163187636318	1.9613948	1.400498
23.931078908619508	1.9518752	1.3970953
23.948995223236633	1.9723705	1.4044111
23.966912131984735	1.9839419	1.4085248
23.98482963536096	2.057794	1.4345013
24.002747733862616	2.0457277	1.4302894
24.020666427987155	2.0372944	1.4273382
24.038585718232156	2.0323431	1.4256027
24.056505605095353	1.9876275	1.4098325
24.074426089074617	2.0370808	1.4272634
24.092347170667946	2.0297441	1.4246908
24.110268850373515	2.0628073	1.4362477
24.128191128689586	2.0467358	1.4306418
24.146114006114626	2.0235307	1.4225086
24.164037483147187	2.054772	1.4334476
24.181961560286005	2.049785	1.431707
24.199886238029926	2.0793774	1.4420047
24.21781151687797	2.080702	1.4424639
24.235737397329274	2.0463262	1.4304986
24.253663879883135	2.0075414	1.4168774
24.271590965038975	2.0161963	1.4199283
24.289518653296376	2.076925	1.4411541
24.30744694515505	2.0785434	1.4417155
24.32537584111486	2.041735	1.4288929
24.34330534167581	2.068149	1.4381061
24.361235447338046	2.118782	1.4556037
24.379166158601876	2.0791478	1.441925
24.39709747596772	2.023715	1.4225733
24.41502939993615	2.0401342	1.4283327
24.432961931007917	2.0326474	1.4257095
24.450895069683856	1.9957595	1.4127135
24.468828816465	1.9380146	1.392126
24.4867631718525	1.9662306	1.4022235
24.504698136347656	1.9889983	1.4103185
24.52263371045192	2.0081446	1.4170902
24.540569894666874	1.9887024	1.4102136
24.558506689494266	1.9669896	1.4024941
24.57644409543597	1.9372164	1.3918393
24.594382112994012	1.9560854	1.3986013
24.61232074267057	1.9667499	1.4024086
24.630259984967953	1.9617592	1.4006281
24.64819984038863	1.9641145	1.4014688
24.66614030943522	1.9485722	1.3959126
24.684081392610462	1.9779817	1.4064074
24.702023090417274	1.9655015	1.4019635
24.7199654033587	1.9627508	1.400982
24.737908331937927	1.9402918	1.3929435
24.755851876658305	1.9488411	1.396009
24.773796038023324	2.022859	1.4222726
24.79174081653661	2.060331	1.4353853
24.809686212701962	2.0664096	1.4375012
24.827632227023294	2.0789106	1.4418428
24.8455788600047	2.1453815	1.464712
24.8635261121504	2.163647	1.470934
24.88147398396475	2.133412	1.4606204
24.899422475952303	2.1039734	1.450508
24.917371588617698	2.1372206	1.4619236
24.935321322465768	2.2281296	1.4926921
24.953271678001478	2.3342092	1.5278119
24.97122265572994	2.5422335	1.5944383
24.989174256156414	2.829228	1.6820309
25.00712647978632	3.2410915	1.8003032
25.02507932712521	3.7610939	1.939354
25.043032798678798	4.3114085	2.0763931
25.060986894952933	4.932227	2.220862
25.078941616453637	5.7428985	2.3964345
25.096896963687055	6.76156	2.6003
25.114852937159508	7.878456	2.8068588
25.132809537377444	8.424284	2.9024618
25.150766764847468	8.531558	2.9208832
25.168724620076347	7.994454	2.8274465
25.186683103570985	6.866883	2.6204739
25.204642215838426	5.5803213	2.3622704
25.222601957385894	4.157658	2.0390337
25.24056232872074	3.207373	1.7909139
25.25852333035048	2.7140713	1.6474439
25.276484962782778	2.346611	1.5318652
25.294447226525435	2.1214852	1.4565319
25.312410122086423	2.003698	1.4155204
25.330373649973843	1.9582781	1.3993849
25.348337810695988	1.9747865	1.4052709
25.366302604761245	1.9379698	1.3921099
25.384268032678207	1.8672456	1.3664719
25.40223409495558	1.8370037	1.3553611
25.420200792102257	1.8678473	1.3666921
25.438168124627246	1.8991436	1.3780942
25.45613609303974	1.9379547	1.3921044
25.474104697849057	1.9760383	1.4057163
25.492073939564698	1.9687489	1.4031211
25.510043818696285	1.9203389	1.3857629
25.528014335753614	1.902723	1.3793923
25.54598549124664	1.8900355	1.3747857
25.56395728568544	1.8804485	1.3712945
25.58192971958028	1.8441179	1.357983
25.59990279344156	1.8027623	1.3426698
25.617876507779833	1.8041079	1.3431709
25.635850863105826	1.8687524	1.3670232
25.653825859930386	1.9193407	1.3854027
25.671801498764548	1.9327674	1.3902401
25.68977778011949	1.912175	1.3828142
25.707754704506524	1.8593277	1.3635716
25.725732272437153	1.8159866	1.3475854
25.743710484423012	1.8153127	1.3473355
25.761689340975888	1.8626404	1.3647858
25.77966884260774	1.8549908	1.3619804
25.797648989830662	1.8871303	1.3737286
25.815629783156922	1.9091077	1.3817047
25.83361122309895	1.9215875	1.3862133
25.85159331016929	1.908242	1.3813913
25.869576044880695	1.8777472	1.3703091
25.887559427746034	1.8590631	1.3634746
25.90554345927836	1.8679508	1.36673
25.92352813999086	1.9158694	1.3841493
25.94151347039689	1.9632757	1.4011694
25.959499451009965	1.9292519	1.3889751
25.97748608234374	1.8598152	1.3637505
25.995473364912062	1.8280041	1.3520371
26.013461299228904	1.8664931	1.3661966
26.03144988580839	1.8852504	1.3730443
26.04943912516483	1.894321	1.3763434
26.067429017812675	1.8257189	1.3511916
26.085419564266537	1.8262198	1.351377
26.103410765041186	1.842007	1.3572056
26.12140262065155	1.8170947	1.3479966
26.139395131612723	1.7630365	1.3277938
26.157388298439948	1.7641729	1.3282217
26.17538212164861	1.8100789	1.3453918
26.193376601754295	1.8295405	1.3526051
26.211371739272714	1.8462512	1.3587682
26.229367534719746	1.8046224	1.3433623
26.247363988611433	1.8161606	1.34765
26.26536110146397	1.7953328	1.3399003
26.283358873793727	1.7909383	1.3382595
26.301357306117204	1.7794627	1.3339651
26.319356398951104	1.7986218	1.341127
26.33735615281224	1.8162835	1.3476956
26.35535656821762	1.7691897	1.3301089
26.373357645684404	1.7665797	1.3291274
26.39135938572991	1.7885072	1.3373508
26.409361788871614	1.7870387	1.3368016
26.427364855627165	1.770256	1.3305097
26.445368586514352	1.7866005	1.3366377
26.46337298205115	1.8189096	1.3486695
26.48137804275568	1.7857988	1.3363378
26.499383769146217	1.7303923	1.3154438
26.517390161741215	1.7371058	1.3179932
26.53539722105928	1.7892308	1.3376213
26.553404947619182	1.8356626	1.3548663
26.571413341939856	1.8092657	1.3450894
26.589422404540397	1.7990315	1.3412797
26.60743213594006	1.8220392	1.3498293
26.62544253665827	1.80674	1.3441503
26.64345360721459	1.7531016	1.3240474
26.66146534812879	1.734736	1.3170937
26.679477759920758	1.7883792	1.3373029
26.69749084311057	1.8531488	1.361304
26.71550459821847	1.8426075	1.3574268
26.733519025764842	1.7834595	1.3354623
26.751534126270258	1.7655456	1.3287383
26.769549900255434	1.8066146	1.3441037
26.787566348241267	1.8405466	1.3566675
26.80558347074881	1.847323	1.3591626
26.823601268299267	1.8213514	1.3495746
26.841619741414036	1.778272	1.3335186
26.85963889061465	1.7284608	1.3147094
26.877658716422832	1.7612089	1.3271054
26.89567921936045	1.7541376	1.3244386
26.913700399949544	1.7677025	1.3295497
26.93172225871233	1.7608302	1.3269627
26.949744796171174	1.7361033	1.3176128
26.967768012848605	1.7183243	1.3108487
26.98579190926733	1.7167853	1.3102615
27.003816485950225	1.78046	1.3343388
27.021841743420318	1.8259193	1.3512658
27.039867682200814	1.8200942	1.3491087
27.057894302815072	1.7932025	1.3391051
27.07592160578664	1.8170304	1.3479728
27.0939495916392	1.8501288	1.3601944
27.111978260896635	1.8485712	1.3596218
27.13000761408296	1.8388975	1.3560596
27.148037651722397	1.8362452	1.3550812
27.166068374339304	1.8518538	1.3608284
27.184099782458215	1.8708559	1.3677924
27.20213187660384	1.8908278	1.3750738
27.22016465730105	1.880927	1.3714689
27.23819812507487	1.8578708	1.3630373
27.256232280450533	1.831465	1.3533163
27.274267123953383	1.819961	1.3490593
27.292302656108987	1.8071203	1.3442918
27.31033887744306	1.829157	1.3524634
27.32837578848146	1.8425276	1.3573973
27.34641338975026	1.8389415	1.3560758
27.364451681775673	1.8905306	1.3749657
27.382490665084074	1.8711048	1.3678833
27.400530340202046	1.8352106	1.3546995
27.41857070765629	1.814524	1.3470427
27.436611767973726	1.8122163	1.3461858
27.454653521681404	1.7949606	1.3397614
27.472695969306564	1.801838	1.3423256
27.490739111376627	1.8526977	1.3611383
27.508782948419153	1.8458616	1.3586249
27.526827480961902	1.8119389	1.3460828
27.54487270953279	1.8132617	1.3465741
27.562918634659898	1.8490138	1.3597845
27.580965256871508	1.8551761	1.3620485
27.599012576696026	1.840779	1.3567531
27.617060594662068	1.8180875	1.3483647
27.63510931129842	1.7689878	1.330033
27.65315872713401	1.7504536	1.323047
27.67120884269797	1.7763216	1.3327872
27.68925965851958	1.7821618	1.3349763
27.707311175128307	1.7951529	1.3398331
27.725363393053787	1.8420211	1.3572108
27.74341631282583	1.8839914	1.3725857
27.7614699349744	1.9262269	1.3878858
27.77952426002968	2.069643	1.4386253
27.797579288521973	2.1252797	1.4578339
27.815635020981784	2.58286	1.6071279
27.83369145793979	2.6719587	1.6346127
27.85174859992682	2.4751751	1.5732689
27.869806447473923	2.3413498	1.530147
27.887865001112267	2.0565908	1.4340819
27.905924261373233	1.9234731	1.3868934
27.92398422878836	1.9202262	1.3857223
27.94204490388936	1.9274905	1.388341
27.96010628720813	1.8738542	1.3688879
27.978168379276728	1.8485087	1.3595988
27.9962311806274	1.8624731	1.3647245
28.014294691792568	1.857284	1.362822
28.0323589133048	1.8402293	1.3565505
28.050423845696887	1.8437972	1.357865
28.068489489501758	1.8609515	1.364167
28.086555845252523	1.8589112	1.3634189
28.104622913482487	1.8636886	1.3651698
28.122690694725115	1.8820906	1.371893
28.14075918951405	1.9228231	1.3866589
28.15882839838312	1.9528986	1.3974615
28.176898321866304	1.9375194	1.3919481
28.1949689604978	1.9436358	1.3941433
28.213040314811945	1.9469578	1.3953344
28.23111238534327	1.9381051	1.3921584
28.249185172626493	1.9455478	1.3948289
28.267258677196473	1.9376625	1.3919995
28.285332899588294	1.9201972	1.3857118
28.303407840337172	1.934807	1.3909733
28.321483499978545	1.9230515	1.3867413
28.33955987904799	1.9255146	1.3876292
28.357636978081285	1.9872332	1.4096925
28.37571479761439	2.04343	1.4294859
28.393793338183425	2.0315971	1.425341
28.41187260032469	1.991034	1.4110401
28.429952584574686	2.0088239	1.4173298
28.448033291470065	2.057545	1.4344145
28.46611472154769	2.1104813	1.4527496
28.484196875344566	2.060314	1.4353794
28.502279753397914	1.9754906	1.4055215
28.52036335624511	1.9490094	1.3960693
28.538447684423716	1.9948223	1.4123818
28.556532738471482	2.052688	1.4327204
28.574618518926325	2.0413103	1.4287443
28.59270502632635	2.039052	1.4279538
28.61079226120985	2.0166538	1.4200894
28.628880224115274	2.026874	1.4236833
28.646968915581287	2.043432	1.4294866
28.66505833614671	2.084448	1.4437618
28.68314848635055	2.0492196	1.4315096
28.701239366732004	2.0173259	1.420326
28.71933097783044	2.0442939	1.4297881
28.737423320185403	2.074823	1.4404246
28.75551639433665	2.1075056	1.451725
28.773610200824074	2.1386273	1.4624046
28.791704740187793	2.1870127	1.4788551
28.80980001296809	2.2573633	1.5024525
28.827896019705413	2.2754087	1.5084459
28.845992760940433	2.2035108	1.4844227
28.86409023721397	2.154261	1.4677402
28.88218844906704	2.1784835	1.4759687
28.900287397040845	2.2405303	1.4968401
28.918387081676755	2.274863	1.5082649
28.936487503516343	2.281986	1.5106244
28.954588663101365	2.3135927	1.5210499
28.97269056097374	2.2911923	1.5136685
28.990793197675597	2.25966	1.5032165
29.00889657374923	2.3261049	1.5251573
29.027000689737125	2.442524	1.5628576
29.04510554618196	2.5083354	1.5837725
29.06321114362659	2.4548821	1.5668063
29.08131748261405	2.4923356	1.5787133
29.099424563687567	2.5834904	1.607324
29.11753238739057	2.6477747	1.6271985
29.13564095426663	2.5670962	1.602216
29.15375026485954	2.5036519	1.5822933
29.171860319713275	2.5798507	1.6061914
29.18997111937199	2.7570245	1.660429
29.20808266438002	2.817784	1.6786257
29.226194955281898	2.8350513	1.683761
29.244307992622335	2.8629894	1.6920371
29.26242177694624	2.9229388	1.7096604
29.2805363087987	2.873614	1.6951737
29.29865158872498	2.900499	1.7030852
29.316767617270557	2.9698784	1.7233335
29.334884394981064	3.0150802	1.7363986
29.353001922402367	3.032185	1.741317
29.37112020008047	3.0576515	1.7486142
29.389239228561596	3.1400337	1.772014
29.407359008392152	3.3544483	1.8315153
29.42547954011872	3.6938045	1.9219273
29.44360082428809	4.291743	2.0716522
29.46172286144722	5.3797956	2.3194387
29.479845652143283	7.005624	2.6468139
29.497969196923606	9.137518	3.0228329
29.516093496335728	11.789573	3.4335947
29.5342185509274	14.867137	3.8557928
29.55234436124651	17.34759	4.165044
29.570470927841175	18.606117	4.313481
29.588598251259686	18.308973	4.2788987
29.60672633205055	16.9137	4.112627
29.624855170762405	14.730575	3.838043
29.642984767944146	11.8583145	3.4435904
29.66111512414481	8.956121	2.992678
29.67924623991366	6.6436477	2.5775275
29.697378115800138	5.2065597	2.2817886
29.71551075235387	4.268142	2.0659482
29.733644150124675	3.7679172	1.9411124
29.751778309662576	3.5409718	1.881747
29.769913231517766	3.5135684	1.8744515
29.78804891624066	3.4368489	1.853874
29.806185364381818	3.339529	1.8274379
29.82432257649206	3.289529	1.8137059
29.842460553122333	3.3328826	1.8256184
29.86059929482382	3.3438768	1.828627
29.878738802147872	3.2854505	1.8125812
29.896879075646048	3.273105	1.8091724
29.915020115870114	3.2366793	1.7990774
29.933161923371976	3.1879575	1.7854853
29.951304498703777	3.2405708	1.8001585
29.969447842417857	3.2738366	1.8093747
29.987591955066733	3.2892156	1.8136195
30.005736837203123	3.2988343	1.8162694
30.023882489379943	3.2823849	1.8117353
30.04202891215028	3.2670958	1.807511
30.060176106067455	3.2401953	1.8000542
30.078324071684946	3.2246823	1.79574
30.09647280955646	3.229056	1.7969574
30.114622320235863	3.2160494	1.7933347
30.132772604277257	3.1679487	1.7798733
30.1509236622349	3.1483324	1.7743541
30.16907549466328	3.1448286	1.7733665
30.18722810211705	3.1366124	1.7710484
30.205381485151097	3.133842	1.770266
30.22353564432045	3.1538708	1.7759141
30.241690580180403	3.0836892	1.7560437
30.25984629328638	3.0279148	1.7400905
30.278002784194037	2.9908006	1.7293931
30.296160053459246	2.9939446	1.7303019
30.314318101638033	2.978257	1.7257627
30.332476929286646	2.9657698	1.722141
30.35063653696153	2.9888892	1.7288405
30.368796925219307	2.9933167	1.7301204
30.386958094616844	2.9323037	1.7123971
30.40512004571115	2.8658707	1.6928883
30.423282779059463	2.8715825	1.6945745
30.441446295219233	2.8736632	1.6951883
30.459610594748067	2.8258028	1.6810124
30.47777567820382	2.8327427	1.6830753
30.495941546144504	2.8663108	1.6930183
30.51410819912835	2.85759	1.6904408
30.532275637713795	2.7693198	1.6641273
30.55044386245946	2.7983916	1.6728394
30.56861287392416	2.8298552	1.6822174
30.586782672666956	2.8209236	1.6795605
30.604953259247047	2.7824962	1.6680816
30.623124634223885	2.796033	1.6721343
30.641296798157075	2.805565	1.6749821
30.659469751606462	2.848351	1.6877059
30.677643495132074	2.846929	1.6872845
30.695818029294152	2.7815764	1.6678059
30.713993354653116	2.8465664	1.6871771
30.73216947176962	2.8333168	1.6832459
30.75034638120448	2.6972587	1.6423333
30.768524083518756	2.636376	1.623692
30.786702579273673	2.6590264	1.6306522
30.80488186903069	2.7567456	1.660345
30.82306195335144	2.9686007	1.7229627
30.841242832797782	3.1978095	1.788242
30.85942450793176	3.474753	1.8640689
30.877606979315637	3.7386296	1.9335536
30.895790247511883	4.1623106	2.0401742
30.913974313083134	4.6612325	2.1589887
30.932159176592283	4.96877	2.2290738
30.95034483860237	4.932138	2.2208416
30.968531299676698	4.6733003	2.1617818
30.98671856037873	4.357559	2.0874767
31.00490662127215	3.9510942	1.987736
31.023095482920848	3.4469657	1.8566005
31.04128514588892	3.048375	1.7459596
31.059475610740662	2.71043	1.6463383
31.07766687804056	2.5361633	1.5925336
31.09585894835335	2.5199637	1.5874394
31.11405182224393	2.5530877	1.5978384
31.132245500277417	2.5276937	1.5898722
31.15043998301914	2.5440722	1.5950148
31.168635271034628	2.4579606	1.5677885
31.18683136488964	2.31513	1.5215551
31.20502826515008	2.3159516	1.5218251
31.223225972382135	2.4564097	1.5672938
31.241424487152155	2.552303	1.597593
31.259623810026692	2.5046742	1.5826162
31.27782394157253	2.442374	1.5628097
31.296024882356644	2.4442	1.5633937
31.314226632946237	2.4441907	1.5633907
31.332429193908684	2.42118	1.5560142
31.350632565811598	2.423271	1.5566859
31.368836749222787	2.5770745	1.6053269
31.387041744710295	2.6844234	1.638421
31.40524755284232	2.597262	1.6116023
31.423454174187317	2.5395343	1.5935917
31.441661609313922	2.5042684	1.5824881
31.459869858791002	2.440455	1.5621955
31.478078923187628	2.4201834	1.5556939
31.496288803073064	2.4787357	1.5744001
31.514499499016807	2.4942741	1.5793271
31.532711011588546	2.4112506	1.5528202
31.550923341358178	2.3179998	1.5224979
31.56913648889584	2.2461193	1.4987059
31.587350454771844	2.281877	1.5105883
31.605565239556732	2.3362854	1.5284913
31.62378084382127	2.273473	1.507804
31.641997268136382	2.2713778	1.507109
31.660214513073274	2.3167267	1.5220797
31.67843257920331	2.3195007	1.5229907
31.6966514670981	2.2300863	1.4933474
31.71487117732944	2.2139072	1.4879204
31.733091710469346	2.2998602	1.516529
31.751313067090052	2.3004289	1.5167165
31.769535247764008	2.2939985	1.5145952
31.787758253063878	2.3182013	1.522564
31.805982083562526	2.3579097	1.5355487
31.824206739833024	2.3673701	1.5386261
31.84243222244869	2.3561633	1.5349799
31.860658531983013	2.3291116	1.5261427
31.878885669009737	2.2920945	1.5139664
31.897113634102784	2.3214273	1.5236231
31.91534242783632	2.2377527	1.495912
31.933572050784694	2.2536466	1.5012151
31.951802503522508	2.26576	1.5052441
31.970033786624548	2.3087308	1.5194508
31.988265900665834	2.239942	1.4966435
32.006498846221575	2.1977057	1.4824661
32.02473262386724	2.2097847	1.4865345
32.04296723417845	2.194949	1.481536
32.0612026777311	2.186823	1.478791
32.07943895510129	2.1695035	1.4729234
32.097676066865304	2.1820962	1.477192
32.115914013599685	2.1444921	1.4644085
32.13415279588115	2.135757	1.4614229
32.152392414286666	2.161772	1.4702966
32.1706328693934	2.1962886	1.4819881
32.18887416177875	2.1332173	1.4605538
32.20711629202032	2.1148696	1.4542592
32.225359260695924	2.1480758	1.4656315
32.243603068383614	2.1613884	1.4701661
32.26184771566166	2.1769578	1.4754517
32.28009320310852	2.2047977	1.4848561
32.2983395313029	2.1818488	1.4771082
32.31658670082372	2.1029341	1.4501497
32.33483471225012	2.0680652	1.4380769
32.35308356616143	2.0875545	1.4448372
32.371333263137245	2.149841	1.4662336
32.38958380375734	2.0725641	1.4396403
32.407835188601744	1.9943134	1.4122016
32.42608741825067	1.9844333	1.4086992
32.444340493284585	2.0894759	1.4455019
32.46259441428416	2.1353247	1.461275
32.48084918183028	2.158	1.4690132
32.49910479650405	2.1187246	1.4555839
32.51736125888683	2.0214334	1.4217712
32.53561856956014	2.0147636	1.4194237
32.5538767291058	2.063119	1.4363562
32.572135738105764	2.158677	1.4692438
32.59039559714228	2.0803826	1.4423531
32.608656306797776	2.0412507	1.4287235
32.62691786765491	2.0793023	1.4419786
32.645180280296586	2.1662605	1.4718221
32.663443545305896	2.1469336	1.4652418
32.68170766326619	2.0948136	1.447347
32.69997263476099	2.071846	1.4393909
32.7182384603741	2.0595436	1.435111
32.7365051406895	1.9895915	1.4105288
32.75477267629144	2.032722	1.4257356
32.77304106776434	2.041023	1.4286438
32.79131031569289	2.0821664	1.4429713
32.809580420661966	2.0303764	1.4249128
32.827851383256714	1.962097	1.4007487
32.84612320406245	2.0084677	1.4172041
32.86439588366476	2.0418303	1.4289262
32.88266942264945	2.0086026	1.4172518
32.9009438216025	2.0284302	1.4242297
32.9192190811102	2.102333	1.4499425
32.937495201758985	2.1340804	1.4608492
32.95577218413556	2.047394	1.4308717
32.974050028826866	1.9970771	1.4131798
32.992328736420035	1.9327596	1.3902372
33.010608307502444	1.9723703	1.404411
33.02888874266169	1.9744245	1.4051422
33.047170042485604	1.9074343	1.381099
33.06545220756225	1.9212625	1.3860961
33.083735238479896	1.9137638	1.3833885
33.10201913582707	1.9573213	1.399043
33.12030390019248	1.9996964	1.4141062
33.138589532165135	2.0368872	1.4271955
33.15687603233419	1.9877539	1.4098773
33.17516340128909	1.984442	1.4087023
33.19345163961947	2.02865	1.4243069
33.211740747915215	1.9827979	1.4081186
33.23003072676643	1.9499213	1.3963958
33.248321576763466	1.9880334	1.4099764
33.266613298496885	1.911146	1.3824421
33.28490589255747	1.8374928	1.3555415
33.30319935953626	1.8732228	1.3686574
33.32149370002451	1.9852984	1.4090061
33.339788914613706	1.9654943	1.4019608
33.358085003895575	1.937343	1.3918847
33.376381968462034	1.9189087	1.3852468
33.39467980890529	1.897982	1.3776727
33.41297852581774	1.9157089	1.3840914
33.43127811979204	1.9126116	1.382972
33.44957859142105	1.8852423	1.3730413
33.467879941297866	1.8788584	1.3707145
33.486182170015844	1.8762169	1.3697506
33.50448527816853	1.9069971	1.3809407
33.522789266349754	1.993227	1.411817
33.541094135153514	2.0367246	1.4271386
33.55939988517411	2.0758874	1.440794
33.57770651700602	1.9430114	1.3939195
33.59601403124398	1.8306365	1.3530102
33.61432242848296	1.8729652	1.3685632
33.632631709318154	1.9665378	1.402333
33.650941874344994	1.9869566	1.4095945
33.66925292415916	1.9626794	1.4009566
33.68756485935654	1.9975603	1.4133507
33.70587768053328	1.9945276	1.4122775
33.724191388285746	1.9558722	1.398525
33.74250598321054	1.8569897	1.362714
33.760821465904506	1.8751597	1.3693647
33.77913783696474	1.9395967	1.392694
33.79745509698852	1.9766965	1.4059504
33.815773246573414	1.9269325	1.38814
33.8340922863172	1.9042364	1.3799407
33.852412216817896	1.9310762	1.3896316
33.87073303867377	1.9457158	1.3948891
33.889054752483304	1.9543875	1.3979942
33.907377358845245	1.9802761	1.4072229
33.92570085835853	2.0480363	1.4310962
33.94402525162239	1.97097	1.4039124
33.96235053923627	1.8250068	1.3509282
33.980676721799824	1.8934181	1.3760153
33.999003799912984	1.9705161	1.4037508
34.01733177417592	2.0301254	1.4248247
34.03566064518901	2.0868125	1.4445804
34.0539904135529	2.0461373	1.4304326
34.07232107986846	1.8409266	1.3568075
34.090652644736785	1.7500763	1.3229045
34.108985108759235	1.8223349	1.3499389
34.12731847253742	1.9594398	1.3998
34.14565273667313	1.9396281	1.3927053
34.16398790176847	1.9637854	1.4013513
34.18232396842574	2.077862	1.4414791
34.20066093724749	2.1209645	1.4563532
34.21899880883651	1.963191	1.4011391
34.23733758379583	1.782394	1.3350633
34.25567726272874	1.7644969	1.3283436
34.27401784623872	1.9663261	1.4022576
34.29235933492957	1.9697342	1.4034722
34.31070172940526	1.8964348	1.3771111
34.32904503027003	1.944187	1.3943411
34.347389238128386	1.9705102	1.4037486
34.36573435358502	1.9306294	1.3894709
34.38408037724492	1.8771018	1.3700737
34.402427309713296	1.8511393	1.3605658
34.42077515159559	1.8857696	1.3732333
34.43912390349752	1.8393099	1.3562117
34.45747356602499	1.8259969	1.3512945
34.47582413978423	2.0643907	1.4367988
34.49417562538163	2.203925	1.4845622
34.51252802342388	2.081639	1.4427886
34.53088133451789	2.0948424	1.447357
34.54923555927084	2.0709753	1.4390883
34.567590698290104	2.031144	1.4251821
34.58594675218336	1.97397	1.4049804
34.6043037215585	1.8985963	1.3778956
34.62266160702365	1.9077982	1.3812307
34.641020409187234	1.9393356	1.3926003
34.65938012865785	1.9302539	1.3893358
34.677740766044394	1.9306997	1.3894962
34.69610232195598	2.1334424	1.4606308
34.714464797002016	2.1037524	1.4504318
34.73282819179208	1.9427168	1.3938137
34.751192506936064	1.8069056	1.3442119
34.76955774304408	1.7592053	1.3263503
34.7879239007265	1.9286174	1.3887467
34.80629098059391	1.9380448	1.3921368
34.824658983257194	1.8134465	1.3466427
34.843027909327446	1.9103992	1.3821719
34.86139775941603	1.9108573	1.3823376
34.879768534134534	1.7149068	1.3095446
34.89814023409483	1.7949477	1.3397566
34.91651285990901	1.8685197	1.3669381
34.93488641218944	1.7996497	1.3415103
34.95326089154871	1.8772342	1.370122
34.97163629859967	2.033642	1.4260582
34.99001263395542	2.181804	1.4770931
35.00838989822934	2.1958995	1.4818568
35.02676809203499	2.2227125	1.4908764
35.04514721598624	2.2341928	1.4947217
35.063527270697215	1.9697416	1.4034748
35.081908256782256	1.8693284	1.3672339
35.10029017485597	1.9398336	1.3927791
35.11867302553321	2.100976	1.4494743
35.137056809429104	2.245099	1.4983655
35.155441527159006	2.1967342	1.4821384
35.173827179338524	2.26521	1.5050614
35.19221376658354	2.33752	1.528895
35.21060128951017	2.2240322	1.491319
35.2289897487348	2.0890682	1.4453609
35.24737914487405	2.113756	1.4538761
35.26576947854479	2.0157266	1.4197628
35.28416075036418	1.8145292	1.3470446
35.30255296094958	1.9038674	1.379807
35.32094611091867	2.04957	1.4316319
35.33934020088932	2.054263	1.4332701
35.35773523147969	2.3761766	1.5414852
35.3761312033082	2.577756	1.6055391
35.394528116993506	2.3920324	1.5466197
35.41292597315452	2.0711057	1.4391336
35.431324772410434	1.6951556	1.3019814
35.449724515380666	1.7949345	1.3397516
35.46812520268491	1.6751742	1.2942852
35.486526834943106	1.6439766	1.2821765
35.504929412775454	1.9210244	1.3860103
35.52333293680242	2.1103494	1.4527042
35.54173740764471	2.059699	1.4351652
35.560142825923286	1.6093841	1.268615
35.5785491922594	1.5910718	1.261377
35.59695650727454	1.6493577	1.2842733
35.61536477159042	1.1889042	1.0903689
