0.008763373481513119	0.0	0.0
0.026290120649546365	0.3180582	0.56396645
0.043816868432600686	0.28115404	0.5302396
0.06134361724069026	0.32156482	0.56706685
0.07887036748382949	0.33741143	0.5808713
0.0963971195720331	0.31475148	0.56102717
0.11392387391531617	0.25867143	0.5085975
0.1314506309236943	0.16955791	0.4117741
0.1489773910071836	0.09669631	0.3109603
0.16650415457580078	0.08829671	0.29714763
0.18403092203956356	0.086785816	0.29459432
0.20155769380849	0.09612725	0.31004396
0.2190844702925996	0.101523	0.31862673
0.2366112519019124	0.102515504	0.32018042
0.2541380390464497	0.06972495	0.2640548
0.27166483213623416	0.07447681	0.2729044
0.28919163158128947	0.102031544	0.31942376
0.3067184377916406	0.11909494	0.34510136
0.324245251177314	0.16855523	0.4105548
0.34177207214833777	0.18356292	0.42844245
0.3592989011147415	0.19765443	0.44458342
0.37682573848655654	0.15280494	0.39090273
0.39435258467381573	0.19595502	0.44266808
0.41187944008655414	0.21960816	0.4686237
0.42940630513480854	0.23011726	0.4797054
0.446933180228618	0.16792572	0.40978742
0.4644600657780234	0.14268114	0.37773156
0.48198696219306775	0.17839694	0.4223706
0.49951386988379676	0.24800134	0.4979973
0.5170407892602581	0.2793264	0.5285134
0.5345677207325025	0.24922739	0.49922678
0.5520946647105822	0.2033923	0.45099035
0.5696216216045534	0.11217258	0.33492175
0.5871485918244737	0.09043131	0.30071798
0.6046755757804043	0.10187055	0.31917167
0.6222025738824094	0.13090345	0.36180583
0.6397295865405557	0.112268396	0.33506477
0.6572566141649129	0.1258522	0.35475653
0.6747836571655547	0.11687671	0.34187236
0.6923107159525568	0.14913912	0.38618535
0.7098377909359992	0.19138354	0.43747404
0.7273648825259653	0.2114292	0.4598143
0.7448919911325411	0.22169927	0.4708495
0.762419117165817	0.23926842	0.4891507
0.7799462610358868	0.2413938	0.49131843
0.7974734231528482	0.25640565	0.5063651
0.8150006039268024	0.22193994	0.471105
0.8325278037678551	0.23220587	0.48187745
0.8500550230861152	0.1947083	0.44125763
0.8675822622916969	0.18476032	0.42983755
0.8851095217947171	0.17957363	0.42376128
0.9026368020052984	0.23884366	0.48871633
0.9201641033335665	0.2927483	0.5410622
0.9376914261896523	0.29584694	0.54391813
0.9552187709836915	0.26544797	0.5152164
0.9727461381258234	0.2259351	0.4753263
0.990273528026193	0.23305672	0.48275948
1.0078009410949496	0.2543183	0.5042998
1.0253283777422473	0.2716634	0.5212134
1.0428558383782454	0.29871443	0.5465477
1.0603833234131086	0.3152517	0.5614728
1.0779108332570058	0.3408133	0.58379215
1.0954383683201119	0.33690172	0.58043236
1.112965929012607	0.37704152	0.61403704
1.1304935157446763	0.5905184	0.768452
1.1480211289265108	0.6429032	0.80181247
1.1655487689683062	1.3215224	1.1495749
1.1830764362802655	1.5450201	1.2429883
1.200604131272596	1.9302511	1.3893348
1.2181318543555117	2.3761249	1.5414684
1.235659605939232	2.444228	1.5634027
1.253187386433982	3.934549	1.9835697
1.270715196249994	6.407978	2.5313985
1.2882430357975057	11.646973	3.4127662
1.3057709054867608	16.323397	4.040222
1.3232988057280106	21.704855	4.658847
1.3408267369315112	26.619556	5.1594143
1.358354699507526	30.463326	5.519359
1.3758826938663256	34.235435	5.8511057
1.3934107204181858	36.343624	6.0285673
1.410938779573391	36.666176	6.05526
1.4284668717422309	37.43401	6.118334
1.4459949973350033	36.99396	6.0822663
1.4635231567620117	37.08455	6.0897083
1.4810513504335687	36.17093	6.0142274
1.4985795787599925	35.42775	5.9521213
1.5161078421516088	35.296772	5.9411087
1.5336361410187505	34.427643	5.8675075
1.5511644757717598	34.634563	5.8851137
1.5686928468209842	35.233677	5.9357963
1.58622125457678	35.945465	5.995454
1.6037496994495108	37.146973	6.0948315
1.621278181849548	36.75135	6.062289
1.6388067021872719	37.347675	6.1112742
1.6563352608730693	36.982914	6.081358
1.673863858317336	36.16884	6.0140533
1.6913924949304753	35.71181	5.975936
1.7089211711228998	34.386456	5.8639965
1.7264498873050296	33.554523	5.792627
1.7439786438872935	32.532883	5.7037606
1.7615074412801288	31.513453	5.613684
1.779036279893981	30.84232	5.553586
1.796565160139305	29.726913	5.4522395
1.814094082426564	29.172947	5.401199
1.8316230471662298	28.334435	5.32301
1.849152054768784	27.479141	5.242055
1.8666811056447168	26.977177	5.193956
1.8842102002045273	26.426687	5.1406894
1.901739338858724	26.14033	5.1127615
1.9192685220178245	25.38062	5.037918
1.9367977500923557	24.482025	4.9479313
1.9543270234928547	24.008524	4.8998494
1.971856342629867	23.192879	4.8158984
1.9893857079139496	22.785597	4.773426
2.006915119755667	22.476543	4.7409434
2.0244445785655945	22.126608	4.7038927
2.0419740847543175	21.616203	4.649323
2.0595036387324317	21.135023	4.5972843
2.0770332409105414	20.577972	4.536295
2.094562891699263	20.435604	4.5205755
2.1120925915092217	20.05083	4.4778156
2.129622340751053	19.747768	4.443846
2.1471521398354043	187.72717	13.701357
2.1646819891729323	443.90253	21.068995
2.182211889174303	440.1222	20.97909
2.1997418402501974	452.71866	21.277185
2.2172718428113023	432.7175	20.801863
2.234801897268317	320.59042	17.905039
2.2523320040319548	16.861217	4.106241
2.269862163512935	16.53154	4.0659
2.287392376121992	16.410639	4.051005
2.304922642269869	16.001179	4.0001473
2.322452962367322	15.592398	3.948721
2.3399833368251164	15.16003	3.8935883
2.357513766054032	15.002877	3.8733547
2.3750442504648586	14.850085	3.853581
2.3925747904683963	14.615354	3.8230033
2.410105386475459	14.447455	3.8009808
2.4276360388968707	14.169343	3.7642188
2.445166748143469	13.798352	3.7146134
2.4626975146261025	13.305242	3.647635
2.4802283387556323	13.02048	3.6083903
2.4977592209429305	12.850732	3.5847917
2.5152901615988825	12.5503645	3.5426493
2.5328211611343865	12.47374	3.5318182
2.5503522199603523	12.427136	3.5252144
2.5678833384877024	12.299159	3.5070157
2.5854145171273712	12.172306	3.4888833
2.6029457562903064	11.95284	3.457288
2.620477056387469	11.827678	3.4391391
2.6380084178298326	11.637704	3.411408
2.655539841028383	11.307762	3.3627017
2.673071326394119	11.138857	3.3374927
2.6906028743380523	10.958852	3.3104157
2.708134485271211	10.778212	3.2830186
2.7256661596046325	10.643871	3.2624946
2.743197897749369	10.379013	3.2216475
2.760729700116486	10.115829	3.1805391
2.778261567117063	9.9711275	3.1577091
2.795793499162193	10.065368	3.1725965
2.8133254966629817	10.105337	3.1788893
2.830857560030551	9.888838	3.1446524
2.8483896896760337	9.677956	3.1109412
2.865921886010578	9.407082	3.0670967
2.883454149445347	9.218476	3.0361943
2.9009864803915177	9.096138	3.0159805
2.91851887926028	8.870796	2.978388
2.9360513464628384	8.846801	2.9743571
2.953583882410413	8.783633	2.9637196
2.9711164875142373	8.694921	2.948715
2.9886491621855606	8.595722	2.9318461
3.0061819068356455	8.418163	2.9014072
3.023714721875769	8.383642	2.895452
3.041247607717225	8.138908	2.8528771
3.0587805647713213	7.9823465	2.8253047
3.0763135934493806	7.9749804	2.8240008
3.0938466941627407	7.877155	2.806627
3.1113798673227544	7.843707	2.8006618
3.1289131133407904	7.6518874	2.7662046
3.1464464326282315	7.568729	2.7511322
3.1639798255964786	7.5434065	2.7465262
3.1815132926569443	7.470901	2.733295
3.1990468342210603	7.3840623	2.717363
3.216580450700272	7.2753596	2.6972876
3.2341141425060416	7.185772	2.680629
3.251647910049847	7.090838	2.6628628
3.2691817537431813	7.0208573	2.6496902
3.286715673997555	6.9856606	2.64304
3.3042496712244938	6.959765	2.6381366
3.32178374583554	6.889221	2.6247325
3.339317898242251	6.939843	2.6343582
3.3568521288562034	6.8597527	2.619113
3.3743864380889876	6.738008	2.5957673
3.3919208263522127	6.590028	2.567105
3.4094552940575023	6.4921184	2.5479636
3.4269898416164972	6.4710283	2.5438216
3.444524469440858	6.381407	2.5261447
3.4620591779422587	6.3624177	2.5223835
3.479593967532391	6.2437925	2.4987583
3.4971288386229658	6.2531548	2.5006309
3.5146637916257086	6.2507863	2.5001574
3.5321988269523628	6.2183924	2.4936705
3.5497339450146903	6.130476	2.4759798
3.5672691462244708	6.05357	2.4604003
3.5848044309934988	6.0640855	2.4625363
3.60233979973359	6.0497518	2.4596243
3.619875252856575	6.057033	2.461104
3.6374107907743034	6.1001434	2.4698467
3.6549464138986427	6.1622543	2.4823887
3.6724821226414788	6.204638	2.490911
3.690017917414714	6.206775	2.49134
3.7075537986302702	6.2632165	2.502642
3.7250897667000857	6.3479385	2.5195115
3.7426258220361235	6.4845223	2.5464725
3.7601619650503553	6.771134	2.6021402
3.777698196154779	7.297483	2.7013855
3.7952345157614067	8.432064	2.9038017
3.8127709242822716	9.291621	3.048216
3.830307422129425	11.727803	3.424588
3.847844009714936	30.540163	5.5263157
3.8653806874508954	97.93647	9.896286
3.882917455749409	96.99129	9.848415
3.900454315022606	96.56981	9.826994
3.917991265682631	41.08213	6.4095345
3.9355283081416506	10.734311	3.276326
3.9530654428118495	8.456081	2.9079342
3.970602670105433	7.3182306	2.7052228
3.9881399904346244	6.3947463	2.5287836
4.005677404211669	6.319704	2.5139022
4.023214911848827	6.2589755	2.5017943
4.0407525137583855	6.2277923	2.4955544
4.058290210352644	6.191897	2.4883523
4.075828002043927	6.1726904	2.48449
4.0933658892445814	6.137609	2.4774199
4.110903872366966	6.1011677	2.4700541
4.128441951823468	5.987331	2.4469023
4.145980128026488	6.035566	2.456739
4.163518401388452	6.018455	2.453254
4.181056772321807	6.082409	2.466254
4.1985952412390155	6.094816	2.4687681
4.216133808552567	6.133689	2.4766285
4.233672474674966	6.2180066	2.4935932
4.251211240018741	6.400864	2.5299928
4.268750104996445	6.597779	2.5686142
4.286289070020643	7.403292	2.720899
4.303828135503928	8.99141	2.998568
4.3213673018589125	29.310268	5.413896
4.3389065694982305	90.49854	9.513072
4.356445938834537	165.84969	12.878264
4.3739854102805085	170.80014	13.069053
4.391524984248844	171.60077	13.0996475
4.409064661152262	135.5477	11.642495
4.426604441403504	96.01244	9.7985935
4.444144325415337	75.31571	8.678463
4.461684313600543	21.325693	4.617975
4.47922440637193	21.876944	4.6772795
4.496764604142329	20.302622	4.505843
4.5143049073245916	18.565172	4.308732
4.531845316331589	16.517822	4.0642123
4.5493858315762195	13.472904	3.6705456
4.566926453471405	11.093834	3.3307407
4.584467182430081	8.897748	2.9829092
4.602008018865218	7.8915825	2.809196
4.619548963189798	7.252373	2.693023
4.637090015816834	6.825652	2.6125948
4.654631177159353	6.5576544	2.5607917
4.672172447630417	6.3423533	2.518403
4.689713827643102	6.240285	2.4980562
4.7072553176105085	6.01118	2.4517708
4.724796917945764	5.8341045	2.415389
4.742338629062015	5.7022467	2.3879378
4.759880451372434	5.6456475	2.3760571
4.777422385290215	5.526577	2.3508673
4.794964431228581	5.4904084	2.343162
4.812506589600768	5.511853	2.3477337
4.830048860820047	5.576844	2.3615344
4.847591245299709	5.607381	2.367991
4.8651337434530655	5.586466	2.3635705
4.882676355693457	5.5692368	2.3599231
4.900219082434242	5.501771	2.3455853
4.917761924088813	5.4843497	2.3418689
4.935304881070575	5.4857645	2.342171
4.952847953792969	5.494483	2.3440313
4.970391142669449	5.455095	2.3356144
4.9879344481135055	5.436885	2.331713
5.005477870538642	5.41646	2.327329
5.023021410358394	5.379711	2.3194203
5.040565067986324	5.3462124	2.312188
5.05810884383601	5.3050475	2.303269
5.075652738321066	5.2628884	2.2940986
5.09319675185512	5.298321	2.301808
5.110740884851836	5.3102107	2.3043895
5.128285137724894	5.263882	2.294315
5.145829510888007	5.223258	2.2854447
5.163374004754908	5.1957436	2.2794173
5.1809186197393595	5.180748	2.2761257
5.198463356255145	5.178552	2.2756433
5.216008214716077	5.163598	2.272355
5.233553195535998	5.182834	2.276584
5.251098299128764	5.119078	2.262538
5.268643525908272	5.135708	2.26621
5.286188876288432	5.142354	2.2676759
5.3037343506831895	5.2237144	2.2855446
5.32127994950651	5.1739607	2.2746341
5.3388256731723915	5.099818	2.2582777
5.356371522094851	5.05939	2.2493088
5.373917496687938	5.044668	2.246034
5.391463597365729	5.1040077	2.259205
5.40900982454232	5.0960493	2.2574432
5.426556178631843	5.1738033	2.2745996
5.444102660048449	5.1626987	2.2721572
5.4616492692063225	5.1809316	2.276166
5.479196006519669	5.135675	2.2662027
5.496742872402727	5.1258945	2.2640438
5.514289867269756	5.138695	2.2668688
5.531836991535049	5.1209126	2.2629433
5.549384245612924	5.0970116	2.257656
5.566931629917724	5.10015	2.258351
5.584479144863822	5.083161	2.2545867
5.6020267908656205	5.042269	2.2454998
5.619574568337545	5.048337	2.2468505
5.637122477694054	5.018305	2.2401574
5.654670519349629	5.0323462	2.2432892
5.672218693718784	5.0380936	2.2445698
5.689767001216059	5.0584903	2.2491088
5.707315442256021	5.0551295	2.2483616
5.724864017253266	5.0199766	2.2405305
5.7424127266224225	5.037799	2.2445042
5.75996157077814	4.991632	2.234196
5.777510550135105	5.055351	2.2484107
5.795059665108022	5.103023	2.2589872
5.812608916111639	5.152142	2.269833
5.830158303560715	5.2159743	2.2838507
5.847707827870055	5.2100697	2.2825577
5.86525748945448	5.2344484	2.2878916
5.8828072887288485	5.3539886	2.3138688
5.900357226108044	5.4257803	2.3293304
5.917907302006979	5.546763	2.3551567
5.9354575168406	6.2440424	2.4988081
5.9530078710238765	6.8320446	2.613818
5.970558364971812	7.3950024	2.7193754
5.988108999099438	7.838061	2.7996538
6.005659773821818	8.398684	2.8980482
6.023210689554039	8.092574	2.844745
6.040761746711227	8.439851	2.905142
6.058312945708531	7.775523	2.7884624
6.075864286961132	7.31282	2.7042227
6.093415770884244	6.574936	2.5641637
6.1109673978931065	5.992038	2.4478638
6.128519168402993	5.338894	2.3106046
6.146071082829204	5.2035728	2.2811341
6.163623141587075	5.130518	2.2650647
6.181175345091969	5.1148396	2.2616012
6.198727693759281	5.1247334	2.2637875
6.216280188004435	5.1058106	2.259604
6.233832828242885	5.085646	2.2551377
6.251385614890126	5.0544233	2.2482045
6.268938548361669	5.0125213	2.238866
6.286491629073067	4.9750237	2.2304761
6.304044857439898	5.0186534	2.240235
6.321598233877777	5.0357876	2.244056
6.339151758802344	5.0264516	2.2419748
6.356705432629277	4.95277	2.225482
6.37425925577428	4.96934	2.2292016
6.391813228653095	4.9857187	2.2328722
6.409367351681486	4.980145	2.231624
6.426921625275259	4.9345407	2.2213826
6.44447604985025	4.8952346	2.2125177
6.46203062582232	4.9027104	2.2142065
6.47958535360737	4.8949504	2.2124534
6.497140233621328	4.911247	2.2161334
6.514695266280161	4.888366	2.210965
6.532250451999859	4.9329	2.2210133
6.549805791196454	4.9409747	2.2228303
6.567361284286002	5.0057635	2.2373564
6.584916931684597	4.998828	2.235806
6.602472733808367	4.983464	2.2323673
6.6200286910734665	4.952139	2.2253401
6.637584803896092	4.9117866	2.2162552
6.655141072692462	4.886355	2.21051
6.672697497878842	4.8799787	2.2090673
6.690254079871514	4.8370576	2.1993313
6.707810819086808	4.81817	2.195033
6.725367715941078	4.8330064	2.19841
6.742924770850719	4.9086742	2.2155528
6.760481984232151	4.899379	2.213454
6.778039356501836	4.837153	2.1993527
6.795596888076266	4.7978473	2.190399
6.813154579371963	4.7975726	2.1903362
6.830712430805492	4.8016996	2.191278
6.84827044279344	4.7927074	2.1892252
6.865828615752445	4.743213	2.177892
6.883386950099159	4.7549	2.1805732
6.900945446250287	4.8670197	2.2061322
6.918504104622553	4.911867	2.2162733
6.936062925632727	4.9265175	2.219576
6.953621909697607	4.9642754	2.2280655
6.971181057234028	5.0385194	2.2446647
6.988740368658859	5.0947204	2.2571487
7.006299844389007	5.1043577	2.2592826
7.023859484841407	5.1686816	2.2734735
7.041419290433036	5.2293553	2.2867785
7.058979261580902	5.348361	2.3126523
7.0765393987020495	5.5382752	2.353354
7.094099702213559	5.8380046	2.4161963
7.111660172532549	6.118829	2.4736266
7.129220810076164	6.4672794	2.5430846
7.146781615261595	7.0414352	2.6535702
7.16434258850606	7.4146934	2.7229934
7.181903730226821	7.826861	2.7976527
7.1994650408411704	7.9561834	2.8206708
7.217026520766437	8.054812	2.8381002
7.234588170419983	8.224403	2.8678222
7.252149990219215	8.219968	2.8670487
7.269711980581568	8.085954	2.8435812
7.2872741419245175	7.947185	2.819075
7.304836474665574	7.6195807	2.7603588
7.322398979222286	7.3868904	2.7178833
7.339961656012233	7.121962	2.6687005
7.357524505453039	6.8138113	2.6103277
7.375087527962357	6.4746485	2.544533
7.392650723957886	6.176051	2.4851663
7.410214093857353	5.767323	2.4015253
7.427777638078528	5.532962	2.3522248
7.445341357039213	5.3508906	2.3131993
7.4629052511572525	5.2735095	2.2964122
7.480469320850524	5.238384	2.2887516
7.498033566536948	5.12206	2.2631967
7.5155979886344735	4.997213	2.2354448
7.5331625875610975	4.965341	2.2283046
7.550727363734844	4.9672766	2.2287388
7.568292317573788	5.047722	2.2467136
7.585857449496025	5.090067	2.2561176
7.603422759919705	5.1150217	2.2616413
7.620988249263007	5.1476183	2.2688363
7.638553917944147	5.1901383	2.2781875
7.656119766381391	5.198869	2.280103
7.673685794993023	5.179368	2.2758224
7.691252004197388	5.1425867	2.2677271
7.70881839441285	5.1075835	2.2599964
7.726384966057826	5.0442724	2.2459457
7.743951719550762	5.0145617	2.2393217
7.761518655310149	5.0493703	2.2470803
7.779085773754511	5.1004224	2.2584114
7.796653075302419	5.1472144	2.2687473
7.814220560372475	5.1900744	2.2781734
7.831788229383323	5.1873937	2.277585
7.8493560827536495	5.1720586	2.274216
7.866924120902174	5.175667	2.2750092
7.884492344247663	5.207493	2.2819932
7.9020607532089135	5.256634	2.292735
7.919629348204771	5.315161	2.3054633
7.937198129654115	5.3030014	2.3028247
7.954767097975865	5.3030853	2.3028429
7.972336253588986	5.30573	2.303417
7.989905596912472	5.331019	2.3088999
8.007475128365371	5.324698	2.3075306
8.025044848366756	5.3488054	2.3127484
8.042614757335754	5.4347267	2.33125
8.060184855691523	5.4963427	2.344428
8.07775514385327	5.6543207	2.3778815
8.095325622240228	5.6883526	2.3850267
8.112896291271687	5.7282686	2.3933802
8.130467151366968	5.750836	2.3980901
8.148038202945436	5.804933	2.4093428
8.165609446426497	5.859196	2.4205778
8.183180882229594	5.8952136	2.4280062
8.200752510774217	5.852219	2.419136
8.218324332479893	5.8492355	2.4185193
8.235896347766193	5.8686323	2.4225261
8.253468557052724	5.900975	2.4291923
8.27104096075914	5.891888	2.4273212
8.288613559305137	5.997802	2.449041
8.306186353110448	6.085014	2.466782
8.32375934259485	6.1295733	2.4757974
8.341332528178162	6.117712	2.4734008
8.358905910280246	6.08786	2.4673588
8.376479489321003	6.133272	2.4765444
8.394053265720377	6.1548877	2.4809046
8.411627239898356	6.2294044	2.4958775
8.42920141227497	6.2206364	2.4941204
8.44677578327029	6.199993	2.4899786
8.464350353304427	6.1243844	2.4747493
8.48192512279754	6.0639744	2.462514
8.499500092169827	6.051613	2.4600027
8.51707526184153	6.009868	2.4515033
8.534650632232934	6.0274	2.4550765
8.552226203764365	6.044679	2.458593
8.569801976856192	6.0895185	2.467695
8.587377951928834	6.0909967	2.4679945
8.60495412940274	6.0718665	2.4641159
8.622530509698416	6.0935006	2.4685018
8.6401070932364	6.2632804	2.5026546
8.657683880437283	6.4267907	2.5351117
8.675260871721695	6.608555	2.570711
8.692838067510303	6.7983375	2.6073623
8.710415468223834	6.904455	2.627633
8.727993074283043	7.0017486	2.6460817
8.745570886108737	6.897338	2.6262784
8.763148904121765	6.9101233	2.6287115
8.78072712874302	6.9337745	2.6332061
8.798305560393441	7.209213	2.6849978
8.815884199494006	7.336705	2.7086353
8.833463046465745	7.545582	2.7469223
8.851042101729728	7.6655087	2.7686656
8.86862136570707	8.002881	2.8289363
8.886200838818924	8.084485	2.843323
8.903780521486505	8.11616	2.8488877
8.921360414131055	8.241727	2.8708408
8.938940517173874	8.438852	2.9049702
8.956520831036297	8.59931	2.932458
8.97410135613971	8.809451	2.968072
8.99168209290554	8.980412	2.9967334
9.009263041755265	9.314334	3.0519395
9.026844203110405	9.584437	3.0958743
9.044425577392525	9.777813	3.1269495
9.062007165023239	9.830015	3.1352856
9.079588966424197	10.070093	3.173341
9.097170982017108	10.140377	3.1843958
9.11475321222372	11.190285	3.3451884
9.132335657465825	12.114711	3.4806194
9.149918318165264	12.300001	3.5071356
9.167501194743924	13.2117815	3.6348014
9.18508428762374	12.882123	3.5891674
9.202667597226693	12.790257	3.5763469
9.220251123974803	12.307053	3.5081408
9.237834868290143	12.001227	3.4642787
9.255418830594836	11.836943	3.4404857
9.273003011311046	11.299587	3.361486
9.290587410860985	11.050913	3.3242912
9.308172029666911	10.335362	3.214866
9.32575686815113	10.022233	3.165791
9.343341926735997	8.655174	2.9419677
9.360927205843916	8.432787	2.9039261
9.378512705897327	8.1333885	2.8519096
9.396098427318728	7.902472	2.8111336
9.413684370530664	7.9055047	2.811673
9.431270535955722	7.813461	2.7952569
9.448856924016539	7.748113	2.7835433
9.466443535135806	7.6049786	2.7577126
9.484030369736251	7.603427	2.7574313
9.501617428240658	7.648049	2.7655106
9.519204711071852	7.673296	2.7700715
9.536792218652714	7.68459	2.7721093
9.55437995140617	7.704211	2.7756462
9.571967909755191	7.75089	2.784042
9.589556094122802	7.7507925	2.7840245
9.60714450493207	7.6999435	2.7748773
9.624733142606116	7.691063	2.7732766
9.642322007568108	7.74938	2.7837708
9.659911100241267	7.8477683	2.8013868
9.677500421048851	7.907451	2.812019
9.695089970414175	7.917721	2.8138444
9.712679748760609	7.91996	2.8142424
9.730269756511557	7.919613	2.8141806
9.747859994090492	7.959537	2.8212652
9.765450461920915	8.067658	2.8403623
9.78304116042639	8.114499	2.848596
9.800632090030527	8.129928	2.8513029
9.81822325115699	8.111867	2.848134
9.835814644229481	8.123728	2.8502154
9.853406269671762	8.167036	2.8578026
9.870998127907646	8.16768	2.8579154
9.888590219360985	8.204459	2.8643427
9.906182544455698	8.21732	2.866587
9.923775103615734	8.200666	2.8636806
9.941367897265108	8.189362	2.861706
9.958960925827878	8.165549	2.8575425
9.97655418972816	8.13296	2.8518345
9.994147689390106	8.0742445	2.8415215
10.011741425237934	8.064031	2.8397236
10.029335397695904	8.081247	2.8427534
10.04692960718833	8.18919	2.861676
10.06452405413958	8.211203	2.8655195
10.082118738974064	8.198765	2.8633485
10.099713662116246	8.088599	2.8440464
10.117308823990651	8.076392	2.8418994
10.134904225021844	8.184588	2.860872
10.152499865634445	8.177984	2.8597176
10.170095746253125	8.124555	2.8503604
10.18769186730261	8.019704	2.8319082
10.205288229207675	8.055004	2.8381338
10.222884832393145	8.114232	2.8485491
10.2404816772839	8.064157	2.8397458
10.258078764304868	7.9886103	2.826413
10.275676093881035	7.969121	2.8229632
10.293273666437438	7.956848	2.8207886
10.310871482399158	8.001467	2.8286865
10.32846954219134	8.042959	2.8360112
10.346067846239173	8.031253	2.8339465
10.363666394967908	8.029531	2.8336427
10.38126518880283	8.017881	2.8315864
10.398864228169298	8.043878	2.836173
10.416463513492713	8.069096	2.8406153
10.434063045198531	8.011649	2.8304856
10.451662823712262	8.025387	2.8329113
10.469262849459467	8.020178	2.831992
10.486863122865758	7.932408	2.816453
10.504463644356806	7.9498553	2.8195488
10.522064414358338	7.809716	2.794587
10.539665433296118	7.8272953	2.7977304
10.557266701595987	7.769395	2.7873635
10.574868219683818	7.710196	2.7767239
10.592469987985552	7.5963306	2.756144
10.610072006927185	7.485264	2.735921
10.627674276934751	7.4602356	2.7313433
10.64527679843435	7.344499	2.7100737
10.662879571852143	7.17031	2.6777434
10.680482597614331	7.080943	2.661004
10.698085876147173	6.9460025	2.635527
10.715689407876988	6.857345	2.6186533
10.733293193230146	6.757047	2.599432
10.750897232633072	6.598692	2.5687919
10.76850152651225	6.545453	2.5584083
10.786106075294207	6.423652	2.5344925
10.803710879405534	6.3962994	2.5290906
10.821315939272877	6.3362665	2.5171943
10.83892125532294	6.224375	2.4948697
10.856526827982472	6.1235204	2.4745748
10.874132657678285	6.0935965	2.468521
10.891738744837243	6.0837607	2.4665282
10.909345089886271	5.98554	2.4465363
10.926951693252343	5.9279695	2.4347422
10.944558555362494	5.853231	2.4193451
10.96216567664381	5.824069	2.4133108
10.979773057523436	5.750482	2.3980162
10.997380698428573	5.7294335	2.3936236
11.014988599786477	5.7221923	2.3921103
11.032596762024461	5.6733317	2.3818758
11.050205185569892	5.577064	2.3615808
11.067813870850198	5.478637	2.340649
11.085422818292859	5.3503265	2.3130772
11.10303202832541	5.273804	2.2964764
11.120641501375454	5.2417035	2.2894766
11.138251237870636	5.1758223	2.2750432
11.155861238238671	5.121876	2.2631562
11.173471502907317	5.048076	2.2467923
11.191082032304402	4.993222	2.234552
11.208692826857805	4.93676	2.221882
11.226303886995465	4.9639015	2.2279816
11.243915213145371	4.9351826	2.221527
11.261526805735578	4.863431	2.2053187
11.279138665194196	4.7567444	2.1809962
11.296750791949393	4.716681	2.171792
11.314363186429393	4.6910167	2.1658754
11.331975849062479	4.661596	2.1590729
11.34958878027699	4.620862	2.149619
11.36720198050133	4.573022	2.1384625
11.384815450163948	4.537965	2.13025
11.402429189693366	4.4535756	2.1103497
11.420043199518153	4.402501	2.0982137
11.437657480066942	63.418552	7.963577
11.455272031768422	85.15705	9.228058
11.472886855051353	107.553505	10.370801
11.490501950344528	99.091255	9.954459
11.508117318076819	84.43196	9.188686
11.52573295867715	45.827457	6.769598
11.543348872574514	4.158896	2.0393372
11.560965060197946	4.1207795	2.0299704
11.57858152197655	4.0997233	2.0247774
11.59619825833949	4.0256653	2.006406
11.613815269715985	3.952734	1.9881483
11.631432556535323	38.48277	6.2034483
11.649050119226837	83.00856	9.110904
11.666667958219929	93.42876	9.665855
11.68428607394406	107.64452	10.375188
11.701904466828756	82.45224	9.080321
11.719523137303586	65.24787	8.077616
11.737142085798196	4.4624424	2.1124494
11.754761312742286	3.6029959	1.8981559
11.772380818565619	3.5983443	1.8969302
11.790000603698015	3.5863369	1.8937626
11.80762066856935	3.5768116	1.8912461
11.825241013609572	3.528222	1.8783562
11.842861639248683	3.507142	1.8727366
11.860482545916748	3.44951	1.8572857
11.878103734043883	3.3885338	1.8407971
11.895725204060282	3.308998	1.8190652
11.91334695639619	3.2743633	1.8095201
11.930968991481919	3.2718835	1.8088348
11.948591309747824	3.2906039	1.8140022
11.966213911624347	3.2955766	1.8153723
11.98383679754198	3.2543042	1.803969
12.001459967931268	3.2340708	1.7983522
12.019083423222835	3.2064216	1.7906483
12.036707163847352	3.211921	1.7921833
12.05433119023556	3.1815088	1.7836784
12.071955502818259	3.1496544	1.7747265
12.089580102026313	3.1214998	1.7667767
12.107204988290643	3.130359	1.769282
12.12483016204224	3.1230223	1.7672075
12.142455623712152	3.1021366	1.7612883
12.16008137373149	3.0633574	1.750245
12.177707412531431	3.050158	1.7464702
12.19533374054321	3.0630355	1.750153
12.212960358198126	3.047025	1.7455729
12.230587265927545	2.9955757	1.7307731
12.248214464162889	2.9461324	1.7164302
12.265841953335649	2.905354	1.7045099
12.283469733877375	2.87849	1.6966113
12.301097806219685	2.9006708	1.7031356
12.31872617079425	2.8794959	1.6969078
12.336354828032825	2.882333	1.6977435
12.353983778367205	2.8371785	1.6843926
12.371613022229262	2.8029714	1.6742077
12.389242560050928	2.8017447	1.6738414
12.406872392264201	2.854581	1.6895505
12.424502519301143	2.859221	1.6909231
12.442132941593874	2.8305752	1.6824313
12.459763659574586	2.7595117	1.6611778
12.477394673675532	2.7463539	1.6572127
12.49502598432903	2.7851484	1.6688764
12.51265759196746	2.802453	1.6740528
12.530289497023267	2.810577	1.6764776
12.547921699928967	2.748197	1.6577687
12.565554201117134	2.7455657	1.6569748
12.583187001020404	2.7373912	1.6545063
12.600820100071486	2.748094	1.6577376
12.618453498703152	2.7333345	1.6532799
12.636087197348235	2.7243552	1.650562
12.65372119643964	2.7577555	1.6606492
12.671355496410326	2.7538605	1.6594759
12.68899009769333	2.7780674	1.6667535
12.706625000721749	2.7901535	1.6703752
12.724260205928752	2.8847713	1.6984614
12.741895713747551	2.8925052	1.7007366
12.759531524611454	2.940066	1.7146621
12.777167638953818	2.9193661	1.7086153
12.794804057208072	2.964204	1.7216864
12.812440779807702	3.0023422	1.7327268
12.830077807186271	3.152704	1.7755855
12.847715139777405	3.1938663	1.7871392
12.865352778014795	3.437158	1.8539574
12.882990722332197	3.5887196	1.8943917
12.90062897316344	3.6492245	1.9102944
12.918267530942412	3.7011585	1.9238396
12.935906396103071	3.5302298	1.8788906
12.953545569079449	3.713116	1.9269447
12.971185050305628	3.5299523	1.8788167
12.988824840215775	3.597256	1.8966433
13.006464939244115	3.576484	1.8911594
13.024105347824943	3.3985636	1.8435193
13.041746066392617	3.4856172	1.8669808
13.05938709538157	3.3461475	1.8292478
13.077028435226296	3.4140544	1.847716
13.094670086361363	3.2808473	1.8113109
13.112312049221401	3.13258	1.7699096
13.129954324241112	3.0286553	1.7403032
13.147596911855258	2.8593647	1.6909657
13.165239812498685	2.823521	1.6803336
13.182883026606293	2.7462664	1.6571863
13.200526554613058	2.7059984	1.6449919
13.218170396954017	2.7054527	1.644826
13.235814554064284	2.6680372	1.6334127
13.253459026379034	2.657918	1.6303122
13.271103814333523	2.6047475	1.6139231
13.288748918363058	2.5931003	1.6103107
13.306394338903031	2.5843492	1.6075912
13.32404007638889	2.6069443	1.6146034
13.341686131256164	2.6572838	1.6301178
13.359332503940449	2.6202464	1.6187176
13.376979194877402	2.5971897	1.6115799
13.394626204502751	2.6543303	1.6292115
13.412273533252307	2.7095015	1.6460563
13.429921181561937	2.7133281	1.6472183
13.447569149867581	2.7087955	1.6458418
13.465217438605247	2.6855173	1.6387548
13.482866048211022	2.6684606	1.6335423
13.500514979121052	2.650931	1.628168
13.518164231771568	2.621524	1.6191121
13.535813806598844	2.6483734	1.6273824
13.553463704039254	2.674285	1.6353241
13.571113924529229	2.635263	1.6233493
13.588764468505275	2.6544728	1.6292553
13.606415336403956	2.6735194	1.63509
13.624066528661917	2.7003064	1.643261
13.641718045715882	2.758071	1.6607441
13.659369888002635	2.7857542	1.6690578
13.67702205595903	2.8759727	1.6958693
13.694674550021993	2.9326348	1.7124938
13.712327370628532	3.0012877	1.7324225
13.729980518215713	3.065486	1.750853
13.747633993220681	3.1641405	1.7788031
13.765287796080647	3.195379	1.7875624
13.7829419272329	3.2284188	1.7967801
13.800596387114801	3.2372394	1.799233
13.818251176163775	3.2681346	1.8077983
13.835906294817324	3.3026624	1.8173229
13.853561743513023	3.3165443	1.8211381
13.871217522688525	3.3674266	1.835055
13.888873632781538	3.4311686	1.8523414
13.906530074229858	3.4903667	1.8682523
13.92418684747135	3.5265107	1.8779006
13.941843952943948	3.5284338	1.8784126
13.959501391085665	3.5009477	1.871082
13.977159162334578	3.4128184	1.8473815
13.994817267128846	3.305538	1.8181138
14.012475705906693	3.2098982	1.791619
14.030134479106424	3.1416285	1.7724639
14.047793587166414	3.1099446	1.7635036
14.065453030525108	3.014181	1.7361397
14.083112809621026	2.9422834	1.7153085
14.100772924892766	2.8835251	1.6980946
14.118433376778997	2.8378441	1.6845902
14.136094165718458	2.748747	1.6579345
14.153755292149969	2.6836946	1.6381986
14.171416756512416	2.6184428	1.6181602
14.189078559244768	2.5748904	1.6046464
14.20674070078606	2.5605755	1.6001798
14.224403181575408	2.5136414	1.5854467
14.242066002051999	2.5053008	1.5828142
14.259729162655093	2.469375	1.5714245
14.277392663824022	2.42399	1.5569168
14.295056505998208	2.3949957	1.5475774
14.312720689617128	2.3983908	1.5486739
14.330385215120348	2.4141562	1.5537555
14.348050082947497	2.4037104	1.5503904
14.3657152935383	2.3803802	1.5428481
14.383380847332528	2.3653173	1.5379589
14.401046744770051	2.35163	1.5335025
14.418712986290798	2.3625295	1.5370523
14.436379572334793	2.349577	1.532833
14.454046503342123	2.3540802	1.5343012
14.471713779752946	2.3323543	1.5272048
14.489381402007504	2.3848405	1.5442929
14.507049370546113	2.3858416	1.5446169
14.524717685809168	2.377534	1.5419254
14.542386348237134	2.3387058	1.5292828
14.560055358270553	2.3461509	1.531715
14.577724716350051	2.4099798	1.552411
14.595394422916325	2.4301667	1.5588992
14.61306447841015	2.4783828	1.574288
14.63073488327237	2.467327	1.5707728
14.648405637943917	2.4634652	1.569543
14.6660767428658	2.4444456	1.5634723
14.683748198479094	2.4600096	1.5684417
14.701420005224954	2.4952843	1.579647
14.719092163544628	2.5718071	1.6036855
14.73676467387942	2.6320248	1.6223516
14.754437536670727	2.651319	1.6282872
14.772110752360014	2.6625195	1.6317228
14.78978432138882	2.6752875	1.6356306
14.807458244198777	2.671639	1.6345149
14.82513252123159	2.6178818	1.6179869
14.842807152929028	2.6344726	1.6231059
14.860482139732962	2.6322494	1.6224208
14.87815748208531	2.6459389	1.6266342
14.8958331804281	2.6203537	1.6187507
14.91350923520342	2.5840015	1.607483
14.931185646853438	2.6663167	1.632886
14.948862415820408	2.6720042	1.6346266
14.966539542546656	2.712387	1.6469326
14.98421702747459	2.632736	1.6225708
15.001894871046696	2.6405358	1.6249726
15.019573073705542	2.6411173	1.6251515
15.037251635893766	2.639422	1.6246297
15.054930558054092	2.6544356	1.6292439
15.072609840629323	2.6781306	1.6364995
15.090289484062351	2.8293464	1.6820661
15.107969488796124	3.0884154	1.7573888
15.125649855273691	3.421739	1.8497944
15.14333058393817	3.8659825	1.9662102
15.161011675232768	4.8333683	2.1984923
15.17869312960076	6.145066	2.4789243
15.196374947485506	7.993558	2.8272882
15.214057129330447	11.028715	3.320951
15.231739675579114	15.84667	3.9807875
15.249422586675102	21.162594	4.6002817
15.267105863062092	24.632668	4.963131
15.284789505183847	25.287125	5.0286303
15.302473513484218	23.441439	4.841636
15.320157888407127	19.821537	4.4521384
15.337842630396578	15.490859	3.9358428
15.355527739896656	11.942424	3.4557812
15.37321321735153	9.113165	3.018802
15.39089906320545	6.4856215	2.5466883
15.408585277902748	4.7659616	2.1831083
15.42627186188783	3.641812	1.9083532
15.443958815605198	3.1221912	1.7669723
15.461646139499424	2.8596435	1.691048
15.479333834015168	2.7167776	1.648265
15.497021899597165	2.6109872	1.615855
15.514710336690234	2.5177398	1.5867387
15.53239914573928	2.4884362	1.5774778
15.550088327189297	2.4628336	1.5693418
15.567777881485336	2.4656415	1.5702361
15.58546780907256	2.4402997	1.5621458
15.6031581103962	2.466921	1.5706435
15.620848785901568	2.4523613	1.5660017
15.638539836034063	2.4590552	1.5681375
15.656231261239173	2.4208434	1.5559059
15.673923061962451	2.3697093	1.539386
15.691615238649552	2.34731	1.5320934
15.709307791746202	2.3631513	1.5372545
15.727000721698221	2.4026673	1.550054
15.744694028951498	2.4122674	1.5531476
15.76238771395202	2.3805652	1.5429081
15.780081777145844	2.3488219	1.5325867
15.797776218979125	2.3678503	1.5387821
15.815471039898094	2.392094	1.5466396
15.833166240349064	2.388352	1.5454293
15.850861820778437	2.3399158	1.5296783
15.868557781632699	2.3198814	1.5231158
15.886254123358412	2.3342416	1.5278225
15.903950846402232	2.3360324	1.5284084
15.921647951210897	2.382688	1.5435958
15.939345438231225	2.3729062	1.540424
15.957043307910133	2.3566537	1.5351397
15.974741560694602	2.3648927	1.5378208
15.992440197031714	2.3751547	1.5411537
16.01013921736862	2.4136019	1.5535771
16.02783862215259	2.4006293	1.5493964
16.045538411830933	2.3756378	1.5413104
16.06323858685107	2.3728266	1.5403982
16.080939147660512	2.3407207	1.5299414
16.09864009470684	2.330039	1.5264466
16.11634142843774	2.3420162	1.5303648
16.134043149300954	2.3826618	1.5435873
16.15174525774433	2.4174082	1.5548017
16.169447754215817	2.4112046	1.5528054
16.18715063916342	2.401361	1.5496325
16.204853913035244	2.348627	1.5325232
16.222557576279478	2.3414557	1.5301816
16.240261629344403	22.329542	4.7254143
16.257966072678386	42.881622	6.548406
16.275670906729868	38.054283	6.1688156
16.293376131947387	2.5069313	1.5833292
16.31108174877957	2.5474946	1.5960873
16.328787757675133	2.5333338	1.591645
16.34649415908287	2.5302153	1.590665
16.364200953451657	2.5170114	1.5865092
16.38190814123048	2.5155199	1.5860391
16.39961572286839	2.5656471	1.6017637
16.41732369881455	2.5964243	1.6113424
16.43503206951817	2.6530616	1.6288222
16.45274083542859	2.6944032	1.6414638
16.47044999699522	2.7671168	1.6634653
16.488159554667558	2.836701	1.6842508
16.505869508895184	2.8706048	1.6942859
16.523579860127786	2.860841	1.6914021
16.541290608815117	2.8918242	1.7005365
16.559001755407035	2.9209995	1.7090932
16.57671330035348	2.9960797	1.7309188
16.59442524410448	3.0797005	1.7549075
16.61213758711015	3.1037982	1.76176
16.629850329820705	3.209557	1.7915237
16.647563472686436	3.3009999	1.8168654
16.665277016157724	3.3767262	1.837587
16.682990960685053	3.4197042	1.8492442
16.70070530671898	3.4178727	1.8487489
16.718420054710155	3.4283302	1.851575
16.736135205109335	3.4614456	1.860496
16.753850758367335	3.5316284	1.8792627
16.771566714935087	3.6250684	1.9039613
16.789283075263597	3.7042074	1.9246317
16.80699983980398	3.7939827	1.9478148
16.82471700900741	3.8510144	1.9624002
16.84243458332518	3.88383	1.9707435
16.860152563208665	3.9490395	1.987219
16.87787094910932	4.000788	2.000197
16.89558974147871	4.0296926	2.0074093
16.913308940768466	4.0620103	2.0154428
16.931028547430333	4.1255217	2.031138
16.94874856191613	4.23268	2.0573478
16.966468984677785	4.31165	2.0764513
16.98418981616729	4.3445516	2.0843587
17.00191105683676	4.377445	2.0922346
17.019632707138374	4.4338307	2.1056664
17.03735476752442	4.4694405	2.1141052
17.05507723844728	4.496341	2.120458
17.072800120359403	4.537704	2.1301887
17.090523413713353	4.6145983	2.1481616
17.108247118961785	4.6289463	2.1514986
17.125971236557437	4.612166	2.1475954
17.143695766953133	4.567842	2.1372511
17.161420710601806	4.5160604	2.1251025
17.179146067956477	4.536506	2.1299076
17.19687183947025	4.6152678	2.1483173
17.21459802559634	4.637777	2.15355
17.232324626788028	4.631088	2.1519961
17.25005164349871	4.630923	2.151958
17.267779076181863	4.645175	2.1552668
17.285506925291074	4.621983	2.1498797
17.30323519127999	4.553128	2.133806
17.320963874602384	4.497083	2.1206326
17.33869297571211	4.45645	2.1110306
17.356422495063114	4.4122806	2.100543
17.37415243310944	4.369971	2.0904474
17.391882790305218	4.4143944	2.101046
17.40961356710468	4.5127425	2.1243217
17.42734476396215	4.5781574	2.139663
17.445076381332044	4.574331	2.1387684
17.462808419668868	4.577455	2.1394987
17.48054087942723	4.669106	2.1608114
17.498273761061835	4.8965487	2.2128146
17.51600706502747	5.3120337	2.304785
17.533740791779024	5.9614787	2.441614
17.551474941771485	7.3432274	2.709839
17.56920951545993	8.520994	2.9190743
17.586944513299528	10.872612	3.2973645
17.60467993574556	12.623914	3.5530148
17.622415783253373	14.569668	3.8170235
17.64015205627843	16.290619	4.036164
17.657888755276293	17.626347	4.1983743
17.675625880702604	18.237175	4.2705007
17.69336343301311	18.128801	4.257793
17.71110141266366	17.240788	4.1522026
17.728839820110178	16.099628	4.012434
17.746578655808705	14.838679	3.8521006
17.764317920215372	13.017163	3.6079307
17.7820576137864	11.266607	3.3565767
17.79979773697811	9.148529	3.0246534
17.81753829024692	7.2655983	2.6954775
17.835279274049356	5.6690955	2.3809862
17.85302068884201	4.722224	2.173068
17.870762535081607	4.112393	2.0279036
17.888504813224934	3.7872741	1.946092
17.90624752372891	3.6520846	1.9110428
17.923990667050536	3.5619578	1.887315
17.941734243646895	3.4994771	1.8706889
17.959478253975185	3.4473343	1.8566998
17.9772226984927	3.448436	1.8569965
17.994967577656833	3.4165397	1.8483884
18.01271289192506	3.3794181	1.8383194
18.030458641754965	3.333677	1.825836
18.04820482760425	3.321507	1.8225002
18.06595144993067	3.2901845	1.8138865
18.083698509192125	3.310071	1.81936
18.101446005846576	3.2713919	1.8086989
18.119193940352105	3.2311282	1.7975339
18.136942313166887	3.1552951	1.7763151
18.1546911247492	3.1390736	1.771743
18.1724403755574	3.1173892	1.765613
18.19019006604997	3.1030333	1.7615429
18.207940196685467	3.111168	1.7638503
18.225690767922575	3.1173086	1.7655902
18.243441780220046	3.1412692	1.7723626
18.261193234036764	3.0869122	1.7569611
18.278945129831676	3.0264695	1.739675
18.29669746806386	2.9877758	1.7285184
18.314450249192483	2.992453	1.7298708
18.3322034736768	2.963743	1.7215525
18.349957141976184	2.926026	1.7105631
18.3677112545501	2.9298673	1.7116855
18.385465811858108	2.9625163	1.7211962
18.403220814359884	3.0078213	1.7343072
18.420976262515172	3.0272527	1.7399002
18.43873215678387	3.0531287	1.7473204
18.456488497625923	3.1131473	1.7644113
18.474245285501407	3.2150924	1.7930679
18.492002520870486	3.3066978	1.8184328
18.50976020419343	3.3611443	1.8333424
18.527518335930615	3.6387246	1.9075441
18.545276916542516	4.220674	2.0544279
18.563035946489688	4.376702	2.0920568
18.580795426232832	4.715674	2.1715603
18.598555356232698	4.567873	2.1372583
18.616315736950185	4.8480926	2.2018385
18.63407656884626	4.509267	2.1235034
18.65183785238201	4.7169957	2.1718645
18.669599588018617	4.5631847	2.1361613
18.68736177621737	4.5812783	2.140392
18.705124417439652	4.5433674	2.1315176
18.72288751214696	4.313768	2.0769613
18.740651060800886	4.4408174	2.1073246
18.758415063863115	4.144008	2.0356836
18.77617952179546	4.270467	2.0665107
18.793944435059814	4.054195	2.013503
18.811709804118184	4.10519	2.0261269
18.829475629432675	4.104314	2.0259106
18.8472419114655	3.8952825	1.973647
18.86500865067897	3.9736195	1.9933939
18.88277584753551	3.676084	1.9173117
18.90054350249763	3.6679494	1.9151891
18.918311616027957	3.3504467	1.8304225
18.936080188589226	3.2360828	1.7989116
18.953849220644265	2.9751756	1.7248697
18.971618712656007	2.8302803	1.6823437
18.9893886650875	2.789698	1.6702389
19.007159078401887	7.9544096	2.8203564
19.024929953062408	32.82197	5.7290463
19.042701289532435	32.777218	5.725139
19.060473088275405	25.335102	5.0333986
19.07824534975489	2.5795116	1.6060858
19.096018074434568	2.5564644	1.5988947
19.113791262778197	2.5113661	1.5847291
19.13156491524966	2.5433176	1.5947782
19.149339032312945	2.5395813	1.5936064
19.167113614432136	2.5527084	1.5977198
19.184888662071433	2.5476184	1.5961261
19.202664175695123	2.5234663	1.5885422
19.220440155767623	2.5160418	1.5862036
19.238216602753447	2.4977922	1.5804405
19.2559935171172	2.4984672	1.580654
19.27377089932361	2.487383	1.5771439
19.291548749837514	2.4858305	1.5766517
19.309327069123835	2.470259	1.5717057
19.32710585764763	2.3953612	1.5476954
19.344885115874032	2.3861148	1.5447054
19.362664844268313	2.4053793	1.5509285
19.380445043295822	2.4281635	1.5582566
19.39822571342203	2.437471	1.5612402
19.41600685511252	2.4488144	1.5648688
19.43378846883297	2.4402902	1.5621428
19.451570555049173	2.467652	1.5708762
19.469353114227037	2.464044	1.5697274
19.48713614683254	2.472856	1.5725317
19.50491965333182	2.4386144	1.5616063
19.52270363419109	2.4243577	1.5570349
19.540488089876686	2.3974512	1.5483705
19.55827302085503	2.3779774	1.5420692
19.576058427592674	2.38905	1.5456553
19.593844310556282	2.426959	1.55787
19.611630670212598	2.4531868	1.5662652
19.629417507028506	2.4612956	1.5688517
19.64720482147098	2.4523883	1.5660104
19.6649926140071	2.4453335	1.5637562
19.682780885104084	2.484801	1.5763252
19.70056963522921	2.4900615	1.5779929
19.718358864849908	2.4520717	1.5659093
19.7361485744337	2.4222617	1.5563617
19.753938764448215	2.4386902	1.5616306
19.771729435361202	2.456979	1.5674753
19.789520587640506	2.470151	1.5716714
19.807312221754092	2.4549434	1.5668259
19.825104338170043	2.4452355	1.5637249
19.842896937356517	2.447372	1.5644078
19.860690019781824	2.4795506	1.5746589
19.87848358591436	2.5604448	1.600139
19.896277636222635	2.5516024	1.5973736
19.914072171175278	2.5384734	1.5932587
19.931867191241015	2.4847555	1.5763108
19.94966269688869	2.4617836	1.5690072
19.967458688587264	2.4389274	1.5617065
19.985255166805807	2.434125	1.5601683
20.00305213201348	2.478701	1.5743891
20.020849584679578	2.4718137	1.5722003
20.038647525273507	2.4424472	1.5628331
20.05644595426477	2.3943193	1.5473589
20.07424487212299	2.39162	1.5464863
20.092044279317903	2.375613	1.5413023
20.109844176319353	2.4100196	1.5524238
20.127644563597304	2.4530973	1.5662367
20.145445441621817	2.481355	1.5752317
20.16324681086307	2.440726	1.5622823
20.181048671791373	2.3825402	1.543548
20.198851024877122	2.343571	1.5308726
20.216653870590836	2.3607607	1.5364767
20.234457209403146	2.3329735	1.5274074
20.252261041784802	2.3269968	1.5254498
20.270065368206662	2.2898324	1.5132192
20.287870189139685	2.2959046	1.5152243
20.305675505054968	2.3263867	1.5252497
20.323481316423702	2.3745599	1.5409607
20.341287623717207	2.3756688	1.5413204
20.359094427406884	2.389945	1.5459447
20.376901727964288	2.313104	1.5208892
20.39470952586107	2.2875488	1.5124645
20.41251782156899	2.2892013	1.5130106
20.430326615559935	2.3212917	1.5235785
20.448135908305886	2.3323963	1.5272185
20.465945700278965	2.3390543	1.5293968
20.483755991951384	2.334998	1.52807
20.50156678379548	2.3197885	1.5230851
20.519378076283708	2.3122249	1.5206002
20.537189869888635	2.332183	1.5271486
20.55500216508294	2.3382916	1.5291474
20.572814962339415	2.3239279	1.5244435
20.59062826213098	2.3188307	1.5227708
20.60844206493066	2.2975018	1.5157512
20.626256371211593	2.3063905	1.5186806
20.644071181447032	2.301003	1.5169058
20.66188649611036	2.3238838	1.524429
20.67970231567506	2.3323839	1.5272144
20.697518640614742	2.3265066	1.525289
20.715335471403122	2.2773995	1.5091056
20.73315280851404	2.2243974	1.4914414
20.750970652421447	2.203431	1.4843957
20.768789003599412	2.2170875	1.4889888
20.786607862522136	2.2599504	1.5033132
20.8044272296639	2.294173	1.5146527
20.82224710549913	2.2712312	1.5070604
20.84006749050237	2.2812428	1.5103784
20.857888385148268	3.8438158	1.9605652
20.8757097899116	45.95507	6.779017
20.893531705267254	64.79609	8.049602
20.911354131690224	83.767555	9.152462
20.92917706965566	69.02851	8.30834
20.94700051963877	50.089603	7.0774007
20.96482448211493	29.378471	5.4201913
20.982648957559622	4.133636	2.0331345
21.00047394644843	2.2224941	1.4908031
21.01829944925707	2.2279756	1.4926405
21.036125466461375	2.2233615	1.4910941
21.053951998537297	2.2202628	1.4900546
21.071779045960906	2.1993988	1.483037
21.089606609208378	2.183962	1.4778234
21.10743468875603	2.1881468	1.4792386
21.12526328508028	2.2092693	1.4863611
21.143092398657675	2.2393334	1.4964403
21.16092202996488	2.2176793	1.4891875
21.17875217947867	2.170122	1.4731333
21.19658284767596	2.131376	1.4599233
21.21441403503377	2.1312752	1.4598887
21.232245742029225	2.1276264	1.4586385
21.2500779691396	2.1121423	1.4533211
21.26791071684227	2.1276908	1.4586606
21.28574398561475	2.1609616	1.470021
21.30357777593465	2.1611967	1.4701009
21.321412088279704	2.1004946	1.4493083
21.339246923127792	2.0804353	1.4423714
21.357082280956888	2.0760384	1.4408464
21.3749181622451	2.119929	1.4559976
21.392754567470647	2.1244335	1.4575436
21.41059149711187	2.1425755	1.4637539
21.42842895164726	2.1229088	1.4570205
21.446266931555378	2.08503	1.4439633
21.464105437314945	2.0922205	1.4464511
21.481944469404798	2.0821753	1.4429744
21.49978402830388	2.104702	1.450759
21.51762411449127	2.0958555	1.4477069
21.53546472844617	2.0710115	1.439101
21.553305870647876	2.0591605	1.4349775
21.571147541575865	2.0586288	1.4347923
21.58898974170967	2.0663283	1.4374729
21.60683247152899	2.0595627	1.4351176
21.62467573151363	2.0486028	1.4312941
21.642519522143523	2.036793	1.4271625
21.660363843898722	2.0426126	1.4291999
21.6782086972594	2.056542	1.4340649
21.696054082705864	2.0691435	1.4384518
21.713900000718535	2.0299678	1.4247694
21.73174645177795	2.0175607	1.4204086
21.749593436364794	2.0283837	1.4242134
21.767440954959845	2.0519052	1.4324473
21.785289008044032	2.0290954	1.4244632
21.803137596098388	2.0131538	1.4188565
21.820986719604086	1.9780238	1.4064224
21.838836379042412	1.9828813	1.4081482
21.85668657489478	1.9924896	1.4115558
21.87453730764273	1.9954089	1.4125894
21.892388577767914	1.9761146	1.4057435
21.91024038575213	1.9772072	1.406132
21.928092732077285	2.029218	1.4245062
21.945945617225426	2.028935	1.4244069
21.963799041678694	2.010656	1.417976
21.981653005919398	31.332476	5.597542
21.999507510429943	78.12481	8.838824
22.01736255569286	73.051796	8.547034
22.035218142190818	4.1389394	2.0344384
22.05307427040661	1.9563154	1.3986834
22.07093094082315	1.950168	1.3964841
22.088788153923474	1.9629656	1.4010588
22.106645910190746	1.9823548	1.4079612
22.12450421010827	2.0002503	1.4143021
22.142363054159464	1.941122	1.3932415
22.16022244282787	1.933365	1.390455
22.178082376597164	1.9655322	1.4019744
22.195942855951145	1.9973518	1.4132769
22.213803881373742	1.9829538	1.4081739
22.231665453349002	1.961278	1.4004563
22.24952757236111	1.9452711	1.3947297
22.26739023889438	1.9559262	1.3985443
22.28525345343323	1.9619815	1.4007075
22.30311721646225	1.9520097	1.3971434
22.320981528466113	1.919857	1.385589
22.33884638992964	1.9073969	1.3810854
22.356711801337788	1.9215556	1.3862019
22.37457776317561	1.9232928	1.3868283
22.392444275928337	1.9528786	1.3974544
22.410311340081282	1.9665612	1.4023414
22.428178956119904	1.961898	1.4006777
22.446047124529805	1.925459	1.3876091
22.46391584579669	1.9063563	1.3807087
22.481785120406414	1.914815	1.3837684
22.49965494884496	1.9073406	1.381065
22.51752533159841	1.8905865	1.374986
22.53539626915302	1.8901465	1.374826
22.553267761995137	1.951865	1.3970916
22.571139810611264	1.9765525	1.4058992
22.589012415488025	1.9946265	1.4123125
22.60688557711216	1.9746997	1.40524
22.624759295970566	1.9346244	1.3909078
22.642633572550263	1.8728111	1.3685069
22.660508407338362	1.8724856	1.3683879
22.67838380082217	1.8878648	1.3739959
22.696259753489077	1.875274	1.3694065
22.714136265826614	1.873472	1.3687483
22.73201333832246	1.8721598	1.368269
22.74989097146439	1.8527185	1.361146
22.76776916574035	1.8502936	1.360255
22.785647921638393	1.875093	1.3693403
22.803527239646712	1.8752683	1.3694043
22.82140712025363	1.8757617	1.3695846
22.839287563947593	1.8411076	1.3568742
22.85716857121719	1.8427393	1.3574754
22.875050142551135	1.8301629	1.3528352
22.892932278438277	1.8713804	1.367984
22.910814979367604	1.8675838	1.3665956
22.928698245828222	1.8697932	1.3674039
22.946582078309387	1.8778436	1.3703444
22.96446647730047	1.8973366	1.3774384
22.98235144329098	1.8819243	1.3718325
23.000236976770562	1.8826439	1.3720948
23.018123078229	1.8846523	1.3728263
23.03600974815619	1.8412405	1.3569232
23.053896987042194	1.8356045	1.3548448
23.071784795377173	1.8663912	1.3661593
23.08967317365145	1.9094803	1.3818395
23.10756212235546	1.899202	1.3781154
23.125451641979787	1.8970842	1.3773468
23.143341733015134	1.8943474	1.3763529
23.161232395952357	1.9153622	1.3839661
23.179123631282426	1.8987955	1.3779678
23.197015439496468	1.9000318	1.3784164
23.214907821085717	1.9189789	1.3852721
23.23280077654157	1.9218034	1.3862913
23.250694306355538	1.8881735	1.3741082
23.268588411019277	1.913456	1.3832773
23.28648309102458	1.9567391	1.398835
23.304378346863356	1.9900517	1.410692
23.322274179027676	1.9411888	1.3932655
23.340170588009723	1.9084827	1.3814784
23.358067574301852	1.8888808	1.3743656
23.37596513839651	1.8851681	1.3730142
23.39386328078629	1.890992	1.3751335
23.411762001963947	1.8882235	1.3741264
23.429661302422353	1.8776195	1.3702626
23.4475611826545	1.8759016	1.3696356
23.46546164315356	1.8682739	1.3668481
23.48336268441279	1.8863568	1.3734471
23.501264306925638	1.9046217	1.3800803
23.51916651118564	1.9104699	1.3821975
23.537069297686497	1.8970718	1.3773423
23.554972666922037	1.9267555	1.3880762
23.57287661938623	1.9599566	1.3999845
23.59078115557318	1.9625407	1.4009072
23.608686275977128	1.9076779	1.3811871
23.62659198109246	1.8622406	1.3646394
23.6444982714137	1.8372494	1.3554517
23.66240514743549	1.8609713	1.3641742
23.68031260965263	1.8649739	1.3656405
23.698220658560068	1.873927	1.3689145
23.716129294652845	1.8793306	1.3708868
23.7340385184262	1.8804464	1.3712937
23.75194833037546	1.827729	1.3519353
23.769858730996123	1.8466439	1.3589128
23.78776972078382	1.8604933	1.363999
23.80568130023431	1.8511841	1.3605822
23.823593469843495	1.8368576	1.3553072
23.841506230107424	1.8327365	1.353786
23.859419581522275	1.8588616	1.3634007
23.87733352458438	1.8797574	1.3710425
23.89524805979019	1.8895404	1.3746055
23.913163187636318	1.8994528	1.3782064
23.931078908619508	1.9139411	1.3834527
23.948995223236633	1.9477575	1.3956208
23.966912131984735	1.967948	1.4028357
23.98482963536096	2.0018907	1.4148818
24.002747733862616	1.9774786	1.4062285
24.020666427987155	1.9980912	1.4135386
24.038585718232156	1.9918188	1.4113181
24.056505605095353	2.000783	1.4144903
24.074426089074617	2.0021286	1.414966
24.092347170667946	1.9913213	1.4111419
24.110268850373515	2.0082712	1.4171349
24.128191128689586	2.0538304	1.433119
24.146114006114626	2.034089	1.4262149
24.164037483147187	2.0617592	1.4358827
24.181961560286005	2.0718038	1.4393762
24.199886238029926	2.0421937	1.4290534
24.21781151687797	2.0314438	1.4252872
24.235737397329274	2.0187209	1.420817
24.253663879883135	1.9979428	1.413486
24.271590965038975	1.9842908	1.4086486
24.289518653296376	1.9864079	1.4093999
24.30744694515505	2.020839	1.4215622
24.32537584111486	2.0345588	1.4263796
24.34330534167581	2.026634	1.423599
24.361235447338046	2.0393724	1.428066
24.379166158601876	2.0614154	1.435763
24.39709747596772	2.038765	1.4278532
24.41502939993615	1.9819889	1.4078313
24.432961931007917	1.9735895	1.404845
24.450895069683856	1.9607775	1.4002776
24.468828816465	1.922809	1.3866539
24.4867631718525	1.897114	1.3773576
24.504698136347656	1.8743082	1.3690537
24.52263371045192	1.895715	1.3768497
24.540569894666874	1.9834088	1.4083354
24.558506689494266	2.0030892	1.4153054
24.57644409543597	1.9958978	1.4127624
24.594382112994012	1.97116	1.40398
24.61232074267057	1.9937899	1.4120163
24.630259984967953	2.0397599	1.4282017
24.64819984038863	2.0640876	1.4366933
24.66614030943522	2.0186706	1.4207993
24.684081392610462	1.9436027	1.3941315
24.702023090417274	1.9064666	1.3807485
24.7199654033587	1.8899854	1.3747674
24.737908331937927	1.9196078	1.3854991
24.755851876658305	1.9517661	1.3970562
24.773796038023324	1.9759165	1.405673
24.79174081653661	2.0466788	1.4306219
24.809686212701962	2.084603	1.4438155
24.827632227023294	2.1016457	1.4497054
24.8455788600047	2.0838804	1.4435651
24.8635261121504	2.0774214	1.4413263
24.88147398396475	2.076227	1.4409119
24.899422475952303	2.0871913	1.4447116
24.917371588617698	2.060244	1.4353551
24.935321322465768	2.0887804	1.4452614
24.953271678001478	2.213919	1.4879243
24.97122265572994	2.458592	1.5679898
24.989174256156414	2.8588572	1.6908156
25.00712647978632	3.3703618	1.8358545
25.02507932712521	3.9309435	1.9826607
25.043032798678798	4.481509	2.1169574
25.060986894952933	5.20519	2.2814887
25.078941616453637	6.010926	2.451719
25.096896963687055	7.0585938	2.6568015
25.114852937159508	8.258703	2.873796
25.132809537377444	8.76611	2.9607618
25.150766764847468	8.739963	2.9563427
25.168724620076347	8.013478	2.8308089
25.186683103570985	6.8381934	2.614994
25.204642215838426	5.568159	2.3596947
25.222601957385894	4.221311	2.0545828
25.24056232872074	3.219817	1.7943848
25.25852333035048	2.6511123	1.6282237
25.276484962782778	2.287329	1.5123918
25.294447226525435	2.1121254	1.4533153
25.312410122086423	1.987549	1.4098046
25.330373649973843	1.9636246	1.4012939
25.348337810695988	1.936707	1.3916562
25.366302604761245	1.9122058	1.3828253
25.384268032678207	1.8803322	1.3712521
25.40223409495558	1.8945277	1.3764185
25.420200792102257	1.8714898	1.368024
25.438168124627246	1.861707	1.3644438
25.45613609303974	1.8095635	1.3452002
25.474104697849057	1.8091613	1.3450507
25.492073939564698	1.8696951	1.367368
25.510043818696285	1.9074032	1.3810877
25.528014335753614	1.8950037	1.3765913
25.54598549124664	1.8575456	1.362918
25.56395728568544	1.8576272	1.362948
25.58192971958028	1.9034377	1.3796513
25.59990279344156	1.8903103	1.3748856
25.617876507779833	1.8678427	1.3666904
25.635850863105826	1.8313115	1.3532596
25.653825859930386	1.8297844	1.3526952
25.671801498764548	1.828726	1.352304
25.68977778011949	1.7925811	1.338873
25.707754704506524	1.731971	1.3160437
25.725732272437153	1.7378021	1.3182572
25.743710484423012	1.7387532	1.3186179
25.761689340975888	1.8179898	1.3483285
25.77966884260774	1.8702134	1.3675574
25.797648989830662	1.8968421	1.3772589
25.815629783156922	1.8800747	1.3711581
25.83361122309895	1.8715515	1.3680466
25.85159331016929	1.8407729	1.3567508
25.869576044880695	1.8500648	1.3601708
25.887559427746034	1.8304684	1.3529481
25.90554345927836	1.8122696	1.3462056
25.92352813999086	1.8187778	1.3486207
25.94151347039689	1.8034515	1.3429265
25.959499451009965	1.8621355	1.3646009
25.97748608234374	1.9067945	1.3808674
25.995473364912062	1.9125147	1.382937
26.013461299228904	1.8057679	1.3437886
26.03144988580839	1.7872971	1.3368983
26.04943912516483	1.7909875	1.3382778
26.067429017812675	1.8241792	1.3506218
26.085419564266537	1.8271667	1.3517272
26.103410765041186	1.8219647	1.3498018
26.12140262065155	1.8160121	1.347595
26.139395131612723	1.7791679	1.3338546
26.157388298439948	1.7741593	1.3319757
26.17538212164861	1.7436833	1.3204861
26.193376601754295	1.7485566	1.32233
26.211371739272714	1.699159	1.3035179
26.229367534719746	1.7217762	1.3121647
26.247363988611433	1.7296168	1.315149
26.26536110146397	1.7552413	1.3248552
26.283358873793727	1.7536314	1.3242475
26.301357306117204	1.7741518	1.331973
26.319356398951104	1.7887552	1.3374435
26.33735615281224	1.7812806	1.3346462
26.35535656821762	1.7964222	1.3403068
26.373357645684404	1.7938082	1.3393313
26.39135938572991	1.7808477	1.3344841
26.409361788871614	1.8028314	1.3426956
26.427364855627165	1.8485283	1.3596059
26.445368586514352	1.8771689	1.3700981
26.46337298205115	1.8625984	1.3647704
26.48137804275568	1.8169681	1.3479496
26.499383769146217	1.816567	1.3478007
26.517390161741215	1.8308957	1.3531059
26.53539722105928	1.7953379	1.3399022
26.553404947619182	1.7761658	1.3327287
26.571413341939856	1.7621439	1.3274577
26.589422404540397	1.7567428	1.3254218
26.60743213594006	1.7892509	1.3376288
26.62544253665827	1.8142434	1.3469385
26.64345360721459	1.8338536	1.3541985
26.66146534812879	1.835166	1.3546829
26.679477759920758	1.8249489	1.3509067
26.69749084311057	1.7687382	1.3299391
26.71550459821847	1.76199	1.3273997
26.733519025764842	1.7847209	1.3359345
26.751534126270258	1.7993144	1.3413852
26.769549900255434	1.8348514	1.3545668
26.787566348241267	1.8365217	1.3551832
26.80558347074881	1.8095658	1.345201
26.823601268299267	1.7714617	1.3309627
26.841619741414036	1.7695785	1.330255
26.85963889061465	1.7832685	1.3353908
26.877658716422832	1.7638574	1.328103
26.89567921936045	1.7358522	1.3175174
26.913700399949544	1.7185998	1.3109537
26.93172225871233	1.7127293	1.3087128
26.949744796171174	1.7259328	1.3137476
26.967768012848605	1.8070354	1.3442602
26.98579190926733	1.8355025	1.3548071
27.003816485950225	1.8302255	1.3528583
27.021841743420318	1.7616981	1.3272898
27.039867682200814	1.7304162	1.3154528
27.057894302815072	1.7601634	1.3267115
27.07592160578664	1.8218284	1.3497512
27.0939495916392	1.8176714	1.3482105
27.111978260896635	1.768366	1.3297992
27.13000761408296	1.7593917	1.3264207
27.148037651722397	1.7342004	1.3168904
27.166068374339304	1.7208034	1.3117939
27.184099782458215	1.7335696	1.3166509
27.20213187660384	1.7656031	1.32876
27.22016465730105	1.7885122	1.3373528
27.23819812507487	1.7964438	1.3403149
27.256232280450533	1.8033508	1.342889
27.274267123953383	1.8117794	1.3460236
27.292302656108987	1.8164659	1.3477633
27.31033887744306	1.8000897	1.3416742
27.32837578848146	1.819454	1.3488714
27.34641338975026	1.7856649	1.3362877
27.364451681775673	1.7409426	1.3194479
27.382490665084074	1.7391886	1.3187829
27.400530340202046	1.7536612	1.3242587
27.41857070765629	1.7658678	1.3288596
27.436611767973726	1.7241201	1.3130575
27.454653521681404	1.7315861	1.3158975
27.472695969306564	1.7322426	1.3161469
27.490739111376627	1.790211	1.3379877
27.508782948419153	1.8325316	1.3537103
27.526827480961902	1.8008341	1.3419516
27.54487270953279	1.7562721	1.3252442
27.562918634659898	1.7928122	1.3389593
27.580965256871508	1.8344663	1.3544247
27.599012576696026	1.8429571	1.3575556
27.617060594662068	1.8551906	1.3620539
27.63510931129842	1.7959822	1.3401426
27.65315872713401	1.7890854	1.337567
27.67120884269797	1.7892069	1.3376124
27.68925965851958	1.805312	1.343619
27.707311175128307	1.8169776	1.3479531
27.725363393053787	1.8400095	1.3564695
27.74341631282583	1.8101617	1.3454225
27.7614699349744	1.7768698	1.3329928
27.77952426002968	1.9100646	1.3820509
27.797579288521973	2.0062919	1.4164363
27.815635020981784	2.303056	1.5175823
27.83369145793979	2.3799045	1.5426939
27.85174859992682	2.2685816	1.5061811
27.869806447473923	2.1803577	1.4766034
27.887865001112267	2.0014267	1.4147179
27.905924261373233	1.9153287	1.383954
27.92398422878836	1.8678353	1.3666877
27.94204490388936	1.8657374	1.36592
27.96010628720813	1.876472	1.3698438
27.978168379276728	1.8585578	1.3632894
27.9962311806274	1.8336147	1.3541104
28.014294691792568	1.8542373	1.3617039
28.0323589133048	1.8672638	1.3664786
28.050423845696887	1.850034	1.3601595
28.068489489501758	1.821488	1.3496251
28.086555845252523	1.8410398	1.3568492
28.104622913482487	1.8666645	1.3662593
28.122690694725115	1.8506297	1.3603785
28.14075918951405	1.8428088	1.3575009
28.15882839838312	1.8490312	1.3597909
28.176898321866304	1.9055972	1.3804337
28.1949689604978	1.9406024	1.3930551
28.213040314811945	1.9257066	1.3876983
28.23111238534327	1.9115411	1.3825849
28.249185172626493	1.89142	1.3752891
28.267258677196473	1.8795769	1.3709767
28.285332899588294	1.9086523	1.3815398
28.303407840337172	1.912188	1.3828189
28.321483499978545	1.913739	1.3833796
28.33955987904799	1.9144084	1.3836215
28.357636978081285	1.8928151	1.3757962
28.37571479761439	1.9382088	1.3921957
28.393793338183425	2.010067	1.4177684
28.41187260032469	2.023147	1.4223738
28.429952584574686	1.9894019	1.4104615
28.448033291470065	1.9170908	1.3845905
28.46611472154769	1.8975859	1.3775289
28.484196875344566	1.9159178	1.3841668
28.502279753397914	1.9290413	1.3888993
28.52036335624511	1.9586834	1.3995297
28.538447684423716	1.9971006	1.4131881
28.556532738471482	2.0035203	1.4154576
28.574618518926325	2.0121348	1.4184973
28.59270502632635	2.0190146	1.4209204
28.61079226120985	2.0129087	1.4187702
28.628880224115274	2.0001085	1.4142519
28.646968915581287	1.954038	1.3978691
28.66505833614671	1.9723749	1.4044126
28.68314848635055	2.0134547	1.4189625
28.701239366732004	2.0937643	1.4469845
28.71933097783044	2.122277	1.4568037
28.737423320185403	2.1101103	1.4526218
28.75551639433665	2.1032705	1.4502656
28.773610200824074	2.081067	1.4425904
28.791704740187793	2.1192892	1.4557779
28.80980001296809	2.1420727	1.4635822
28.827896019705413	2.161602	1.4702388
28.845992760940433	2.1755152	1.4749627
28.86409023721397	2.1677198	1.4723178
28.88218844906704	2.1261203	1.4581221
28.900287397040845	2.1468532	1.4652144
28.918387081676755	2.218123	1.4893364
28.936487503516343	2.2121637	1.4873344
28.954588663101365	2.2411034	1.4970316
28.97269056097374	2.278402	1.5094377
28.990793197675597	2.3386028	1.5292491
29.00889657374923	2.2785225	1.5094776
29.027000689737125	2.2567835	1.5022595
29.04510554618196	2.3138633	1.5211388
29.06321114362659	2.4101639	1.5524702
29.08131748261405	2.4813068	1.5752164
29.099424563687567	2.5020907	1.5817999
29.11753238739057	2.4290912	1.5585542
29.13564095426663	2.4596493	1.568327
29.15375026485954	2.5382175	1.5931784
29.171860319713275	2.5998979	1.6124198
29.18997111937199	2.6514463	1.6283263
29.20808266438002	2.7253306	1.6508576
29.226194955281898	2.7206185	1.6494298
29.244307992622335	2.798534	1.672882
29.26242177694624	2.8458629	1.6869686
29.2805363087987	2.8471003	1.6873353
29.29865158872498	2.8352523	1.6838207
29.316767617270557	2.8250723	1.6807952
29.334884394981064	2.8466828	1.6872115
29.353001922402367	2.9513328	1.7179444
29.37112020008047	3.0622373	1.7499249
29.389239228561596	3.1889427	1.7857611
29.407359008392152	3.3727844	1.8365142
29.42547954011872	3.6723828	1.9163462
29.44360082428809	4.260515	2.0641015
29.46172286144722	5.3122396	2.3048296
29.479845652143283	7.054861	2.6560988
29.497969196923606	9.3850355	3.0635006
29.516093496335728	12.285958	3.5051332
29.5342185509274	15.339195	3.9165285
29.55234436124651	17.868908	4.2271633
29.570470927841175	19.369827	4.4011164
29.588598251259686	19.03119	4.3624754
29.60672633205055	17.382982	4.1692905
29.624855170762405	15.048719	3.879268
29.642984767944146	12.130325	3.4828618
29.66111512414481	9.138862	3.023055
29.67924623991366	6.6729093	2.5831976
29.697378115800138	5.112385	2.2610583
29.71551075235387	4.267275	2.0657384
29.733644150124675	3.7437255	1.934871
29.751778309662576	3.5111783	1.8738139
29.769913231517766	3.3949587	1.8425413
29.78804891624066	3.3581324	1.8325207
29.806185364381818	3.3484979	1.8298901
29.82432257649206	3.2393663	1.799824
29.842460553122333	3.19178	1.7865554
29.86059929482382	3.212228	1.792269
29.878738802147872	3.23505	1.7986245
29.896879075646048	3.217489	1.7937361
29.915020115870114	3.2717257	1.8087912
29.933161923371976	3.2917647	1.8143221
29.951304498703777	3.251966	1.8033209
29.969447842417857	3.2526898	1.8035215
29.987591955066733	3.2678547	1.8077209
30.005736837203123	3.2031054	1.7897222
30.023882489379943	3.1805038	1.7833967
30.04202891215028	3.2023559	1.7895128
30.060176106067455	3.262378	1.8062054
30.078324071684946	3.2569804	1.8047106
30.09647280955646	3.1598418	1.7775943
30.114622320235863	3.0933099	1.7587808
30.132772604277257	3.0768816	1.7541043
30.1509236622349	3.068114	1.7516032
30.16907549466328	3.0616112	1.7497461
30.18722810211705	3.0423212	1.7442251
30.205381485151097	2.9456203	1.7162809
30.22353564432045	2.8877182	1.6993288
30.241690580180403	2.8635192	1.6921936
30.25984629328638	2.8635583	1.6922052
30.278002784194037	2.8306673	1.6824586
30.296160053459246	2.8551328	1.6897138
30.314318101638033	2.8681912	1.6935735
30.332476929286646	2.8803132	1.6971486
30.35063653696153	2.9229136	1.709653
30.368796925219307	2.8882754	1.6994927
30.386958094616844	2.8579566	1.6905493
30.40512004571115	2.8093798	1.6761205
30.423282779059463	2.779237	1.6671044
30.441446295219233	2.8017318	1.6738374
30.459610594748067	2.8291452	1.6820064
30.47777567820382	2.7777321	1.6666529
30.495941546144504	2.7559233	1.6600974
30.51410819912835	2.7149303	1.6477046
30.532275637713795	2.6731608	1.6349803
30.55044386245946	2.7299318	1.6522505
30.56861287392416	2.8262434	1.6811435
30.586782672666956	2.8371727	1.6843909
30.604953259247047	2.7678475	1.663685
30.623124634223885	2.7479494	1.657694
30.641296798157075	2.73492	1.6537594
30.659469751606462	2.7490826	1.6580358
30.677643495132074	2.7747297	1.665752
30.695818029294152	2.756166	1.6601704
30.713993354653116	2.7095752	1.6460787
30.73216947176962	2.707261	1.6453756
30.75034638120448	2.7250638	1.6507767
30.768524083518756	2.70665	1.64519
30.786702579273673	2.684154	1.6383388
30.80488186903069	2.7202818	1.6493276
30.82306195335144	2.8931668	1.7009312
30.841242832797782	3.0763617	1.753956
30.85942450793176	3.3628545	1.8338088
30.877606979315637	3.8151417	1.9532387
30.895790247511883	4.3107777	2.0762413
30.913974313083134	4.6938767	2.1665356
30.932159176592283	4.9855795	2.232841
30.95034483860237	5.1302505	2.2650056
30.968531299676698	4.8968606	2.2128851
30.98671856037873	4.432885	2.1054418
31.00490662127215	3.9960802	1.9990197
31.023095482920848	3.570324	1.8895301
31.04128514588892	3.09683	1.7597812
31.059475610740662	2.7536857	1.6594234
31.07766687804056	2.5810914	1.6065775
31.09585894835335	2.528803	1.590221
31.11405182224393	2.5266309	1.589538
31.132245500277417	2.5149553	1.5858611
31.15043998301914	2.444281	1.5634197
31.168635271034628	2.4171433	1.5547165
31.18683136488964	2.4057403	1.551045
31.20502826515008	2.394851	1.5475307
31.223225972382135	2.4133706	1.5535027
31.241424487152155	2.487224	1.5770936
31.259623810026692	2.4660947	1.5703804
31.27782394157253	2.4096785	1.5523139
31.296024882356644	2.3869102	1.5449629
31.314226632946237	2.43728	1.561179
31.332429193908684	2.512269	1.5850139
31.350632565811598	2.5669131	1.6021589
31.368836749222787	2.504636	1.5826042
31.387041744710295	2.4574437	1.5676236
31.40524755284232	2.461553	1.5689337
31.423454174187317	2.5025988	1.5819604
31.441661609313922	2.5162299	1.5862628
31.459869858791002	2.4625063	1.5692375
31.478078923187628	2.385537	1.5445184
31.496288803073064	2.3047953	1.5181552
31.514499499016807	2.3215747	1.5236715
31.532711011588546	2.351545	1.5334748
31.550923341358178	2.328397	1.5259086
31.56913648889584	2.3391294	1.5294213
31.587350454771844	2.3099897	1.519865
31.605565239556732	2.2127144	1.4875195
31.62378084382127	2.1730404	1.4741236
31.641997268136382	2.198066	1.4825876
31.660214513073274	2.2159483	1.4886062
31.67843257920331	2.1930645	1.4808999
31.6966514670981	2.2485583	1.4995193
31.71487117732944	2.2640903	1.5046895
31.733091710469346	2.260902	1.5036296
31.751313067090052	2.2229295	1.4909492
31.769535247764008	2.3078995	1.5191772
31.787758253063878	2.351536	1.533472
31.805982083562526	2.3353527	1.5281861
31.824206739833024	2.283946	1.511273
31.84243222244869	2.2919998	1.5139352
31.860658531983013	2.3149014	1.52148
31.878885669009737	2.369208	1.5392232
31.897113634102784	2.2497642	1.4999214
31.91534242783632	2.2114086	1.4870806
31.933572050784694	2.2397022	1.4965634
31.951802503522508	2.2786818	1.5095303
31.970033786624548	2.2611742	1.5037202
31.988265900665834	2.2371252	1.4957023
32.006498846221575	2.182519	1.4773351
32.02473262386724	2.125813	1.4580168
32.04296723417845	2.093496	1.4468919
32.0612026777311	2.1107333	1.4528363
32.07943895510129	2.20337	1.4843754
32.097676066865304	2.1820016	1.47716
32.115914013599685	2.0869398	1.4446244
32.13415279588115	2.0740464	1.440155
32.152392414286666	2.0490026	1.4314338
32.1706328693934	1.965914	1.4021106
32.18887416177875	2.0180094	1.4205666
32.20711629202032	2.163524	1.4708922
32.225359260695924	2.2350383	1.4950044
32.243603068383614	2.1894555	1.4796809
32.26184771566166	2.165308	1.4714986
32.28009320310852	2.0882468	1.4450767
32.2983395313029	2.0956266	1.4476279
32.31658670082372	2.1075027	1.451724
32.33483471225012	2.1001995	1.4492065
32.35308356616143	2.0716472	1.4393218
32.371333263137245	2.0288801	1.4243876
32.38958380375734	2.014728	1.4194112
32.407835188601744	1.956666	1.3988087
32.42608741825067	1.9614835	1.4005297
32.444340493284585	2.0421312	1.4290316
32.46259441428416	2.111852	1.4532212
32.48084918183028	1.9948213	1.4123814
32.49910479650405	1.9773873	1.406196
32.51736125888683	2.0179398	1.4205421
32.53561856956014	2.0223703	1.4221007
32.5538767291058	2.0607615	1.4355352
32.572135738105764	2.0879273	1.4449662
32.59039559714228	2.0507965	1.4320602
32.608656306797776	2.003223	1.4153526
32.62691786765491	1.9886684	1.4102015
32.645180280296586	1.9434446	1.3940748
32.663443545305896	1.9301611	1.3893024
32.68170766326619	1.9930679	1.4117606
32.69997263476099	2.0557954	1.4338045
32.7182384603741	2.0665565	1.4375522
32.7365051406895	2.0448618	1.4299866
32.75477267629144	1.9399141	1.392808
32.77304106776434	1.9188831	1.3852376
32.79131031569289	1.973065	1.4046583
32.809580420661966	2.0752196	1.4405622
32.827851383256714	1.9955646	1.4126445
32.84612320406245	1.9193801	1.385417
32.86439588366476	1.9360242	1.3914108
32.88266942264945	1.933735	1.390588
32.9009438216025	1.9498726	1.3963784
32.9192190811102	1.99068	1.4109145
32.937495201758985	2.0295517	1.4246234
32.95577218413556	2.0436602	1.4295664
32.974050028826866	2.0521297	1.4325256
32.992328736420035	1.97793	1.406389
33.010608307502444	1.8672087	1.3664584
33.02888874266169	1.8904895	1.3749508
33.047170042485604	1.9101721	1.3820897
33.06545220756225	1.9851121	1.4089401
33.083735238479896	1.9772058	1.4061315
33.10201913582707	1.8813972	1.3716403
33.12030390019248	1.8389057	1.3560625
33.138589532165135	1.9139198	1.3834449
33.15687603233419	1.953725	1.3977572
33.17516340128909	1.8727528	1.3684856
33.19345163961947	1.7812196	1.3346233
33.211740747915215	1.8818479	1.3718046
33.23003072676643	2.08127	1.4426607
33.248321576763466	2.1495812	1.466145
33.266613298496885	2.0389013	1.427901
33.28490589255747	1.8936583	1.3761026
33.30319935953626	1.8038042	1.3430578
33.32149370002451	1.7869234	1.3367585
33.339788914613706	1.8691376	1.3671641
33.358085003895575	1.8995864	1.3782549
33.376381968462034	1.9507949	1.3967086
33.39467980890529	1.9300667	1.3892684
33.41297852581774	1.9446988	1.3945246
33.43127811979204	1.9525229	1.3973271
33.44957859142105	1.9355886	1.3912543
33.467879941297866	1.8920858	1.3755311
33.486182170015844	1.8738306	1.3688793
33.50448527816853	1.7746845	1.3321729
33.522789266349754	1.8035128	1.3429493
33.541094135153514	1.9301118	1.3892846
33.55939988517411	2.0071304	1.4167323
33.57770651700602	1.9737378	1.4048978
33.59601403124398	1.9682765	1.4029528
33.61432242848296	1.9885851	1.410172
33.632631709318154	1.9411497	1.3932515
33.650941874344994	1.8771212	1.3700807
33.66925292415916	1.8871073	1.3737202
33.68756485935654	1.8369071	1.3553255
33.70587768053328	1.841181	1.3569013
33.724191388285746	1.7744704	1.3320925
33.74250598321054	1.775602	1.3325171
33.760821465904506	1.8713856	1.367986
33.77913783696474	1.8581693	1.3631469
33.79745509698852	1.8381999	1.3558023
33.815773246573414	1.9451494	1.3946861
33.8340922863172	1.977961	1.4064
33.852412216817896	1.9201188	1.3856835
33.87073303867377	1.9831238	1.4082342
33.889054752483304	2.1211116	1.4564036
33.907377358845245	2.1310823	1.4598227
33.92570085835853	2.0856342	1.4441725
33.94402525162239	2.0778384	1.441471
33.96235053923627	2.0291293	1.4244751
33.980676721799824	1.9912766	1.411126
33.999003799912984	1.9489301	1.3960409
34.01733177417592	1.9032505	1.3795835
34.03566064518901	2.02939	1.4245666
34.0539904135529	2.0200434	1.4212823
34.07232107986846	1.8766646	1.369914
34.090652644736785	1.8505763	1.3603588
34.108985108759235	1.9118196	1.3826857
34.12731847253742	1.863523	1.3651092
34.14565273667313	1.8040922	1.343165
34.16398790176847	1.8294749	1.3525808
34.18232396842574	1.8432213	1.3576529
34.20066093724749	1.8063246	1.3439958
34.21899880883651	1.8145483	1.3470517
34.23733758379583	1.8050277	1.3435133
34.25567726272874	1.833006	1.3538855
34.27401784623872	1.8449765	1.3582991
34.29235933492957	1.7660342	1.3289222
34.31070172940526	1.746175	1.3214291
34.32904503027003	1.7889267	1.3375076
34.347389238128386	1.8774914	1.3702158
34.36573435358502	2.1093056	1.4523449
34.38408037724492	2.1446311	1.464456
34.402427309713296	2.1716413	1.473649
34.42077515159559	2.1577327	1.4689223
34.43912390349752	1.9497861	1.3963474
34.45747356602499	1.8549845	1.3619782
34.47582413978423	1.8264742	1.3514711
34.49417562538163	1.7826966	1.3351766
34.51252802342388	1.8378892	1.3556877
34.53088133451789	1.9483551	1.3958349
34.54923555927084	2.0273871	1.4238634
34.567590698290104	2.08256	1.4431077
34.58594675218336	2.0617511	1.43588
34.6043037215585	2.0291681	1.4244888
34.62266160702365	2.0006313	1.4144367
34.641020409187234	1.9610662	1.4003807
34.65938012865785	2.157477	1.4688352
34.677740766044394	2.3944182	1.5473908
34.69610232195598	2.2565978	1.5021976
34.714464797002016	2.1772432	1.4755485
34.73282819179208	2.105673	1.4510938
34.751192506936064	1.9820746	1.4078617
34.76955774304408	1.8075075	1.3444358
34.7879239007265	1.8436902	1.3578255
34.80629098059391	1.9190247	1.3852887
34.824658983257194	1.7339288	1.3167872
34.843027909327446	1.6662092	1.2908173
34.86139775941603	1.7901746	1.3379741
34.879768534134534	1.8962159	1.3770316
34.89814023409483	1.9547399	1.3981202
34.91651285990901	1.8789049	1.3707316
34.93488641218944	1.9177904	1.3848431
34.95326089154871	1.966395	1.4022821
34.97163629859967	1.9435732	1.3941209
34.99001263395542	1.8187379	1.3486059
35.00838989822934	1.9383278	1.3922384
35.02676809203499	2.059156	1.434976
35.04514721598624	1.9841864	1.4086115
35.063527270697215	2.0004635	1.4143775
35.081908256782256	2.0697775	1.4386722
35.10029017485597	1.9586346	1.3995123
35.11867302553321	1.8990595	1.3780637
35.137056809429104	2.031216	1.4252074
35.155441527159006	1.8109059	1.3456991
35.173827179338524	1.5755012	1.2551897
35.19221376658354	1.7072464	1.3066164
35.21060128951017	1.7765695	1.3328801
35.2289897487348	1.9722781	1.4043782
35.24737914487405	2.0024421	1.4150767
35.26576947854479	1.8148402	1.3471601
35.28416075036418	1.7209958	1.3118672
35.30255296094958	1.8267841	1.3515857
35.32094611091867	1.8311605	1.3532038
35.33934020088932	1.6798066	1.2960736
35.35773523147969	1.9251028	1.3874807
35.3761312033082	2.1255672	1.4579325
35.394528116993506	1.9495257	1.3962542
35.41292597315452	1.8632582	1.3650122
35.431324772410434	2.1044059	1.450657
35.449724515380666	2.0036042	1.4154873
35.46812520268491	1.6325163	1.2776996
35.486526834943106	1.4196898	1.1915073
35.504929412775454	1.3536786	1.163477
35.52333293680242	1.533023	1.2381531
35.54173740764471	1.7151715	1.3096455
35.560142825923286	1.8247283	1.3508251
35.5785491922594	1.8996078	1.3782626
35.59695650727454	2.0271852	1.4237926
35.61536477159042	1.8569168	1.3626873
