0.008763373481513119	0.0	0.0
0.026290120649546365	0.0	0.0
0.043816868432600686	0.0	0.0
0.06134361724069026	0.08123471	0.28501704
0.07887036748382949	0.21684913	0.46567062
0.0963971195720331	0.17928758	0.42342365
0.11392387391531617	0.18656795	0.43193513
0.1314506309236943	0.09135254	0.30224583
0.1489773910071836	0.12032112	0.34687334
0.16650415457580078	0.2007507	0.4480521
0.18403092203956356	0.23465991	0.48441708
0.20155769380849	0.24933922	0.49933878
0.2190844702925996	0.17162235	0.4142733
0.2366112519019124	0.10321978	0.32127836
0.2541380390464497	0.052306093	0.22870526
0.27166483213623416	0.04814631	0.21942268
0.28919163158128947	0.09867383	0.3141239
0.3067184377916406	0.13839056	0.3720088
0.324245251177314	0.18196566	0.42657435
0.34177207214833777	0.15875506	0.39844078
0.3592989011147415	0.15740192	0.3967391
0.37682573848655654	0.149798	0.3870375
0.39435258467381573	0.15255612	0.39058432
0.41187944008655414	0.14470486	0.38040093
0.42940630513480854	0.1471341	0.38358063
0.446933180228618	0.19425549	0.44074425
0.4644600657780234	0.2002242	0.4474642
0.48198696219306775	0.19230957	0.43853116
0.49951386988379676	0.18320951	0.4280298
0.5170407892602581	0.17096743	0.41348207
0.5345677207325025	0.19198036	0.43815565
0.5520946647105822	0.15908091	0.3988495
0.5696216216045534	0.16705151	0.40871936
0.5871485918244737	0.15382946	0.392211
0.6046755757804043	0.15069379	0.38819298
0.6222025738824094	0.16347855	0.4043248
0.6397295865405557	0.16124205	0.40154958
0.6572566141649129	0.1531269	0.39131433
0.6747836571655547	0.15440626	0.39294562
0.6923107159525568	0.1649358	0.4061229
0.7098377909359992	0.15329385	0.3915276
0.7273648825259653	0.18108948	0.42554608
0.7448919911325411	0.13925178	0.37316456
0.762419117165817	0.14280528	0.37789586
0.7799462610358868	0.12857091	0.35856786
0.7974734231528482	0.14337748	0.3786522
0.8150006039268024	0.16596738	0.40739092
0.8325278037678551	0.17014754	0.41248944
0.8500550230861152	0.17821117	0.42215064
0.8675822622916969	0.17972447	0.42393923
0.8851095217947171	0.19536197	0.4419977
0.9026368020052984	0.19352062	0.4399098
0.9201641033335665	0.18372527	0.42863184
0.9376914261896523	0.18967871	0.4355212
0.9552187709836915	0.21199659	0.46043086
0.9727461381258234	0.20939128	0.45759293
0.990273528026193	0.21831152	0.4672382
1.0078009410949496	0.2175011	0.46637014
1.0253283777422473	0.21522908	0.4639279
1.0428558383782454	0.24779502	0.49779013
1.0603833234131086	0.28181744	0.5308648
1.0779108332570058	0.31177038	0.55836403
1.0954383683201119	0.31223464	0.5587796
1.112965929012607	0.353923	0.59491426
1.1304935157446763	0.47296214	0.68772244
1.1480211289265108	0.56965905	0.7547576
1.1655487689683062	1.3103604	1.1447097
1.1830764362802655	1.5592685	1.2487067
1.200604131272596	1.8667849	1.3663033
1.2181318543555117	2.1234088	1.4571921
1.235659605939232	2.127279	1.4585195
1.253187386433982	3.9182062	1.9794459
1.270715196249994	6.5062237	2.55073
1.2882430357975057	11.907396	3.4507096
1.3057709054867608	16.619257	4.076672
1.3232988057280106	22.156096	4.707026
1.3408267369315112	27.12363	5.208035
1.358354699507526	30.884235	5.5573587
1.3758826938663256	35.09793	5.9243507
1.3934107204181858	36.88833	6.0735765
1.410938779573391	37.413166	6.11663
1.4284668717422309	38.00439	6.16477
1.4459949973350033	37.539165	6.126921
1.4635231567620117	37.798412	6.1480412
1.4810513504335687	36.902668	6.0747566
1.4985795787599925	35.919983	5.993328
1.5161078421516088	35.09373	5.923996
1.5336361410187505	34.562683	5.8790035
1.5511644757717598	34.575832	5.8801217
1.5686928468209842	35.371525	5.9473963
1.58622125457678	35.814224	5.9844985
1.6037496994495108	37.351875	6.111618
1.621278181849548	37.28547	6.106183
1.6388067021872719	37.932644	6.1589484
1.6563352608730693	37.11717	6.0923862
1.673863858317336	36.007824	6.000652
1.6913924949304753	35.43609	5.9528217
1.7089211711228998	34.317513	5.858115
1.7264498873050296	33.650055	5.8008666
1.7439786438872935	32.63954	5.713103
1.7615074412801288	31.861595	5.6446075
1.779036279893981	31.115065	5.578088
1.796565160139305	30.153824	5.4912496
1.814094082426564	29.689707	5.4488263
1.8316230471662298	29.193388	5.4030905
1.849152054768784	28.529272	5.34128
1.8666811056447168	28.077019	5.298775
1.8842102002045273	27.217562	5.2170453
1.901739338858724	26.662521	5.1635766
1.9192685220178245	26.112843	5.1100726
1.9367977500923557	25.22556	5.0225053
1.9543270234928547	24.467196	4.9464326
1.971856342629867	23.691935	4.867436
1.9893857079139496	23.191673	4.8157735
2.006915119755667	22.63688	4.757823
2.0244445785655945	22.191067	4.7107396
2.0419740847543175	21.941221	4.684146
2.0595036387324317	21.58382	4.645839
2.0770332409105414	21.211107	4.6055517
2.094562891699263	20.681854	4.5477304
2.1120925915092217	20.189268	4.493247
2.129622340751053	19.653143	4.4331865
2.1471521398354043	187.98383	13.710719
2.1646819891729323	444.38718	21.080492
2.182211889174303	440.86682	20.996828
2.1997418402501974	453.04068	21.284752
2.2172718428113023	432.9293	20.806953
2.234801897268317	320.6907	17.907839
2.2523320040319548	16.979542	4.120624
2.269862163512935	16.478367	4.0593553
2.287392376121992	16.065157	4.0081363
2.304922642269869	16.114151	4.0142436
2.322452962367322	16.00838	4.0010476
2.3399833368251164	15.787038	3.9732904
2.357513766054032	15.371968	3.92071
2.3750442504648586	14.963211	3.868231
2.3925747904683963	14.605837	3.8217583
2.410105386475459	14.493497	3.8070326
2.4276360388968707	14.165694	3.763734
2.445166748143469	13.961507	3.73651
2.4626975146261025	13.798395	3.7146192
2.4802283387556323	13.580388	3.6851578
2.4977592209429305	13.477722	3.6712017
2.5152901615988825	13.059587	3.613805
2.5328211611343865	12.890948	3.5903966
2.5503522199603523	12.653897	3.5572317
2.5678833384877024	12.437102	3.5266275
2.5854145171273712	12.141378	3.4844482
2.6029457562903064	11.8670635	3.4448605
2.620477056387469	11.737736	3.426038
2.6380084178298326	11.629768	3.4102447
2.655539841028383	11.571675	3.4017165
2.673071326394119	11.434724	3.381527
2.6906028743380523	11.307688	3.3626904
2.708134485271211	11.162635	3.341053
2.7256661596046325	10.982048	3.3139174
2.743197897749369	10.75769	3.2798917
2.760729700116486	10.557743	3.249268
2.778261567117063	10.331028	3.2141917
2.795793499162193	10.173368	3.1895719
2.8133254966629817	9.925358	3.1504536
2.830857560030551	9.778031	3.1269844
2.8483896896760337	9.646589	3.105896
2.865921886010578	9.520176	3.0854783
2.883454149445347	9.498576	3.081976
2.9009864803915177	9.419826	3.0691733
2.91851887926028	9.315318	3.0521007
2.9360513464628384	9.226373	3.0374944
2.953583882410413	9.104314	3.0173357
2.9711164875142373	8.981033	2.9968371
2.9886491621855606	8.976438	2.9960704
3.0061819068356455	8.817037	2.9693496
3.023714721875769	8.660898	2.9429405
3.041247607717225	8.4391165	2.9050157
3.0587805647713213	8.254031	2.872983
3.0763135934493806	8.16967	2.8582635
3.0938466941627407	8.080831	2.8426802
3.1113798673227544	7.9600163	2.82135
3.1289131133407904	7.9817305	2.8251956
3.1464464326282315	8.02607	2.833032
3.1639798255964786	7.9540544	2.8202934
3.1815132926569443	7.7441764	2.782836
3.1990468342210603	7.4517903	2.7297966
3.216580450700272	7.3486133	2.7108326
3.2341141425060416	7.3027925	2.702368
3.251647910049847	7.23418	2.6896431
3.2691817537431813	7.178241	2.679224
3.286715673997555	7.0296526	2.6513493
3.3042496712244938	7.0816402	2.6611352
3.32178374583554	7.101003	2.6647708
3.339317898242251	7.0852222	2.661808
3.3568521288562034	7.1148505	2.6673677
3.3743864380889876	7.042881	2.6538427
3.3919208263522127	6.906947	2.628107
3.4094552940575023	6.745716	2.5972517
3.4269898416164972	6.704657	2.5893352
3.444524469440858	6.577099	2.5645854
3.4620591779422587	6.5256805	2.554541
3.479593967532391	6.4967446	2.5488713
3.4971288386229658	6.49807	2.5491312
3.5146637916257086	6.584364	2.5660017
3.5321988269523628	6.48104	2.5457888
3.5497339450146903	6.410082	2.5318139
3.5672691462244708	6.309807	2.5119328
3.5848044309934988	6.269728	2.5039425
3.60233979973359	6.326866	2.5153263
3.619875252856575	6.3291554	2.5157812
3.6374107907743034	6.3668056	2.523253
3.6549464138986427	6.40953	2.531705
3.6724821226414788	6.3386755	2.5176725
3.690017917414714	6.330219	2.5159926
3.7075537986302702	6.3051033	2.5109966
3.7250897667000857	6.3990483	2.529634
3.7426258220361235	6.568435	2.5628958
3.7601619650503553	6.8275375	2.6129558
3.777698196154779	7.3257036	2.7066038
3.7952345157614067	8.360977	2.8915355
3.8127709242822716	9.065359	3.0108736
3.830307422129425	11.101249	3.3318536
3.847844009714936	29.872936	5.465614
3.8653806874508954	97.47823	9.873107
3.882917455749409	96.88875	9.843208
3.900454315022606	96.71754	9.834507
3.917991265682631	41.225864	6.4207373
3.9355283081416506	10.837278	3.2920022
3.9530654428118495	8.6429615	2.9398913
3.970602670105433	7.4708734	2.73329
3.9881399904346244	6.6294374	2.5747695
4.005677404211669	6.5548253	2.5602393
4.023214911848827	6.5110617	2.5516782
4.0407525137583855	6.538909	2.5571291
4.058290210352644	6.5395217	2.5572488
4.075828002043927	6.4881954	2.5471935
4.0933658892445814	6.4475374	2.5392
4.110903872366966	6.3780537	2.525481
4.128441951823468	6.2840896	2.5068088
4.145980128026488	6.129157	2.4757135
4.163518401388452	6.1013837	2.470098
4.181056772321807	6.1629696	2.482533
4.1985952412390155	6.215043	2.4929988
4.216133808552567	6.2570724	2.501414
4.233672474674966	6.320807	2.5141215
4.251211240018741	6.507704	2.5510201
4.268750104996445	6.7400002	2.596151
4.286289070020643	7.6354795	2.7632372
4.303828135503928	9.252598	3.0418084
4.3213673018589125	29.539562	5.435031
4.3389065694982305	90.69717	9.523506
4.356445938834537	165.91612	12.880843
4.3739854102805085	171.57788	13.098774
4.391524984248844	172.3844	13.129524
4.409064661152262	136.45634	11.681453
4.426604441403504	96.651	9.831124
4.444144325415337	75.711426	8.701231
4.461684313600543	21.74588	4.6632476
4.47922440637193	22.24261	4.716207
4.496764604142329	20.472885	4.5246973
4.5143049073245916	18.628168	4.316036
4.531845316331589	16.477608	4.059262
4.5493858315762195	13.586902	3.6860414
4.566926453471405	11.252928	3.3545384
4.584467182430081	9.33326	3.0550385
4.602008018865218	8.091594	2.8445728
4.619548963189798	7.4494934	2.729376
4.637090015816834	6.8650255	2.6201193
4.654631177159353	6.6465964	2.5780995
4.672172447630417	6.3741455	2.524707
4.689713827643102	6.2753596	2.5050669
4.7072553176105085	6.035505	2.4567266
4.724796917945764	5.866454	2.4220765
4.742338629062015	5.7186155	2.3913627
4.759880451372434	5.6888914	2.3851397
4.777422385290215	5.622764	2.3712368
4.794964431228581	5.6273174	2.3721967
4.812506589600768	5.5719995	2.3605084
4.830048860820047	5.6274405	2.3722227
4.847591245299709	5.649987	2.3769703
4.8651337434530655	5.719077	2.3914592
4.882676355693457	5.692179	2.3858287
4.900219082434242	5.6292014	2.3725939
4.917761924088813	5.532137	2.3520496
4.935304881070575	5.521625	2.349814
4.952847953792969	5.484198	2.3418365
4.970391142669449	5.4751477	2.3399034
4.9879344481135055	5.4551663	2.3356297
5.005477870538642	5.441579	2.332719
5.023021410358394	5.4479046	2.3340747
5.040565067986324	5.468464	2.3384748
5.05810884383601	5.466079	2.3379648
5.075652738321066	5.5311165	2.3518326
5.09319675185512	5.527246	2.3510096
5.110740884851836	5.448581	2.3342197
5.128285137724894	5.4090214	2.3257303
5.145829510888007	5.3321404	2.3091428
5.163374004754908	5.398963	2.323567
5.1809186197393595	5.3725495	2.317876
5.198463356255145	5.3368096	2.3101535
5.216008214716077	5.3666105	2.3165946
5.233553195535998	5.3274612	2.3081293
5.251098299128764	5.31186	2.3047473
5.268643525908272	5.212028	2.2829866
5.286188876288432	5.1255736	2.263973
5.3037343506831895	5.184078	2.2768571
5.32127994950651	5.1937675	2.2789838
5.3388256731723915	5.2547755	2.2923298
5.356371522094851	5.2331066	2.2875984
5.373917496687938	5.257811	2.2929916
5.391463597365729	5.2595706	2.2933753
5.40900982454232	5.223589	2.2855172
5.426556178631843	5.1391478	2.266969
5.444102660048449	5.101901	2.2587388
5.4616492692063225	5.1777067	2.2754574
5.479196006519669	5.1622148	2.2720509
5.496742872402727	5.1706257	2.273901
5.514289867269756	5.125393	2.2639332
5.531836991535049	5.1022863	2.258824
5.549384245612924	5.1779037	2.2755008
5.566931629917724	5.1442657	2.2680974
5.584479144863822	5.1553	2.2705286
5.6020267908656205	5.1603546	2.2716415
5.619574568337545	5.1821823	2.2764406
5.637122477694054	5.1952763	2.2793148
5.654670519349629	5.1733127	2.2744918
5.672218693718784	5.11969	2.2626731
5.689767001216059	5.066272	2.250838
5.707315442256021	5.073581	2.2524612
5.724864017253266	5.065108	2.2505794
5.7424127266224225	5.0639553	2.2503233
5.75996157077814	5.0588865	2.2491968
5.777510550135105	5.0887184	2.2558188
5.795059665108022	5.168535	2.2734413
5.812608916111639	5.2227364	2.2853308
5.830158303560715	5.3778787	2.3190253
5.847707827870055	5.4215393	2.32842
5.86525748945448	5.4971113	2.3445919
5.8828072887288485	5.5060925	2.3465064
5.900357226108044	5.5507336	2.3559995
5.917907302006979	5.652275	2.3774514
5.9354575168406	6.2154984	2.4930902
5.9530078710238765	6.7714415	2.6021993
5.970558364971812	7.254914	2.6934948
5.988108999099438	7.674468	2.770283
6.005659773821818	8.238342	2.8702512
6.023210689554039	8.038363	2.8352008
6.040761746711227	8.37151	2.893356
6.058312945708531	7.6844363	2.7720816
6.075864286961132	7.2683606	2.6959898
6.093415770884244	6.620533	2.5730395
6.1109673978931065	6.113004	2.472449
6.128519168402993	5.4700117	2.3388057
6.146071082829204	5.3452163	2.3119724
6.163623141587075	5.2657614	2.2947247
6.181175345091969	5.2077	2.2820385
6.198727693759281	5.116707	2.262014
6.216280188004435	5.0844855	2.2548804
6.233832828242885	5.090681	2.2562537
6.251385614890126	5.0986767	2.258025
6.268938548361669	5.1404347	2.2672527
6.286491629073067	5.0782943	2.2535071
6.304044857439898	5.0520134	2.2476685
6.321598233877777	4.9781365	2.2311738
6.339151758802344	4.9807243	2.2317536
6.356705432629277	5.0643935	2.2504208
6.37425925577428	5.025169	2.241689
6.391813228653095	5.0505195	2.2473361
6.409367351681486	4.997695	2.2355525
6.426921625275259	4.9091244	2.2156544
6.44447604985025	4.8533645	2.2030354
6.46203062582232	4.797977	2.1904285
6.47958535360737	4.898523	2.2132607
6.497140233621328	4.9952216	2.2349992
6.514695266280161	5.039207	2.2448177
6.532250451999859	5.049434	2.2470946
6.549805791196454	4.988172	2.2334216
6.567361284286002	4.9666057	2.2285883
6.584916931684597	4.990163	2.2338672
6.602472733808367	5.0628047	2.2500677
6.6200286910734665	5.1051917	2.2594671
6.637584803896092	5.013628	2.2391133
6.655141072692462	4.955312	2.226053
6.672697497878842	4.9265504	2.2195833
6.690254079871514	4.925796	2.2194135
6.707810819086808	4.992604	2.2344136
6.725367715941078	4.980464	2.2316954
6.742924770850719	4.9390807	2.2224042
6.760481984232151	4.957668	2.226582
6.778039356501836	4.9468384	2.224149
6.795596888076266	5.0032988	2.2368054
6.813154579371963	5.0196586	2.2404594
6.830712430805492	5.029421	2.242637
6.84827044279344	4.947396	2.2242742
6.865828615752445	4.924327	2.2190824
6.883386950099159	5.0265074	2.2419875
6.900945446250287	4.9995437	2.235966
6.918504104622553	5.0071225	2.2376602
6.936062925632727	4.998953	2.235834
6.953621909697607	5.118229	2.2623503
6.971181057234028	5.183605	2.2767532
6.988740368658859	5.1786733	2.2756698
7.006299844389007	5.2165785	2.283983
7.023859484841407	5.2563987	2.2926838
7.041419290433036	5.3841834	2.3203843
7.058979261580902	5.5044494	2.3461564
7.0765393987020495	5.725502	2.3928022
7.094099702213559	6.0911713	2.4680297
7.111660172532549	6.415206	2.5328257
7.129220810076164	6.782594	2.6043415
7.146781615261595	7.3757186	2.7158275
7.16434258850606	7.652193	2.7662597
7.181903730226821	8.121158	2.8497646
7.1994650408411704	8.180324	2.8601265
7.217026520766437	8.251888	2.87261
7.234588170419983	8.526093	2.9199474
7.252149990219215	8.5167465	2.9183466
7.269711980581568	8.392567	2.8969927
7.2872741419245175	8.197536	2.8631341
7.304836474665574	7.8164325	2.7957883
7.322398979222286	7.5340385	2.7448204
7.339961656012233	7.2697515	2.6962476
7.357524505453039	6.8977966	2.6263657
7.375087527962357	6.5948215	2.5680385
7.392650723957886	6.2473373	2.4994674
7.410214093857353	5.9032054	2.4296513
7.427777638078528	5.7345586	2.3946939
7.445341357039213	5.636404	2.3741112
7.4629052511572525	5.5628586	2.3585713
7.480469320850524	5.4778275	2.340476
7.498033566536948	5.3693657	2.3171892
7.5155979886344735	5.2608294	2.29365
7.5331625875610975	5.211102	2.2827837
7.550727363734844	5.167761	2.2732708
7.568292317573788	5.196739	2.2796357
7.585857449496025	5.2028275	2.2809708
7.603422759919705	5.195332	2.2793272
7.620988249263007	5.1220684	2.2631986
7.638553917944147	5.073384	2.2524173
7.656119766381391	5.070742	2.2518308
7.673685794993023	5.140629	2.2672956
7.691252004197388	5.215549	2.2837577
7.70881839441285	5.22425	2.2856617
7.726384966057826	5.1904473	2.2782552
7.743951719550762	5.155703	2.2706172
7.761518655310149	5.1492457	2.2691948
7.779085773754511	5.1541014	2.2702646
7.796653075302419	5.141142	2.2674086
7.814220560372475	5.1985435	2.2800314
7.831788229383323	5.2186027	2.2844262
7.8493560827536495	5.282738	2.298421
7.866924120902174	5.23147	2.2872407
7.884492344247663	5.310542	2.3044612
7.9020607532089135	5.3148375	2.3053932
7.919629348204771	5.375291	2.3184674
7.937198129654115	5.3887434	2.3213668
7.954767097975865	5.3712273	2.3175907
7.972336253588986	5.411929	2.3263552
7.989905596912472	5.451082	2.3347552
8.007475128365371	5.546136	2.3550236
8.025044848366756	5.49827	2.344839
8.042614757335754	5.597987	2.3660066
8.060184855691523	5.660028	2.3790812
8.07775514385327	5.7597485	2.3999476
8.095325622240228	5.780495	2.404266
8.112896291271687	5.7679825	2.4016623
8.130467151366968	5.7670927	2.401477
8.148038202945436	5.851485	2.4189842
8.165609446426497	5.928807	2.434914
8.183180882229594	5.990691	2.447589
8.200752510774217	5.964752	2.442284
8.218324332479893	5.946983	2.4386437
8.235896347766193	5.93038	2.4352372
8.253468557052724	5.966319	2.442605
8.27104096075914	6.0058246	2.4506783
8.288613559305137	6.1000795	2.4698339
8.306186353110448	6.1114073	2.472126
8.32375934259485	6.1045856	2.470746
8.341332528178162	6.1144977	2.4727511
8.358905910280246	6.161635	2.482264
8.376479489321003	6.25903	2.5018053
8.394053265720377	6.3290305	2.5157564
8.411627239898356	6.3248687	2.514929
8.42920141227497	6.2583723	2.501674
8.44677578327029	6.174507	2.4848557
8.464350353304427	6.1719084	2.4843326
8.48192512279754	6.2097244	2.491932
8.499500092169827	6.1611958	2.4821756
8.51707526184153	6.199342	2.4898477
8.534650632232934	6.196159	2.4892085
8.552226203764365	6.207538	2.4914932
8.569801976856192	6.190177	2.4880066
8.587377951928834	6.171975	2.484346
8.60495412940274	6.225068	2.4950087
8.622530509698416	6.1873236	2.4874332
8.6401070932364	6.3229527	2.5145483
8.657683880437283	6.453009	2.5402775
8.675260871721695	6.6428194	2.5773668
8.692838067510303	6.8432264	2.615956
8.710415468223834	7.049797	2.6551454
8.727993074283043	7.2144203	2.6859672
8.745570886108737	7.226735	2.6882586
8.763148904121765	7.206044	2.6844077
8.78072712874302	7.2033815	2.6839116
8.798305560393441	7.442441	2.7280838
8.815884199494006	7.6456704	2.7650805
8.833463046465745	7.8058057	2.7938871
8.851042101729728	7.9164805	2.8136241
8.86862136570707	8.148875	2.8546236
8.886200838818924	8.33289	2.8866744
8.903780521486505	8.402159	2.8986478
8.921360414131055	8.520277	2.9189513
8.938940517173874	8.671089	2.9446714
8.956520831036297	8.816428	2.969247
8.97410135613971	9.082307	3.0136867
8.99168209290554	9.2191305	3.036302
9.009263041755265	9.452606	3.0745091
9.026844203110405	9.672405	3.110049
9.044425577392525	9.889365	3.144736
9.062007165023239	10.049543	3.1701014
9.079588966424197	10.292236	3.2081516
9.097170982017108	10.397703	3.224547
9.11475321222372	11.253346	3.354601
9.132335657465825	12.015355	3.4663172
9.149918318165264	12.109761	3.4799082
9.167501194743924	12.725929	3.567342
9.18508428762374	12.468366	3.5310574
9.202667597226693	12.453311	3.528925
9.220251123974803	12.130371	3.4828682
9.237834868290143	11.782181	3.4325182
9.255418830594836	11.510312	3.3926852
9.273003011311046	11.09414	3.3307867
9.290587410860985	10.920783	3.3046608
9.308172029666911	10.358849	3.2185166
9.32575686815113	10.0479145	3.1698446
9.343341926735997	8.758389	2.9594576
9.360927205843916	8.448641	2.9066546
9.378512705897327	8.207523	2.8648775
9.396098427318728	8.106113	2.8471236
9.413684370530664	8.076487	2.841916
9.431270535955722	7.973301	2.8237033
9.448856924016539	7.867482	2.8049033
9.466443535135806	7.7635984	2.7863235
9.484030369736251	7.7559185	2.784945
9.501617428240658	7.728449	2.7800088
9.519204711071852	7.709939	2.7766776
9.536792218652714	7.7699594	2.7874646
9.55437995140617	7.8466268	2.801183
9.571967909755191	7.898253	2.810383
9.589556094122802	7.893756	2.809583
9.60714450493207	7.8686333	2.8051083
9.624733142606116	7.881596	2.807418
9.642322007568108	7.95654	2.820734
9.659911100241267	7.938601	2.8175523
9.677500421048851	7.9454036	2.8187592
9.695089970414175	7.941285	2.8180287
9.712679748760609	7.977106	2.824377
9.730269756511557	7.9781556	2.8245628
9.747859994090492	7.9936323	2.8273013
9.765450461920915	8.043019	2.8360217
9.78304116042639	8.144362	2.853833
9.800632090030527	8.283128	2.8780425
9.81822325115699	8.377095	2.8943212
9.835814644229481	8.343176	2.8884556
9.853406269671762	8.3492565	2.889508
9.870998127907646	8.370111	2.8931146
9.888590219360985	8.309518	2.8826234
9.906182544455698	8.352091	2.8899984
9.923775103615734	8.285869	2.8785186
9.941367897265108	8.285204	2.878403
9.958960925827878	8.241406	2.870785
9.97655418972816	8.209198	2.8651698
9.994147689390106	8.185316	2.860999
10.011741425237934	8.208937	2.8651242
10.029335397695904	8.230955	2.8689642
10.04692960718833	8.288259	2.8789337
10.06452405413958	8.293826	2.8799005
10.082118738974064	8.253676	2.8729212
10.099713662116246	8.183609	2.8607008
10.117308823990651	8.147853	2.8544445
10.134904225021844	8.241751	2.8708448
10.152499865634445	8.274329	2.8765135
10.170095746253125	8.31061	2.8828127
10.18769186730261	8.244124	2.8712583
10.205288229207675	8.199309	2.8634436
10.222884832393145	8.174247	2.8590639
10.2404816772839	8.176241	2.8594127
10.258078764304868	8.155042	2.8557034
10.275676093881035	8.174749	2.8591518
10.293273666437438	8.191806	2.862133
10.310871482399158	8.184606	2.860875
10.32846954219134	8.145005	2.8539455
10.346067846239173	8.059334	2.8388965
10.363666394967908	8.077385	2.8420742
10.38126518880283	8.137189	2.8525758
10.398864228169298	8.168903	2.8581293
10.416463513492713	8.169401	2.8582165
10.434063045198531	8.159147	2.8564222
10.451662823712262	8.10767	2.847397
10.469262849459467	8.099687	2.845995
10.486863122865758	8.059404	2.838909
10.504463644356806	8.134639	2.8521287
10.522064414358338	8.094578	2.845097
10.539665433296118	7.9948454	2.8275158
10.557266701595987	7.9177623	2.8138518
10.574868219683818	7.8372746	2.7995133
10.592469987985552	7.8095503	2.7945573
10.610072006927185	7.6667657	2.7688925
10.627674276934751	7.495352	2.7377641
10.64527679843435	7.380426	2.7166939
10.662879571852143	7.3133397	2.7043188
10.680482597614331	7.2332554	2.6894712
10.698085876147173	7.0401835	2.6533344
10.715689407876988	6.9172635	2.630069
10.733293193230146	6.8217225	2.6118426
10.750897232633072	6.739378	2.5960312
10.76850152651225	6.6350856	2.575866
10.786106075294207	6.4826846	2.5461116
10.803710879405534	6.4973445	2.5489888
10.821315939272877	6.433238	2.536383
10.83892125532294	6.369642	2.523815
10.856526827982472	6.3354836	2.5170386
10.874132657678285	6.3414655	2.5182266
10.891738744837243	6.331461	2.5162394
10.909345089886271	6.2182493	2.4936419
10.926951693252343	6.089228	2.467636
10.944558555362494	6.0058403	2.4506817
10.96216567664381	5.926988	2.4345407
10.979773057523436	5.888808	2.4266865
10.997380698428573	5.842016	2.4170263
11.014988599786477	5.7364416	2.395087
11.032596762024461	5.67123	2.3814344
11.050205185569892	5.582613	2.3627553
11.067813870850198	5.543558	2.3544762
11.085422818292859	5.4694405	2.3386836
11.10303202832541	5.458201	2.3362794
11.120641501375454	5.450763	2.334687
11.138251237870636	5.380616	2.3196156
11.155861238238671	5.3107553	2.3045075
11.173471502907317	5.2316513	2.2872803
11.191082032304402	5.1357493	2.2662191
11.208692826857805	5.0822744	2.25439
11.226303886995465	5.000734	2.236232
11.243915213145371	4.946704	2.2241187
11.261526805735578	4.839297	2.19984
11.279138665194196	4.8129377	2.193841
11.296750791949393	4.7638474	2.1826239
11.314363186429393	4.736399	2.176327
11.331975849062479	4.6885896	2.1653152
11.34958878027699	4.615857	2.1484547
11.36720198050133	4.596383	2.1439178
11.384815450163948	4.5818734	2.140531
11.402429189693366	4.5440903	2.1316872
11.420043199518153	4.467097	2.1135507
11.437657480066942	63.374546	7.960813
11.455272031768422	85.09643	9.224772
11.472886855051353	107.52315	10.369337
11.490501950344528	99.14932	9.957376
11.508117318076819	84.44281	9.189277
11.52573295867715	45.812412	6.7684865
11.543348872574514	4.1231995	2.0305662
11.560965060197946	4.0876775	2.0218005
11.57858152197655	4.039896	2.0099492
11.59619825833949	4.025411	2.0063426
11.613815269715985	4.0308094	2.0076876
11.631432556535323	38.54787	6.208693
11.649050119226837	83.050415	9.1132
11.666667958219929	93.44503	9.666697
11.68428607394406	107.73917	10.379748
11.701904466828756	82.57864	9.087279
11.719523137303586	65.41642	8.088042
11.737142085798196	4.5717864	2.1381736
11.754761312742286	3.6874576	1.9202753
11.772380818565619	3.693495	1.9218467
11.790000603698015	3.6707103	1.9159098
11.80762066856935	3.5902693	1.8948007
11.825241013609572	3.4920743	1.8687092
11.842861639248683	3.5083218	1.8730514
11.860482545916748	3.4825835	1.8661681
11.878103734043883	3.4634705	1.8610401
11.895725204060282	3.388712	1.8408455
11.91334695639619	3.3550088	1.8316684
11.930968991481919	3.3336916	1.82584
11.948591309747824	3.286986	1.8130047
11.966213911624347	3.289134	1.813597
11.98383679754198	3.2862687	1.8128068
12.001459967931268	3.2688746	1.808003
12.019083423222835	3.28101	1.8113558
12.036707163847352	3.3057797	1.8181803
12.05433119023556	3.3101344	1.8193774
12.071955502818259	3.280429	1.8111954
12.089580102026313	3.242478	1.8006881
12.107204988290643	3.1887908	1.7857186
12.12483016204224	3.1503992	1.7749364
12.142455623712152	3.0806894	1.7551893
12.16008137373149	2.9856083	1.7278913
12.177707412531431	2.9516866	1.7180474
12.19533374054321	2.9308739	1.7119795
12.212960358198126	2.9389646	1.7143409
12.230587265927545	2.925466	1.7103994
12.248214464162889	2.8908424	1.7002478
12.265841953335649	2.9265437	1.7107143
12.283469733877375	2.948952	1.7172513
12.301097806219685	2.9859488	1.7279898
12.31872617079425	2.965115	1.721951
12.336354828032825	2.9914534	1.7295818
12.353983778367205	2.969001	1.723079
12.371613022229262	2.988161	1.7286298
12.389242560050928	2.9424984	1.7153713
12.406872392264201	2.87484	1.6955353
12.424502519301143	2.8199365	1.6792667
12.442132941593874	2.821007	1.6795853
12.459763659574586	2.8702419	1.6941788
12.477394673675532	2.8894439	1.6998364
12.49502598432903	2.8711681	1.6944522
12.51265759196746	2.8028436	1.6741695
12.530289497023267	2.7828925	1.6682004
12.547921699928967	2.7518423	1.6588677
12.565554201117134	2.773804	1.665474
12.583187001020404	2.7450747	1.6568267
12.600820100071486	2.7547119	1.6597325
12.618453498703152	2.7757494	1.6660581
12.636087197348235	2.788505	1.6698817
12.65372119643964	2.7831433	1.6682756
12.671355496410326	2.7480843	1.6577346
12.68899009769333	2.7563136	1.6602149
12.706625000721749	2.7754467	1.6659672
12.724260205928752	2.8684013	1.6936356
12.741895713747551	2.896736	1.70198
12.759531524611454	2.9529388	1.7184117
12.777167638953818	2.9357817	1.7134123
12.794804057208072	2.9532135	1.7184917
12.812440779807702	2.996422	1.7310176
12.830077807186271	3.1999614	1.7888436
12.847715139777405	3.2877707	1.8132211
12.865352778014795	3.456625	1.8592001
12.882990722332197	3.573461	1.89036
12.90062897316344	3.5910687	1.8950115
12.918267530942412	3.6424892	1.9085306
12.935906396103071	3.5318081	1.8793106
12.953545569079449	3.744436	1.9350545
12.971185050305628	3.5899189	1.8947082
12.988824840215775	3.6162114	1.9016339
13.006464939244115	3.6009047	1.897605
13.024105347824943	3.4668288	1.8619422
13.041746066392617	3.5381422	1.880995
13.05938709538157	3.3864205	1.840223
13.077028435226296	3.4186413	1.8489568
13.094670086361363	3.3205678	1.8222425
13.112312049221401	3.1986372	1.7884735
13.129954324241112	3.0777612	1.754355
13.147596911855258	2.8703032	1.6941969
13.165239812498685	2.800635	1.6735098
13.182883026606293	2.7436173	1.6563869
13.200526554613058	2.7104087	1.6463319
13.218170396954017	2.7312179	1.6526396
13.235814554064284	2.7205946	1.6494225
13.253459026379034	2.6890967	1.6398466
13.271103814333523	2.6233542	1.6196772
13.288748918363058	2.587472	1.6085621
13.306394338903031	2.6084166	1.6150593
13.32404007638889	2.6618927	1.6315308
13.341686131256164	2.7272809	1.6514481
13.359332503940449	2.7179136	1.6486096
13.376979194877402	2.7202713	1.6493245
13.394626204502751	2.7293553	1.6520761
13.412273533252307	2.740317	1.6553903
13.429921181561937	2.7304707	1.6524136
13.447569149867581	2.7055361	1.6448514
13.465217438605247	2.6938787	1.6413039
13.482866048211022	2.683063	1.6380059
13.500514979121052	2.710423	1.6463362
13.518164231771568	2.715907	1.648001
13.535813806598844	2.6744874	1.635386
13.553463704039254	2.6663458	1.6328949
13.571113924529229	2.662352	1.6316715
13.588764468505275	2.6877584	1.6394385
13.606415336403956	2.7001293	1.643207
13.624066528661917	2.7217019	1.6497581
13.641718045715882	2.7935314	1.6713861
13.659369888002635	2.8463447	1.6871114
13.67702205595903	2.9119036	1.7064301
13.694674550021993	2.9889576	1.7288603
13.712327370628532	3.0469234	1.7455438
13.729980518215713	3.1111753	1.7638524
13.747633993220681	3.1651788	1.7790949
13.765287796080647	3.224995	1.795827
13.7829419272329	3.2686698	1.8079463
13.800596387114801	3.2921505	1.8144284
13.818251176163775	3.3213499	1.8224571
13.835906294817324	3.3979297	1.8433474
13.853561743513023	3.439297	1.8545341
13.871217522688525	3.4583364	1.8596603
13.888873632781538	3.4839153	1.8665249
13.906530074229858	3.5141377	1.8746034
13.92418684747135	3.5224557	1.8768207
13.941843952943948	3.4899788	1.8681484
13.959501391085665	3.4511852	1.8577366
13.977159162334578	3.4249024	1.8506492
13.994817267128846	3.403512	1.8448609
14.012475705906693	3.3484595	1.8298796
14.030134479106424	3.2417707	1.8004918
14.047793587166414	3.1153994	1.7650493
14.065453030525108	3.062369	1.7499626
14.083112809621026	3.0157948	1.7366043
14.100772924892766	3.0216448	1.7382879
14.118433376778997	2.9459527	1.7163777
14.136094165718458	2.871501	1.6945504
14.153755292149969	2.796664	1.672323
14.171416756512416	2.7280781	1.6516895
14.189078559244768	2.6512969	1.6282803
14.20674070078606	2.593379	1.6103972
14.224403181575408	2.505698	1.5829396
14.242066002051999	2.4574683	1.5676314
14.259729162655093	2.429325	1.5586293
14.277392663824022	2.4614735	1.5689083
14.295056505998208	2.4843218	1.5761732
14.312720689617128	2.4842546	1.5761518
14.330385215120348	2.4688683	1.5712633
14.348050082947497	2.4429502	1.562994
14.3657152935383	2.4277437	1.5581218
14.383380847332528	2.4050095	1.5508093
14.401046744770051	2.4160304	1.5543585
14.418712986290798	2.4227111	1.556506
14.436379572334793	2.4034464	1.5503052
14.454046503342123	2.390151	1.5460113
14.471713779752946	2.3872437	1.5450708
14.489381402007504	2.3632376	1.5372826
14.507049370546113	2.3403132	1.5298082
14.524717685809168	2.3640387	1.537543
14.542386348237134	2.4147897	1.5539594
14.560055358270553	2.456461	1.5673101
14.577724716350051	2.506317	1.5831351
14.595394422916325	2.5270193	1.5896602
14.61306447841015	2.500019	1.5811448
14.63073488327237	2.4707012	1.5718465
14.648405637943917	2.4561944	1.5672251
14.6660767428658	2.4657576	1.570273
14.683748198479094	2.4794223	1.5746181
14.701420005224954	2.5190625	1.5871555
14.719092163544628	2.5877826	1.6086587
14.73676467387942	2.6522257	1.6285655
14.754437536670727	2.695132	1.6416857
14.772110752360014	2.745581	1.6569794
14.78978432138882	2.7138028	1.6473624
14.807458244198777	2.689241	1.6398906
14.82513252123159	2.6574526	1.6301695
14.842807152929028	2.6853995	1.6387188
14.860482139732962	2.707451	1.6454334
14.87815748208531	2.6910126	1.6404306
14.8958331804281	2.6765952	1.6360303
14.91350923520342	2.6606512	1.6311502
14.931185646853438	2.6784	1.6365818
14.948862415820408	2.634581	1.6231393
14.966539542546656	2.609222	1.6153086
14.98421702747459	2.5635984	1.601124
15.001894871046696	2.6094422	1.6153768
15.019573073705542	2.6277626	1.6210375
15.037251635893766	2.648594	1.6274501
15.054930558054092	2.6815994	1.6375589
15.072609840629323	2.751578	1.6587881
15.090289484062351	2.867928	1.6934958
15.107969488796124	3.121733	1.7668426
15.125649855273691	3.5233257	1.8770524
15.14333058393817	4.056495	2.0140743
15.161011675232768	5.037787	2.2445016
15.17869312960076	6.42061	2.5338922
15.196374947485506	8.289743	2.8791914
15.214057129330447	11.318979	3.3643692
15.231739675579114	15.936843	3.9920976
15.249422586675102	20.875956	4.569021
15.267105863062092	23.955393	4.8944244
15.284789505183847	24.27613	4.9270816
15.302473513484218	22.110525	4.7021832
15.320157888407127	18.542374	4.3060856
15.337842630396578	14.394263	3.7939773
15.355527739896656	11.165705	3.3415124
15.37321321735153	8.643982	2.940065
15.39089906320545	6.315047	2.5129757
15.408585277902748	4.749467	2.1793272
15.42627186188783	3.728991	1.9310596
15.443958815605198	3.2039087	1.7899466
15.461646139499424	2.9382248	1.714125
15.479333834015168	2.816462	1.6782318
15.497021899597165	2.781387	1.6677492
15.514710336690234	2.6832826	1.6380728
15.53239914573928	2.6155903	1.6172787
15.550088327189297	2.5754688	1.6048267
15.567777881485336	2.5779583	1.6056021
15.58546780907256	2.551191	1.5972449
15.6031581103962	2.500831	1.5814016
15.620848785901568	2.4719698	1.5722499
15.638539836034063	2.430177	1.5589025
15.656231261239173	2.4341435	1.5601742
15.673923061962451	2.439008	1.5617324
15.691615238649552	2.4645243	1.5698804
15.709307791746202	2.4565609	1.5673419
15.727000721698221	2.4190702	1.555336
15.744694028951498	2.3737693	1.5407041
15.76238771395202	2.3422427	1.5304388
15.780081777145844	2.3632426	1.5372841
15.797776218979125	2.3746896	1.5410028
15.815471039898094	2.3804104	1.5428579
15.833166240349064	2.3542838	1.5343676
15.850861820778437	2.3452377	1.5314169
15.868557781632699	2.3387058	1.5292828
15.886254123358412	2.3554528	1.5347484
15.903950846402232	2.3602762	1.536319
15.921647951210897	2.3678215	1.5387727
15.939345438231225	2.3972485	1.548305
15.957043307910133	2.4022532	1.5499203
15.974741560694602	2.3794906	1.5425597
15.992440197031714	2.3595235	1.536074
16.01013921736862	2.3924353	1.54675
16.02783862215259	2.4503388	1.5653558
16.045538411830933	2.450495	1.5654057
16.06323858685107	2.3965998	1.5480956
16.080939147660512	2.3582485	1.535659
16.09864009470684	2.3643022	1.5376288
16.11634142843774	2.4042513	1.5505649
16.134043149300954	2.4062283	1.5512022
16.15174525774433	2.4034514	1.5503069
16.169447754215817	2.4251714	1.5572962
16.18715063916342	2.4151654	1.5540802
16.204853913035244	2.401773	1.5497655
16.222557576279478	2.39685	1.5481764
16.240261629344403	22.430037	4.736036
16.257966072678386	42.98899	6.556599
16.275670906729868	38.062157	6.1694536
16.293376131947387	2.4790423	1.5744975
16.31108174877957	2.5211656	1.5878179
16.328787757675133	2.5582469	1.599452
16.34649415908287	2.5534942	1.5979656
16.364200953451657	2.5603528	1.6001103
16.38190814123048	2.6091518	1.615287
16.39961572286839	2.6727035	1.6348405
16.41732369881455	2.7078712	1.6455611
16.43503206951817	2.7485032	1.657861
16.45274083542859	2.806209	1.6751744
16.47044999699522	2.8514621	1.6886272
16.488159554667558	2.8231328	1.6802181
16.505869508895184	2.8444881	1.686561
16.523579860127786	2.9045234	1.7042662
16.541290608815117	2.9629173	1.7213126
16.559001755407035	3.0034971	1.73306
16.57671330035348	2.9933558	1.7301317
16.59442524410448	3.0899808	1.7578341
16.61213758711015	3.1815763	1.7836974
16.629850329820705	3.2593546	1.8053683
16.647563472686436	3.327488	1.8241403
16.665277016157724	3.3808515	1.8387092
16.682990960685053	3.4284272	1.8516012
16.70070530671898	3.4558933	1.8590033
16.718420054710155	3.491011	1.8684247
16.736135205109335	3.53387	1.8798591
16.753850758367335	3.574425	1.890615
16.771566714935087	3.6378086	1.907304
16.789283075263597	3.7172568	1.9280189
16.80699983980398	3.7626288	1.9397497
16.82471700900741	3.832744	1.9577395
16.84243458332518	3.8893955	1.972155
16.860152563208665	3.992715	1.9981779
16.87787094910932	4.0409307	2.0102067
16.89558974147871	4.084578	2.021034
16.913308940768466	4.1150336	2.0285547
16.931028547430333	4.1873417	2.0462995
16.94874856191613	4.2559724	2.063001
16.966468984677785	4.3430643	2.084002
16.98418981616729	4.382954	2.0935507
17.00191105683676	4.439867	2.1070993
17.019632707138374	4.5099273	2.123659
17.03735476752442	4.499153	2.1211207
17.05507723844728	4.490101	2.118986
17.072800120359403	4.4722514	2.11477
17.090523413713353	4.547362	2.1324544
17.108247118961785	4.6228013	2.15007
17.125971236557437	4.695584	2.1669295
17.143695766953133	4.615018	2.1482592
17.161420710601806	4.6238513	2.1503143
17.179146067956477	4.6368055	2.1533244
17.19687183947025	4.709795	2.1702063
17.21459802559634	4.6451054	2.1552505
17.232324626788028	4.6278644	2.1512473
17.25005164349871	4.6081367	2.146657
17.267779076181863	4.632785	2.1523905
17.285506925291074	4.609784	2.1470408
17.30323519127999	4.57691	2.1393714
17.320963874602384	4.5121756	2.1241882
17.33869297571211	4.4833446	2.1173909
17.356422495063114	4.475812	2.1156116
17.37415243310944	4.4910192	2.1192026
17.391882790305218	4.4655585	2.1131868
17.40961356710468	4.4556613	2.1108437
17.42734476396215	4.460385	2.1119623
17.445076381332044	4.5175734	2.1254585
17.462808419668868	4.630585	2.1518795
17.48054087942723	4.7254915	2.1738195
17.498273761061835	4.993018	2.2345061
17.51600706502747	5.451586	2.3348632
17.533740791779024	6.1384597	2.4775915
17.551474941771485	7.547911	2.7473462
17.56920951545993	8.637749	2.9390047
17.586944513299528	10.905482	3.302345
17.60467993574556	12.583427	3.5473127
17.622415783253373	14.196947	3.7678835
17.64015205627843	15.4812565	3.9346228
17.657888755276293	16.455496	4.0565376
17.675625880702604	16.839796	4.103632
17.69336343301311	16.656559	4.081245
17.71110141266366	15.9101925	3.9887583
17.728839820110178	15.04139	3.878323
17.746578655808705	14.1637745	3.763479
17.764317920215372	12.779004	3.5747733
17.7820576137864	11.321372	3.3647246
17.79979773697811	9.34399	3.0567942
17.81753829024692	7.471601	2.733423
17.835279274049356	5.8358893	2.4157586
17.85302068884201	4.8487067	2.201978
17.870762535081607	4.1955667	2.0483081
17.888504813224934	3.9312735	1.982744
17.90624752372891	3.7468107	1.935668
17.923990667050536	3.605614	1.8988454
17.941734243646895	3.4761627	1.864447
17.959478253975185	3.444063	1.8558186
17.9772226984927	3.4417043	1.8551831
17.994967577656833	3.414738	1.847901
18.01271289192506	3.3782935	1.8380134
18.030458641754965	3.3769643	1.8376518
18.04820482760425	3.3884573	1.8407763
18.06595144993067	3.3348227	1.8261497
18.083698509192125	3.2755466	1.8098471
18.101446005846576	3.2288847	1.7969098
18.119193940352105	3.196975	1.7880087
18.136942313166887	3.1876974	1.7854124
18.1546911247492	3.1690133	1.7801722
18.1724403755574	3.139967	1.7719952
18.19019006604997	3.1206863	1.7665465
18.207940196685467	3.1456282	1.7735919
18.225690767922575	3.16546	1.779174
18.243441780220046	3.1409855	1.7722826
18.261193234036764	3.1186104	1.7659588
18.278945129831676	3.0753384	1.7536643
18.29669746806386	3.0492551	1.7462116
18.314450249192483	3.038541	1.7431412
18.3322034736768	3.0442371	1.7447742
18.349957141976184	3.0519972	1.7469966
18.3677112545501	3.039459	1.7434044
18.385465811858108	3.0573156	1.7485181
18.403220814359884	3.0644283	1.7505509
18.420976262515172	3.0911322	1.7581615
18.43873215678387	3.1094906	1.7633748
18.456488497625923	3.1580935	1.7771026
18.474245285501407	3.2390819	1.799745
18.492002520870486	3.3169246	1.8212426
18.50976020419343	3.3609126	1.8332791
18.527518335930615	3.6152997	1.9013941
18.545276916542516	4.1903524	2.047035
18.563035946489688	4.414416	2.101051
18.580795426232832	4.8753667	2.2080233
18.598555356232698	4.7777214	2.1857998
18.616315736950185	5.042423	2.245534
18.63407656884626	4.645527	2.1553485
18.65183785238201	4.8184004	2.1950855
18.669599588018617	4.633027	2.1524467
18.68736177621737	4.6540174	2.1573172
18.705124417439652	4.64337	2.154848
18.72288751214696	4.450862	2.1097066
18.740651060800886	4.6242666	2.150411
18.758415063863115	4.357525	2.0874686
18.77617952179546	4.5002327	2.121375
18.793944435059814	4.2384176	2.0587418
18.811709804118184	4.235284	2.0579805
18.829475629432675	4.2371206	2.0584266
18.8472419114655	4.057172	2.0142422
18.86500865067897	4.1176805	2.029207
18.88277584753551	3.7721543	1.9422035
18.90054350249763	3.7725194	1.9422975
18.918311616027957	3.4942825	1.8693
18.936080188589226	3.3946657	1.8424618
18.953849220644265	3.0883822	1.7573794
18.971618712656007	2.8636518	1.6922327
18.9893886650875	2.8322852	1.6829394
19.007159078401887	8.030379	2.8337924
19.024929953062408	32.929092	5.7383876
19.042701289532435	32.83278	5.7299895
19.060473088275405	25.36762	5.036628
19.07824534975489	2.6626613	1.6317663
19.096018074434568	2.674626	1.6354284
19.113791262778197	2.6557326	1.6296419
19.13156491524966	2.6267033	1.6207107
19.149339032312945	2.6043725	1.6138068
19.167113614432136	2.6062858	1.6143996
19.184888662071433	2.5775235	1.6054667
19.202664175695123	2.5583053	1.5994703
19.220440155767623	2.5344648	1.5920002
19.238216602753447	2.556588	1.5989333
19.2559935171172	2.5422368	1.5944394
19.27377089932361	2.5192242	1.5872064
19.291548749837514	2.49657	1.5800538
19.309327069123835	2.4832218	1.5758241
19.32710585764763	2.468268	1.5710722
19.344885115874032	2.4767067	1.5737556
19.362664844268313	2.5093684	1.5840986
19.380445043295822	2.5156279	1.586073
19.39822571342203	2.4966	1.5800632
19.41600685511252	2.4765563	1.5737078
19.43378846883297	2.4828138	1.5756947
19.451570555049173	2.4958243	1.5798178
19.469353114227037	2.496186	1.5799323
19.48713614683254	2.506408	1.5831639
19.50491965333182	2.501767	1.5816975
19.52270363419109	2.5018167	1.5817132
19.540488089876686	2.4779625	1.5741545
19.55827302085503	2.4907143	1.5781997
19.576058427592674	2.4996665	1.5810333
19.593844310556282	2.5148396	1.5858246
19.611630670212598	2.49521	1.5796233
19.629417507028506	2.4491503	1.5649761
19.64720482147098	2.4064777	1.5512826
19.6649926140071	2.413581	1.5535704
19.682780885104084	2.4542575	1.566607
19.70056963522921	2.4750433	1.573227
19.718358864849908	2.4773455	1.5739585
19.7361485744337	2.4511986	1.5656304
19.753938764448215	2.4238014	1.5568563
19.771729435361202	2.4290843	1.558552
19.789520587640506	2.4369702	1.5610799
19.807312221754092	2.448589	1.5647968
19.825104338170043	2.4615448	1.5689311
19.842896937356517	2.4903297	1.5780779
19.860690019781824	2.4960194	1.5798795
19.87848358591436	2.5073984	1.5834767
19.896277636222635	2.5131266	1.5852844
19.914072171175278	2.524138	1.5887536
19.931867191241015	2.4975348	1.5803591
19.94966269688869	2.490373	1.5780915
19.967458688587264	2.46423	1.5697867
19.985255166805807	2.4304698	1.5589964
20.00305213201348	2.416179	1.5544063
20.020849584679578	2.4213774	1.5560776
20.038647525273507	2.4406116	1.5622457
20.05644595426477	2.466723	1.5705805
20.07424487212299	2.472848	1.5725292
20.092044279317903	2.4904778	1.5781248
20.109844176319353	2.4748378	1.5731617
20.127644563597304	2.4772882	1.5739404
20.145445441621817	2.4274461	1.5580263
20.16324681086307	2.4093022	1.5521927
20.181048671791373	2.4087343	1.5520098
20.198851024877122	2.39028	1.546053
20.216653870590836	2.3643124	1.5376321
20.234457209403146	2.3401423	1.5297524
20.252261041784802	2.333665	1.5276338
20.270065368206662	2.3528972	1.5339156
20.287870189139685	2.3610182	1.5365605
20.305675505054968	2.375592	1.5412955
20.323481316423702	2.350872	1.5332553
20.341287623717207	2.3470483	1.5320079
20.359094427406884	2.3396716	1.5295985
20.376901727964288	2.319621	1.5230303
20.39470952586107	2.3147812	1.5214405
20.41251782156899	2.2942486	1.5146778
20.430326615559935	2.3221128	1.523848
20.448135908305886	2.3410015	1.5300332
20.465945700278965	2.3304317	1.5265752
20.483755991951384	2.3207397	1.5233974
20.50156678379548	2.338564	1.5292364
20.519378076283708	2.363505	1.5373695
20.537189869888635	2.3651872	1.5379165
20.55500216508294	2.355688	1.5348251
20.572814962339415	2.3544388	1.5344181
20.59062826213098	2.3054817	1.5183812
20.60844206493066	2.2686613	1.5062076
20.626256371211593	2.266217	1.505396
20.644071181447032	2.3032649	1.5176511
20.66188649611036	2.333738	1.5276577
20.67970231567506	2.3364522	1.5285457
20.697518640614742	2.3021839	1.5172949
20.715335471403122	2.301503	1.5170705
20.73315280851404	2.2846036	1.5114905
20.750970652421447	2.2948527	1.5148771
20.768789003599412	2.3219838	1.5238057
20.786607862522136	2.3455653	1.5315238
20.8044272296639	2.3310382	1.5267738
20.82224710549913	2.3071282	1.5189234
20.84006749050237	2.3043685	1.5180147
20.857888385148268	3.8577325	1.9641111
20.8757097899116	45.94075	6.777961
20.893531705267254	64.76426	8.047625
20.911354131690224	83.79479	9.15395
20.92917706965566	69.084496	8.311708
20.94700051963877	50.16088	7.0824347
20.96482448211493	29.419664	5.42399
20.982648957559622	4.1444907	2.0358021
21.00047394644843	2.2607045	1.5035639
21.01829944925707	2.262017	1.5040003
21.036125466461375	2.2519279	1.5006425
21.053951998537297	2.2199242	1.489941
21.071779045960906	2.220643	1.4901822
21.089606609208378	2.2302291	1.4933952
21.10743468875603	2.2001593	1.4832934
21.12526328508028	2.1727142	1.474013
21.143092398657675	2.16543	1.47154
21.16092202996488	2.1489985	1.4659463
21.17875217947867	2.1552453	1.4680754
21.19658284767596	2.1838553	1.4777873
21.21441403503377	2.2151158	1.4883265
21.232245742029225	2.1832054	1.4775674
21.2500779691396	2.1628807	1.4706736
21.26791071684227	2.1656032	1.4715989
21.28574398561475	2.168938	1.4727315
21.30357777593465	2.1682506	1.472498
21.321412088279704	2.1727421	1.4740224
21.339246923127792	2.1595664	1.4695463
21.357082280956888	2.1568632	1.4686263
21.3749181622451	2.1561558	1.4683855
21.392754567470647	2.141392	1.4633496
21.41059149711187	2.113638	1.4538356
21.42842895164726	2.116445	1.4548007
21.446266931555378	2.1262593	1.4581698
21.464105437314945	2.132942	1.4604595
21.481944469404798	2.132087	1.4601668
21.49978402830388	2.1304636	1.4596108
21.51762411449127	2.1024568	1.4499851
21.53546472844617	2.0775614	1.4413748
21.553305870647876	2.093172	1.4467798
21.571147541575865	2.1054096	1.451003
21.58898974170967	2.0620866	1.4359968
21.60683247152899	2.0043604	1.4157543
21.62467573151363	2.0099123	1.4177138
21.642519522143523	2.0473335	1.4308506
21.660363843898722	2.056932	1.4342008
21.6782086972594	2.0748575	1.4404366
21.696054082705864	2.070193	1.4388165
21.713900000718535	2.058834	1.4348638
21.73174645177795	2.0253458	1.4231465
21.749593436364794	2.0353396	1.4266533
21.767440954959845	2.041547	1.4288272
21.785289008044032	2.0380073	1.4275879
21.803137596098388	2.0105908	1.417953
21.820986719604086	2.0221481	1.4220226
21.838836379042412	2.0348215	1.4264717
21.85668657489478	2.0060184	1.4163398
21.87453730764273	1.9932901	1.4118392
21.892388577767914	2.007121	1.416729
21.91024038575213	2.0384555	1.4277449
21.928092732077285	2.0254717	1.4231907
21.945945617225426	2.0314736	1.4252977
21.963799041678694	2.0029387	1.4152522
21.981653005919398	31.337986	5.598034
21.999507510429943	78.14129	8.839756
22.01736255569286	73.092514	8.549416
22.035218142190818	4.160109	2.0396345
22.05307427040661	1.9855142	1.4090828
22.07093094082315	1.984081	1.4085741
22.088788153923474	1.9786421	1.4066421
22.106645910190746	1.9662527	1.4022313
22.12450421010827	2.0022213	1.4149987
22.142363054159464	2.0351024	1.4265702
22.16022244282787	2.0370743	1.4272611
22.178082376597164	1.9825197	1.4080198
22.195942855951145	1.9578794	1.3992424
22.213803881373742	1.9397639	1.3927541
22.231665453349002	1.9643011	1.4015353
22.24952757236111	1.9789337	1.4067458
22.26739023889438	1.9806607	1.4073595
22.28525345343323	1.970317	1.4036798
22.30311721646225	1.9558331	1.398511
22.320981528466113	1.9488467	1.396011
22.33884638992964	1.9109123	1.3823575
22.356711801337788	1.9202465	1.3857296
22.37457776317561	1.9345345	1.3908755
22.392444275928337	1.941254	1.393289
22.410311340081282	1.9469839	1.3953437
22.428178956119904	1.9495282	1.396255
22.446047124529805	1.9861997	1.409326
22.46391584579669	2.0118766	1.4184064
22.481785120406414	1.9828596	1.4081404
22.49965494884496	1.9428067	1.393846
22.51752533159841	1.9228085	1.3866537
22.53539626915302	1.942095	1.3935907
22.553267761995137	1.9216493	1.3862357
22.571139810611264	1.9305104	1.3894281
22.589012415488025	1.9306984	1.3894957
22.60688557711216	1.958206	1.3993591
22.624759295970566	1.954433	1.3980104
22.642633572550263	1.9356607	1.3912803
22.660508407338362	1.9308316	1.3895437
22.67838380082217	1.9391011	1.3925161
22.696259753489077	1.9507641	1.3966975
22.714136265826614	1.9512339	1.3968657
22.73201333832246	1.94005	1.3928568
22.74989097146439	1.8906353	1.3750037
22.76776916574035	1.8923155	1.3756146
22.785647921638393	1.8939868	1.3762219
22.803527239646712	1.8910713	1.3751622
22.82140712025363	1.9000553	1.3784249
22.839287563947593	1.901175	1.378831
22.85716857121719	1.8810006	1.3714957
22.875050142551135	1.8952018	1.3766633
22.892932278438277	1.8832486	1.372315
22.910814979367604	1.8934213	1.3760165
22.928698245828222	1.8609458	1.3641648
22.946582078309387	1.8796872	1.3710169
22.96446647730047	1.8799787	1.3711232
22.98235144329098	1.8680004	1.3667481
23.000236976770562	1.8534434	1.3614123
23.018123078229	1.8611484	1.3642391
23.03600974815619	1.9004035	1.3785512
23.053896987042194	1.9029663	1.3794805
23.071784795377173	1.9161204	1.38424
23.08967317365145	1.9353669	1.3911747
23.10756212235546	1.985932	1.409231
23.125451641979787	1.9473364	1.39547
23.143341733015134	1.9223138	1.3864753
23.161232395952357	1.9295199	1.3890716
23.179123631282426	1.966513	1.4023242
23.197015439496468	1.9780564	1.4064339
23.214907821085717	1.9384348	1.3922769
23.23280077654157	1.9501468	1.3964765
23.250694306355538	1.9842144	1.4086214
23.268588411019277	1.9677476	1.4027642
23.28648309102458	1.9751768	1.4054098
23.304378346863356	1.986674	1.4094942
23.322274179027676	2.0053098	1.4160897
23.340170588009723	1.9475982	1.3955637
23.358067574301852	1.9234428	1.3868824
23.37596513839651	1.9066784	1.3808253
23.39386328078629	1.8979378	1.3776566
23.411762001963947	1.8987354	1.3779461
23.429661302422353	1.9157438	1.384104
23.4475611826545	1.9083314	1.3814237
23.46546164315356	1.9192768	1.3853797
23.48336268441279	1.9343207	1.3907986
23.501264306925638	1.9140552	1.3834939
23.51916651118564	1.9082718	1.3814021
23.537069297686497	1.9086689	1.3815458
23.554972666922037	1.903141	1.3795438
23.57287661938623	1.8823265	1.371979
23.59078115557318	1.9065579	1.3807817
23.608686275977128	1.9310089	1.3896074
23.62659198109246	1.9399621	1.3928252
23.6444982714137	1.921999	1.3863617
23.66240514743549	1.8899553	1.3747565
23.68031260965263	1.9000931	1.3784386
23.698220658560068	1.9273005	1.3882725
23.716129294652845	1.9766756	1.4059429
23.7340385184262	1.9699641	1.4035541
23.75194833037546	1.9365726	1.3916079
23.769858730996123	1.9109223	1.3823612
23.78776972078382	1.909332	1.3817859
23.80568130023431	1.9416312	1.3934243
23.823593469843495	1.9256426	1.3876753
23.841506230107424	1.933062	1.3903459
23.859419581522275	1.8800671	1.3711554
23.87733352458438	1.8305598	1.3529818
23.89524805979019	1.8195007	1.3488886
23.913163187636318	1.8978944	1.3776408
23.931078908619508	2.0030298	1.4152844
23.948995223236633	2.0918152	1.4463109
23.966912131984735	2.085666	1.4441835
23.98482963536096	2.12077	1.4562863
24.002747733862616	2.1278565	1.4587175
24.020666427987155	2.1267812	1.4583488
24.038585718232156	2.0691266	1.4384459
24.056505605095353	2.0375855	1.4274402
24.074426089074617	2.079741	1.4421307
24.092347170667946	2.0725098	1.4396214
24.110268850373515	2.0575044	1.4344003
24.128191128689586	2.0367231	1.4271381
24.146114006114626	2.0426698	1.42922
24.164037483147187	2.0449388	1.4300135
24.181961560286005	2.0437436	1.4295956
24.199886238029926	2.032838	1.4257764
24.21781151687797	2.052703	1.4327257
24.235737397329274	2.0424094	1.4291289
24.253663879883135	2.0268216	1.4236648
24.271590965038975	1.9724495	1.4044392
24.289518653296376	1.9666475	1.4023721
24.30744694515505	1.9400548	1.3928585
24.32537584111486	1.9816904	1.4077252
24.34330534167581	1.986871	1.4095641
24.361235447338046	2.0218267	1.4219096
24.379166158601876	1.9878341	1.4099057
24.39709747596772	1.9692852	1.4033122
24.41502939993615	1.9710814	1.403952
24.432961931007917	1.9715378	1.4041146
24.450895069683856	1.9287066	1.3887788
24.468828816465	1.8888636	1.3743594
24.4867631718525	1.9215517	1.3862004
24.504698136347656	1.9728979	1.4045988
24.52263371045192	1.9776356	1.4062843
24.540569894666874	1.9739021	1.4049562
24.558506689494266	1.956183	1.3986361
24.57644409543597	1.9389806	1.3924729
24.594382112994012	1.9131955	1.3831831
24.61232074267057	1.9256543	1.3876795
24.630259984967953	1.9112682	1.3824862
24.64819984038863	1.9339488	1.3906648
24.66614030943522	1.9685837	1.4030622
24.684081392610462	1.9634348	1.4012262
24.702023090417274	1.9261091	1.3878434
24.7199654033587	1.9545516	1.3980528
24.737908331937927	1.9906025	1.4108871
24.755851876658305	2.059605	1.4351324
24.773796038023324	2.104715	1.4507636
24.79174081653661	2.1499665	1.4662764
24.809686212701962	2.105987	1.4512019
24.827632227023294	2.0647917	1.4369383
24.8455788600047	2.0546782	1.4334148
24.8635261121504	2.0837076	1.4435053
24.88147398396475	2.092647	1.4465984
24.899422475952303	2.0986438	1.4486697
24.917371588617698	2.1228511	1.4570007
24.935321322465768	2.130929	1.4597702
24.953271678001478	2.2376556	1.4958795
24.97122265572994	2.4863567	1.5768186
24.989174256156414	2.8486328	1.6877893
25.00712647978632	3.2356894	1.7988023
25.02507932712521	3.7283742	1.9308999
25.043032798678798	4.244562	2.0602336
25.060986894952933	4.90769	2.2153306
25.078941616453637	5.656616	2.378364
25.096896963687055	6.568695	2.5629466
25.114852937159508	7.6051073	2.757736
25.132809537377444	8.02297	2.8324847
25.150766764847468	8.121997	2.8499117
25.168724620076347	7.6331677	2.7628188
25.186683103570985	6.670002	2.5826347
25.204642215838426	5.5230136	2.3501093
25.222601957385894	4.212398	2.0524127
25.24056232872074	3.2504792	1.8029085
25.25852333035048	2.639402	1.6246237
25.276484962782778	2.256343	1.5021129
25.294447226525435	2.1170995	1.4550256
25.312410122086423	2.0413895	1.428772
25.330373649973843	2.0003328	1.4143312
25.348337810695988	1.9534165	1.3976468
25.366302604761245	1.9603635	1.4001298
25.384268032678207	1.9235946	1.3869371
25.40223409495558	1.9375947	1.391975
25.420200792102257	1.921881	1.3863192
25.438168124627246	1.9370718	1.3917873
25.45613609303974	1.94418	1.3943386
25.474104697849057	1.9923791	1.4115165
25.492073939564698	1.9827012	1.4080843
25.510043818696285	1.928353	1.3886515
25.528014335753614	1.8900797	1.3748018
25.54598549124664	1.8717813	1.3681306
25.56395728568544	1.8582072	1.3631607
25.58192971958028	1.8527671	1.3611639
25.59990279344156	1.8573436	1.3628439
25.617876507779833	1.8566895	1.3626039
25.635850863105826	1.8852327	1.3730378
25.653825859930386	1.8681681	1.3668095
25.671801498764548	1.8794608	1.3709342
25.68977778011949	1.8425711	1.3574134
25.707754704506524	1.8485837	1.3596263
25.725732272437153	1.8349178	1.3545914
25.743710484423012	1.8940016	1.3762273
25.761689340975888	1.9012146	1.3788453
25.77966884260774	1.8676869	1.3666334
25.797648989830662	1.8243235	1.3506752
25.815629783156922	1.8862244	1.3733989
25.83361122309895	1.8662826	1.3661195
25.85159331016929	1.8372858	1.3554652
25.869576044880695	1.807323	1.3443671
25.887559427746034	1.8249886	1.3509214
25.90554345927836	1.8069363	1.3442233
25.92352813999086	1.8786358	1.3706334
25.94151347039689	1.8802153	1.3712094
25.959499451009965	1.8531468	1.3613033
25.97748608234374	1.8558366	1.362291
25.995473364912062	1.8183781	1.3484725
26.013461299228904	1.7715946	1.3310126
26.03144988580839	1.7557259	1.3250381
26.04943912516483	1.8153331	1.347343
26.067429017812675	1.8587223	1.3633497
26.085419564266537	1.8360522	1.35501
26.103410765041186	1.8366048	1.355214
26.12140262065155	1.8395071	1.3562843
26.139395131612723	1.8145516	1.3470529
26.157388298439948	1.7981273	1.3409427
26.17538212164861	1.8223467	1.3499432
26.193376601754295	1.8694689	1.3672853
26.211371739272714	1.8786296	1.3706311
26.229367534719746	1.8793347	1.3708882
26.247363988611433	1.9125458	1.3829483
26.26536110146397	1.947469	1.3955175
26.283358873793727	1.9005151	1.3785917
26.301357306117204	1.8574849	1.3628958
26.319356398951104	1.8551202	1.362028
26.33735615281224	1.8205574	1.3492804
26.35535656821762	1.7962706	1.3402503
26.373357645684404	1.8171896	1.3480318
26.39135938572991	1.8011266	1.3420606
26.409361788871614	1.7946285	1.3396374
26.427364855627165	1.7895551	1.3377426
26.445368586514352	1.7844748	1.3358424
26.46337298205115	1.790468	1.3380837
26.48137804275568	1.8130112	1.3464811
26.499383769146217	1.8116276	1.3459672
26.517390161741215	1.8187203	1.3485994
26.53539722105928	1.8408676	1.3567858
26.553404947619182	1.7835604	1.3355
26.571413341939856	1.742393	1.3199973
26.589422404540397	1.7545456	1.3245926
26.60743213594006	1.7985138	1.3410867
26.62544253665827	1.7758144	1.3325969
26.64345360721459	1.7212569	1.3119668
26.66146534812879	1.7301496	1.3153515
26.679477759920758	1.8127506	1.3463843
26.69749084311057	1.816638	1.3478272
26.71550459821847	1.8291056	1.3524443
26.733519025764842	1.8112276	1.3458185
26.751534126270258	1.800639	1.3418789
26.769549900255434	1.794371	1.3395413
26.787566348241267	1.7943662	1.3395395
26.80558347074881	1.7885932	1.3373829
26.823601268299267	1.7974235	1.3406802
26.841619741414036	1.7926953	1.3389157
26.85963889061465	1.7899278	1.3378818
26.877658716422832	1.8195536	1.3489083
26.89567921936045	1.8251368	1.3509762
26.913700399949544	1.815677	1.3474706
26.93172225871233	1.8154031	1.347369
26.949744796171174	1.8327994	1.3538092
26.967768012848605	1.814197	1.3469213
26.98579190926733	1.7920924	1.3386905
27.003816485950225	1.8032115	1.3428371
27.021841743420318	1.8393738	1.3562351
27.039867682200814	1.8435702	1.3577814
27.057894302815072	1.8497566	1.3600576
27.07592160578664	1.7981943	1.3409677
27.0939495916392	1.7625353	1.3276051
27.111978260896635	1.7844698	1.3358405
27.13000761408296	1.7550002	1.3247643
27.148037651722397	1.7575185	1.3257143
27.166068374339304	1.8020155	1.3423917
27.184099782458215	1.8128881	1.3464353
27.20213187660384	1.7893093	1.3376507
27.22016465730105	1.7916749	1.3385346
27.23819812507487	1.7935615	1.3392391
27.256232280450533	1.7952033	1.339852
27.274267123953383	1.7870828	1.3368182
27.292302656108987	1.795749	1.3400556
27.31033887744306	1.761386	1.3271722
27.32837578848146	1.7572191	1.3256015
27.34641338975026	1.7813807	1.3346838
27.364451681775673	1.8042115	1.3432094
27.382490665084074	1.7990693	1.3412939
27.400530340202046	1.812295	1.346215
27.41857070765629	1.8000365	1.3416544
27.436611767973726	1.7981764	1.340961
27.454653521681404	1.7972436	1.3406131
27.472695969306564	1.7543567	1.3245213
27.490739111376627	1.7340211	1.3168223
27.508782948419153	1.7941375	1.3394542
27.526827480961902	1.8175874	1.3481793
27.54487270953279	1.8253474	1.3510542
27.562918634659898	1.8299612	1.3527606
27.580965256871508	1.8143302	1.3469708
27.599012576696026	1.844132	1.3579882
27.617060594662068	1.8302084	1.352852
27.63510931129842	1.804527	1.3433268
27.65315872713401	1.7482073	1.3221979
27.67120884269797	1.7324553	1.3162277
27.68925965851958	1.7748754	1.3322445
27.707311175128307	1.8579464	1.3630651
27.725363393053787	1.8392781	1.3561999
27.74341631282583	1.7659677	1.3288972
27.7614699349744	1.7859724	1.3364028
27.77952426002968	2.0233204	1.4224347
27.797579288521973	2.100475	1.4493016
27.815635020981784	2.554576	1.598304
27.83369145793979	2.5841234	1.6075208
27.85174859992682	2.4158201	1.5542909
27.869806447473923	2.3018813	1.5171952
27.887865001112267	2.0679078	1.4380221
27.905924261373233	1.9280351	1.388537
27.92398422878836	1.8800614	1.3711534
27.94204490388936	1.8396373	1.3563323
27.96010628720813	1.8445724	1.3581504
27.978168379276728	1.8561506	1.3624061
27.9962311806274	1.8545597	1.3618221
28.014294691792568	1.8461188	1.3587196
28.0323589133048	1.8556957	1.3622392
28.050423845696887	1.7986223	1.3411273
28.068489489501758	1.772923	1.3315115
28.086555845252523	1.7648132	1.3284627
28.104622913482487	1.8116413	1.3459723
28.122690694725115	1.8552965	1.3620927
28.14075918951405	1.8328859	1.3538412
28.15882839838312	1.8656678	1.3658946
28.176898321866304	1.8847697	1.3728691
28.1949689604978	1.8888487	1.3743539
28.213040314811945	1.9158605	1.3841461
28.23111238534327	1.9460919	1.395024
28.249185172626493	1.9322954	1.3900703
28.267258677196473	1.909972	1.3820174
28.285332899588294	1.8981386	1.3777295
28.303407840337172	1.9364413	1.3915608
28.321483499978545	1.9217545	1.3862736
28.33955987904799	1.963609	1.4012883
28.357636978081285	2.0020108	1.4149243
28.37571479761439	1.9756283	1.4055704
28.393793338183425	1.9300188	1.3892511
28.41187260032469	1.9000916	1.3784381
28.429952584574686	1.90259	1.3793441
28.448033291470065	1.9257375	1.3877095
28.46611472154769	1.9671254	1.4025425
28.484196875344566	1.9652288	1.4018662
28.502279753397914	1.9411838	1.3932637
28.52036335624511	1.9734131	1.4047822
28.538447684423716	2.0083406	1.4171593
28.556532738471482	1.9611374	1.4004061
28.574618518926325	1.9299874	1.3892399
28.59270502632635	1.9076177	1.3811654
28.61079226120985	1.949761	1.3963385
28.628880224115274	1.9952096	1.4125189
28.646968915581287	1.9993926	1.4139988
28.66505833614671	2.020228	1.4213473
28.68314848635055	2.0474706	1.4308985
28.701239366732004	2.0401301	1.4283313
28.71933097783044	2.0621727	1.4360267
28.737423320185403	2.0693476	1.4385227
28.75551639433665	2.0922856	1.4464735
28.773610200824074	2.105065	1.4508842
28.791704740187793	2.1108587	1.4528794
28.80980001296809	2.1906734	1.4800923
28.827896019705413	2.2274082	1.4924504
28.845992760940433	2.176094	1.475159
28.86409023721397	2.1362822	1.4616026
28.88218844906704	2.1786292	1.476018
28.900287397040845	2.223395	1.4911053
28.918387081676755	2.2606626	1.5035499
28.936487503516343	2.2784276	1.5094461
28.954588663101365	2.2312055	1.493722
28.97269056097374	2.252994	1.5009977
28.990793197675597	2.2961938	1.5153197
29.00889657374923	2.321522	1.5236541
29.027000689737125	2.3327048	1.5273194
29.04510554618196	2.369739	1.5393957
29.06321114362659	2.3915443	1.5464618
29.08131748261405	2.3936946	1.5471569
29.099424563687567	2.4015408	1.5496905
29.11753238739057	2.449364	1.5650444
29.13564095426663	2.509738	1.5842153
29.15375026485954	2.5152767	1.5859624
29.171860319713275	2.527582	1.5898371
29.18997111937199	2.6202328	1.6187134
29.20808266438002	2.7635272	1.662386
29.226194955281898	2.8324573	1.6829906
29.244307992622335	2.7836926	1.6684402
29.26242177694624	2.7353618	1.6538929
29.2805363087987	2.7565227	1.6602778
29.29865158872498	2.8256955	1.6809806
29.316767617270557	2.9102602	1.7059485
29.334884394981064	2.958636	1.7200686
29.353001922402367	3.0283015	1.7402016
29.37112020008047	3.1109726	1.7637949
29.389239228561596	3.2066998	1.7907261
29.407359008392152	3.3524156	1.8309603
29.42547954011872	3.6150723	1.9013343
29.44360082428809	4.139046	2.0344646
29.46172286144722	5.2089405	2.2823102
29.479845652143283	6.8518243	2.617599
29.497969196923606	8.915366	2.985861
29.516093496335728	11.270774	3.3571973
29.5342185509274	13.860305	3.722943
29.55234436124651	16.085138	4.010628
29.570470927841175	17.355686	4.1660156
29.588598251259686	17.07474	4.132159
29.60672633205055	15.937429	3.992171
29.624855170762405	13.869163	3.7241325
29.642984767944146	11.263726	3.3561475
29.66111512414481	8.695456	2.9488058
29.67924623991366	6.5667386	2.5625648
29.697378115800138	5.068594	2.2513537
29.71551075235387	4.179122	2.04429
29.733644150124675	3.7883322	1.9463638
29.751778309662576	3.5804615	1.8922107
29.769913231517766	3.5093744	1.8733324
29.78804891624066	3.403525	1.8448645
29.806185364381818	3.3566394	1.8321134
29.82432257649206	3.3015707	1.8170224
29.842460553122333	3.2476568	1.8021257
29.86059929482382	3.2369974	1.7991657
29.878738802147872	3.2515125	1.8031951
29.896879075646048	3.2374887	1.7993023
29.915020115870114	3.2247422	1.7957567
29.933161923371976	3.2429225	1.8008116
29.951304498703777	3.1963055	1.7878214
29.969447842417857	3.139899	1.771976
29.987591955066733	3.1795504	1.7831293
30.005736837203123	3.2955606	1.8153679
30.023882489379943	3.313189	1.8202168
30.04202891215028	3.245161	1.8014331
30.060176106067455	3.205583	1.7904142
30.078324071684946	3.1687052	1.7800857
30.09647280955646	3.180388	1.7833642
30.114622320235863	3.2117302	1.7921301
30.132772604277257	3.1706035	1.7806189
30.1509236622349	3.0976064	1.7600018
30.16907549466328	3.0864782	1.7568376
30.18722810211705	3.0712202	1.7524897
30.205381485151097	2.9981015	1.7315027
30.22353564432045	2.944833	1.7160516
30.241690580180403	2.9767113	1.7253149
30.25984629328638	3.0935123	1.7588383
30.278002784194037	3.1329248	1.770007
30.296160053459246	2.9915354	1.7296056
30.314318101638033	2.9032793	1.7039012
30.332476929286646	2.8435893	1.6862946
30.35063653696153	2.8677948	1.6934564
30.368796925219307	2.8774097	1.6962929
30.386958094616844	2.8647513	1.6925576
30.40512004571115	2.8517709	1.6887187
30.423282779059463	2.883971	1.6982259
30.441446295219233	2.9197252	1.7087203
30.459610594748067	2.8587458	1.6907825
30.47777567820382	2.827566	1.6815368
30.495941546144504	2.8272066	1.68143
30.51410819912835	2.8241029	1.6805067
30.532275637713795	2.8250704	1.6807946
30.55044386245946	2.784603	1.668713
30.56861287392416	2.7187083	1.6488506
30.586782672666956	2.7683651	1.6638405
30.604953259247047	2.7382593	1.6547687
30.623124634223885	2.6810157	1.6373807
30.641296798157075	2.687101	1.6392379
30.659469751606462	2.734458	1.6536196
30.677643495132074	2.7552207	1.6598858
30.695818029294152	2.682445	1.6378171
30.713993354653116	2.6372623	1.623965
30.73216947176962	2.6539114	1.629083
30.75034638120448	2.704666	1.6445868
30.768524083518756	2.7576675	1.6606226
30.786702579273673	2.7969284	1.672402
30.80488186903069	2.8267963	1.6813079
30.82306195335144	2.886366	1.6989309
30.841242832797782	3.0461614	1.7453256
30.85942450793176	3.4141922	1.8477533
30.877606979315637	3.7598882	1.9390432
30.895790247511883	4.1213284	2.0301056
30.913974313083134	4.382173	2.093364
30.932159176592283	4.6003613	2.1448452
30.95034483860237	4.7573833	2.1811426
30.968531299676698	4.5990314	2.1445353
30.98671856037873	4.271627	2.0667915
31.00490662127215	3.8364954	1.9586973
31.023095482920848	3.3517907	1.8307897
31.04128514588892	2.9190671	1.7085278
31.059475610740662	2.6877086	1.6394233
31.07766687804056	2.5633564	1.6010486
31.09585894835335	2.5783186	1.6057143
31.11405182224393	2.5468338	1.5958803
31.132245500277417	2.5012927	1.5815476
31.15043998301914	2.4742973	1.57299
31.168635271034628	2.4358392	1.5607175
31.18683136488964	2.4303012	1.5589423
31.20502826515008	2.440876	1.5623304
31.223225972382135	2.388222	1.5453873
31.241424487152155	2.302635	1.5174435
31.259623810026692	2.3022046	1.5173018
31.27782394157253	2.3588262	1.5358471
31.296024882356644	2.3519075	1.533593
31.314226632946237	2.3560417	1.5349402
31.332429193908684	2.3696067	1.5393527
31.350632565811598	2.4047084	1.5507122
31.368836749222787	2.4115696	1.552923
31.387041744710295	2.4565623	1.5673424
31.40524755284232	2.5160782	1.586215
31.423454174187317	2.5639267	1.6012266
31.441661609313922	2.576484	1.605143
31.459869858791002	2.5916662	1.6098653
31.478078923187628	2.5125659	1.5851076
31.496288803073064	2.3630795	1.5372311
31.514499499016807	2.3027992	1.5174977
31.532711011588546	2.287076	1.5123081
31.550923341358178	2.319941	1.5231353
31.56913648889584	2.338816	1.5293188
31.587350454771844	2.3374865	1.528884
31.605565239556732	2.3600738	1.5362532
31.62378084382127	2.351206	1.5333643
31.641997268136382	2.270109	1.5066881
31.660214513073274	2.2510772	1.500359
31.67843257920331	2.2691343	1.5063646
31.6966514670981	2.2173014	1.4890605
31.71487117732944	2.2320786	1.4940143
31.733091710469346	2.3786302	1.5422808
31.751313067090052	2.3532934	1.5340447
31.769535247764008	2.2451375	1.4983783
31.787758253063878	2.1886015	1.4793923
31.805982083562526	2.2080529	1.4859519
31.824206739833024	2.2162302	1.4887009
31.84243222244869	2.2518926	1.5006307
31.860658531983013	2.2286894	1.4928796
31.878885669009737	2.2456954	1.4985645
31.897113634102784	2.2664695	1.5054798
31.91534242783632	2.233755	1.4945753
31.933572050784694	2.2257862	1.4919069
31.951802503522508	2.2033563	1.4843707
31.970033786624548	2.1867769	1.4787755
31.988265900665834	2.1046655	1.4507465
32.006498846221575	2.166367	1.4718584
32.02473262386724	2.229984	1.4933131
32.04296723417845	2.1910627	1.4802239
32.0612026777311	2.1424997	1.463728
32.07943895510129	2.1925619	1.4807302
32.097676066865304	2.184188	1.4778998
32.115914013599685	2.2053823	1.485053
32.13415279588115	2.167549	1.4722598
32.152392414286666	2.0511456	1.4321821
32.1706328693934	2.0489984	1.4314322
32.18887416177875	2.1214736	1.456528
32.20711629202032	2.0949962	1.4474102
32.225359260695924	2.016134	1.4199064
32.243603068383614	2.134382	1.4609524
32.26184771566166	2.2882469	1.5126952
32.28009320310852	2.378991	1.5423977
32.2983395313029	2.1919076	1.4805093
32.31658670082372	2.0139735	1.4191453
32.33483471225012	1.9888794	1.4102764
32.35308356616143	2.0946617	1.4472946
32.371333263137245	2.1098015	1.4525156
32.38958380375734	2.080618	1.4424347
32.407835188601744	2.0257359	1.4232835
32.42608741825067	2.0147502	1.4194189
32.444340493284585	2.076957	1.4411652
32.46259441428416	2.0926526	1.4466003
32.48084918183028	2.1107132	1.4528294
32.49910479650405	2.056918	1.4341959
32.51736125888683	2.0020657	1.4149437
32.53561856956014	1.9551831	1.3982786
32.5538767291058	1.9886602	1.4101987
32.572135738105764	2.0369089	1.4272032
32.59039559714228	2.0834475	1.4434152
32.608656306797776	2.0999484	1.4491199
32.62691786765491	2.002134	1.4149679
32.645180280296586	1.9537746	1.3977748
32.663443545305896	1.9621857	1.4007804
32.68170766326619	1.9810535	1.407499
32.69997263476099	2.0316474	1.4253587
32.7182384603741	2.1503606	1.4664108
32.7365051406895	2.1347396	1.4610748
32.75477267629144	2.0726976	1.4396867
32.77304106776434	2.0485485	1.4312751
32.79131031569289	2.0412376	1.4287188
32.809580420661966	2.119273	1.4557723
32.827851383256714	2.083139	1.4433084
32.84612320406245	2.0160964	1.419893
32.86439588366476	1.9966292	1.4130213
32.88266942264945	2.0321379	1.4255308
32.9009438216025	2.1214414	1.4565169
32.9192190811102	2.132335	1.4602517
32.937495201758985	2.008646	1.4172671
32.95577218413556	1.9323032	1.3900731
32.974050028826866	1.9328581	1.3902726
32.992328736420035	1.9231015	1.3867594
33.010608307502444	1.9374762	1.3919325
33.02888874266169	1.9629954	1.4010694
33.047170042485604	1.9764211	1.4058524
33.06545220756225	2.070402	1.4388891
33.083735238479896	2.0379105	1.427554
33.10201913582707	1.9660622	1.4021634
33.12030390019248	1.923077	1.3867505
33.138589532165135	1.943569	1.3941194
33.15687603233419	1.8999993	1.3784046
33.17516340128909	1.868732	1.3670157
33.19345163961947	1.8984524	1.3778434
33.211740747915215	1.8833418	1.372349
33.23003072676643	1.8442801	1.3580427
33.248321576763466	1.907334	1.3810626
33.266613298496885	1.8999827	1.3783985
33.28490589255747	1.9610248	1.400366
33.30319935953626	1.9481499	1.3957614
33.32149370002451	1.9091101	1.3817055
33.339788914613706	1.8693165	1.3672295
33.358085003895575	1.962429	1.4008672
33.376381968462034	2.0254242	1.423174
33.39467980890529	1.9159504	1.3841786
33.41297852581774	1.8926862	1.3757493
33.43127811979204	2.0008392	1.4145103
33.44957859142105	1.9657701	1.4020592
33.467879941297866	1.9957777	1.41272
33.486182170015844	1.995748	1.4127095
33.50448527816853	1.9947252	1.4123474
33.522789266349754	1.9154577	1.3840007
33.541094135153514	1.7709001	1.3307517
33.55939988517411	1.7470368	1.3217552
33.57770651700602	1.8425603	1.3574094
33.59601403124398	1.8563012	1.3624614
33.61432242848296	1.8480384	1.3594258
33.632631709318154	1.9469235	1.395322
33.650941874344994	2.0494115	1.4315766
33.66925292415916	2.075131	1.4405315
33.68756485935654	2.014825	1.4194454
33.70587768053328	1.9122866	1.3828546
33.724191388285746	1.8402176	1.3565462
33.74250598321054	1.7951611	1.3398362
33.760821465904506	1.8363693	1.355127
33.77913783696474	1.8207835	1.3493642
33.79745509698852	1.8413445	1.3569615
33.815773246573414	1.90869	1.3815534
33.8340922863172	1.9265889	1.3880162
33.852412216817896	1.8868897	1.373641
33.87073303867377	1.8707114	1.3677396
33.889054752483304	1.8310865	1.3531765
33.907377358845245	1.851233	1.3606002
33.92570085835853	1.870069	1.3675047
33.94402525162239	1.7413727	1.3196108
33.96235053923627	1.7965447	1.3403524
33.980676721799824	1.8662816	1.3661191
33.999003799912984	1.876369	1.3698062
34.01733177417592	1.9212945	1.3861077
34.03566064518901	1.9819776	1.4078273
34.0539904135529	1.900843	1.3787106
34.07232107986846	1.8886349	1.3742762
34.090652644736785	2.0515952	1.4323391
34.108985108759235	2.2219272	1.490613
34.12731847253742	2.0889504	1.4453201
34.14565273667313	1.8907377	1.375041
34.16398790176847	1.8734868	1.3687537
34.18232396842574	2.0218785	1.4219277
34.20066093724749	2.0911503	1.446081
34.21899880883651	1.9716616	1.4041587
34.23733758379583	1.841436	1.3569952
34.25567726272874	1.8957921	1.3768777
34.27401784623872	1.9827428	1.408099
34.29235933492957	2.012838	1.4187452
34.31070172940526	2.0053563	1.416106
34.32904503027003	2.0131521	1.4188559
34.347389238128386	2.0873647	1.4447715
34.36573435358502	2.0304024	1.4249219
34.38408037724492	1.8613658	1.3643188
34.402427309713296	1.7491902	1.3225695
34.42077515159559	1.8311232	1.3531901
34.43912390349752	1.9635763	1.4012767
34.45747356602499	1.8982813	1.3777813
34.47582413978423	1.9688265	1.4031488
34.49417562538163	2.06158	1.4358203
34.51252802342388	2.014827	1.419446
34.53088133451789	1.8466173	1.358903
34.54923555927084	1.8790178	1.3707727
34.567590698290104	1.93902	1.392487
34.58594675218336	1.8810979	1.3715312
34.6043037215585	1.8226769	1.3500655
34.62266160702365	1.8356462	1.3548602
34.641020409187234	1.9386271	1.3923459
34.65938012865785	2.064206	1.4367344
34.677740766044394	2.0886943	1.4452316
34.69610232195598	2.0384736	1.4277512
34.714464797002016	2.083602	1.4434687
34.73282819179208	2.1162126	1.4547209
34.751192506936064	2.0001414	1.4142636
34.76955774304408	1.9853051	1.4090085
34.7879239007265	2.0728197	1.4397291
34.80629098059391	2.1159678	1.4546367
34.824658983257194	2.035353	1.4266579
34.843027909327446	2.0593145	1.4350312
34.86139775941603	1.9771441	1.4061096
34.879768534134534	1.850466	1.3603183
34.89814023409483	1.804293	1.3432398
34.91651285990901	1.9227526	1.3866335
34.93488641218944	2.0625582	1.4361609
34.95326089154871	2.1219487	1.456691
34.97163629859967	2.1285055	1.4589398
34.99001263395542	2.1163642	1.454773
35.00838989822934	2.0603695	1.4353987
35.02676809203499	1.8974676	1.377486
35.04514721598624	1.9633969	1.4012127
35.063527270697215	1.9801947	1.4071939
35.081908256782256	1.8299783	1.3527669
35.10029017485597	1.8111988	1.3458079
35.11867302553321	1.9500412	1.3964387
35.137056809429104	2.0231805	1.4223855
35.155441527159006	1.9792609	1.4068621
35.173827179338524	1.9891261	1.4103638
35.19221376658354	1.828103	1.3520736
35.21060128951017	1.7261646	1.3138359
35.2289897487348	1.9203218	1.3857567
35.24737914487405	2.0057335	1.4162393
35.26576947854479	1.9872177	1.409687
35.28416075036418	2.1594205	1.4694967
35.30255296094958	2.3331616	1.527469
35.32094611091867	2.3288076	1.526043
35.33934020088932	2.112497	1.4534432
35.35773523147969	1.9196701	1.3855217
35.3761312033082	2.1584513	1.4691669
35.394528116993506	2.297097	1.5156177
35.41292597315452	2.151177	1.4666891
35.431324772410434	2.1730828	1.474138
35.449724515380666	2.30426	1.5179789
35.46812520268491	2.32198	1.5238044
35.486526834943106	2.4279492	1.5581878
35.504929412775454	2.213021	1.4876226
35.52333293680242	1.8791382	1.3708166
35.54173740764471	1.892637	1.3757315
35.560142825923286	1.9739269	1.404965
35.5785491922594	1.535893	1.2393115
35.59695650727454	1.3715743	1.1711423
35.61536477159042	1.4327071	1.1969575
