0.008763373481513119	0.051685803	0.22734512
0.026290120649546365	0.18429624	0.4292974
0.043816868432600686	0.12367553	0.35167533
0.06134361724069026	0.08536854	0.29217896
0.07887036748382949	0.028549677	0.1689665
0.0963971195720331	0.056627702	0.23796576
0.11392387391531617	0.046409275	0.21542811
0.1314506309236943	0.09165946	0.30275312
0.1489773910071836	0.08458745	0.29083923
0.16650415457580078	0.06693237	0.25871292
0.18403092203956356	0.06090047	0.2467802
0.20155769380849	0.08529978	0.29206127
0.2190844702925996	0.17156225	0.41420075
0.2366112519019124	0.19989938	0.4471011
0.2541380390464497	0.21475689	0.4634187
0.27166483213623416	0.16723228	0.40894043
0.28919163158128947	0.10383202	0.32222977
0.3067184377916406	0.05350338	0.23130797
0.324245251177314	0.057331398	0.23943976
0.34177207214833777	0.06957728	0.26377505
0.3592989011147415	0.11805309	0.34358856
0.37682573848655654	0.17612767	0.41967568
0.39435258467381573	0.2540061	0.5039902
0.41187944008655414	0.30572638	0.5529253
0.42940630513480854	0.2600381	0.5099393
0.446933180228618	0.1990156	0.44611165
0.4644600657780234	0.15048914	0.3879293
0.48198696219306775	0.14122926	0.3758048
0.49951386988379676	0.11053429	0.33246696
0.5170407892602581	0.11682552	0.34179747
0.5345677207325025	0.12396987	0.35209355
0.5520946647105822	0.16484618	0.40601254
0.5696216216045534	0.15592478	0.3948731
0.5871485918244737	0.1460134	0.382117
0.6046755757804043	0.12852454	0.3585032
0.6222025738824094	0.15358593	0.3919004
0.6397295865405557	0.15090576	0.3884659
0.6572566141649129	0.17548786	0.4189127
0.6747836571655547	0.17180672	0.41449574
0.6923107159525568	0.17606932	0.41960615
0.7098377909359992	0.1893457	0.4351387
0.7273648825259653	0.17785154	0.4217245
0.7448919911325411	0.22597599	0.47536933
0.762419117165817	0.2369317	0.4867563
0.7799462610358868	0.23690479	0.48672867
0.7974734231528482	0.1907128	0.43670675
0.8150006039268024	0.20179716	0.4492184
0.8325278037678551	0.19197512	0.43814966
0.8500550230861152	0.2528006	0.50279284
0.8675822622916969	0.2380566	0.48791045
0.8851095217947171	0.20670357	0.45464665
0.9026368020052984	0.17942278	0.42358327
0.9201641033335665	0.20988886	0.4581363
0.9376914261896523	0.22760363	0.47707823
0.9552187709836915	0.25250506	0.5024988
0.9727461381258234	0.24318188	0.49313477
0.990273528026193	0.26168123	0.51154786
1.0078009410949496	0.24016272	0.490064
1.0253283777422473	0.24344133	0.49339774
1.0428558383782454	0.26697373	0.516695
1.0603833234131086	0.26831535	0.51799166
1.0779108332570058	0.2958126	0.5438866
1.0954383683201119	0.29255196	0.54088074
1.112965929012607	0.3571648	0.59763265
1.1304935157446763	0.51509786	0.71770316
1.1480211289265108	0.5764017	0.75921124
1.1655487689683062	1.3584727	1.1655353
1.1830764362802655	1.6704854	1.2924726
1.200604131272596	2.0795178	1.4420533
1.2181318543555117	2.4169497	1.5546542
1.235659605939232	2.3663607	1.538298
1.253187386433982	3.7252107	1.9300805
1.270715196249994	6.2116117	2.4923105
1.2882430357975057	12.113488	3.4804437
1.3057709054867608	17.41545	4.173182
1.3232988057280106	23.112259	4.807521
1.3408267369315112	27.644934	5.257845
1.358354699507526	31.131147	5.5795293
1.3758826938663256	35.28717	5.9403005
1.3934107204181858	37.42646	6.117717
1.410938779573391	37.596516	6.1316
1.4284668717422309	38.19404	6.1801324
1.4459949973350033	37.71153	6.140971
1.4635231567620117	38.237137	6.1836185
1.4810513504335687	37.657448	6.1365666
1.4985795787599925	36.949688	6.0786257
1.5161078421516088	36.663246	6.0550184
1.5336361410187505	35.91491	5.992905
1.5511644757717598	36.062317	6.005191
1.5686928468209842	36.068657	6.0057187
1.58622125457678	36.44108	6.0366445
1.6037496994495108	37.136414	6.0939655
1.621278181849548	37.221874	6.100973
1.6388067021872719	38.573845	6.2107844
1.6563352608730693	38.23822	6.183706
1.673863858317336	37.3014	6.107487
1.6913924949304753	36.243896	6.0202904
1.7089211711228998	34.8311	5.9017878
1.7264498873050296	33.93933	5.8257475
1.7439786438872935	33.347218	5.774705
1.7615074412801288	32.677895	5.7164583
1.779036279893981	32.0354	5.659982
1.796565160139305	30.69845	5.5406184
1.814094082426564	30.182074	5.4938216
1.8316230471662298	29.22407	5.405929
1.849152054768784	28.5964	5.34756
1.8666811056447168	28.274488	5.317376
1.8842102002045273	27.53269	5.24716
1.901739338858724	27.002111	5.196356
1.9192685220178245	26.203032	5.11889
1.9367977500923557	25.448542	5.044655
1.9543270234928547	25.065952	5.006591
1.971856342629867	24.309727	4.9304895
1.9893857079139496	23.696177	4.8678718
2.006915119755667	23.085917	4.8047805
2.0244445785655945	22.47891	4.741193
2.0419740847543175	22.07612	4.698523
2.0595036387324317	21.431349	4.6294003
2.0770332409105414	21.124279	4.5961156
2.094562891699263	20.840685	4.56516
2.1120925915092217	20.53324	4.5313616
2.129622340751053	20.31118	4.5067925
2.1471521398354043	188.56776	13.7319975
2.1646819891729323	444.87708	21.09211
2.182211889174303	441.01703	21.000406
2.1997418402501974	453.26367	21.28999
2.2172718428113023	432.93622	20.80712
2.234801897268317	320.738	17.90916
2.2523320040319548	17.12608	4.1383667
2.269862163512935	17.218328	4.1494975
2.287392376121992	16.787327	4.0972342
2.304922642269869	16.467804	4.058054
2.322452962367322	16.192112	4.0239425
2.3399833368251164	16.07457	4.0093102
2.357513766054032	15.890361	3.9862716
2.3750442504648586	15.549053	3.9432287
2.3925747904683963	15.070689	3.8820987
2.410105386475459	14.757876	3.8415983
2.4276360388968707	14.453107	3.8017242
2.445166748143469	14.176732	3.7652001
2.4626975146261025	13.789528	3.7134254
2.4802283387556323	13.390446	3.6592958
2.4977592209429305	13.250177	3.6400793
2.5152901615988825	13.140422	3.6249719
2.5328211611343865	13.172606	3.6294086
2.5503522199603523	12.786447	3.575814
2.5678833384877024	12.417537	3.5238526
2.5854145171273712	12.346892	3.5138144
2.6029457562903064	12.224326	3.4963305
2.620477056387469	12.186974	3.4909847
2.6380084178298326	11.863051	3.444278
2.655539841028383	11.511887	3.3929172
2.673071326394119	11.156954	3.3402026
2.6906028743380523	10.992557	3.3155024
2.708134485271211	10.909176	3.3029041
2.7256661596046325	10.9150715	3.3037965
2.743197897749369	10.740012	3.2771957
2.760729700116486	10.523155	3.2439413
2.778261567117063	10.22356	3.1974304
2.795793499162193	10.138725	3.1841364
2.8133254966629817	10.036748	3.1680827
2.830857560030551	9.96445	3.1566517
2.8483896896760337	9.805651	3.1313975
2.865921886010578	9.720525	3.1177757
2.883454149445347	9.653354	3.1069846
2.9009864803915177	9.554683	3.091065
2.91851887926028	9.471297	3.0775473
2.9360513464628384	9.355249	3.0586352
2.953583882410413	9.221571	3.036704
2.9711164875142373	9.102657	3.017061
2.9886491621855606	8.965691	2.9942763
3.0061819068356455	8.901396	2.9835207
3.023714721875769	8.681896	2.9465058
3.041247607717225	8.543402	2.9229097
3.0587805647713213	8.390348	2.8966098
3.0763135934493806	8.307861	2.8823361
3.0938466941627407	8.087149	2.8437912
3.1113798673227544	7.879196	2.8069906
3.1289131133407904	7.788471	2.7907832
3.1464464326282315	7.7837515	2.7899375
3.1639798255964786	7.8062053	2.7939587
3.1815132926569443	7.7952933	2.7920053
3.1990468342210603	7.7707653	2.7876093
3.216580450700272	7.7690315	2.7872982
3.2341141425060416	7.73216	2.7806761
3.251647910049847	7.5443115	2.746691
3.2691817537431813	7.402222	2.7207024
3.286715673997555	7.3111486	2.7039137
3.3042496712244938	7.275306	2.6972775
3.32178374583554	7.2394834	2.6906288
3.339317898242251	7.1255713	2.6693766
3.3568521288562034	6.9873257	2.643355
3.3743864380889876	6.8226967	2.6120293
3.3919208263522127	6.7679315	2.6015248
3.4094552940575023	6.71228	2.5908067
3.4269898416164972	6.7886906	2.6055117
3.444524469440858	6.7954974	2.6068175
3.4620591779422587	6.7344065	2.5950735
3.479593967532391	6.554709	2.5602167
3.4971288386229658	6.4168825	2.5331566
3.5146637916257086	6.4600334	2.5416596
3.5321988269523628	6.565077	2.5622406
3.5497339450146903	6.5119214	2.5518467
3.5672691462244708	6.419964	2.5337648
3.5848044309934988	6.3598285	2.5218701
3.60233979973359	6.339007	2.5177383
3.619875252856575	6.398027	2.529432
3.6374107907743034	6.355262	2.5209644
3.6549464138986427	6.3548083	2.5208745
3.6724821226414788	6.3470182	2.5193288
3.690017917414714	6.354798	2.5208724
3.7075537986302702	6.4248695	2.5347326
3.7250897667000857	6.4791884	2.545425
3.7426258220361235	6.707905	2.5899622
3.7601619650503553	7.012481	2.648109
3.777698196154779	7.4909496	2.73696
3.7952345157614067	8.391933	2.8968835
3.8127709242822716	9.268925	3.0444908
3.830307422129425	11.592418	3.404764
3.847844009714936	30.541075	5.526398
3.8653806874508954	97.97492	9.898229
3.882917455749409	97.27096	9.862604
3.900454315022606	97.03596	9.850683
3.917991265682631	41.595924	6.44949
3.9355283081416506	11.15731	3.340256
3.9530654428118495	8.808936	2.9679852
3.970602670105433	7.548908	2.7475276
3.9881399904346244	6.662536	2.581189
4.005677404211669	6.5802617	2.565202
4.023214911848827	6.580305	2.5652106
4.0407525137583855	6.601646	2.569367
4.058290210352644	6.606122	2.5702376
4.075828002043927	6.518042	2.5530457
4.0933658892445814	6.390475	2.5279388
4.110903872366966	6.3443904	2.5188074
4.128441951823468	6.34317	2.5185652
4.145980128026488	6.377014	2.525275
4.163518401388452	6.394473	2.5287294
4.181056772321807	6.381421	2.5261474
4.1985952412390155	6.390152	2.527875
4.216133808552567	6.2929397	2.5085733
4.233672474674966	6.2862353	2.5072365
4.251211240018741	6.4984	2.549196
4.268750104996445	6.8215995	2.6118193
4.286289070020643	7.8284817	2.7979424
4.303828135503928	9.444219	3.0731447
4.3213673018589125	29.589348	5.439609
4.3389065694982305	90.78324	9.528024
4.356445938834537	166.09053	12.887611
4.3739854102805085	171.8718	13.109988
4.391524984248844	172.82913	13.146449
4.409064661152262	136.98302	11.703975
4.426604441403504	97.23529	9.860796
4.444144325415337	76.29537	8.734722
4.461684313600543	21.993437	4.689716
4.47922440637193	22.228958	4.71476
4.496764604142329	20.723112	4.5522647
4.5143049073245916	19.037338	4.3631797
4.531845316331589	16.830385	4.102485
4.5493858315762195	13.82071	3.7176216
4.566926453471405	11.3926735	3.3753035
4.584467182430081	9.451818	3.0743809
4.602008018865218	8.377201	2.8943396
4.619548963189798	7.651393	2.7661152
4.637090015816834	7.0594707	2.6569664
4.654631177159353	6.7375827	2.5956855
4.672172447630417	6.4468803	2.5390708
4.689713827643102	6.400341	2.5298896
4.7072553176105085	6.177309	2.4854193
4.724796917945764	6.027479	2.4550924
4.742338629062015	5.9115715	2.4313724
4.759880451372434	5.791201	2.4064915
4.777422385290215	5.729577	2.3936534
4.794964431228581	5.7282486	2.3933759
4.812506589600768	5.7703505	2.4021554
4.830048860820047	5.7743654	2.4029908
4.847591245299709	5.771018	2.4022944
4.8651337434530655	5.678768	2.3830166
4.882676355693457	5.6144466	2.3694823
4.900219082434242	5.594717	2.3653154
4.917761924088813	5.535476	2.3527594
4.935304881070575	5.4417453	2.3327549
4.952847953792969	5.5036826	2.3459928
4.970391142669449	5.4820127	2.3413699
4.9879344481135055	5.5038023	2.3460183
5.005477870538642	5.444892	2.3334293
5.023021410358394	5.3432574	2.3115487
5.040565067986324	5.3087654	2.3040757
5.05810884383601	5.3364515	2.310076
5.075652738321066	5.3575644	2.3146412
5.09319675185512	5.389094	2.3214421
5.110740884851836	5.4495926	2.3344362
5.128285137724894	5.3781257	2.3190787
5.145829510888007	5.4351883	2.3313491
5.163374004754908	5.462325	2.3371618
5.1809186197393595	5.4568	2.3359795
5.198463356255145	5.422852	2.3287017
5.216008214716077	5.3866196	2.3209093
5.233553195535998	5.3674417	2.316774
5.251098299128764	5.3619404	2.3155863
5.268643525908272	5.3956823	2.3228607
5.286188876288432	5.424014	2.3289514
5.3037343506831895	5.4757237	2.3400264
5.32127994950651	5.417947	2.3276484
5.3388256731723915	5.3729177	2.3179555
5.356371522094851	5.2747016	2.2966719
5.373917496687938	5.1833444	2.276696
5.391463597365729	5.1561937	2.2707255
5.40900982454232	5.2049184	2.281429
5.426556178631843	5.2707844	2.2958188
5.444102660048449	5.2892094	2.299828
5.4616492692063225	5.326551	2.3079321
5.479196006519669	5.232276	2.287417
5.496742872402727	5.24016	2.2891395
5.514289867269756	5.23712	2.2884755
5.531836991535049	5.259219	2.2932987
5.549384245612924	5.1855254	2.277175
5.566931629917724	5.15263	2.2699404
5.584479144863822	5.1555586	2.2705855
5.6020267908656205	5.193825	2.2789965
5.619574568337545	5.2804813	2.2979298
5.637122477694054	5.2460213	2.2904193
5.654670519349629	5.234533	2.2879102
5.672218693718784	5.1916833	2.2785265
5.689767001216059	5.220821	2.2849116
5.707315442256021	5.240433	2.2891994
5.724864017253266	5.240302	2.2891705
5.7424127266224225	5.258106	2.293056
5.75996157077814	5.1881146	2.2777433
5.777510550135105	5.2567124	2.2927523
5.795059665108022	5.2626934	2.2940562
5.812608916111639	5.3432975	2.3115573
5.830158303560715	5.4544425	2.3354747
5.847707827870055	5.4004483	2.3238864
5.86525748945448	5.382603	2.3200438
5.8828072887288485	5.4678574	2.338345
5.900357226108044	5.628509	2.372448
5.917907302006979	5.783068	2.4048011
5.9354575168406	6.3950973	2.528853
5.9530078710238765	6.892291	2.6253173
5.970558364971812	7.383136	2.7171926
5.988108999099438	7.609827	2.7585914
6.005659773821818	8.135456	2.852272
6.023210689554039	7.8820763	2.8075035
6.040761746711227	8.247427	2.8718333
6.058312945708531	7.6723194	2.7698953
6.075864286961132	7.260312	2.6944966
6.093415770884244	6.6335115	2.5755603
6.1109673978931065	6.12259	2.4743867
6.128519168402993	5.564032	2.35882
6.146071082829204	5.4097285	2.3258822
6.163623141587075	5.3174057	2.3059502
6.181175345091969	5.2864246	2.2992227
6.198727693759281	5.2903056	2.3000665
6.216280188004435	5.33823	2.310461
6.233832828242885	5.3610563	2.3153956
6.251385614890126	5.360922	2.3153665
6.268938548361669	5.3277717	2.3081965
6.286491629073067	5.2232385	2.2854404
6.304044857439898	5.1370983	2.2665167
6.321598233877777	4.9564924	2.2263181
6.339151758802344	4.8817387	2.2094657
6.356705432629277	4.8781133	2.208645
6.37425925577428	4.847076	2.2016075
6.391813228653095	4.8798614	2.2090409
6.409367351681486	4.920397	2.2181966
6.426921625275259	5.0215993	2.2408924
6.44447604985025	5.028845	2.2425086
6.46203062582232	5.0036473	2.2368834
6.47958535360737	5.046008	2.2463322
6.497140233621328	5.1282434	2.2645626
6.514695266280161	5.17602	2.2750869
6.532250451999859	5.1413736	2.2674596
6.549805791196454	5.1697354	2.2737052
6.567361284286002	5.123086	2.2634234
6.584916931684597	5.055602	2.2484665
6.602472733808367	4.9631248	2.227807
6.6200286910734665	4.968253	2.228958
6.637584803896092	5.053135	2.247918
6.655141072692462	5.0204515	2.2406363
6.672697497878842	5.0539756	2.2481048
6.690254079871514	5.0375776	2.2444549
6.707810819086808	5.0217576	2.240928
6.725367715941078	5.010873	2.238498
6.742924770850719	5.007657	2.2377794
6.760481984232151	5.056827	2.248739
6.778039356501836	5.0212054	2.2408047
6.795596888076266	5.0192356	2.240365
6.813154579371963	5.0087924	2.238033
6.830712430805492	5.036522	2.2442198
6.84827044279344	5.0008636	2.2362611
6.865828615752445	5.002173	2.236554
6.883386950099159	5.0771465	2.2532525
6.900945446250287	5.1227555	2.2633505
6.918504104622553	5.1470485	2.2687109
6.936062925632727	5.1268034	2.2642446
6.953621909697607	5.150152	2.2693946
6.971181057234028	5.1729236	2.2744062
6.988740368658859	5.1836953	2.276773
7.006299844389007	5.283454	2.2985766
7.023859484841407	5.379481	2.3193707
7.041419290433036	5.496883	2.3445432
7.058979261580902	5.5747304	2.3610866
7.0765393987020495	5.795819	2.4074507
7.094099702213559	6.1237755	2.4746263
7.111660172532549	6.4504023	2.5397642
7.129220810076164	6.8293605	2.6133046
7.146781615261595	7.479255	2.7348228
7.16434258850606	7.7337036	2.7809536
7.181903730226821	8.237024	2.8700216
7.1994650408411704	8.303876	2.8816447
7.217026520766437	8.424164	2.902441
7.234588170419983	8.645915	2.9403937
7.252149990219215	8.606045	2.9336061
7.269711980581568	8.50068	2.9155927
7.2872741419245175	8.279898	2.8774812
7.304836474665574	7.8516846	2.8020856
7.322398979222286	7.542293	2.7463236
7.339961656012233	7.288291	2.6996834
7.357524505453039	6.944823	2.6353033
7.375087527962357	6.602422	2.5695179
7.392650723957886	6.309101	2.5117924
7.410214093857353	5.9766774	2.4447243
7.427777638078528	5.7907887	2.4064057
7.445341357039213	5.64978	2.3769267
7.4629052511572525	5.491033	2.3432953
7.480469320850524	5.3637953	2.3159869
7.498033566536948	5.2615976	2.2938173
7.5155979886344735	5.2552114	2.2924247
7.5331625875610975	5.227149	2.286296
7.550727363734844	5.285172	2.2989502
7.568292317573788	5.2436166	2.2898943
7.585857449496025	5.268171	2.2952497
7.603422759919705	5.2652864	2.2946212
7.620988249263007	5.236437	2.2883263
7.638553917944147	5.1993155	2.2802007
7.656119766381391	5.2079825	2.2821004
7.673685794993023	5.2788987	2.2975855
7.691252004197388	5.2227173	2.2853265
7.70881839441285	5.2322397	2.287409
7.726384966057826	5.1681724	2.2733614
7.743951719550762	5.1844735	2.276944
7.761518655310149	5.243541	2.289878
7.779085773754511	5.2915506	2.300337
7.796653075302419	5.365975	2.3164575
7.814220560372475	5.3796086	2.3193984
7.831788229383323	5.4415812	2.3327198
7.8493560827536495	5.4234896	2.3288386
7.866924120902174	5.4451146	2.333477
7.884492344247663	5.436656	2.3316638
7.9020607532089135	5.432092	2.330685
7.919629348204771	5.326929	2.3080142
7.937198129654115	5.348652	2.3127153
7.954767097975865	5.371044	2.3175514
7.972336253588986	5.412786	2.3265395
7.989905596912472	5.4346666	2.331237
8.007475128365371	5.455474	2.3356955
8.025044848366756	5.528502	2.3512766
8.042614757335754	5.69756	2.3869562
8.060184855691523	5.7243114	2.3925533
8.07775514385327	5.839361	2.416477
8.095325622240228	5.82024	2.4125173
8.112896291271687	5.829935	2.4145257
8.130467151366968	5.8324456	2.4150457
8.148038202945436	5.9037027	2.4297535
8.165609446426497	5.91101	2.4312568
8.183180882229594	6.0029793	2.4500978
8.200752510774217	5.944175	2.438068
8.218324332479893	5.9509115	2.439449
8.235896347766193	5.9279046	2.4347289
8.253468557052724	5.999499	2.4493876
8.27104096075914	6.0644393	2.4626083
8.288613559305137	6.1394935	2.4778001
8.306186353110448	6.2589455	2.5017884
8.32375934259485	6.2695956	2.503916
8.341332528178162	6.3001523	2.5100105
8.358905910280246	6.334526	2.5168483
8.376479489321003	6.2937346	2.5087316
8.394053265720377	6.363544	2.5226066
8.411627239898356	6.3110805	2.5121863
8.42920141227497	6.3370657	2.5173528
8.44677578327029	6.32772	2.515496
8.464350353304427	6.269932	2.5039833
8.48192512279754	6.2615232	2.5023036
8.499500092169827	6.189725	2.4879158
8.51707526184153	6.1888223	2.4877343
8.534650632232934	6.1700306	2.4839547
8.552226203764365	6.2105184	2.4920912
8.569801976856192	6.2269697	2.4953897
8.587377951928834	6.309528	2.5118773
8.60495412940274	6.3001757	2.510015
8.622530509698416	6.3600297	2.52191
8.6401070932364	6.505864	2.5506597
8.657683880437283	6.6441216	2.5776193
8.675260871721695	6.828567	2.6131527
8.692838067510303	6.8582635	2.6188285
8.710415468223834	6.9446936	2.6352787
8.727993074283043	7.122037	2.6687145
8.745570886108737	7.210344	2.6852083
8.763148904121765	7.3620234	2.7133048
8.78072712874302	7.4236746	2.724642
8.798305560393441	7.6975627	2.7744482
8.815884199494006	7.843542	2.8006325
8.833463046465745	7.999999	2.8284268
8.851042101729728	8.104228	2.8467927
8.86862136570707	8.318182	2.884126
8.886200838818924	8.418661	2.9014928
8.903780521486505	8.391487	2.8968065
8.921360414131055	8.519692	2.9188511
8.938940517173874	8.703191	2.950117
8.956520831036297	8.891526	2.9818661
8.97410135613971	9.08308	3.013815
8.99168209290554	9.199499	3.0330677
9.009263041755265	9.509278	3.0837119
9.026844203110405	9.744592	3.1216328
9.044425577392525	9.9105835	3.148108
9.062007165023239	10.036752	3.1680832
9.079588966424197	10.230936	3.1985834
9.097170982017108	10.350247	3.21718
9.11475321222372	11.273674	3.3576293
9.132335657465825	12.226818	3.4966867
9.149918318165264	12.366082	3.516544
9.167501194743924	12.993193	3.604607
9.18508428762374	12.734309	3.5685165
9.202667597226693	12.687883	3.5620055
9.220251123974803	12.285936	3.50513
9.237834868290143	11.922233	3.4528587
9.255418830594836	11.708427	3.421758
9.273003011311046	11.185987	3.3445458
9.290587410860985	11.065559	3.3264935
9.308172029666911	10.513259	3.2424157
9.32575686815113	10.229875	3.1984174
9.343341926735997	8.945701	2.9909365
9.360927205843916	8.704074	2.9502668
9.378512705897327	8.55057	2.9241357
9.396098427318728	8.34225	2.8882954
9.413684370530664	8.222294	2.8674543
9.431270535955722	8.074395	2.841548
9.448856924016539	7.9879866	2.8263025
9.466443535135806	7.872249	2.8057528
9.484030369736251	7.8186855	2.7961912
9.501617428240658	7.788549	2.7907972
9.519204711071852	7.823445	2.7970421
9.536792218652714	7.8526707	2.8022616
9.55437995140617	7.9554224	2.820536
9.571967909755191	8.019648	2.8318982
9.589556094122802	8.04518	2.8364027
9.60714450493207	8.027378	2.8332627
9.624733142606116	8.009135	2.8300416
9.642322007568108	8.047538	2.8368182
9.659911100241267	8.031667	2.8340194
9.677500421048851	8.075077	2.841668
9.695089970414175	8.111554	2.848079
9.712679748760609	8.145837	2.8540912
9.730269756511557	8.1872635	2.8613396
9.747859994090492	8.21444	2.8660846
9.765450461920915	8.231805	2.8691123
9.78304116042639	8.246393	2.8716533
9.800632090030527	8.280011	2.8775008
9.81822325115699	8.295521	2.8801947
9.835814644229481	8.291804	2.8795493
9.853406269671762	8.343643	2.8885365
9.870998127907646	8.34252	2.8883421
9.888590219360985	8.4297495	2.903403
9.906182544455698	8.450401	2.9069574
9.923775103615734	8.533171	2.921159
9.941367897265108	8.543003	2.9228415
9.958960925827878	8.477708	2.9116504
9.97655418972816	8.489115	2.9136086
9.994147689390106	8.427526	2.9030201
10.011741425237934	8.443902	2.9058392
10.029335397695904	8.41907	2.9015634
10.04692960718833	8.406225	2.8993492
10.06452405413958	8.35602	2.8906782
10.082118738974064	8.375367	2.8940227
10.099713662116246	8.359148	2.8912191
10.117308823990651	8.432281	2.9038389
10.134904225021844	8.395935	2.897574
10.152499865634445	8.369364	2.8929853
10.170095746253125	8.335512	2.8871286
10.18769186730261	8.314887	2.8835547
10.205288229207675	8.318785	2.8842304
10.222884832393145	8.292362	2.8796463
10.2404816772839	8.259789	2.873985
10.258078764304868	8.1528635	2.855322
10.275676093881035	8.124681	2.8503828
10.293273666437438	8.068726	2.8405502
10.310871482399158	8.155854	2.8558457
10.32846954219134	8.168941	2.858136
10.346067846239173	8.193577	2.8624425
10.363666394967908	8.214263	2.8660536
10.38126518880283	8.213093	2.8658495
10.398864228169298	8.239732	2.8704934
10.416463513492713	8.302275	2.8813667
10.434063045198531	8.271458	2.8760142
10.451662823712262	8.240829	2.8706844
10.469262849459467	8.176033	2.8593764
10.486863122865758	8.067413	2.8403192
10.504463644356806	8.045154	2.836398
10.522064414358338	8.030626	2.833836
10.539665433296118	7.922341	2.8146653
10.557266701595987	7.889424	2.808812
10.574868219683818	7.85237	2.802208
10.592469987985552	7.84915	2.8016336
10.610072006927185	7.7350297	2.781192
10.627674276934751	7.6285377	2.7619808
10.64527679843435	7.535364	2.7450619
10.662879571852143	7.460806	2.7314477
10.680482597614331	7.3645377	2.7137682
10.698085876147173	7.204057	2.6840374
10.715689407876988	7.0784826	2.6605418
10.733293193230146	6.942763	2.6349123
10.750897232633072	6.7792664	2.6037025
10.76850152651225	6.670648	2.5827599
10.786106075294207	6.5867095	2.5664585
10.803710879405534	6.5153975	2.5525277
10.821315939272877	6.4996552	2.549442
10.83892125532294	6.474422	2.5444887
10.856526827982472	6.484225	2.5464141
10.874132657678285	6.388126	2.5274742
10.891738744837243	6.3410277	2.5181398
10.909345089886271	6.25888	2.5017755
10.926951693252343	6.2231236	2.494619
10.944558555362494	6.1739902	2.4847515
10.96216567664381	6.1129684	2.472442
10.979773057523436	5.982234	2.4458606
10.997380698428573	5.9258285	2.4343026
11.014988599786477	5.854388	2.4195843
11.032596762024461	5.7709045	2.4022708
11.050205185569892	5.74286	2.3964264
11.067813870850198	5.681165	2.3835194
11.085422818292859	5.6583576	2.3787303
11.10303202832541	5.6159124	2.3697917
11.120641501375454	5.5741487	2.3609636
11.138251237870636	5.483868	2.341766
11.155861238238671	5.359528	2.3150654
11.173471502907317	5.243643	2.2899
11.191082032304402	5.20995	2.2825315
11.208692826857805	5.2088575	2.2822921
11.226303886995465	5.159284	2.2714057
11.243915213145371	5.0905724	2.2562296
11.261526805735578	5.0258865	2.241849
11.279138665194196	4.9857697	2.2328837
11.296750791949393	4.943737	2.2234516
11.314363186429393	4.82841	2.1973643
11.331975849062479	4.7910266	2.1888413
11.34958878027699	4.709962	2.1702447
11.36720198050133	4.697456	2.1673615
11.384815450163948	4.6204333	2.1495194
11.402429189693366	4.5440407	2.1316755
11.420043199518153	4.500701	2.1214855
11.437657480066942	63.43397	7.964545
11.455272031768422	85.161545	9.228301
11.472886855051353	107.59161	10.372638
11.490501950344528	99.19543	9.95969
11.508117318076819	84.57307	9.196362
11.52573295867715	45.974968	6.780484
11.543348872574514	4.251443	2.0619028
11.560965060197946	4.1717873	2.0424953
11.57858152197655	4.093364	2.0232062
11.59619825833949	3.985012	1.9962496
11.613815269715985	3.9656956	1.9914055
11.631432556535323	38.54719	6.2086387
11.649050119226837	83.137505	9.117977
11.666667958219929	93.525955	9.670882
11.68428607394406	107.72353	10.378995
11.701904466828756	82.51009	9.083507
11.719523137303586	65.39149	8.0865
11.737142085798196	4.612203	2.147604
11.754761312742286	3.7577956	1.9385034
11.772380818565619	3.6769097	1.917527
11.790000603698015	3.6392956	1.9076937
11.80762066856935	3.5908394	1.894951
11.825241013609572	3.54983	1.8840992
11.842861639248683	3.5837908	1.8930902
11.860482545916748	3.5914922	1.8951232
11.878103734043883	3.5828345	1.8928376
11.895725204060282	3.5298095	1.8787787
11.91334695639619	3.5089047	1.8732071
11.930968991481919	3.4935958	1.8691163
11.948591309747824	3.4370265	1.8539219
11.966213911624347	3.404969	1.8452559
11.98383679754198	3.3964045	1.8429337
12.001459967931268	3.3783815	1.8380374
12.019083423222835	3.3493104	1.8301121
12.036707163847352	3.3090205	1.8190713
12.05433119023556	3.277282	1.8103265
12.071955502818259	3.2504346	1.8028961
12.089580102026313	3.2515695	1.8032109
12.107204988290643	3.2231307	1.795308
12.12483016204224	3.2064662	1.7906609
12.142455623712152	3.1844177	1.7844937
12.16008137373149	3.1933477	1.786994
12.177707412531431	3.1893663	1.7858797
12.19533374054321	3.1613564	1.7780204
12.212960358198126	3.139474	1.7718561
12.230587265927545	3.0816748	1.7554699
12.248214464162889	3.0853753	1.7565236
12.265841953335649	3.0607877	1.7495106
12.283469733877375	3.0460687	1.745299
12.301097806219685	3.050488	1.7465646
12.31872617079425	3.0481963	1.7459085
12.336354828032825	2.9907203	1.7293699
12.353983778367205	2.9429946	1.7155159
12.371613022229262	2.8818874	1.6976123
12.389242560050928	2.9043925	1.7042278
12.406872392264201	2.93566	1.7133768
12.424502519301143	2.954719	1.7189296
12.442132941593874	2.9221597	1.7094326
12.459763659574586	2.9000378	1.7029498
12.477394673675532	2.9326556	1.7124999
12.49502598432903	2.933536	1.7127569
12.51265759196746	2.890788	1.7002318
12.530289497023267	2.8720293	1.6947062
12.547921699928967	2.8747482	1.6955082
12.565554201117134	2.867973	1.6935091
12.583187001020404	2.8216612	1.6797801
12.600820100071486	2.783081	1.6682569
12.618453498703152	2.7861776	1.6691847
12.636087197348235	2.8186216	1.6788751
12.65372119643964	2.8636577	1.6922345
12.671355496410326	2.865814	1.6928716
12.68899009769333	2.8745246	1.6954423
12.706625000721749	2.9063177	1.7047926
12.724260205928752	2.9469764	1.716676
12.741895713747551	2.990763	1.7293823
12.759531524611454	3.0406356	1.7437419
12.777167638953818	3.0298874	1.7406572
12.794804057208072	2.9977164	1.7313914
12.812440779807702	3.0082235	1.7344232
12.830077807186271	3.189824	1.7860079
12.847715139777405	3.2553513	1.8042592
12.865352778014795	3.4806778	1.8656574
12.882990722332197	3.617281	1.9019151
12.90062897316344	3.7276497	1.9307122
12.918267530942412	3.7575474	1.9384394
12.935906396103071	3.6473255	1.9097972
12.953545569079449	3.799287	1.949176
12.971185050305628	3.6445186	1.9090623
12.988824840215775	3.6614947	1.9135033
13.006464939244115	3.6298795	1.9052242
13.024105347824943	3.487893	1.8675902
13.041746066392617	3.5501764	1.8841912
13.05938709538157	3.3496647	1.8302089
13.077028435226296	3.3764715	1.8375177
13.094670086361363	3.3050895	1.8179905
13.112312049221401	3.2440434	1.8011228
13.129954324241112	3.1699302	1.7804298
13.147596911855258	2.979393	1.7260919
13.165239812498685	2.9437697	1.7157418
13.182883026606293	2.8790565	1.6967783
13.200526554613058	2.811718	1.6768178
13.218170396954017	2.770239	1.6644036
13.235814554064284	2.743011	1.6562037
13.253459026379034	2.7716582	1.6648297
13.271103814333523	2.7182238	1.6487037
13.288748918363058	2.702767	1.6440094
13.306394338903031	2.6920154	1.6407362
13.32404007638889	2.7206004	1.6494242
13.341686131256164	2.697858	1.6425158
13.359332503940449	2.6586158	1.6305262
13.376979194877402	2.6728742	1.6348927
13.394626204502751	2.7308018	1.6525137
13.412273533252307	2.7616048	1.6618077
13.429921181561937	2.7561457	1.6601644
13.447569149867581	2.7651858	1.6628848
13.465217438605247	2.7862341	1.6692016
13.482866048211022	2.8069766	1.6754034
13.500514979121052	2.7792392	1.6671051
13.518164231771568	2.752008	1.6589177
13.535813806598844	2.752658	1.6591135
13.553463704039254	2.7765486	1.6662979
13.571113924529229	2.7498932	1.6582801
13.588764468505275	2.7271476	1.6514077
13.606415336403956	2.721899	1.6498178
13.624066528661917	2.7553558	1.6599264
13.641718045715882	2.833962	1.6834376
13.659369888002635	2.9057653	1.7046305
13.67702205595903	2.9634714	1.7214736
13.694674550021993	3.004944	1.7334775
13.712327370628532	3.0335612	1.7417122
13.729980518215713	3.069993	1.7521396
13.747633993220681	3.1344655	1.7704421
13.765287796080647	3.193107	1.7869266
13.7829419272329	3.3035529	1.8175678
13.800596387114801	3.3638434	1.8340783
13.818251176163775	3.3682208	1.8352714
13.835906294817324	3.3790092	1.8382082
13.853561743513023	3.4233766	1.8502369
13.871217522688525	3.462728	1.8608407
13.888873632781538	3.5367706	1.8806304
13.906530074229858	3.5746174	1.8906659
13.92418684747135	3.5911918	1.895044
13.941843952943948	3.5552897	1.8855476
13.959501391085665	3.4878967	1.8675911
13.977159162334578	3.4351885	1.8534262
13.994817267128846	3.3797219	1.838402
14.012475705906693	3.3045826	1.8178511
14.030134479106424	3.259025	1.805277
14.047793587166414	3.162384	1.7783093
14.065453030525108	3.0855799	1.7565819
14.083112809621026	3.0714505	1.7525554
14.100772924892766	3.0320969	1.7412918
14.118433376778997	2.9679112	1.7227627
14.136094165718458	2.8474245	1.6874313
14.153755292149969	2.7663035	1.6632209
14.171416756512416	2.7078626	1.6455585
14.189078559244768	2.694021	1.6413473
14.20674070078606	2.6403656	1.6249201
14.224403181575408	2.573105	1.6040901
14.242066002051999	2.5288882	1.5902479
14.259729162655093	2.4772823	1.5739385
14.277392663824022	2.4624834	1.5692302
14.295056505998208	2.4575443	1.5676557
14.312720689617128	2.4254336	1.5573803
14.330385215120348	2.4122987	1.5531577
14.348050082947497	2.4069316	1.5514289
14.3657152935383	2.4023015	1.5499359
14.383380847332528	2.3925343	1.5467819
14.401046744770051	2.3998091	1.5491318
14.418712986290798	2.4207435	1.5558739
14.436379572334793	2.4633958	1.569521
14.454046503342123	2.462081	1.5691019
14.471713779752946	2.4455836	1.5638362
14.489381402007504	2.440414	1.5621824
14.507049370546113	2.406148	1.5511763
14.524717685809168	2.3959808	1.5478957
14.542386348237134	2.3618128	1.5368191
14.560055358270553	2.403343	1.5502719
14.577724716350051	2.4638019	1.5696503
14.595394422916325	2.5188992	1.5871041
14.61306447841015	2.5405662	1.5939153
14.63073488327237	2.4995246	1.5809885
14.648405637943917	2.512587	1.5851142
14.6660767428658	2.5292819	1.5903716
14.683748198479094	2.5559206	1.5987247
14.701420005224954	2.5581317	1.599416
14.719092163544628	2.6053636	1.6141139
14.73676467387942	2.664554	1.6323462
14.754437536670727	2.7261367	1.6511017
14.772110752360014	2.7494752	1.6581541
14.78978432138882	2.7193658	1.64905
14.807458244198777	2.741986	1.6558943
14.82513252123159	2.7283537	1.6517729
14.842807152929028	2.758423	1.6608502
14.860482139732962	2.6833487	1.638093
14.87815748208531	2.6631973	1.6319306
14.8958331804281	2.6746452	1.6354343
14.91350923520342	2.66034	1.6310549
14.931185646853438	2.6871033	1.6392386
14.948862415820408	2.6978948	1.642527
14.966539542546656	2.7132392	1.6471913
14.98421702747459	2.6938012	1.6412803
15.001894871046696	2.7038743	1.6443461
15.019573073705542	2.712474	1.6469591
15.037251635893766	2.7328932	1.6531465
15.054930558054092	2.7185087	1.6487901
15.072609840629323	2.741586	1.6557735
15.090289484062351	2.842359	1.6859298
15.107969488796124	3.1029258	1.7615124
15.125649855273691	3.5450978	1.882843
15.14333058393817	4.0420914	2.0104952
15.161011675232768	5.0697556	2.2516117
15.17869312960076	6.471705	2.5439546
15.196374947485506	8.40489	2.899119
15.214057129330447	11.557209	3.3995895
15.231739675579114	16.346771	4.043114
15.249422586675102	21.470795	4.633659
15.267105863062092	24.408066	4.940452
15.284789505183847	24.518984	4.951665
15.302473513484218	22.209305	4.712675
15.320157888407127	18.686071	4.3227386
15.337842630396578	14.502605	3.8082287
15.355527739896656	11.240617	3.3527029
15.37321321735153	8.686078	2.9472153
15.39089906320545	6.3510942	2.5201378
15.408585277902748	4.825823	2.1967754
15.42627186188783	3.813944	1.9529322
15.443958815605198	3.3319795	1.825371
15.461646139499424	2.994739	1.7305315
15.479333834015168	2.8436623	1.6863161
15.497021899597165	2.7542813	1.6596028
15.514710336690234	2.710868	1.6464714
15.53239914573928	2.617084	1.6177404
15.550088327189297	2.5573633	1.5991758
15.567777881485336	2.5092456	1.5840598
15.58546780907256	2.4947438	1.5794758
15.6031581103962	2.4940045	1.5792418
15.620848785901568	2.5031962	1.5821493
15.638539836034063	2.489815	1.5779147
15.656231261239173	2.4783895	1.5742902
15.673923061962451	2.439266	1.5618149
15.691615238649552	2.395906	1.5478715
15.709307791746202	2.3855872	1.5445347
15.727000721698221	2.4097576	1.5523394
15.744694028951498	2.4228816	1.5565609
15.76238771395202	2.360745	1.5364716
15.780081777145844	2.3270733	1.5254748
15.797776218979125	2.3136544	1.5210701
15.815471039898094	2.3253803	1.5249197
15.833166240349064	2.361049	1.5365705
15.850861820778437	2.3390906	1.5294086
15.868557781632699	2.3223786	1.5239352
15.886254123358412	2.3367145	1.5286316
15.903950846402232	2.381669	1.5432657
15.921647951210897	2.3992553	1.5489529
15.939345438231225	2.3984568	1.5486952
15.957043307910133	2.372263	1.5402153
15.974741560694602	2.3712008	1.5398704
15.992440197031714	2.3706121	1.5396793
16.01013921736862	2.381609	1.5432463
16.02783862215259	2.4035192	1.5503287
16.045538411830933	2.402762	1.5500845
16.06323858685107	2.380134	1.5427684
16.080939147660512	2.3439026	1.530981
16.09864009470684	2.334088	1.5277723
16.11634142843774	2.3642986	1.5376276
16.134043149300954	2.4083278	1.5518788
16.15174525774433	2.444086	1.5633574
16.169447754215817	2.4839318	1.5760494
16.18715063916342	2.4610586	1.5687761
16.204853913035244	2.461058	1.5687759
16.222557576279478	2.4620364	1.5690877
16.240261629344403	22.470795	4.740337
16.257966072678386	43.002827	6.557654
16.275670906729868	38.10486	6.172913
16.293376131947387	2.4935718	1.5791048
16.31108174877957	2.4992223	1.5808929
16.328787757675133	2.5440385	1.5950042
16.34649415908287	2.607755	1.6148545
16.364200953451657	2.6388025	1.6244391
16.38190814123048	2.6615899	1.631438
16.39961572286839	2.6514604	1.6283306
16.41732369881455	2.6767259	1.6360703
16.43503206951817	2.7201653	1.6492923
16.45274083542859	2.7875178	1.6695861
16.47044999699522	2.8405058	1.68538
16.488159554667558	2.8685448	1.6936779
16.505869508895184	2.8861399	1.6988643
16.523579860127786	2.9145787	1.7072138
16.541290608815117	2.9652395	1.7219871
16.559001755407035	3.0375614	1.7428601
16.57671330035348	3.1055079	1.762245
16.59442524410448	3.1766255	1.782309
16.61213758711015	3.2298603	1.7971812
16.629850329820705	3.2891157	1.813592
16.647563472686436	3.3314562	1.8252277
16.665277016157724	3.4071126	1.8458365
16.682990960685053	3.4531248	1.8582585
16.70070530671898	3.4944923	1.8693562
16.718420054710155	3.5508556	1.8843714
16.736135205109335	3.6124353	1.9006407
16.753850758367335	3.6576996	1.9125113
16.771566714935087	3.6721694	1.9162905
16.789283075263597	3.7066283	1.9252605
16.80699983980398	3.77039	1.9417492
16.82471700900741	3.863148	1.9654893
16.84243458332518	3.9408512	1.9851577
16.860152563208665	4.0159974	2.0039954
16.87787094910932	4.082347	2.0204818
16.89558974147871	4.1961813	2.0484583
16.913308940768466	4.3043904	2.0747025
16.931028547430333	4.325218	2.079716
16.94874856191613	4.3383718	2.0828757
16.966468984677785	4.389841	2.0951948
16.98418981616729	4.478668	2.1162865
17.00191105683676	4.498265	2.1209114
17.019632707138374	4.517573	2.1254582
17.03735476752442	4.6137953	2.1479747
17.05507723844728	4.6535296	2.1572042
17.072800120359403	4.692551	2.1662297
17.090523413713353	4.679363	2.1631835
17.108247118961785	4.680027	2.163337
17.125971236557437	4.6952934	2.1668625
17.143695766953133	4.695572	2.1669269
17.161420710601806	4.713241	2.171
17.179146067956477	4.7030945	2.1686618
17.19687183947025	4.7223353	2.1730936
17.21459802559634	4.743245	2.1778994
17.232324626788028	4.773287	2.1847854
17.25005164349871	4.7422147	2.1776626
17.267779076181863	4.6759505	2.1623945
17.285506925291074	4.6346674	2.1528277
17.30323519127999	4.6117063	2.1474884
17.320963874602384	4.600153	2.1447966
17.33869297571211	4.5597177	2.1353495
17.356422495063114	4.5414643	2.131071
17.37415243310944	4.539182	2.1305356
17.391882790305218	4.5722604	2.1382844
17.40961356710468	4.619945	2.1494057
17.42734476396215	4.6077776	2.1465735
17.445076381332044	4.6331344	2.1524718
17.462808419668868	4.6760736	2.1624231
17.48054087942723	4.796619	2.1901186
17.498273761061835	5.0386143	2.244686
17.51600706502747	5.5708966	2.3602748
17.533740791779024	6.2916374	2.5083137
17.551474941771485	7.7501907	2.7839165
17.56920951545993	8.827442	2.9711013
17.586944513299528	10.986856	3.3146427
17.60467993574556	12.6516075	3.5569098
17.622415783253373	14.470109	3.8039596
17.64015205627843	15.938476	3.992302
17.657888755276293	16.967205	4.119127
17.675625880702604	17.404005	4.1718106
17.69336343301311	17.17872	4.144722
17.71110141266366	16.39304	4.048832
17.728839820110178	15.410262	3.9255908
17.746578655808705	14.459922	3.8026204
17.764317920215372	13.080542	3.616703
17.7820576137864	11.64307	3.4121943
17.79979773697811	9.643112	3.1053362
17.81753829024692	7.6462464	2.7651846
17.835279274049356	6.006718	2.4508607
17.85302068884201	4.9941735	2.2347648
17.870762535081607	4.376317	2.091965
17.888504813224934	3.981488	1.9953666
17.90624752372891	3.7497563	1.9364288
17.923990667050536	3.6036823	1.8983368
17.941734243646895	3.4965386	1.8699033
17.959478253975185	3.4453685	1.8561704
17.9772226984927	3.4329627	1.8528256
17.994967577656833	3.4381053	1.8542129
18.01271289192506	3.4369552	1.8539027
18.030458641754965	3.445881	1.8563085
18.04820482760425	3.3954723	1.8426807
18.06595144993067	3.4092584	1.8464177
18.083698509192125	3.389513	1.841063
18.101446005846576	3.3180497	1.8215514
18.119193940352105	3.2966642	1.8156718
18.136942313166887	3.2689002	1.80801
18.1546911247492	3.2495475	1.8026501
18.1724403755574	3.2212877	1.7947947
18.19019006604997	3.2185123	1.7940212
18.207940196685467	3.1869485	1.7852026
18.225690767922575	3.1787436	1.7829032
18.243441780220046	3.1570811	1.7768177
18.261193234036764	3.1617222	1.7781233
18.278945129831676	3.111873	1.7640501
18.29669746806386	3.0888183	1.7575034
18.314450249192483	3.0859113	1.7566762
18.3322034736768	3.1051557	1.7621452
18.349957141976184	3.1018884	1.7612178
18.3677112545501	3.107628	1.7628466
18.385465811858108	3.123535	1.7673525
18.403220814359884	3.0979848	1.7601093
18.420976262515172	3.091277	1.7582028
18.43873215678387	3.1389046	1.7716954
18.456488497625923	3.1819904	1.7838135
18.474245285501407	3.2418947	1.8005263
18.492002520870486	3.3000638	1.8166078
18.50976020419343	3.410561	1.8467704
18.527518335930615	3.7351909	1.9326642
18.545276916542516	4.3527718	2.0863297
18.563035946489688	4.4933047	2.1197417
18.580795426232832	4.900884	2.213794
18.598555356232698	4.764247	2.1827154
18.616315736950185	5.072655	2.2522557
18.63407656884626	4.7248855	2.17368
18.65183785238201	4.886857	2.2106237
18.669599588018617	4.6412477	2.1543555
18.68736177621737	4.660943	2.1589217
18.705124417439652	4.615089	2.1482759
18.72288751214696	4.4706893	2.1144004
18.740651060800886	4.6222587	2.1499438
18.758415063863115	4.381498	2.0932028
18.77617952179546	4.539199	2.1305397
18.793944435059814	4.2672987	2.0657442
18.811709804118184	4.253645	2.0624366
18.829475629432675	4.1921883	2.0474834
18.8472419114655	3.9910576	1.9977632
18.86500865067897	4.131899	2.0327072
18.88277584753551	3.8446138	1.9607687
18.90054350249763	3.8575115	1.9640548
18.918311616027957	3.4829793	1.8662741
18.936080188589226	3.3631248	1.8338825
18.953849220644265	3.0484536	1.7459822
18.971618712656007	2.9308245	1.7119651
18.9893886650875	2.9063315	1.7047967
19.007159078401887	8.130159	2.8513434
19.024929953062408	32.978916	5.7427273
19.042701289532435	32.895706	5.735478
19.060473088275405	25.43492	5.0433044
19.07824534975489	2.674218	1.6353036
19.096018074434568	2.634326	1.6230607
19.113791262778197	2.6344202	1.6230897
19.13156491524966	2.6176362	1.6179111
19.149339032312945	2.6211467	1.6189955
19.167113614432136	2.6012847	1.6128498
19.184888662071433	2.5916488	1.6098598
19.202664175695123	2.5611281	1.6003525
19.220440155767623	2.5445538	1.5951657
19.238216602753447	2.5612776	1.6003993
19.2559935171172	2.5805783	1.6064179
19.27377089932361	2.6277952	1.6210476
19.291548749837514	2.5847178	1.6077057
19.309327069123835	2.5519476	1.5974816
19.32710585764763	2.5211453	1.5878115
19.344885115874032	2.552601	1.5976862
19.362664844268313	2.566621	1.6020677
19.380445043295822	2.5541055	1.5981569
19.39822571342203	2.5128722	1.5852041
19.41600685511252	2.4850998	1.57642
19.43378846883297	2.4720807	1.5722852
19.451570555049173	2.4941666	1.5792931
19.469353114227037	2.5071876	1.5834101
19.48713614683254	2.534741	1.592087
19.50491965333182	2.541319	1.5941515
19.52270363419109	2.5233662	1.5885106
19.540488089876686	2.500826	1.5813999
19.55827302085503	2.4555802	1.5670291
19.576058427592674	2.4229	1.5565667
19.593844310556282	2.453234	1.5662802
19.611630670212598	2.4709182	1.5719155
19.629417507028506	2.4901185	1.5780109
19.64720482147098	2.5041273	1.5824435
19.6649926140071	2.5016143	1.5816493
19.682780885104084	2.5264368	1.589477
19.70056963522921	2.5280392	1.5899808
19.718358864849908	2.5487647	1.5964851
19.7361485744337	2.524011	1.5887136
19.753938764448215	2.533792	1.5917889
19.771729435361202	2.5375204	1.5929596
19.789520587640506	2.5745008	1.6045251
19.807312221754092	2.5595047	1.5998452
19.825104338170043	2.5426114	1.5945568
19.842896937356517	2.4981744	1.5805614
19.860690019781824	2.5101314	1.5843394
19.87848358591436	2.54258	1.5945469
19.896277636222635	2.5562112	1.5988156
19.914072171175278	2.5182273	1.5868924
19.931867191241015	2.4947429	1.5794755
19.94966269688869	2.5176392	1.586707
19.967458688587264	2.539479	1.5935743
19.985255166805807	2.5257878	1.5892727
20.00305213201348	2.5152316	1.5859482
20.020849584679578	2.49115	1.5783377
20.038647525273507	2.5055606	1.5828962
20.05644595426477	2.485401	1.5765154
20.07424487212299	2.4850957	1.5764186
20.092044279317903	2.449283	1.5650185
20.109844176319353	2.4231572	1.5566493
20.127644563597304	2.4312255	1.5592388
20.145445441621817	2.4316382	1.5593711
20.16324681086307	2.4571233	1.5675213
20.181048671791373	2.4732513	1.5726575
20.198851024877122	2.4876342	1.5772235
20.216653870590836	2.4773922	1.5739734
20.234457209403146	2.4295688	1.5587074
20.252261041784802	2.3896391	1.5458457
20.270065368206662	2.3719022	1.5400981
20.287870189139685	2.3492265	1.5327187
20.305675505054968	2.3511682	1.5333519
20.323481316423702	2.370268	1.5395675
20.341287623717207	2.4041498	1.5505321
20.359094427406884	2.3829186	1.5436705
20.376901727964288	2.3829832	1.5436914
20.39470952586107	2.3753989	1.541233
20.41251782156899	2.3493881	1.5327713
20.430326615559935	2.3723478	1.5402428
20.448135908305886	2.4098692	1.5523753
20.465945700278965	2.4174528	1.554816
20.483755991951384	2.408517	1.5519397
20.50156678379548	2.4085894	1.5519631
20.519378076283708	2.3982105	1.5486157
20.537189869888635	2.388317	1.5454181
20.55500216508294	2.3620036	1.5368811
20.572814962339415	2.3725083	1.5402949
20.59062826213098	2.3452368	1.5314165
20.60844206493066	2.3365262	1.5285699
20.626256371211593	2.3107731	1.5201228
20.644071181447032	2.3103545	1.5199851
20.66188649611036	2.2911952	1.5136695
20.67970231567506	2.2703488	1.5067676
20.697518640614742	2.2797453	1.5098826
20.715335471403122	2.3219573	1.523797
20.73315280851404	2.343535	1.5308609
20.750970652421447	2.339722	1.5296149
20.768789003599412	2.3023643	1.5173544
20.786607862522136	2.2697444	1.5065671
20.8044272296639	2.2893188	1.5130495
20.82224710549913	2.3351479	1.5281191
20.84006749050237	2.346699	1.531894
20.857888385148268	3.8985183	1.9744666
20.8757097899116	46.01235	6.7832403
20.893531705267254	64.891884	8.05555
20.911354131690224	83.89992	9.15969
20.92917706965566	69.142975	8.315226
20.94700051963877	50.179996	7.083784
20.96482448211493	29.403854	5.422532
20.982648957559622	4.1415405	2.0350776
21.00047394644843	2.2849717	1.5116123
21.01829944925707	2.3201544	1.5232053
21.036125466461375	2.2984173	1.5160532
21.053951998537297	2.2743497	1.5080947
21.071779045960906	2.2474854	1.4991616
21.089606609208378	2.2261786	1.4920384
21.10743468875603	2.233761	1.4945772
21.12526328508028	2.2226942	1.4908702
21.143092398657675	2.2250593	1.4916632
21.16092202996488	2.2371643	1.4957153
21.17875217947867	2.2282922	1.4927466
21.19658284767596	2.2106438	1.4868234
21.21441403503377	2.172855	1.4740607
21.232245742029225	2.173547	1.4742954
21.2500779691396	2.1966195	1.4820997
21.26791071684227	2.1923277	1.4806511
21.28574398561475	2.1968753	1.482186
21.30357777593465	2.19768	1.4824574
21.321412088279704	2.1877985	1.4791209
21.339246923127792	2.1475601	1.4654557
21.357082280956888	2.1555855	1.4681913
21.3749181622451	2.1753588	1.4749098
21.392754567470647	2.160108	1.4697306
21.41059149711187	2.1181972	1.4554027
21.42842895164726	2.125077	1.4577644
21.446266931555378	2.1042185	1.4505925
21.464105437314945	2.132333	1.460251
21.481944469404798	2.1471376	1.4653114
21.49978402830388	2.145931	1.4648997
21.51762411449127	2.170185	1.4731548
21.53546472844617	2.1452606	1.4646708
21.553305870647876	2.1391263	1.4625752
21.571147541575865	2.1308045	1.4597275
21.58898974170967	2.1501067	1.4663242
21.60683247152899	2.1318414	1.4600827
21.62467573151363	2.1130857	1.4536457
21.642519522143523	2.1029003	1.450138
21.660363843898722	2.0951605	1.447467
21.6782086972594	2.0901728	1.445743
21.696054082705864	2.093287	1.4468197
21.713900000718535	2.047055	1.4307534
21.73174645177795	2.0517511	1.4323936
21.749593436364794	2.0387285	1.4278405
21.767440954959845	2.0451598	1.4300908
21.785289008044032	2.020355	1.421392
21.803137596098388	2.010599	1.4179559
21.820986719604086	1.9958272	1.4127375
21.838836379042412	1.9981583	1.4135623
21.85668657489478	2.006268	1.4164279
21.87453730764273	2.0116851	1.4183389
21.892388577767914	2.0090353	1.4174044
21.91024038575213	2.0003479	1.4143366
21.928092732077285	2.0133066	1.4189104
21.945945617225426	2.0621853	1.4360311
21.963799041678694	2.080529	1.4424039
21.981653005919398	31.399231	5.603502
21.999507510429943	78.18967	8.842492
22.01736255569286	73.10047	8.549881
22.035218142190818	4.1689377	2.0417976
22.05307427040661	1.9978338	1.4134475
22.07093094082315	2.0002809	1.4143128
22.088788153923474	1.9734493	1.4047952
22.106645910190746	1.9394921	1.3926564
22.12450421010827	1.988497	1.4101408
22.142363054159464	2.0134716	1.4189686
22.16022244282787	2.0507994	1.4320612
22.178082376597164	2.044815	1.4299703
22.195942855951145	2.0519671	1.4324689
22.213803881373742	2.0041547	1.4156817
22.231665453349002	2.003435	1.4154274
22.24952757236111	1.9761742	1.4057647
22.26739023889438	1.9877776	1.4098856
22.28525345343323	2.0398233	1.4282238
22.30311721646225	2.070702	1.4389935
22.320981528466113	2.0555446	1.433717
22.33884638992964	2.0066843	1.4165748
22.356711801337788	1.9747618	1.4052622
22.37457776317561	1.9899352	1.4106506
22.392444275928337	2.006953	1.4166697
22.410311340081282	2.0112371	1.418181
22.428178956119904	1.9369544	1.3917451
22.446047124529805	1.9135121	1.3832976
22.46391584579669	1.8801783	1.3711959
22.481785120406414	1.9018039	1.3790591
22.49965494884496	1.9322307	1.3900471
22.51752533159841	1.9792567	1.4068606
22.53539626915302	1.9878372	1.4099067
22.553267761995137	1.9512018	1.3968543
22.571139810611264	1.9376382	1.3919907
22.589012415488025	1.9592794	1.3997426
22.60688557711216	1.9669772	1.4024897
22.624759295970566	1.988768	1.4102368
22.642633572550263	2.024967	1.4230133
22.660508407338362	1.9907569	1.4109418
22.67838380082217	1.9637636	1.4013435
22.696259753489077	1.9436349	1.3941431
22.714136265826614	2.0042605	1.415719
22.73201333832246	2.0319169	1.4254532
22.74989097146439	1.9657067	1.4020367
22.76776916574035	1.9822392	1.4079202
22.785647921638393	1.9887185	1.4102193
22.803527239646712	2.0043736	1.415759
22.82140712025363	1.9782692	1.4065096
22.839287563947593	1.9324113	1.3901119
22.85716857121719	1.9235797	1.3869318
22.875050142551135	1.9293354	1.3890052
22.892932278438277	1.9109627	1.3823757
22.910814979367604	1.8934023	1.3760096
22.928698245828222	1.8784939	1.3705816
22.946582078309387	1.8898356	1.374713
22.96446647730047	1.8887326	1.3743117
22.98235144329098	1.9277451	1.3884326
23.000236976770562	1.9169253	1.3845307
23.018123078229	1.8906322	1.3750026
23.03600974815619	1.9077632	1.3812181
23.053896987042194	1.9365904	1.3916143
23.071784795377173	1.9296277	1.3891103
23.08967317365145	1.9315889	1.3898162
23.10756212235546	1.9653713	1.401917
23.125451641979787	1.9967842	1.4130762
23.143341733015134	1.9785159	1.4065973
23.161232395952357	1.9660827	1.4021707
23.179123631282426	1.9438088	1.3942055
23.197015439496468	1.9577196	1.3991853
23.214907821085717	1.9263053	1.3879141
23.23280077654157	1.905846	1.3805238
23.250694306355538	1.9357774	1.3913221
23.268588411019277	1.970382	1.403703
23.28648309102458	1.9797803	1.4070467
23.304378346863356	1.9631487	1.4011241
23.322274179027676	1.9826429	1.4080635
23.340170588009723	2.003041	1.4152883
23.358067574301852	1.9382836	1.3922225
23.37596513839651	1.9039152	1.3798243
23.39386328078629	1.9024485	1.3792927
23.411762001963947	1.947119	1.3953921
23.429661302422353	1.9525223	1.3973268
23.4475611826545	1.9732555	1.4047261
23.46546164315356	1.9975731	1.4133552
23.48336268441279	2.0142899	1.4192568
23.501264306925638	1.9927086	1.4116333
23.51916651118564	1.9555596	1.3984133
23.537069297686497	1.9406383	1.393068
23.554972666922037	1.9212427	1.386089
23.57287661938623	1.9383678	1.3922528
23.59078115557318	1.962192	1.4007827
23.608686275977128	1.957102	1.3989646
23.62659198109246	1.950354	1.3965508
23.6444982714137	1.930165	1.3893038
23.66240514743549	1.943506	1.3940969
23.68031260965263	1.954427	1.3980082
23.698220658560068	1.9526674	1.3973788
23.716129294652845	1.9412168	1.3932756
23.7340385184262	1.95355	1.3976945
23.75194833037546	1.9602267	1.4000809
23.769858730996123	1.9582286	1.3993672
23.78776972078382	1.936892	1.3917227
23.80568130023431	1.9260721	1.38783
23.823593469843495	1.9327986	1.3902513
23.841506230107424	1.9674287	1.4026506
23.859419581522275	1.9980932	1.4135393
23.87733352458438	2.0247343	1.4229316
23.89524805979019	2.0129824	1.4187961
23.913163187636318	1.9884812	1.4101351
23.931078908619508	1.93432	1.3907983
23.948995223236633	1.9323367	1.3900851
23.966912131984735	1.9887213	1.4102203
23.98482963536096	2.0548327	1.4334688
24.002747733862616	2.0233502	1.4224452
24.020666427987155	2.0083392	1.4171588
24.038585718232156	2.0408814	1.4285942
24.056505605095353	2.0523808	1.4326133
24.074426089074617	2.0610592	1.435639
24.092347170667946	2.0661032	1.4373946
24.110268850373515	2.070993	1.4390945
24.128191128689586	2.0673637	1.437833
24.146114006114626	2.0515933	1.4323384
24.164037483147187	2.1208227	1.4563044
24.181961560286005	2.1513617	1.466752
24.199886238029926	2.097814	1.4483832
24.21781151687797	2.0256846	1.4232655
24.235737397329274	2.0153139	1.4196175
24.253663879883135	2.0230694	1.4223465
24.271590965038975	2.0293639	1.4245574
24.289518653296376	2.0726807	1.4396808
24.30744694515505	2.1120708	1.4532965
24.32537584111486	2.1411114	1.4632537
24.34330534167581	2.1422656	1.4636481
24.361235447338046	2.1027808	1.4500968
24.379166158601876	2.0450828	1.430064
24.39709747596772	2.0383723	1.4277158
24.41502939993615	2.0517764	1.4324024
24.432961931007917	2.0101738	1.417806
24.450895069683856	2.0092573	1.4174827
24.468828816465	1.9837319	1.4084501
24.4867631718525	1.989914	1.4106431
24.504698136347656	1.9595071	1.3998239
24.52263371045192	1.9591607	1.3997002
24.540569894666874	1.9597259	1.3999021
24.558506689494266	1.9723527	1.4044048
24.57644409543597	1.9521314	1.397187
24.594382112994012	1.9750729	1.4053729
24.61232074267057	1.9867237	1.4095118
24.630259984967953	2.0018241	1.4148583
24.64819984038863	1.9520699	1.397165
24.66614030943522	1.9509909	1.3967788
24.684081392610462	1.971301	1.4040302
24.702023090417274	1.9997693	1.414132
24.7199654033587	2.0090656	1.4174151
24.737908331937927	1.9934846	1.4119081
24.755851876658305	2.0131047	1.4188392
24.773796038023324	2.0757735	1.4407545
24.79174081653661	2.1129205	1.4535888
24.809686212701962	2.1094267	1.4523866
24.827632227023294	2.1265395	1.4582659
24.8455788600047	2.1205828	1.456222
24.8635261121504	2.1560962	1.4683652
24.88147398396475	2.119348	1.455798
24.899422475952303	2.1171415	1.45504
24.917371588617698	2.140988	1.4632115
24.935321322465768	2.1909688	1.4801922
24.953271678001478	2.2327404	1.4942358
24.97122265572994	2.360607	1.5364267
24.989174256156414	2.7016249	1.643662
25.00712647978632	3.2486932	1.8024132
25.02507932712521	3.8186147	1.9541277
25.043032798678798	4.3527455	2.0863235
25.060986894952933	5.005452	2.2372868
25.078941616453637	5.7676992	2.4016035
25.096896963687055	6.7222853	2.592737
25.114852937159508	7.872782	2.805848
25.132809537377444	8.393128	2.8970897
25.150766764847468	8.422378	2.9021332
25.168724620076347	7.8016434	2.7931423
25.186683103570985	6.6490755	2.5785801
25.204642215838426	5.44732	2.3339493
25.222601957385894	4.095339	2.0236943
25.24056232872074	3.103685	1.7617278
25.25852333035048	2.5579646	1.5993638
25.276484962782778	2.2663877	1.5054526
25.294447226525435	2.096105	1.4477931
25.312410122086423	1.9565935	1.3987828
25.330373649973843	1.8932595	1.3759577
25.348337810695988	1.9154947	1.384014
25.366302604761245	2.0118852	1.4184093
25.384268032678207	2.0539806	1.4331715
25.40223409495558	2.0091536	1.4174461
25.420200792102257	1.9477543	1.3956196
25.438168124627246	1.9240067	1.3870857
25.45613609303974	1.896417	1.3771045
25.474104697849057	1.8832045	1.372299
25.492073939564698	1.8729607	1.3685615
25.510043818696285	1.900061	1.378427
25.528014335753614	1.914999	1.3838348
25.54598549124664	1.8913207	1.375253
25.56395728568544	1.8727185	1.368473
25.58192971958028	1.8456246	1.3585377
25.59990279344156	1.8147917	1.3471421
25.617876507779833	1.8183093	1.348447
25.635850863105826	1.8684517	1.3669132
25.653825859930386	1.8774177	1.370189
25.671801498764548	1.8624036	1.3646991
25.68977778011949	1.8376005	1.3555813
25.707754704506524	1.8017201	1.3422817
25.725732272437153	1.8000168	1.341647
25.743710484423012	1.7752104	1.3323702
25.761689340975888	1.8197194	1.3489698
25.77966884260774	1.8623762	1.3646891
25.797648989830662	1.8813839	1.3716354
25.815629783156922	1.8927495	1.3757724
25.83361122309895	1.886073	1.3733437
25.85159331016929	1.8597442	1.3637244
25.869576044880695	1.8063594	1.3440087
25.887559427746034	1.825855	1.3512421
25.90554345927836	1.8304688	1.3529482
25.92352813999086	1.8260056	1.3512977
25.94151347039689	1.832863	1.3538327
25.959499451009965	1.8163527	1.3477213
25.97748608234374	1.8481805	1.359478
25.995473364912062	1.8899293	1.374747
26.013461299228904	1.8943677	1.3763603
26.03144988580839	1.8603935	1.3639624
26.04943912516483	1.885914	1.3732858
26.067429017812675	1.8942423	1.3763148
26.085419564266537	1.8409293	1.3568085
26.103410765041186	1.8613738	1.3643217
26.12140262065155	1.8591233	1.3634968
26.139395131612723	1.8437777	1.3578577
26.157388298439948	1.8406044	1.3566887
26.17538212164861	1.8477539	1.3593211
26.193376601754295	1.8088121	1.3449209
26.211371739272714	1.829849	1.3527191
26.229367534719746	1.8539882	1.3616123
26.247363988611433	1.8285809	1.3522503
26.26536110146397	1.8345112	1.3544413
26.283358873793727	1.8875349	1.3738759
26.301357306117204	1.8989795	1.3780347
26.319356398951104	1.8750386	1.3693205
26.33735615281224	1.8806425	1.3713652
26.35535656821762	1.893721	1.3761253
26.373357645684404	1.9103309	1.3821472
26.39135938572991	1.9294765	1.389056
26.409361788871614	1.9289346	1.388861
26.427364855627165	1.9053503	1.3803443
26.445368586514352	1.8092574	1.3450863
26.46337298205115	1.7463624	1.3215001
26.48137804275568	1.768712	1.3299294
26.499383769146217	1.8114098	1.3458862
26.517390161741215	1.8350207	1.3546294
26.53539722105928	1.807927	1.3445917
26.553404947619182	1.8115976	1.345956
26.571413341939856	1.8116347	1.3459698
26.589422404540397	1.8285953	1.3522556
26.60743213594006	1.8304662	1.3529472
26.62544253665827	1.822601	1.3500373
26.64345360721459	1.8148811	1.3471752
26.66146534812879	1.8882399	1.3741324
26.679477759920758	1.9125624	1.3829542
26.69749084311057	1.8306772	1.3530252
26.71550459821847	1.7837367	1.335566
26.733519025764842	1.7944067	1.3395547
26.751534126270258	1.8515782	1.3607271
26.769549900255434	1.80754	1.3444479
26.787566348241267	1.7857374	1.3363148
26.80558347074881	1.77832	1.3335366
26.823601268299267	1.8010075	1.3420162
26.841619741414036	1.8624815	1.3647276
26.85963889061465	1.8573585	1.3628494
26.877658716422832	1.8516711	1.3607612
26.89567921936045	1.835896	1.3549525
26.913700399949544	1.8070143	1.3442523
26.93172225871233	1.7571437	1.325573
26.949744796171174	1.7855498	1.3362447
26.967768012848605	1.7985513	1.3411008
26.98579190926733	1.7585189	1.3260916
27.003816485950225	1.7544357	1.3245511
27.021841743420318	1.7586913	1.3261566
27.039867682200814	1.7630146	1.3277856
27.057894302815072	1.826969	1.3516542
27.07592160578664	1.828985	1.3523997
27.0939495916392	1.8385689	1.3559384
27.111978260896635	1.8679183	1.366718
27.13000761408296	1.8696023	1.367334
27.148037651722397	1.8707141	1.3677405
27.166068374339304	1.8609744	1.3641753
27.184099782458215	1.8782988	1.3705105
27.20213187660384	1.8621523	1.364607
27.22016465730105	1.8533205	1.3613671
27.23819812507487	1.8428699	1.3575234
27.256232280450533	1.8376641	1.3556048
27.274267123953383	1.8060479	1.3438928
27.292302656108987	1.808519	1.3448119
27.31033887744306	1.8076144	1.3444755
27.32837578848146	1.7865754	1.3366284
27.34641338975026	1.8132808	1.3465811
27.364451681775673	1.8666048	1.3662375
27.382490665084074	1.8754631	1.3694755
27.400530340202046	1.8792331	1.3708513
27.41857070765629	1.8658323	1.3659548
27.436611767973726	1.832046	1.353531
27.454653521681404	1.8056631	1.3437496
27.472695969306564	1.8093448	1.3451189
27.490739111376627	1.8262253	1.351379
27.508782948419153	1.8045444	1.3433334
27.526827480961902	1.7949914	1.3397729
27.54487270953279	1.8204316	1.3492337
27.562918634659898	1.8395318	1.3562934
27.580965256871508	1.820047	1.3490912
27.599012576696026	1.8203741	1.3492124
27.617060594662068	1.8269744	1.3516562
27.63510931129842	1.835755	1.3549004
27.65315872713401	1.8578968	1.3630469
27.67120884269797	1.8727051	1.3684682
27.68925965851958	1.8506794	1.3603967
27.707311175128307	1.8232509	1.350278
27.725363393053787	1.8783628	1.3705337
27.74341631282583	1.9545348	1.3980467
27.7614699349744	1.9098253	1.3819643
27.77952426002968	2.0463912	1.4305214
27.797579288521973	2.1212296	1.4564441
27.815635020981784	2.6103742	1.6156652
27.83369145793979	2.7325778	1.653051
27.85174859992682	2.5287142	1.5901932
27.869806447473923	2.325623	1.5249994
27.887865001112267	1.9461964	1.3950615
27.905924261373233	1.8495946	1.359998
27.92398422878836	1.8537395	1.361521
27.94204490388936	1.8638381	1.3652246
27.96010628720813	1.8818036	1.3717885
27.978168379276728	1.8998399	1.3783468
27.9962311806274	1.8704374	1.3676393
28.014294691792568	1.8592137	1.3635299
28.0323589133048	1.858692	1.3633386
28.050423845696887	1.8738012	1.3688686
28.068489489501758	1.8644767	1.3654584
28.086555845252523	1.8749183	1.3692765
28.104622913482487	1.9053044	1.3803277
28.122690694725115	1.9147848	1.3837575
28.14075918951405	1.9198148	1.3855739
28.15882839838312	1.9047694	1.3801339
28.176898321866304	1.9302989	1.389352
28.1949689604978	1.9280999	1.3885604
28.213040314811945	1.9473743	1.3954835
28.23111238534327	1.9817479	1.4077457
28.249185172626493	1.9453375	1.3947536
28.267258677196473	1.863638	1.3651513
28.285332899588294	1.8666903	1.3662688
28.303407840337172	1.8931038	1.3759011
28.321483499978545	1.9017718	1.3790474
28.33955987904799	1.9074254	1.3810958
28.357636978081285	1.9280849	1.3885549
28.37571479761439	1.9578243	1.3992227
28.393793338183425	2.0059571	1.4163182
28.41187260032469	2.0132868	1.4189034
28.429952584574686	2.0179508	1.4205459
28.448033291470065	2.001162	1.4146243
28.46611472154769	1.9538579	1.3978046
28.484196875344566	1.9552574	1.3983052
28.502279753397914	1.9951518	1.4124984
28.52036335624511	2.0069354	1.4166634
28.538447684423716	2.0403538	1.4284096
28.556532738471482	2.0596058	1.4351327
28.574618518926325	2.0457528	1.4302981
28.59270502632635	2.0153115	1.4196167
28.61079226120985	1.9845011	1.4087232
28.628880224115274	1.9931375	1.4117852
28.646968915581287	2.0515165	1.4323117
28.66505833614671	2.0629995	1.4363146
28.68314848635055	2.0544865	1.4333481
28.701239366732004	2.0541067	1.4332155
28.71933097783044	2.0703986	1.438888
28.737423320185403	2.101471	1.4496452
28.75551639433665	2.0919461	1.4463562
28.773610200824074	2.0964324	1.4479063
28.791704740187793	2.0957124	1.4476576
28.80980001296809	2.077274	1.4412751
28.827896019705413	2.0576239	1.434442
28.845992760940433	2.1056828	1.4510971
28.86409023721397	2.1729324	1.474087
28.88218844906704	2.2697608	1.5065726
28.900287397040845	2.3443174	1.5311164
28.918387081676755	2.2925653	1.514122
28.936487503516343	2.2636714	1.5045502
28.954588663101365	2.2847145	1.5115272
28.97269056097374	2.3429015	1.530654
28.990793197675597	2.3921206	1.5466481
29.00889657374923	2.3783767	1.5421987
29.027000689737125	2.367384	1.5386306
29.04510554618196	2.3829126	1.5436685
29.06321114362659	2.426004	1.5575634
29.08131748261405	2.4424586	1.5628368
29.099424563687567	2.4555628	1.5670235
29.11753238739057	2.5089133	1.5839549
29.13564095426663	2.575891	1.6049583
29.15375026485954	2.5625472	1.6007957
29.171860319713275	2.5867481	1.608337
29.18997111937199	2.6746883	1.6354475
29.20808266438002	2.841497	1.6856741
29.226194955281898	2.949517	1.7174158
29.244307992622335	2.945132	1.7161387
29.26242177694624	2.892546	1.7007487
29.2805363087987	2.942139	1.7152665
29.29865158872498	3.0201604	1.7378609
29.316767617270557	3.074283	1.7533633
29.334884394981064	3.0389357	1.7432543
29.353001922402367	3.0122945	1.7355963
29.37112020008047	3.0776062	1.7543107
29.389239228561596	3.2105815	1.7918096
29.407359008392152	3.4056869	1.8454503
29.42547954011872	3.7319067	1.9318143
29.44360082428809	4.4118843	2.1004486
29.46172286144722	5.541285	2.3539934
29.479845652143283	7.0793757	2.6607096
29.497969196923606	9.007271	3.0012116
29.516093496335728	11.661228	3.414854
29.5342185509274	14.558344	3.8155398
29.55234436124651	16.828938	4.1023088
29.570470927841175	18.003263	4.2430253
29.588598251259686	17.609533	4.1963716
29.60672633205055	16.329456	4.040972
29.624855170762405	14.195817	3.7677336
29.642984767944146	11.433881	3.3814023
29.66111512414481	8.763746	2.9603624
29.67924623991366	6.504838	2.5504584
29.697378115800138	5.0295553	2.242667
29.71551075235387	4.2122736	2.0523825
29.733644150124675	3.8065262	1.951032
29.751778309662576	3.5832024	1.8929348
29.769913231517766	3.4556515	1.8589383
29.78804891624066	3.3284686	1.8244091
29.806185364381818	3.2643852	1.806761
29.82432257649206	3.3655033	1.8345308
29.842460553122333	3.3831832	1.8393432
29.86059929482382	3.3327339	1.8255777
29.878738802147872	3.3363643	1.8265717
29.896879075646048	3.3285174	1.8244225
29.915020115870114	3.348905	1.8300014
29.933161923371976	3.3098774	1.8193069
29.951304498703777	3.2834015	1.8120159
29.969447842417857	3.2686722	1.8079469
29.987591955066733	3.2319057	1.7977502
30.005736837203123	3.134362	1.7704129
30.023882489379943	3.16926	1.7802416
30.04202891215028	3.283788	1.8121225
30.060176106067455	3.2668345	1.8074386
30.078324071684946	3.2117743	1.7921424
30.09647280955646	3.1661785	1.7793759
30.114622320235863	3.2475796	1.8021042
30.132772604277257	3.2939162	1.814915
30.1509236622349	3.280791	1.8112954
30.16907549466328	3.2441118	1.8011417
30.18722810211705	3.1230502	1.7672154
30.205381485151097	2.991508	1.7295977
30.22353564432045	2.9513466	1.7179484
30.241690580180403	3.0014307	1.7324638
30.25984629328638	3.035446	1.7422531
30.278002784194037	3.0391448	1.7433143
30.296160053459246	3.0601082	1.7493165
30.314318101638033	3.0711613	1.7524729
30.332476929286646	3.020711	1.7380192
30.35063653696153	3.0080218	1.734365
30.368796925219307	2.9597273	1.7203858
30.386958094616844	2.906298	1.7047868
30.40512004571115	2.9546072	1.7188971
30.423282779059463	3.0005383	1.7322062
30.441446295219233	2.9512882	1.7179314
30.459610594748067	2.9086797	1.7054852
30.47777567820382	2.864226	1.6924025
30.495941546144504	2.844522	1.6865711
30.51410819912835	2.7736688	1.6654335
30.532275637713795	2.7238543	1.6504103
30.55044386245946	2.8239202	1.6804523
30.56861287392416	2.8380666	1.6846563
30.586782672666956	2.7656066	1.6630113
30.604953259247047	2.742436	1.6560302
30.623124634223885	2.7747896	1.6657699
30.641296798157075	2.818643	1.6788815
30.659469751606462	2.853843	1.6893321
30.677643495132074	2.8627865	1.6919771
30.695818029294152	2.8068626	1.6753694
30.713993354653116	2.7935336	1.6713867
30.73216947176962	2.80259	1.6740937
30.75034638120448	2.761294	1.6617142
30.768524083518756	2.7148533	1.6476812
30.786702579273673	2.6797104	1.6369821
30.80488186903069	2.7381692	1.6547414
30.82306195335144	2.8685336	1.6936746
30.841242832797782	3.0714247	1.7525481
30.85942450793176	3.351468	1.8307015
30.877606979315637	3.7253516	1.930117
30.895790247511883	4.1545258	2.0382655
30.913974313083134	4.569487	2.137636
30.932159176592283	4.806243	2.1923146
30.95034483860237	4.8338404	2.1985996
30.968531299676698	4.601874	2.1451979
30.98671856037873	4.2178173	2.0537326
31.00490662127215	3.8964388	1.9739399
31.023095482920848	3.5495257	1.8840185
31.04128514588892	3.077448	1.7542657
31.059475610740662	2.7813883	1.6677495
31.07766687804056	2.5861604	1.6081543
31.09585894835335	2.5003774	1.5812582
31.11405182224393	2.4891446	1.5777023
31.132245500277417	2.5350904	1.5921967
31.15043998301914	2.4973278	1.5802935
31.168635271034628	2.4391277	1.5617707
31.18683136488964	2.4138865	1.5536687
31.20502826515008	2.432122	1.5595262
31.223225972382135	2.415793	1.5542822
31.241424487152155	2.4034574	1.5503088
31.259623810026692	2.4917119	1.5785158
31.27782394157253	2.4954457	1.579698
31.296024882356644	2.4820273	1.575445
31.314226632946237	2.4200249	1.555643
31.332429193908684	2.3801692	1.5427797
31.350632565811598	2.4165099	1.5545127
31.368836749222787	2.414022	1.5537124
31.387041744710295	2.4212708	1.5560434
31.40524755284232	2.4707341	1.5718569
31.423454174187317	2.535796	1.5924183
31.441661609313922	2.5627306	1.6008531
31.459869858791002	2.4748516	1.5731661
31.478078923187628	2.3476713	1.5322112
31.496288803073064	2.304319	1.5179983
31.514499499016807	2.2928927	1.51423
31.532711011588546	2.300811	1.5168425
31.550923341358178	2.3507733	1.5332232
31.56913648889584	2.4356585	1.5606596
31.587350454771844	2.4465768	1.5641537
31.605565239556732	2.4752154	1.5732818
31.62378084382127	2.460447	1.5685812
31.641997268136382	2.4473522	1.5644015
31.660214513073274	2.3683388	1.5389408
31.67843257920331	2.3702152	1.5395503
31.6966514670981	2.370711	1.5397114
31.71487117732944	2.3982646	1.5486331
31.733091710469346	2.3748481	1.5410542
31.751313067090052	2.3582222	1.5356504
31.769535247764008	2.3062177	1.5186236
31.787758253063878	2.2117894	1.4872086
31.805982083562526	2.1936316	1.4810914
31.824206739833024	2.224295	1.491407
31.84243222244869	2.2382638	1.4960828
31.860658531983013	2.2025898	1.4841125
31.878885669009737	2.2317417	1.4939015
31.897113634102784	2.2473888	1.4991294
31.91534242783632	2.2292244	1.4930588
31.933572050784694	2.235684	1.4952203
31.951802503522508	2.2017083	1.4838154
31.970033786624548	2.1857412	1.4784253
31.988265900665834	2.1266236	1.4582947
32.006498846221575	2.1786032	1.4760092
32.02473262386724	2.2963967	1.5153867
32.04296723417845	2.3366942	1.5286249
32.0612026777311	2.2824788	1.5107875
32.07943895510129	2.2743657	1.5081
32.097676066865304	2.245644	1.4985473
32.115914013599685	2.2241073	1.4913441
32.13415279588115	2.2138937	1.4879159
32.152392414286666	2.2457798	1.4985926
32.1706328693934	2.2929935	1.5142634
32.18887416177875	2.2554657	1.5018208
32.20711629202032	2.2838857	1.511253
32.225359260695924	2.3295403	1.5262831
32.243603068383614	2.3391423	1.5294255
32.26184771566166	2.2865732	1.512142
32.28009320310852	2.2038133	1.4845246
32.2983395313029	2.158144	1.4690623
32.31658670082372	2.1271443	1.4584733
32.33483471225012	2.1144378	1.4541106
32.35308356616143	2.0844958	1.4437783
32.371333263137245	2.05326	1.4329201
32.38958380375734	2.122719	1.4569554
32.407835188601744	2.1992588	1.4829898
32.42608741825067	2.1512725	1.4667217
32.444340493284585	2.089177	1.4453986
32.46259441428416	2.0413828	1.4287697
32.48084918183028	2.0064306	1.4164853
32.49910479650405	2.0368295	1.4271754
32.51736125888683	2.0843027	1.4437114
32.53561856956014	2.0529397	1.4328083
32.5538767291058	2.0138617	1.4191059
32.572135738105764	2.0659585	1.4373442
32.59039559714228	2.0407934	1.4285634
32.608656306797776	1.9738793	1.4049481
32.62691786765491	1.9601089	1.4000388
32.645180280296586	1.8794421	1.3709275
32.663443545305896	1.8951905	1.3766592
32.68170766326619	1.9842523	1.4086349
32.69997263476099	2.0046964	1.415873
32.7182384603741	2.0197284	1.4211715
32.7365051406895	2.0989993	1.4487923
32.75477267629144	2.1351187	1.4612045
32.77304106776434	2.001343	1.4146883
32.79131031569289	1.9730659	1.4046587
32.809580420661966	2.0233107	1.4224312
32.827851383256714	2.0079904	1.4170358
32.84612320406245	1.9301106	1.3892843
32.86439588366476	1.8966349	1.3771837
32.88266942264945	1.9891536	1.4103736
32.9009438216025	2.0073104	1.4167958
32.9192190811102	1.9792798	1.4068688
32.937495201758985	2.0057166	1.4162332
32.95577218413556	2.0395887	1.4281417
32.974050028826866	2.0381258	1.4276295
32.992328736420035	2.0098693	1.4176986
33.010608307502444	2.0339959	1.4261823
33.02888874266169	1.9602268	1.400081
33.047170042485604	1.8795528	1.3709679
33.06545220756225	1.7676978	1.329548
33.083735238479896	1.8957701	1.3768697
33.10201913582707	2.0861773	1.4443605
33.12030390019248	2.11965	1.4559017
33.138589532165135	2.0942278	1.4471447
33.15687603233419	2.101513	1.4496596
33.17516340128909	2.1067712	1.451472
33.19345163961947	2.0227797	1.4222445
33.211740747915215	1.9322996	1.3900717
33.23003072676643	1.9102063	1.3821021
33.248321576763466	1.926458	1.387969
33.266613298496885	1.9475344	1.395541
33.28490589255747	1.9412162	1.3932754
33.30319935953626	1.9934143	1.4118832
33.32149370002451	1.973097	1.4046696
33.339788914613706	1.8751204	1.3693503
33.358085003895575	1.8870523	1.3737003
33.376381968462034	1.9658481	1.4020871
33.39467980890529	1.9470925	1.3953825
33.41297852581774	1.880879	1.3714514
33.43127811979204	1.8658867	1.3659747
33.44957859142105	1.8663421	1.3661413
33.467879941297866	1.8980017	1.3776798
33.486182170015844	1.9793739	1.4069022
33.50448527816853	2.0095541	1.4175874
33.522789266349754	2.0584414	1.434727
33.541094135153514	2.1329195	1.4604518
33.55939988517411	2.1116521	1.4531525
33.57770651700602	2.0333474	1.4259549
33.59601403124398	1.9775822	1.4062654
33.61432242848296	1.8444521	1.3581061
33.632631709318154	1.8784794	1.3705763
33.650941874344994	1.98541	1.4090458
33.66925292415916	1.963646	1.4013015
33.68756485935654	2.007476	1.4168543
33.70587768053328	2.0196955	1.4211599
33.724191388285746	2.03541	1.426678
33.74250598321054	2.1339254	1.4607961
33.760821465904506	2.2083528	1.4860528
33.77913783696474	2.0459955	1.430383
33.79745509698852	1.8881233	1.37409
33.815773246573414	1.8084517	1.3447869
33.8340922863172	1.9010954	1.3788022
33.852412216817896	1.9645177	1.4016125
33.87073303867377	2.0188904	1.4208766
33.889054752483304	2.0878255	1.444931
33.907377358845245	2.0252006	1.4230955
33.92570085835853	2.0792859	1.4419729
33.94402525162239	2.0581875	1.4346385
33.96235053923627	1.999381	1.4139947
33.980676721799824	1.9330152	1.3903291
33.999003799912984	1.9024154	1.3792808
34.01733177417592	1.9094555	1.3818305
34.03566064518901	1.9690279	1.4032205
34.0539904135529	1.9795139	1.406952
34.07232107986846	1.9218724	1.3863161
34.090652644736785	1.8579298	1.363059
34.108985108759235	1.9278198	1.3884596
34.12731847253742	2.111093	1.4529601
34.14565273667313	2.1871798	1.4789116
34.16398790176847	2.0093422	1.4175127
34.18232396842574	2.0426638	1.4292179
34.20066093724749	2.1732247	1.4741861
34.21899880883651	2.1403904	1.4630073
34.23733758379583	1.9570367	1.3989413
34.25567726272874	1.8531142	1.3612914
34.27401784623872	1.7606589	1.3268982
34.29235933492957	1.8726473	1.3684471
34.31070172940526	2.0670977	1.4377404
34.32904503027003	2.1755369	1.4749701
34.347389238128386	1.9903045	1.4107815
34.36573435358502	2.00198	1.4149134
34.38408037724492	2.0492828	1.4315317
34.402427309713296	1.9611984	1.4004279
34.42077515159559	1.8760065	1.3696738
34.43912390349752	1.9276152	1.3883858
34.45747356602499	1.9068989	1.380905
34.47582413978423	1.8693779	1.367252
34.49417562538163	1.8953832	1.3767291
34.51252802342388	1.8219295	1.3497887
34.53088133451789	1.9163936	1.3843387
34.54923555927084	2.07554	1.4406735
34.567590698290104	2.1561813	1.4683942
34.58594675218336	2.0956826	1.4476472
34.6043037215585	1.842178	1.3572686
34.62266160702365	1.7817613	1.3348264
34.641020409187234	1.9724095	1.404425
34.65938012865785	2.042684	1.429225
34.677740766044394	2.0687413	1.4383119
34.69610232195598	2.0905476	1.4458725
34.714464797002016	2.0097733	1.4176648
34.73282819179208	2.0460517	1.4304026
34.751192506936064	2.1345434	1.4610077
34.76955774304408	1.9226552	1.3865985
34.7879239007265	1.7348034	1.3171194
34.80629098059391	1.712062	1.3084579
34.824658983257194	1.8329484	1.3538643
34.843027909327446	1.9169428	1.3845371
34.86139775941603	2.0200434	1.4212823
34.879768534134534	1.95174	1.3970469
34.89814023409483	1.8964524	1.3771174
34.91651285990901	1.8636291	1.3651481
34.93488641218944	1.8233355	1.3503094
34.95326089154871	1.8035889	1.3429776
34.97163629859967	2.0741692	1.4401976
34.99001263395542	2.1496413	1.4661655
35.00838989822934	2.220345	1.4900823
35.02676809203499	2.0062854	1.416434
35.04514721598624	1.9371673	1.3918216
35.063527270697215	1.9545649	1.3980576
35.081908256782256	2.0178974	1.4205271
35.10029017485597	1.9694299	1.4033637
35.11867302553321	2.0786104	1.4417387
35.137056809429104	2.1883132	1.4792949
35.155441527159006	2.1055357	1.4510465
35.173827179338524	2.0579944	1.4345711
35.19221376658354	2.1849465	1.4781564
35.21060128951017	2.3681264	1.5388718
35.2289897487348	2.0169919	1.4202083
35.24737914487405	1.8956033	1.3768091
35.26576947854479	1.8934566	1.3760293
35.28416075036418	2.0119495	1.4184321
35.30255296094958	2.1774473	1.4756176
35.32094611091867	2.0240548	1.4226928
35.33934020088932	1.9708167	1.4038578
35.35773523147969	2.217741	1.4892082
35.3761312033082	2.252844	1.5009477
35.394528116993506	2.1027658	1.4500916
35.41292597315452	2.298725	1.5161546
35.431324772410434	2.4275181	1.5580494
35.449724515380666	1.9990593	1.413881
35.46812520268491	1.8347478	1.3545287
35.486526834943106	2.1752052	1.4748577
35.504929412775454	2.8620834	1.6917694
35.52333293680242	2.8975775	1.7022272
35.54173740764471	2.4362721	1.5608562
35.560142825923286	1.7646366	1.3283963
35.5785491922594	1.745794	1.321285
35.59695650727454	2.2622094	1.5040643
35.61536477159042	2.3560128	1.5349308
