0.008763373481513119	0.0	0.0
0.026290120649546365	0.0	0.0
0.043816868432600686	0.13170215	0.36290792
0.06134361724069026	0.11067816	0.33268327
0.07887036748382949	0.17218243	0.4149487
0.0963971195720331	0.15805702	0.39756384
0.11392387391531617	0.16928744	0.41144556
0.1314506309236943	0.12340394	0.35128897
0.1489773910071836	0.11725006	0.34241796
0.16650415457580078	0.13365935	0.3655945
0.18403092203956356	0.16318719	0.40396434
0.20155769380849	0.20069738	0.44799262
0.2190844702925996	0.3055001	0.5527206
0.2366112519019124	0.27641496	0.5257518
0.2541380390464497	0.23712575	0.48695558
0.27166483213623416	0.1786543	0.42267516
0.28919163158128947	0.14941148	0.38653782
0.3067184377916406	0.12717551	0.35661677
0.324245251177314	0.10318205	0.32121962
0.34177207214833777	0.07045408	0.26543188
0.3592989011147415	0.0626969	0.25039348
0.37682573848655654	0.07927518	0.28155848
0.39435258467381573	0.12858897	0.35859305
0.41187944008655414	0.12246252	0.34994644
0.42940630513480854	0.1344366	0.36665598
0.446933180228618	0.19526799	0.44189137
0.4644600657780234	0.24569535	0.49567667
0.48198696219306775	0.24574198	0.4957237
0.49951386988379676	0.2020711	0.44952318
0.5170407892602581	0.14620648	0.38236958
0.5345677207325025	0.15915605	0.39894366
0.5520946647105822	0.16501813	0.40622422
0.5696216216045534	0.17499568	0.41832486
0.5871485918244737	0.19028388	0.4362154
0.6046755757804043	0.17744371	0.4212407
0.6222025738824094	0.16045381	0.40056688
0.6397295865405557	0.13566452	0.36832666
0.6572566141649129	0.13952684	0.37353292
0.6747836571655547	0.19889235	0.4459735
0.6923107159525568	0.23084316	0.4804614
0.7098377909359992	0.23548439	0.48526734
0.7273648825259653	0.21868162	0.46763405
0.7448919911325411	0.18125817	0.42574427
0.762419117165817	0.17391305	0.41702884
0.7799462610358868	0.14682963	0.38318354
0.7974734231528482	0.1652455	0.406504
0.8150006039268024	0.18263462	0.42735773
0.8325278037678551	0.17041698	0.41281593
0.8500550230861152	0.20865566	0.45678842
0.8675822622916969	0.20442533	0.4521342
0.8851095217947171	0.21504804	0.46373272
0.9026368020052984	0.17380115	0.41689464
0.9201641033335665	0.1859399	0.43120748
0.9376914261896523	0.20370997	0.4513424
0.9552187709836915	0.21500815	0.4636897
0.9727461381258234	0.21353461	0.46209806
0.990273528026193	0.22187035	0.47103116
1.0078009410949496	0.2560547	0.50601846
1.0253283777422473	0.2615879	0.5114566
1.0428558383782454	0.29901534	0.54682297
1.0603833234131086	0.29185513	0.5402362
1.0779108332570058	0.3205069	0.56613326
1.0954383683201119	0.34099516	0.5839479
1.112965929012607	0.35695606	0.597458
1.1304935157446763	0.5404179	0.7351312
1.1480211289265108	0.5633975	0.75059813
1.1655487689683062	1.4123129	1.1884077
1.1830764362802655	1.6964092	1.3024627
1.200604131272596	2.145879	1.4648819
1.2181318543555117	2.4243174	1.557022
1.235659605939232	2.4587326	1.5680346
1.253187386433982	3.8270311	1.9562799
1.270715196249994	6.0151205	2.4525743
1.2882430357975057	11.194789	3.3458614
1.3057709054867608	15.931441	3.991421
1.3232988057280106	21.63506	4.6513505
1.3408267369315112	26.122667	5.111034
1.358354699507526	29.464752	5.4281445
1.3758826938663256	33.327007	5.772955
1.3934107204181858	35.124535	5.9265957
1.410938779573391	35.69982	5.9749327
1.4284668717422309	36.219646	6.018276
1.4459949973350033	35.871708	5.9892993
1.4635231567620117	36.25632	6.0213223
1.4810513504335687	35.769382	5.980751
1.4985795787599925	35.283882	5.940024
1.5161078421516088	34.792923	5.8985524
1.5336361410187505	33.786434	5.81261
1.5511644757717598	33.255814	5.766785
1.5686928468209842	34.043404	5.8346725
1.58622125457678	34.989025	5.915152
1.6037496994495108	36.696873	6.0577946
1.621278181849548	36.53124	6.044108
1.6388067021872719	36.77906	6.0645742
1.6563352608730693	36.067795	6.0056467
1.673863858317336	35.265957	5.9385147
1.6913924949304753	34.310383	5.8575068
1.7089211711228998	33.32137	5.7724667
1.7264498873050296	32.709423	5.7192154
1.7439786438872935	32.089714	5.664778
1.7615074412801288	31.304047	5.5950017
1.779036279893981	30.785841	5.548499
1.796565160139305	29.558546	5.436777
1.814094082426564	28.697176	5.3569746
1.8316230471662298	27.676952	5.260889
1.849152054768784	26.82193	5.1789894
1.8666811056447168	26.411024	5.139166
1.8842102002045273	25.803549	5.0797195
1.901739338858724	25.092237	5.0092154
1.9192685220178245	24.517143	4.951479
1.9367977500923557	23.917824	4.8905854
1.9543270234928547	23.439598	4.841446
1.971856342629867	23.090467	4.805254
1.9893857079139496	22.444681	4.7375817
2.006915119755667	21.961332	4.686292
2.0244445785655945	21.560152	4.643291
2.0419740847543175	21.358751	4.621553
2.0595036387324317	21.132893	4.5970526
2.0770332409105414	20.552555	4.5334926
2.094562891699263	20.215168	4.496128
2.1120925915092217	19.697104	4.438142
2.129622340751053	19.505106	4.4164586
2.1471521398354043	187.49487	13.692877
2.1646819891729323	443.77307	21.065922
2.182211889174303	439.89456	20.973663
2.1997418402501974	452.3394	21.268272
2.2172718428113023	432.24908	20.790602
2.234801897268317	320.28616	17.89654
2.2523320040319548	16.595303	4.0737333
2.269862163512935	16.30064	4.037405
2.287392376121992	16.135561	4.0169096
2.304922642269869	15.871849	3.983949
2.322452962367322	15.486127	3.9352417
2.3399833368251164	14.82052	3.849743
2.357513766054032	14.576841	3.817963
2.3750442504648586	14.463795	3.8031297
2.3925747904683963	14.483698	3.8057454
2.410105386475459	14.357259	3.7890973
2.4276360388968707	14.054453	3.7489269
2.445166748143469	13.891227	3.7270937
2.4626975146261025	13.453353	3.6678813
2.4802283387556323	13.199851	3.6331599
2.4977592209429305	12.882516	3.5892222
2.5152901615988825	12.67129	3.5596757
2.5328211611343865	12.409918	3.5227714
2.5503522199603523	12.120101	3.4813936
2.5678833384877024	12.024024	3.4675674
2.5854145171273712	11.894563	3.4488494
2.6029457562903064	11.592852	3.4048276
2.620477056387469	11.305424	3.3623538
2.6380084178298326	11.17051	3.3422313
2.655539841028383	11.048965	3.3239985
2.673071326394119	10.998815	3.316446
2.6906028743380523	10.854012	3.2945428
2.708134485271211	10.720803	3.2742639
2.7256661596046325	10.610597	3.257391
2.743197897749369	10.415009	3.227229
2.760729700116486	10.20483	3.1945
2.778261567117063	10.017395	3.165027
2.795793499162193	9.808386	3.1318343
2.8133254966629817	9.505138	3.0830405
2.830857560030551	9.363692	3.060015
2.8483896896760337	9.236164	3.039106
2.865921886010578	9.174783	3.0289903
2.883454149445347	9.200298	3.0331993
2.9009864803915177	9.220076	3.0364578
2.91851887926028	9.125187	3.0207925
2.9360513464628384	8.93932	2.9898696
2.953583882410413	8.737945	2.9560015
2.9711164875142373	8.716921	2.9524431
2.9886491621855606	8.583646	2.929786
3.0061819068356455	8.4927225	2.9142275
3.023714721875769	8.344433	2.8886733
3.041247607717225	8.264601	2.874822
3.0587805647713213	8.151952	2.8551624
3.0763135934493806	8.098132	2.8457217
3.0938466941627407	7.944384	2.8185785
3.1113798673227544	7.8224854	2.7968707
3.1289131133407904	7.7582245	2.785359
3.1464464326282315	7.6713705	2.769724
3.1639798255964786	7.5212755	2.7424943
3.1815132926569443	7.2876225	2.6995597
3.1990468342210603	7.3451815	2.7101996
3.216580450700272	7.3460073	2.710352
3.2341141425060416	7.2322683	2.6892877
3.251647910049847	7.0863814	2.662026
3.2691817537431813	7.0517764	2.655518
3.286715673997555	6.8957405	2.6259742
3.3042496712244938	6.8463454	2.616552
3.32178374583554	6.7221055	2.5927024
3.339317898242251	6.717629	2.5918388
3.3568521288562034	6.6420274	2.577213
3.3743864380889876	6.6063375	2.5702796
3.3919208263522127	6.725315	2.5933213
3.4094552940575023	6.6938562	2.5872488
3.4269898416164972	6.5768456	2.564536
3.444524469440858	6.419736	2.5337198
3.4620591779422587	6.299253	2.5098312
3.479593967532391	6.2862477	2.507239
3.4971288386229658	6.267356	2.5034688
3.5146637916257086	6.240049	2.498009
3.5321988269523628	6.2358394	2.4971662
3.5497339450146903	6.2247496	2.4949448
3.5672691462244708	6.191199	2.4882119
3.5848044309934988	6.0856466	2.4669104
3.60233979973359	6.0289173	2.4553854
3.619875252856575	6.008218	2.4511666
3.6374107907743034	6.038303	2.457296
3.6549464138986427	6.1587853	2.48169
3.6724821226414788	6.1068306	2.4712002
3.690017917414714	6.0589714	2.4614978
3.7075537986302702	6.000556	2.4496033
3.7250897667000857	6.0992613	2.4696681
3.7426258220361235	6.2940135	2.5087872
3.7601619650503553	6.6408386	2.5769825
3.777698196154779	7.179697	2.6794956
3.7952345157614067	8.258682	2.8737924
3.8127709242822716	9.128084	3.021272
3.830307422129425	11.226661	3.350621
3.847844009714936	29.903395	5.4683995
3.8653806874508954	97.2933	9.863736
3.882917455749409	96.54802	9.825885
3.900454315022606	96.37712	9.817185
3.917991265682631	41.06644	6.4083104
3.9355283081416506	10.7445135	3.2778826
3.9530654428118495	8.550238	2.924079
3.970602670105433	7.200597	2.6833928
3.9881399904346244	6.3668475	2.5232613
4.005677404211669	6.2765074	2.5052958
4.023214911848827	6.3090796	2.5117881
4.0407525137583855	6.276415	2.5052774
4.058290210352644	6.2578673	2.501573
4.075828002043927	6.17021	2.4839907
4.0933658892445814	6.1213007	2.4741263
4.110903872366966	6.0386376	2.4573638
4.128441951823468	6.0228977	2.4541593
4.145980128026488	5.9641004	2.4421508
4.163518401388452	5.959977	2.4413064
4.181056772321807	5.93153	2.4354732
4.1985952412390155	5.93374	2.435927
4.216133808552567	5.935116	2.4362092
4.233672474674966	6.021039	2.4537807
4.251211240018741	6.203986	2.49078
4.268750104996445	6.3833222	2.5265238
4.286289070020643	7.3660593	2.7140486
4.303828135503928	9.032972	3.0054903
4.3213673018589125	29.403244	5.422476
4.3389065694982305	90.49959	9.513127
4.356445938834537	165.53279	12.865954
4.3739854102805085	170.71455	13.065778
4.391524984248844	171.64047	13.101163
4.409064661152262	135.9073	11.657928
4.426604441403504	96.206726	9.808503
4.444144325415337	75.51642	8.690019
4.461684313600543	21.364906	4.6222186
4.47922440637193	21.762608	4.665041
4.496764604142329	19.903097	4.461289
4.5143049073245916	18.069176	4.2507854
4.531845316331589	16.08765	4.0109415
4.5493858315762195	13.131262	3.6237082
4.566926453471405	10.86168	3.2957063
4.584467182430081	8.733406	2.9552336
4.602008018865218	7.7742925	2.7882419
4.619548963189798	7.299306	2.7017229
4.637090015816834	6.9069505	2.6281078
4.654631177159353	6.6421156	2.5772302
4.672172447630417	6.2836237	2.5067158
4.689713827643102	6.050712	2.4598196
4.7072553176105085	5.8865113	2.4262133
4.724796917945764	5.8826146	2.4254103
4.742338629062015	5.8225737	2.413001
4.759880451372434	5.725548	2.3928118
4.777422385290215	5.670498	2.3812807
4.794964431228581	5.572118	2.3605335
4.812506589600768	5.5741253	2.3609586
4.830048860820047	5.530837	2.3517733
4.847591245299709	5.4708533	2.3389854
4.8651337434530655	5.401891	2.3241968
4.882676355693457	5.3844833	2.3204489
4.900219082434242	5.3383875	2.3104951
4.917761924088813	5.3977747	2.323311
4.935304881070575	5.356786	2.3144732
4.952847953792969	5.327602	2.3081598
4.970391142669449	5.325714	2.307751
4.9879344481135055	5.339172	2.310665
5.005477870538642	5.377904	2.3190308
5.023021410358394	5.2891035	2.2998052
5.040565067986324	5.274318	2.2965884
5.05810884383601	5.2926044	2.3005662
5.075652738321066	5.4059315	2.3250659
5.09319675185512	5.3529263	2.3136392
5.110740884851836	5.2737393	2.2964623
5.128285137724894	5.143911	2.2680192
5.145829510888007	5.1214886	2.2630706
5.163374004754908	5.122602	2.2633166
5.1809186197393595	5.113462	2.2612965
5.198463356255145	5.1424656	2.2677004
5.216008214716077	5.175016	2.274866
5.233553195535998	5.2054086	2.2815363
5.251098299128764	5.1741204	2.2746694
5.268643525908272	5.0510144	2.2474463
5.286188876288432	5.0178566	2.2400572
5.3037343506831895	5.0187025	2.240246
5.32127994950651	5.0611906	2.249709
5.3388256731723915	5.068757	2.25139
5.356371522094851	5.125337	2.2639208
5.373917496687938	5.170533	2.2738807
5.391463597365729	5.155067	2.2704773
5.40900982454232	5.0847497	2.2549388
5.426556178631843	5.122779	2.2633557
5.444102660048449	5.0862713	2.2552762
5.4616492692063225	5.085928	2.2552001
5.479196006519669	5.0103664	2.2383847
5.496742872402727	4.9842563	2.232545
5.514289867269756	4.973681	2.230175
5.531836991535049	5.0111628	2.2385626
5.549384245612924	5.007007	2.2376342
5.566931629917724	4.9934025	2.2345922
5.584479144863822	4.9399095	2.2225907
5.6020267908656205	4.919784	2.2180586
5.619574568337545	4.9474893	2.2242951
5.637122477694054	4.983129	2.2322924
5.654670519349629	5.0368114	2.2442842
5.672218693718784	5.0501904	2.247263
5.689767001216059	5.086084	2.2552347
5.707315442256021	5.056565	2.2486806
5.724864017253266	5.107738	2.2600305
5.7424127266224225	5.097995	2.257874
5.75996157077814	5.045752	2.2462752
5.777510550135105	5.0109386	2.2385125
5.795059665108022	4.953768	2.225706
5.812608916111639	5.0211844	2.2408
5.830158303560715	5.114373	2.261498
5.847707827870055	5.120501	2.2628524
5.86525748945448	5.2085266	2.2822196
5.8828072887288485	5.2970405	2.3015301
5.900357226108044	5.358012	2.314738
5.917907302006979	5.4351945	2.3313503
5.9354575168406	6.0487022	2.459411
5.9530078710238765	6.692421	2.5869713
5.970558364971812	7.216547	2.6863632
5.988108999099438	7.5881147	2.7546532
6.005659773821818	8.067381	2.8403134
6.023210689554039	7.7454624	2.783067
6.040761746711227	8.10929	2.8476815
6.058312945708531	7.543329	2.7465122
6.075864286961132	7.0452123	2.6542819
6.093415770884244	6.485926	2.5467482
6.1109673978931065	5.9317265	2.4355135
6.128519168402993	5.37	2.317326
6.146071082829204	5.2061305	2.2816947
6.163623141587075	5.055878	2.248528
6.181175345091969	5.033478	2.2435412
6.198727693759281	5.080942	2.2540946
6.216280188004435	5.092388	2.256632
6.233832828242885	5.0722117	2.2521572
6.251385614890126	5.08728	2.2554998
6.268938548361669	5.120997	2.262962
6.286491629073067	4.986078	2.2329526
6.304044857439898	4.977249	2.230975
6.321598233877777	4.911728	2.2162418
6.339151758802344	4.9660497	2.2284634
6.356705432629277	4.997567	2.235524
6.37425925577428	4.98517	2.2327495
6.391813228653095	4.922235	2.218611
6.409367351681486	4.889821	2.211294
6.426921625275259	4.862829	2.2051823
6.44447604985025	4.869541	2.2067037
6.46203062582232	4.8442492	2.2009656
6.47958535360737	4.8834314	2.2098486
6.497140233621328	4.8961086	2.2127151
6.514695266280161	4.892884	2.2119863
6.532250451999859	4.8984795	2.2132509
6.549805791196454	4.8692536	2.2066386
6.567361284286002	4.917768	2.2176042
6.584916931684597	4.949298	2.2247016
6.602472733808367	4.9945655	2.2348526
6.6200286910734665	4.9329033	2.221014
6.637584803896092	4.854495	2.203292
6.655141072692462	4.844684	2.2010643
6.672697497878842	4.919636	2.2180252
6.690254079871514	4.938339	2.2222373
6.707810819086808	4.897883	2.2131162
6.725367715941078	4.808611	2.1928544
6.742924770850719	4.770218	2.1840827
6.760481984232151	4.8359537	2.1990802
6.778039356501836	4.897818	2.2131014
6.795596888076266	4.9245396	2.2191303
6.813154579371963	4.922885	2.2187576
6.830712430805492	4.9022293	2.2140977
6.84827044279344	4.863723	2.205385
6.865828615752445	4.8244233	2.196457
6.883386950099159	4.871948	2.207249
6.900945446250287	4.8969254	2.2128997
6.918504104622553	4.9368057	2.2218924
6.936062925632727	4.9037914	2.2144506
6.953621909697607	4.912665	2.2164533
6.971181057234028	4.904545	2.2146206
6.988740368658859	4.8864603	2.2105339
7.006299844389007	4.9863186	2.2330067
7.023859484841407	5.087541	2.2555578
7.041419290433036	5.200046	2.280361
7.058979261580902	5.2875934	2.2994769
7.0765393987020495	5.5095677	2.347247
7.094099702213559	5.8744874	2.4237342
7.111660172532549	6.1411295	2.4781303
7.129220810076164	6.484532	2.5464745
7.146781615261595	7.071071	2.6591487
7.16434258850606	7.453803	2.7301655
7.181903730226821	7.9150205	2.8133645
7.1994650408411704	7.9707546	2.8232524
7.217026520766437	7.993246	2.8272328
7.234588170419983	8.16275	2.8570528
7.252149990219215	8.220569	2.8671534
7.269711980581568	8.140483	2.8531532
7.2872741419245175	7.8938727	2.8096037
7.304836474665574	7.455769	2.7305255
7.322398979222286	7.153321	2.6745694
7.339961656012233	6.9407525	2.6345308
7.357524505453039	6.667549	2.5821598
7.375087527962357	6.3981075	2.529448
7.392650723957886	6.096194	2.469047
7.410214093857353	5.768817	2.4018362
7.427777638078528	5.5462866	2.3550556
7.445341357039213	5.4586005	2.3363647
7.4629052511572525	5.3690386	2.3171186
7.480469320850524	5.308861	2.3040965
7.498033566536948	5.25201	2.2917264
7.5155979886344735	5.1677494	2.2732685
7.5331625875610975	5.1101623	2.2605667
7.550727363734844	5.058596	2.2491324
7.568292317573788	5.056702	2.248711
7.585857449496025	5.110314	2.2606003
7.603422759919705	5.145131	2.2682881
7.620988249263007	5.108152	2.260122
7.638553917944147	5.0424857	2.245548
7.656119766381391	5.069888	2.2516413
7.673685794993023	5.181699	2.2763345
7.691252004197388	5.2097473	2.2824872
7.70881839441285	5.189833	2.2781205
7.726384966057826	5.1404943	2.2672658
7.743951719550762	5.157568	2.271028
7.761518655310149	5.148918	2.2691228
7.779085773754511	5.1444287	2.2681334
7.796653075302419	5.127497	2.2643979
7.814220560372475	5.186429	2.2773733
7.831788229383323	5.1740856	2.2746615
7.8493560827536495	5.228026	2.2864876
7.866924120902174	5.260975	2.2936816
7.884492344247663	5.305806	2.3034337
7.9020607532089135	5.345329	2.3119967
7.919629348204771	5.325527	2.3077104
7.937198129654115	5.2613506	2.2937634
7.954767097975865	5.2394996	2.2889953
7.972336253588986	5.259129	2.2932792
7.989905596912472	5.2930865	2.3006709
8.007475128365371	5.277609	2.2973046
8.025044848366756	5.32089	2.3067055
8.042614757335754	5.3727264	2.3179142
8.060184855691523	5.415024	2.3270204
8.07775514385327	5.587567	2.3638034
8.095325622240228	5.611331	2.3688247
8.112896291271687	5.676888	2.382622
8.130467151366968	5.717477	2.3911245
8.148038202945436	5.805074	2.409372
8.165609446426497	5.798794	2.4080684
8.183180882229594	5.916584	2.4324028
8.200752510774217	5.9065075	2.4303308
8.218324332479893	5.903356	2.4296823
8.235896347766193	5.831552	2.4148607
8.253468557052724	5.7906237	2.4063714
8.27104096075914	5.7484894	2.3976007
8.288613559305137	5.782412	2.4046648
8.306186353110448	5.8880515	2.4265308
8.32375934259485	5.928055	2.4347596
8.341332528178162	5.9391704	2.4370413
8.358905910280246	6.0093555	2.4513986
8.376479489321003	6.0498195	2.459638
8.394053265720377	6.135063	2.476906
8.411627239898356	6.133097	2.476509
8.42920141227497	6.1420083	2.4783075
8.44677578327029	6.1263757	2.4751515
8.464350353304427	6.0783997	2.465441
8.48192512279754	6.040352	2.4577127
8.499500092169827	6.0309854	2.4558065
8.51707526184153	6.0374007	2.4571123
8.534650632232934	6.0673594	2.463201
8.552226203764365	6.0767055	2.4650974
8.569801976856192	6.1226206	2.474393
8.587377951928834	6.1445503	2.4788203
8.60495412940274	6.1697793	2.4839041
8.622530509698416	6.2108946	2.4921668
8.6401070932364	6.31974	2.5139093
8.657683880437283	6.4949694	2.548523
8.675260871721695	6.6348486	2.57582
8.692838067510303	6.6768155	2.5839534
8.710415468223834	6.7151437	2.5913594
8.727993074283043	6.839093	2.615166
8.745570886108737	6.929312	2.6323588
8.763148904121765	7.0247874	2.6504316
8.78072712874302	7.04376	2.6540082
8.798305560393441	7.224215	2.68779
8.815884199494006	7.336463	2.7085905
8.833463046465745	7.4956784	2.7378237
8.851042101729728	7.6110687	2.7588165
8.86862136570707	7.952888	2.8200865
8.886200838818924	8.175495	2.8592823
8.903780521486505	8.239776	2.870501
8.921360414131055	8.340729	2.888032
8.938940517173874	8.432698	2.9039109
8.956520831036297	8.616832	2.935444
8.97410135613971	8.856058	2.975913
8.99168209290554	8.996769	2.9994614
9.009263041755265	9.186137	3.030864
9.026844203110405	9.385842	3.0636322
9.044425577392525	9.564267	3.092615
9.062007165023239	9.65222	3.1068022
9.079588966424197	9.970987	3.157687
9.097170982017108	10.067904	3.172996
9.11475321222372	11.126237	3.3356013
9.132335657465825	12.05123	3.4714882
9.149918318165264	12.242045	3.4988635
9.167501194743924	12.8200865	3.580515
9.18508428762374	12.483348	3.533178
9.202667597226693	12.41639	3.52369
9.220251123974803	12.005695	3.4649236
9.237834868290143	11.729235	3.424797
9.255418830594836	11.643065	3.4121935
9.273003011311046	11.176592	3.343141
9.290587410860985	10.938512	3.307342
9.308172029666911	10.196715	3.1932297
9.32575686815113	9.9337845	3.1517906
9.343341926735997	8.652052	2.941437
9.360927205843916	8.449666	2.906831
9.378512705897327	8.2108345	2.8654554
9.396098427318728	7.9493494	2.819459
9.413684370530664	7.7965713	2.7922342
9.431270535955722	7.748887	2.7836823
9.448856924016539	7.6884713	2.7728093
9.466443535135806	7.605259	2.7577634
9.484030369736251	7.574052	2.7520995
9.501617428240658	7.555158	2.7486649
9.519204711071852	7.5939984	2.755721
9.536792218652714	7.526948	2.7435284
9.55437995140617	7.5601134	2.749566
9.571967909755191	7.5738983	2.7520716
9.589556094122802	7.7005396	2.7749846
9.60714450493207	7.7926364	2.7915294
9.624733142606116	7.8336253	2.7988615
9.642322007568108	7.8318405	2.7985425
9.659911100241267	7.788182	2.7907314
9.677500421048851	7.760238	2.7857203
9.695089970414175	7.844892	2.8008735
9.712679748760609	7.9228897	2.8147628
9.730269756511557	8.009077	2.8300314
9.747859994090492	8.025348	2.8329046
9.765450461920915	8.054775	2.8380935
9.78304116042639	8.098048	2.845707
9.800632090030527	8.140798	2.8532083
9.81822325115699	8.189315	2.861698
9.835814644229481	8.20076	2.8636968
9.853406269671762	8.119232	2.8494267
9.870998127907646	8.016103	2.8312724
9.888590219360985	8.0783	2.842235
9.906182544455698	8.1609745	2.856742
9.923775103615734	8.147509	2.8543842
9.941367897265108	8.148599	2.8545752
9.958960925827878	8.082107	2.8429046
9.97655418972816	8.103495	2.8466637
9.994147689390106	8.112603	2.8482633
10.011741425237934	8.105525	2.8470204
10.029335397695904	8.133639	2.8519535
10.04692960718833	8.139088	2.8529086
10.06452405413958	8.166915	2.8577814
10.082118738974064	8.148638	2.8545818
10.099713662116246	8.143103	2.8536122
10.117308823990651	8.110813	2.847949
10.134904225021844	8.017404	2.831502
10.152499865634445	7.95482	2.820429
10.170095746253125	7.972201	2.8235085
10.18769186730261	8.021051	2.8321462
10.205288229207675	8.039781	2.8354506
10.222884832393145	8.043255	2.8360634
10.2404816772839	7.9536343	2.8202188
10.258078764304868	7.8908935	2.8090734
10.275676093881035	7.8357906	2.7992482
10.293273666437438	7.880446	2.8072133
10.310871482399158	7.9294987	2.8159366
10.32846954219134	7.91926	2.814118
10.346067846239173	7.901533	2.8109665
10.363666394967908	7.885454	2.808105
10.38126518880283	7.909993	2.812471
10.398864228169298	8.013453	2.830804
10.416463513492713	8.053651	2.8378954
10.434063045198531	8.028178	2.833404
10.451662823712262	8.04538	2.836438
10.469262849459467	7.988596	2.8264105
10.486863122865758	7.9576054	2.8209229
10.504463644356806	7.902045	2.8110576
10.522064414358338	7.8225985	2.796891
10.539665433296118	7.8088117	2.794425
10.557266701595987	7.7070537	2.776158
10.574868219683818	7.6203265	2.760494
10.592469987985552	7.470887	2.7332923
10.610072006927185	7.441163	2.7278495
10.627674276934751	7.351631	2.711389
10.64527679843435	7.2439127	2.6914518
10.662879571852143	7.1590986	2.6756492
10.680482597614331	7.053131	2.6557732
10.698085876147173	7.0064254	2.6469653
10.715689407876988	6.886549	2.6242235
10.733293193230146	6.840496	2.6154342
10.750897232633072	6.678923	2.5843613
10.76850152651225	6.573965	2.5639744
10.786106075294207	6.4682584	2.543277
10.803710879405534	6.369712	2.5238287
10.821315939272877	6.3079624	2.5115657
10.83892125532294	6.230638	2.4961245
10.856526827982472	6.2118263	2.4923537
10.874132657678285	6.1863117	2.4872298
10.891738744837243	6.0564303	2.4609816
10.909345089886271	5.999896	2.4494686
10.926951693252343	5.9489274	2.4390423
10.944558555362494	5.8993974	2.4288676
10.96216567664381	5.848285	2.4183228
10.979773057523436	5.733477	2.394468
10.997380698428573	5.6434507	2.3755949
11.014988599786477	5.5779433	2.361767
11.032596762024461	5.5221953	2.3499353
11.050205185569892	5.4804535	2.3410368
11.067813870850198	5.4074817	2.3253992
11.085422818292859	5.362334	2.3156714
11.10303202832541	5.35479	2.3140419
11.120641501375454	5.3488545	2.3127592
11.138251237870636	5.2880073	2.2995667
11.155861238238671	5.202827	2.2809706
11.173471502907317	5.1199546	2.2627316
11.191082032304402	5.008479	2.2379632
11.208692826857805	4.987531	2.233278
11.226303886995465	4.967157	2.2287118
11.243915213145371	4.9300904	2.2203808
11.261526805735578	4.891646	2.2117066
11.279138665194196	4.8398457	2.199965
11.296750791949393	4.813079	2.193873
11.314363186429393	4.758679	2.1814396
11.331975849062479	4.6893444	2.1654894
11.34958878027699	4.6055126	2.146046
11.36720198050133	4.5494795	2.1329508
11.384815450163948	4.4979587	2.120839
11.402429189693366	4.4297547	2.1046982
11.420043199518153	4.359548	2.087953
11.437657480066942	63.24359	7.952584
11.455272031768422	85.00365	9.219742
11.472886855051353	107.399956	10.363395
11.490501950344528	99.020874	9.950923
11.508117318076819	84.333115	9.183307
11.52573295867715	45.753853	6.764159
11.543348872574514	4.1193075	2.0296078
11.560965060197946	4.09183	2.0228271
11.57858152197655	4.072285	2.0179904
11.59619825833949	4.003164	2.0007908
11.613815269715985	3.9699557	1.9924748
11.631432556535323	38.49152	6.2041535
11.649050119226837	83.00847	9.110898
11.666667958219929	93.35859	9.662225
11.68428607394406	107.53914	10.370108
11.701904466828756	82.30607	9.072269
11.719523137303586	65.205666	8.075003
11.737142085798196	4.462789	2.1125314
11.754761312742286	3.6008236	1.8975836
11.772380818565619	3.5553646	1.8855674
11.790000603698015	3.5355601	1.8803085
11.80762066856935	3.5559437	1.885721
11.825241013609572	3.5673614	1.888746
11.842861639248683	3.547971	1.8836058
11.860482545916748	3.5001051	1.8708568
11.878103734043883	3.4412508	1.8550608
11.895725204060282	3.4182794	1.848859
11.91334695639619	3.3860295	1.8401167
11.930968991481919	3.3355975	1.8263618
11.948591309747824	3.2517827	1.80327
11.966213911624347	3.2302723	1.7972958
11.98383679754198	3.18511	1.7846876
12.001459967931268	3.1843314	1.7844695
12.019083423222835	3.13445	1.7704378
12.036707163847352	3.095892	1.7595147
12.05433119023556	3.1126602	1.7642733
12.071955502818259	3.1303947	1.7692921
12.089580102026313	3.1292162	1.768959
12.107204988290643	3.0996902	1.7605937
12.12483016204224	3.075416	1.7536864
12.142455623712152	3.0643914	1.7505403
12.16008137373149	3.0422502	1.7442048
12.177707412531431	3.0571067	1.7484584
12.19533374054321	3.0409865	1.7438425
12.212960358198126	3.0081866	1.7344124
12.230587265927545	2.9353983	1.7133005
12.248214464162889	2.859162	1.6909057
12.265841953335649	2.8820028	1.6976463
12.283469733877375	2.9038565	1.7040706
12.301097806219685	2.9606793	1.7206625
12.31872617079425	2.9380808	1.7140831
12.336354828032825	2.889438	1.6998347
12.353983778367205	2.8646533	1.6925287
12.371613022229262	2.844662	1.6866126
12.389242560050928	2.8126128	1.6770846
12.406872392264201	2.7994936	1.6731687
12.424502519301143	2.7922394	1.6709995
12.442132941593874	2.8314512	1.6826917
12.459763659574586	2.8128564	1.6771573
12.477394673675532	2.7804296	1.667462
12.49502598432903	2.7625785	1.6621007
12.51265759196746	2.7811515	1.6676785
12.530289497023267	2.795868	1.6720849
12.547921699928967	2.806638	1.6753024
12.565554201117134	2.7696319	1.664221
12.583187001020404	2.719767	1.6491716
12.600820100071486	2.7021432	1.6438197
12.618453498703152	2.6833034	1.6380792
12.636087197348235	2.6890345	1.6398276
12.65372119643964	2.6937938	1.6412781
12.671355496410326	2.7563643	1.6602302
12.68899009769333	2.8179357	1.6786708
12.706625000721749	2.8516426	1.6886808
12.724260205928752	2.901468	1.7033696
12.741895713747551	2.9092157	1.7056423
12.759531524611454	2.9272428	1.7109187
12.777167638953818	2.9007127	1.7031479
12.794804057208072	2.9116328	1.7063507
12.812440779807702	2.9855998	1.7278888
12.830077807186271	3.1476645	1.7741659
12.847715139777405	3.2180283	1.7938864
12.865352778014795	3.362341	1.8336687
12.882990722332197	3.488856	1.867848
12.90062897316344	3.5518658	1.8846394
12.918267530942412	3.6801171	1.9183631
12.935906396103071	3.5686085	1.8890761
12.953545569079449	3.7298748	1.9312884
12.971185050305628	3.54722	1.8834065
12.988824840215775	3.5392053	1.8812776
13.006464939244115	3.5989563	1.8970915
13.024105347824943	3.4602277	1.8601687
13.041746066392617	3.5489514	1.8838661
13.05938709538157	3.3170278	1.821271
13.077028435226296	3.317426	1.8213803
13.094670086361363	3.214038	1.7927738
13.112312049221401	3.0849836	1.7564121
13.129954324241112	2.997569	1.7313489
13.147596911855258	2.8072329	1.6754799
13.165239812498685	2.8066928	1.6753187
13.182883026606293	2.748824	1.6579578
13.200526554613058	2.720089	1.6492692
13.218170396954017	2.6710021	1.6343201
13.235814554064284	2.6414237	1.6252457
13.253459026379034	2.628369	1.6212245
13.271103814333523	2.6027086	1.6132913
13.288748918363058	2.5980973	1.6118615
13.306394338903031	2.6298969	1.6216956
13.32404007638889	2.6541736	1.6291635
13.341686131256164	2.659083	1.6306695
13.359332503940449	2.6180973	1.6180536
13.376979194877402	2.588308	1.608822
13.394626204502751	2.6197696	1.6185702
13.412273533252307	2.6393402	1.6246046
13.429921181561937	2.6647427	1.632404
13.447569149867581	2.692943	1.6410189
13.465217438605247	2.7170537	1.6483488
13.482866048211022	2.7025692	1.6439493
13.500514979121052	2.7177207	1.6485511
13.518164231771568	2.6713977	1.6344411
13.535813806598844	2.6670637	1.6331147
13.553463704039254	2.6424062	1.625548
13.571113924529229	2.6762085	1.6359122
13.588764468505275	2.6764102	1.6359738
13.606415336403956	2.6951225	1.6416829
13.624066528661917	2.6905668	1.6402947
13.641718045715882	2.7410417	1.6556091
13.659369888002635	2.7675874	1.6636068
13.67702205595903	2.8405726	1.6853999
13.694674550021993	2.9186914	1.7084178
13.712327370628532	2.9765334	1.7252632
13.729980518215713	3.048571	1.7460158
13.747633993220681	3.1043417	1.7619143
13.765287796080647	3.1300964	1.7692078
13.7829419272329	3.1640038	1.7787647
13.800596387114801	3.1965184	1.787881
13.818251176163775	3.2105005	1.7917869
13.835906294817324	3.2731524	1.8091855
13.853561743513023	3.3079498	1.818777
13.871217522688525	3.404791	1.8452076
13.888873632781538	3.458389	1.8596745
13.906530074229858	3.5031712	1.8716761
13.92418684747135	3.483499	1.8664135
13.941843952943948	3.4207225	1.8495195
13.959501391085665	3.3637762	1.8340601
13.977159162334578	3.317093	1.8212888
13.994817267128846	3.2625468	1.8062521
14.012475705906693	3.1803186	1.7833447
14.030134479106424	3.1098478	1.763476
14.047793587166414	3.0299706	1.740681
14.065453030525108	2.9537082	1.7186356
14.083112809621026	2.887884	1.6993775
14.100772924892766	2.8802855	1.6971403
14.118433376778997	2.8638065	1.6922785
14.136094165718458	2.8210185	1.6795888
14.153755292149969	2.7858243	1.6690788
14.171416756512416	2.7098062	1.6461489
14.189078559244768	2.6407275	1.6250316
14.20674070078606	2.5487537	1.5964817
14.224403181575408	2.4609861	1.568753
14.242066002051999	2.4254386	1.557382
14.259729162655093	2.3751853	1.5411636
14.277392663824022	2.3598967	1.5361955
14.295056505998208	2.3765235	1.5415977
14.312720689617128	2.392316	1.5467113
14.330385215120348	2.4088163	1.5520362
14.348050082947497	2.3769364	1.5417316
14.3657152935383	2.3448477	1.5312896
14.383380847332528	2.3090997	1.5195723
14.401046744770051	2.3150754	1.5215372
14.418712986290798	2.3366456	1.528609
14.436379572334793	2.3506973	1.5331984
14.454046503342123	2.3642106	1.537599
14.471713779752946	2.3551219	1.5346407
14.489381402007504	2.3696373	1.5393627
14.507049370546113	2.384717	1.5442529
14.524717685809168	2.3857973	1.5446026
14.542386348237134	2.3860588	1.5446873
14.560055358270553	2.417057	1.5546887
14.577724716350051	2.45558	1.567029
14.595394422916325	2.4346611	1.56034
14.61306447841015	2.42245	1.5564222
14.63073488327237	2.4031274	1.5502024
14.648405637943917	2.4427242	1.5629216
14.6660767428658	2.4486034	1.5648013
14.683748198479094	2.4833195	1.5758551
14.701420005224954	2.4955766	1.5797395
14.719092163544628	2.5853777	1.607911
14.73676467387942	2.5931678	1.6103315
14.754437536670727	2.5991168	1.6121776
14.772110752360014	2.5916846	1.609871
14.78978432138882	2.6063373	1.6144155
14.807458244198777	2.6231651	1.6196188
14.82513252123159	2.5997074	1.6123608
14.842807152929028	2.6237485	1.6197989
14.860482139732962	2.659342	1.6307489
14.87815748208531	2.6682239	1.6334699
14.8958331804281	2.6278634	1.6210686
14.91350923520342	2.5997765	1.6123823
14.931185646853438	2.6317356	1.6222625
14.948862415820408	2.6768856	1.6361191
14.966539542546656	2.657405	1.6301548
14.98421702747459	2.646849	1.6269139
15.001894871046696	2.6227937	1.6195041
15.019573073705542	2.6336691	1.6228583
15.037251635893766	2.6375253	1.624046
15.054930558054092	2.6774366	1.6362875
15.072609840629323	2.7068498	1.6452507
15.090289484062351	2.744597	1.6566825
15.107969488796124	2.8386362	1.6848253
15.125649855273691	2.9956334	1.7307898
15.14333058393817	3.3672864	1.8350167
15.161011675232768	3.9368637	1.9841532
15.17869312960076	4.5511336	2.1333387
15.196374947485506	5.2790284	2.2976136
15.214057129330447	6.622739	2.5734682
15.231739675579114	8.761144	2.959923
15.249422586675102	13.314069	3.648845
15.267105863062092	17.91949	4.233142
15.284789505183847	25.10559	5.010548
15.302473513484218	30.190023	5.494545
15.320157888407127	34.353954	5.8612247
15.337842630396578	33.175896	5.759852
15.355527739896656	30.237986	5.4989076
15.37321321735153	23.593807	4.8573456
15.39089906320545	16.049852	4.0062265
15.408585277902748	10.223188	3.1973722
15.42627186188783	6.292492	2.508484
15.443958815605198	4.504577	2.1223989
15.461646139499424	3.702847	1.9242783
15.479333834015168	3.2598941	1.8055177
15.497021899597165	2.9647138	1.7218344
15.514710336690234	2.7684572	1.6638682
15.53239914573928	2.6825566	1.6378512
15.550088327189297	2.6254005	1.6203088
15.567777881485336	2.6035912	1.6135647
15.58546780907256	2.5701258	1.6031612
15.6031581103962	2.5432298	1.5947508
15.620848785901568	2.495008	1.5795594
15.638539836034063	2.4502327	1.5653219
15.656231261239173	2.4127584	1.5533056
15.673923061962451	2.4096065	1.5522907
15.691615238649552	2.3552697	1.5346888
15.709307791746202	2.369124	1.5391959
15.727000721698221	2.390334	1.5460705
15.744694028951498	2.4366674	1.5609828
15.76238771395202	2.4389558	1.5617156
15.780081777145844	2.424079	1.5569454
15.797776218979125	2.4197598	1.5555577
15.815471039898094	2.4322045	1.5595527
15.833166240349064	2.4334033	1.5599369
15.850861820778437	2.418517	1.5551583
15.868557781632699	2.4208848	1.5559193
15.886254123358412	2.439348	1.5618412
15.903950846402232	2.4612226	1.5688285
15.921647951210897	2.4621682	1.5691297
15.939345438231225	2.5011346	1.5814976
15.957043307910133	2.5165539	1.586365
15.974741560694602	2.486762	1.5769471
15.992440197031714	2.4693685	1.5714225
16.01013921736862	2.4541805	1.5665824
16.02783862215259	2.4368129	1.5610294
16.045538411830933	2.4035473	1.5503378
16.06323858685107	2.3551316	1.5346438
16.080939147660512	2.3592954	1.5359998
16.09864009470684	2.3968415	1.5481737
16.11634142843774	2.439754	1.5619712
16.134043149300954	2.4397855	1.5619813
16.15174525774433	2.4034438	1.5503044
16.169447754215817	2.379689	1.542624
16.18715063916342	2.389578	1.5458261
16.204853913035244	2.4182186	1.5550623
16.222557576279478	2.445009	1.5636524
16.240261629344403	22.42036	4.7350144
16.257966072678386	42.966526	6.554886
16.275670906729868	38.069283	6.170031
16.293376131947387	2.5054173	1.582851
16.31108174877957	2.4988043	1.5807607
16.328787757675133	2.5184362	1.5869582
16.34649415908287	2.5137224	1.5854723
16.364200953451657	2.5516686	1.5973943
16.38190814123048	2.5647988	1.601499
16.39961572286839	2.6028666	1.6133403
16.41732369881455	2.6601903	1.631009
16.43503206951817	2.6768317	1.6361026
16.45274083542859	2.6756716	1.635748
16.47044999699522	2.7106938	1.6464185
16.488159554667558	2.7577903	1.6606596
16.505869508895184	2.862356	1.6918498
16.523579860127786	2.9009967	1.7032312
16.541290608815117	2.9258137	1.710501
16.559001755407035	2.9677894	1.7227273
16.57671330035348	3.1049082	1.762075
16.59442524410448	3.2469661	1.801934
16.61213758711015	3.4603968	1.8602141
16.629850329820705	3.5299444	1.8788146
16.647563472686436	3.5475268	1.8834879
16.665277016157724	3.4354126	1.8534867
16.682990960685053	3.4364083	1.8537552
16.70070530671898	3.4352694	1.8534479
16.718420054710155	3.493767	1.8691621
16.736135205109335	3.5394785	1.8813502
16.753850758367335	3.6196802	1.9025457
16.771566714935087	3.6607413	1.9133064
16.789283075263597	3.7139177	1.9271528
16.80699983980398	3.7889924	1.9465334
16.82471700900741	3.8451521	1.9609059
16.84243458332518	3.8633833	1.9655491
16.860152563208665	3.9282513	1.9819816
16.87787094910932	4.000312	2.000078
16.89558974147871	4.0529785	2.013201
16.913308940768466	4.0814404	2.0202575
16.931028547430333	4.122536	2.030403
16.94874856191613	4.1580524	2.0391302
16.966468984677785	4.2101316	2.0518606
16.98418981616729	4.2830195	2.0695457
17.00191105683676	4.3492384	2.0854828
17.019632707138374	4.4074216	2.099386
17.03735476752442	4.453713	2.110382
17.05507723844728	4.491781	2.1193824
17.072800120359403	4.555467	2.134354
17.090523413713353	4.592936	2.1431136
17.108247118961785	4.61726	2.148781
17.125971236557437	4.583844	2.1409914
17.143695766953133	4.5983686	2.1443808
17.161420710601806	4.6309342	2.1519606
17.179146067956477	4.6493244	2.1562293
17.19687183947025	4.655775	2.1577246
17.21459802559634	4.590326	2.1425045
17.232324626788028	4.544421	2.131765
17.25005164349871	4.4817953	2.1170251
17.267779076181863	4.4735956	2.1150875
17.285506925291074	4.466143	2.113325
17.30323519127999	4.520544	2.126157
17.320963874602384	4.535165	2.1295927
17.33869297571211	4.5008574	2.1215224
17.356422495063114	4.435483	2.1060586
17.37415243310944	4.403337	2.098413
17.391882790305218	4.372859	2.0911381
17.40961356710468	4.4240146	2.1033342
17.42734476396215	4.4788866	2.116338
17.445076381332044	4.5480456	2.1326149
17.462808419668868	4.623044	2.1501265
17.48054087942723	4.6801095	2.163356
17.498273761061835	4.8122745	2.1936896
17.51600706502747	5.1236157	2.2635405
17.533740791779024	5.7306156	2.3938704
17.551474941771485	6.566748	2.5625668
17.56920951545993	8.3294525	2.886079
17.586944513299528	9.56837	3.0932782
17.60467993574556	12.449741	3.528419
17.622415783253373	15.376611	3.921302
17.64015205627843	18.424295	4.292353
17.657888755276293	20.940649	4.5760956
17.675625880702604	22.451868	4.7383404
17.69336343301311	20.929274	4.5748525
17.71110141266366	18.659302	4.3196416
17.728839820110178	15.833739	3.9791632
17.746578655808705	12.622993	3.5528853
17.764317920215372	10.447096	3.2321968
17.7820576137864	8.711388	2.951506
17.79979773697811	7.335555	2.708423
17.81753829024692	6.0681763	2.4633667
17.835279274049356	5.265676	2.294706
17.85302068884201	4.4920244	2.1194396
17.870762535081607	4.048178	2.0120084
17.888504813224934	3.819518	1.9543587
17.90624752372891	3.658337	1.912678
17.923990667050536	3.5846925	1.8933284
17.941734243646895	3.493291	1.8690348
17.959478253975185	3.447552	1.8567585
17.9772226984927	3.3908126	1.8414159
17.994967577656833	3.3719985	1.8363003
18.01271289192506	3.3208377	1.8223165
18.030458641754965	3.3044093	1.8178034
18.04820482760425	3.2659066	1.807182
18.06595144993067	3.2462516	1.8017358
18.083698509192125	3.1981797	1.7883456
18.101446005846576	3.1812263	1.7835993
18.119193940352105	3.1498053	1.7747691
18.136942313166887	3.1465342	1.7738473
18.1546911247492	3.0930371	1.7587032
18.1724403755574	3.0790482	1.7547216
18.19019006604997	3.0784152	1.7545413
18.207940196685467	3.115	1.7649362
18.225690767922575	3.1021214	1.761284
18.243441780220046	3.046884	1.7455326
18.261193234036764	3.0103226	1.7350281
18.278945129831676	2.9941084	1.7303492
18.29669746806386	2.9869075	1.7282672
18.314450249192483	2.9724762	1.7240871
18.3322034736768	2.9889283	1.7288517
18.349957141976184	3.0025334	1.732782
18.3677112545501	3.0044982	1.7333488
18.385465811858108	2.9863017	1.728092
18.403220814359884	3.0150614	1.7363932
18.420976262515172	3.0450013	1.7449932
18.43873215678387	3.07554	1.7537218
18.456488497625923	3.1320136	1.7697495
18.474245285501407	3.229207	1.7969995
18.492002520870486	3.3170722	1.8212831
18.50976020419343	3.3863802	1.840212
18.527518335930615	3.6614308	1.9134866
18.545276916542516	4.1632566	2.040406
18.563035946489688	4.253314	2.0623565
18.580795426232832	4.6574216	2.158106
18.598555356232698	4.56	2.1354156
18.616315736950185	4.8601565	2.2045763
18.63407656884626	4.556622	2.1346245
18.65183785238201	4.743022	2.177848
18.669599588018617	4.5935106	2.1432476
18.68736177621737	4.613923	2.1480045
18.705124417439652	4.646986	2.1556869
18.72288751214696	4.432868	2.1054378
18.740651060800886	4.5040326	2.1222706
18.758415063863115	4.1990323	2.049154
18.77617952179546	4.3645334	2.0891466
18.793944435059814	4.1446605	2.0358438
18.811709804118184	4.090829	2.0225797
18.829475629432675	4.004457	2.001114
18.8472419114655	3.8196545	1.9543936
18.86500865067897	3.9440064	1.9859523
18.88277584753551	3.7041526	1.9246175
18.90054350249763	3.7296383	1.9312272
18.918311616027957	3.3705761	1.835913
18.936080188589226	3.2364643	1.7990175
18.953849220644265	2.9339855	1.712888
18.971618712656007	2.8209524	1.6795691
18.9893886650875	2.780723	1.6675501
19.007159078401887	7.9756236	2.8241146
19.024929953062408	32.832703	5.729983
19.042701289532435	32.77465	5.724915
19.060473088275405	25.289455	5.0288625
19.07824534975489	2.565004	1.601563
19.096018074434568	2.5509493	1.5971692
19.113791262778197	2.57522	1.6047492
19.13156491524966	2.5863566	1.6082153
19.149339032312945	2.573781	1.6043007
19.167113614432136	2.5330222	1.5915471
19.184888662071433	2.48505	1.5764041
19.202664175695123	2.4569182	1.567456
19.220440155767623	2.4737015	1.5728005
19.238216602753447	2.504928	1.5826964
19.2559935171172	2.5354843	1.5923204
19.27377089932361	2.5438917	1.5949582
19.291548749837514	2.5458937	1.5955857
19.309327069123835	2.511596	1.5848016
19.32710585764763	2.4692311	1.5713787
19.344885115874032	2.4487212	1.564839
19.362664844268313	2.4456372	1.5638534
19.380445043295822	2.419566	1.5554954
19.39822571342203	2.4302812	1.5589359
19.41600685511252	2.443895	1.5632962
19.43378846883297	2.4708185	1.5718838
19.451570555049173	2.4784498	1.5743093
19.469353114227037	2.4614904	1.5689138
19.48713614683254	2.4556508	1.5670516
19.50491965333182	2.4655087	1.5701939
19.52270363419109	2.4659846	1.5703454
19.540488089876686	2.4398344	1.5619969
19.55827302085503	2.4227004	1.5565026
19.576058427592674	2.4325516	1.5596639
19.593844310556282	2.4580297	1.5678105
19.611630670212598	2.4612553	1.5688388
19.629417507028506	2.4825256	1.5756032
19.64720482147098	2.4748766	1.5731741
19.6649926140071	2.4623427	1.5691854
19.682780885104084	2.4476774	1.5645055
19.70056963522921	2.4907153	1.5782
19.718358864849908	2.4743724	1.5730138
19.7361485744337	2.4605	1.5685982
19.753938764448215	2.4293666	1.5586425
19.771729435361202	2.4024136	1.5499722
19.789520587640506	2.3981302	1.5485897
19.807312221754092	2.412012	1.5530654
19.825104338170043	2.43367	1.5600225
19.842896937356517	2.4477825	1.5645391
19.860690019781824	2.4593275	1.5682243
19.87848358591436	2.4705532	1.5717994
19.896277636222635	2.476304	1.5736277
19.914072171175278	2.4933321	1.5790288
19.931867191241015	2.503229	1.5821595
19.94966269688869	2.4992898	1.5809143
19.967458688587264	2.4734185	1.5727105
19.985255166805807	2.4376569	1.5612997
20.00305213201348	2.4175413	1.5548445
20.020849584679578	2.3878016	1.5452514
20.038647525273507	2.3945668	1.5474387
20.05644595426477	2.4244785	1.5570737
20.07424487212299	2.4377978	1.5613449
20.092044279317903	2.421363	1.556073
20.109844176319353	2.4046252	1.5506854
20.127644563597304	2.3812206	1.5431204
20.145445441621817	2.3575504	1.5354316
20.16324681086307	2.379099	1.5424328
20.181048671791373	2.3960068	1.547904
20.198851024877122	2.4070873	1.5514791
20.216653870590836	2.364584	1.5377203
20.234457209403146	2.3408911	1.5299971
20.252261041784802	2.3434255	1.5308251
20.270065368206662	2.3550477	1.5346165
20.287870189139685	2.334859	1.5280246
20.305675505054968	2.3338597	1.5276976
20.323481316423702	2.352863	1.5339046
20.341287623717207	2.3620627	1.5369004
20.359094427406884	2.3774228	1.5418893
20.376901727964288	2.367786	1.5387611
20.39470952586107	2.351319	1.5334011
20.41251782156899	2.3402681	1.5297935
20.430326615559935	2.3232431	1.5242189
20.448135908305886	2.3077338	1.5191227
20.465945700278965	2.3146367	1.5213931
20.483755991951384	2.353556	1.5341303
20.50156678379548	2.3553996	1.5347311
20.519378076283708	2.3520086	1.533626
20.537189869888635	2.3480349	1.5323299
20.55500216508294	2.3303857	1.5265601
20.572814962339415	2.3274846	1.5256096
20.59062826213098	2.3072782	1.5189728
20.60844206493066	2.280979	1.510291
20.626256371211593	2.254798	1.5015985
20.644071181447032	2.256616	1.5022037
20.66188649611036	2.2445955	1.4981974
20.67970231567506	2.2351618	1.4950458
20.697518640614742	2.219974	1.4899577
20.715335471403122	2.2374606	1.4958143
20.73315280851404	2.2489774	1.4996591
20.750970652421447	2.2604516	1.5034798
20.768789003599412	2.257923	1.5026387
20.786607862522136	2.251535	1.5005115
20.8044272296639	2.232302	1.494089
20.82224710549913	2.2380629	1.4960157
20.84006749050237	2.2412248	1.4970721
20.857888385148268	3.8027453	1.9500629
20.8757097899116	45.872665	6.7729363
20.893531705267254	64.75823	8.04725
20.911354131690224	83.7716	9.152682
20.92917706965566	69.02527	8.308145
20.94700051963877	50.083443	7.076966
20.96482448211493	29.350548	5.4176145
20.982648957559622	4.1042747	2.025901
21.00047394644843	2.2086048	1.4861375
21.01829944925707	2.2005131	1.4834126
21.036125466461375	2.214395	1.4880843
21.053951998537297	2.225862	1.4919323
21.071779045960906	2.241088	1.4970263
21.089606609208378	2.2345238	1.4948324
21.10743468875603	2.2093627	1.4863925
21.12526328508028	2.1832898	1.4775959
21.143092398657675	2.140381	1.4630041
21.16092202996488	2.1568792	1.4686317
21.17875217947867	2.1803641	1.4766057
21.19658284767596	2.1911597	1.4802567
21.21441403503377	2.1715071	1.4736035
21.232245742029225	2.171653	1.473653
21.2500779691396	2.1554894	1.4681585
21.26791071684227	2.1297715	1.4593737
21.28574398561475	2.0895596	1.4455309
21.30357777593465	2.0870316	1.4446563
21.321412088279704	2.1240358	1.4574072
21.339246923127792	2.1172533	1.4550785
21.357082280956888	2.1499882	1.4662838
21.3749181622451	2.164841	1.4713398
21.392754567470647	2.1809268	1.4767962
21.41059149711187	2.1427333	1.4638078
21.42842895164726	2.106032	1.4512174
21.446266931555378	2.0750506	1.4405036
21.464105437314945	2.0542486	1.433265
21.481944469404798	2.0599985	1.4352695
21.49978402830388	2.0532243	1.4329077
21.51762411449127	2.0733871	1.4399261
21.53546472844617	2.0560913	1.4339077
21.553305870647876	2.0489287	1.4314079
21.571147541575865	2.02166	1.4218509
21.58898974170967	2.0083692	1.4171695
21.60683247152899	1.9993266	1.4139755
21.62467573151363	2.0263789	1.4235094
21.642519522143523	2.0343552	1.4263083
21.660363843898722	2.0275369	1.423916
21.6782086972594	2.0106924	1.4179889
21.696054082705864	2.0508914	1.4320934
21.713900000718535	2.062679	1.436203
21.73174645177795	2.0564709	1.4340401
21.749593436364794	2.049234	1.4315145
21.767440954959845	2.03933	1.4280511
21.785289008044032	2.0015085	1.4147468
21.803137596098388	1.9626251	1.4009372
21.820986719604086	1.9706069	1.4037831
21.838836379042412	2.001211	1.4146416
21.85668657489478	2.020736	1.421526
21.87453730764273	1.9955246	1.4126304
21.892388577767914	1.9735509	1.4048313
21.91024038575213	1.9749087	1.4053144
21.928092732077285	1.9675994	1.4027114
21.945945617225426	1.9679716	1.4028441
21.963799041678694	1.9608536	1.4003048
21.981653005919398	31.283884	5.5931997
21.999507510429943	78.06814	8.835618
22.01736255569286	73.04706	8.546757
22.035218142190818	4.1388855	2.034425
22.05307427040661	1.9696245	1.4034331
22.07093094082315	1.9752314	1.4054292
22.088788153923474	1.9713416	1.4040447
22.106645910190746	1.9555663	1.3984157
22.12450421010827	1.97134	1.4040442
22.142363054159464	2.0045485	1.4158208
22.16022244282787	2.0218968	1.4219342
22.178082376597164	1.9985297	1.4136937
22.195942855951145	1.9721127	1.4043193
22.213803881373742	1.9321573	1.3900206
22.231665453349002	1.9129224	1.3830844
22.24952757236111	1.9080265	1.3813133
22.26739023889438	1.9132652	1.3832083
22.28525345343323	1.9205633	1.3858439
22.30311721646225	1.9317644	1.3898792
22.320981528466113	1.9216216	1.3862257
22.33884638992964	1.9131963	1.3831834
22.356711801337788	1.9356916	1.3912914
22.37457776317561	1.9727741	1.4045548
22.392444275928337	1.979317	1.406882
22.410311340081282	1.9965287	1.4129858
22.428178956119904	1.9862683	1.4093503
22.446047124529805	1.9558994	1.3985348
22.46391584579669	1.929588	1.3890961
22.481785120406414	1.9412597	1.393291
22.49965494884496	1.9614091	1.4005032
22.51752533159841	1.970586	1.4037756
22.53539626915302	1.9476277	1.3955743
22.553267761995137	1.939296	1.3925861
22.571139810611264	1.9441946	1.3943437
22.589012415488025	1.9520085	1.397143
22.60688557711216	1.9328381	1.3902655
22.624759295970566	1.9280597	1.3885459
22.642633572550263	1.9586663	1.3995236
22.660508407338362	2.0055382	1.4161702
22.67838380082217	2.0158584	1.4198093
22.696259753489077	1.9660103	1.4021449
22.714136265826614	1.9203305	1.38576
22.73201333832246	1.9165696	1.3844023
22.74989097146439	1.9068379	1.380883
22.76776916574035	1.917491	1.384735
22.785647921638393	1.8775891	1.3702514
22.803527239646712	1.8431801	1.3576376
22.82140712025363	1.8078533	1.3445643
22.839287563947593	1.8211815	1.3495116
22.85716857121719	1.8610224	1.364193
22.875050142551135	1.8794653	1.3709359
22.892932278438277	1.8869327	1.3736567
22.910814979367604	1.8974707	1.3774871
22.928698245828222	1.8884331	1.3742027
22.946582078309387	1.892365	1.3756325
22.96446647730047	1.8721976	1.3682827
22.98235144329098	1.8890843	1.3744396
23.000236976770562	1.8642492	1.3653752
23.018123078229	1.873674	1.3688221
23.03600974815619	1.8713496	1.3679729
23.053896987042194	1.8924234	1.3756539
23.071784795377173	1.8716612	1.3680867
23.08967317365145	1.8949096	1.3765571
23.10756212235546	1.908971	1.3816551
23.125451641979787	1.9232092	1.3867981
23.143341733015134	1.9059533	1.3805627
23.161232395952357	1.9225758	1.3865699
23.179123631282426	1.9464778	1.3951622
23.197015439496468	1.9535584	1.3976976
23.214907821085717	1.9542966	1.3979616
23.23280077654157	1.9428933	1.393877
23.250694306355538	1.9538585	1.3978049
23.268588411019277	1.9380139	1.3921257
23.28648309102458	1.9275537	1.3883637
23.304378346863356	1.9193652	1.3854115
23.322274179027676	1.928449	1.3886861
23.340170588009723	1.9341066	1.3907216
23.358067574301852	1.8996874	1.3782915
23.37596513839651	1.9098724	1.3819814
23.39386328078629	1.9408857	1.3931568
23.411762001963947	1.9414899	1.3933736
23.429661302422353	1.8983841	1.3778186
23.4475611826545	1.9225878	1.3865741
23.46546164315356	1.963075	1.4010978
23.48336268441279	1.9653003	1.4018917
23.501264306925638	1.9316766	1.3898478
23.51916651118564	1.913761	1.3833876
23.537069297686497	1.8696648	1.3673569
23.554972666922037	1.880962	1.3714817
23.57287661938623	1.8896192	1.3746343
23.59078115557318	1.8570392	1.3627323
23.608686275977128	1.8176067	1.3481865
23.62659198109246	1.8347808	1.3545408
23.6444982714137	1.8435812	1.3577853
23.66240514743549	1.9164003	1.3843411
23.68031260965263	1.9499564	1.3964084
23.698220658560068	1.9457142	1.3948886
23.716129294652845	1.9038935	1.3798164
23.7340385184262	1.8907133	1.3750321
23.75194833037546	1.89165	1.3753726
23.769858730996123	1.8607675	1.3640995
23.78776972078382	1.8371252	1.3554059
23.80568130023431	1.8522449	1.360972
23.823593469843495	1.8406794	1.3567164
23.841506230107424	1.8062161	1.3439554
23.859419581522275	1.7952433	1.3398669
23.87733352458438	1.807899	1.3445814
23.89524805979019	1.8335663	1.3540925
23.913163187636318	1.8698268	1.3674161
23.931078908619508	1.9147338	1.383739
23.948995223236633	1.9461869	1.395058
23.966912131984735	2.0340126	1.4261881
23.98482963536096	2.0728235	1.4397304
24.002747733862616	2.0835729	1.4434587
24.020666427987155	2.0535731	1.4330294
24.038585718232156	2.0610452	1.435634
24.056505605095353	2.0016756	1.4148059
24.074426089074617	2.017554	1.4204063
24.092347170667946	2.017809	1.420496
24.110268850373515	2.0405986	1.4284953
24.128191128689586	2.005658	1.4162126
24.146114006114626	2.0068474	1.4166324
24.164037483147187	2.0308518	1.4250796
24.181961560286005	2.0509598	1.4321172
24.199886238029926	2.0401053	1.4283226
24.21781151687797	2.0564117	1.4340194
24.235737397329274	2.0525084	1.4326578
24.253663879883135	2.0376713	1.4274702
24.271590965038975	1.9846084	1.4087613
24.289518653296376	1.9557859	1.3984941
24.30744694515505	1.9563956	1.3987122
24.32537584111486	2.0199823	1.4212608
24.34330534167581	2.0339043	1.4261502
24.361235447338046	2.029752	1.4246937
24.379166158601876	2.0126326	1.4186728
24.39709747596772	2.01601	1.4198626
24.41502939993615	1.9981755	1.4135684
24.432961931007917	2.0006874	1.4144566
24.450895069683856	1.9902289	1.4107547
24.468828816465	1.9691634	1.4032688
24.4867631718525	1.9635596	1.4012707
24.504698136347656	1.9564615	1.3987356
24.52263371045192	1.9431734	1.3939775
24.540569894666874	1.9465925	1.3952034
24.558506689494266	1.9509383	1.39676
24.57644409543597	1.9620744	1.4007406
24.594382112994012	1.9780419	1.4064288
24.61232074267057	1.9627855	1.4009944
24.630259984967953	1.9566737	1.3988116
24.64819984038863	1.9230565	1.3867431
24.66614030943522	1.9113882	1.3825296
24.684081392610462	1.9278245	1.3884612
24.702023090417274	2.0071015	1.416722
24.7199654033587	2.0253034	1.4231316
24.737908331937927	2.0673776	1.4378378
24.755851876658305	2.0649018	1.4369767
24.773796038023324	2.0790763	1.4419003
24.79174081653661	2.0656495	1.4372368
24.809686212701962	2.08662	1.4445138
24.827632227023294	2.111245	1.4530123
24.8455788600047	2.106933	1.4515278
24.8635261121504	2.115336	1.4544195
24.88147398396475	2.0735328	1.4399767
24.899422475952303	2.0545835	1.4333819
24.917371588617698	2.082171	1.442973
24.935321322465768	2.1746266	1.4746615
24.953271678001478	2.2945871	1.5147895
24.97122265572994	2.5095954	1.5841702
24.989174256156414	2.8571622	1.6903143
25.00712647978632	3.4383628	1.8542823
25.02507932712521	4.4095182	2.0998852
25.043032798678798	6.010088	2.451548
25.060986894952933	7.723709	2.7791562
25.078941616453637	9.092586	3.0153913
25.096896963687055	9.889717	3.144792
25.114852937159508	10.602725	3.2561827
25.132809537377444	10.424925	3.2287652
25.150766764847468	9.594244	3.0974576
25.168724620076347	8.223073	2.8675902
25.186683103570985	7.0561614	2.6563437
25.204642215838426	5.6624146	2.379583
25.222601957385894	4.490618	2.119108
25.24056232872074	3.4573667	1.8593996
25.25852333035048	2.7904806	1.6704732
25.276484962782778	2.3369746	1.5287167
25.294447226525435	2.0944753	1.4472302
25.312410122086423	2.0053673	1.4161099
25.330373649973843	1.9633005	1.4011782
25.348337810695988	1.9737347	1.4048967
25.366302604761245	1.9440396	1.3942882
25.384268032678207	1.8883826	1.3741844
25.40223409495558	1.8327259	1.353782
25.420200792102257	1.8516653	1.360759
25.438168124627246	1.8596168	1.3636776
25.45613609303974	1.865378	1.3657885
25.474104697849057	1.8305682	1.3529849
25.492073939564698	1.8059877	1.3438704
25.510043818696285	1.8586001	1.3633049
25.528014335753614	1.8628855	1.3648757
25.54598549124664	1.8594334	1.3636104
25.56395728568544	1.861444	1.3643475
25.58192971958028	1.8990434	1.3780578
25.59990279344156	1.8596886	1.363704
25.617876507779833	1.8476379	1.3592784
25.635850863105826	1.8225551	1.3500204
25.653825859930386	1.8457384	1.3585795
25.671801498764548	1.8898184	1.3747066
25.68977778011949	1.9571677	1.3989881
25.707754704506524	1.9178756	1.3848739
25.725732272437153	1.8500935	1.3601815
25.743710484423012	1.8086748	1.3448699
25.761689340975888	1.8484502	1.3595772
25.77966884260774	1.8712798	1.3679473
25.797648989830662	1.8810899	1.3715283
25.815629783156922	1.8763247	1.36979
25.83361122309895	1.8367239	1.3552579
25.85159331016929	1.7919687	1.3386444
25.869576044880695	1.7776474	1.3332844
25.887559427746034	1.8496178	1.3600066
25.90554345927836	1.8413923	1.3569791
25.92352813999086	1.8290935	1.3524398
25.94151347039689	1.8280611	1.352058
25.959499451009965	1.8470535	1.3590635
25.97748608234374	1.8276876	1.35192
25.995473364912062	1.7850319	1.3360509
26.013461299228904	1.803296	1.3428686
26.03144988580839	1.7752762	1.332395
26.04943912516483	1.770908	1.3307546
26.067429017812675	1.7839999	1.3356646
26.085419564266537	1.8131871	1.3465464
26.103410765041186	1.8182237	1.3484153
26.12140262065155	1.8342971	1.3543622
26.139395131612723	1.8191942	1.348775
26.157388298439948	1.801265	1.3421122
26.17538212164861	1.7871296	1.3368356
26.193376601754295	1.7584162	1.3260529
26.211371739272714	1.7588439	1.3262141
26.229367534719746	1.7779112	1.3333833
26.247363988611433	1.7906451	1.3381499
26.26536110146397	1.8063684	1.344012
26.283358873793727	1.7932053	1.3391062
26.301357306117204	1.7577193	1.32579
26.319356398951104	1.7458254	1.3212968
26.33735615281224	1.7459161	1.3213311
26.35535656821762	1.7565274	1.3253405
26.373357645684404	1.7822105	1.3349946
26.39135938572991	1.8077744	1.344535
26.409361788871614	1.777558	1.3332509
26.427364855627165	1.776066	1.3326912
26.445368586514352	1.7922305	1.3387421
26.46337298205115	1.8002119	1.3417197
26.48137804275568	1.7774363	1.3332052
26.499383769146217	1.7369102	1.3179189
26.517390161741215	1.7761844	1.3327357
26.53539722105928	1.8508537	1.3604609
26.553404947619182	1.9314357	1.389761
26.571413341939856	1.895854	1.3769002
26.589422404540397	1.8269658	1.351653
26.60743213594006	1.7867923	1.3367095
26.62544253665827	1.7705389	1.330616
26.64345360721459	1.7955289	1.3399734
26.66146534812879	1.7711757	1.3308553
26.679477759920758	1.7757661	1.3325788
26.69749084311057	1.7521696	1.3236954
26.71550459821847	1.7996566	1.3415128
26.733519025764842	1.8531427	1.3613019
26.751534126270258	1.8801668	1.3711917
26.769549900255434	1.856378	1.3624896
26.787566348241267	1.8658425	1.3659585
26.80558347074881	1.8478241	1.359347
26.823601268299267	1.7978878	1.3408533
26.841619741414036	1.7445451	1.3208123
26.85963889061465	1.7473515	1.3218743
26.877658716422832	1.781035	1.3345542
26.89567921936045	1.7654021	1.3286843
26.913700399949544	1.7454745	1.321164
26.93172225871233	1.7169857	1.310338
26.949744796171174	1.7120975	1.3084714
26.967768012848605	1.7199779	1.3114792
26.98579190926733	1.7377694	1.3182448
27.003816485950225	1.7646624	1.328406
27.021841743420318	1.8448728	1.358261
27.039867682200814	1.8633215	1.3650354
27.057894302815072	1.8071206	1.3442918
27.07592160578664	1.7672585	1.3293828
27.0939495916392	1.7676256	1.3295208
27.111978260896635	1.785512	1.3362305
27.13000761408296	1.7765756	1.3328824
27.148037651722397	1.7722198	1.3312474
27.166068374339304	1.8022137	1.3424655
27.184099782458215	1.8383358	1.3558524
27.20213187660384	1.8110869	1.3457663
27.22016465730105	1.8471442	1.3590969
27.23819812507487	1.8048689	1.3434541
27.256232280450533	1.7826384	1.3351549
27.274267123953383	1.7266082	1.3140047
27.292302656108987	1.7633853	1.3279252
27.31033887744306	1.8187343	1.3486046
27.32837578848146	1.8331935	1.3539548
27.34641338975026	1.8233894	1.3503294
27.364451681775673	1.7833842	1.3354341
27.382490665084074	1.7752144	1.3323717
27.400530340202046	1.806919	1.3442168
27.41857070765629	1.7735285	1.3317388
27.436611767973726	1.7481482	1.3221755
27.454653521681404	1.7454703	1.3211625
27.472695969306564	1.7675942	1.329509
27.490739111376627	1.8134872	1.3466578
27.508782948419153	1.7915809	1.3384995
27.526827480961902	1.7804097	1.33432
27.54487270953279	1.794423	1.3395607
27.562918634659898	1.8330112	1.3538874
27.580965256871508	1.7732861	1.3316479
27.599012576696026	1.7463835	1.321508
27.617060594662068	1.7696592	1.3302853
27.63510931129842	1.7783418	1.3335449
27.65315872713401	1.828028	1.3520459
27.67120884269797	1.8610129	1.3641895
27.68925965851958	1.8742753	1.3690418
27.707311175128307	1.9048326	1.3801568
27.725363393053787	1.910736	1.3822937
27.74341631282583	1.9315422	1.3897994
27.7614699349744	1.9074509	1.381105
27.77952426002968	2.1189988	1.4556781
27.797579288521973	2.1716464	1.4736507
27.815635020981784	2.478919	1.5744584
27.83369145793979	2.5629535	1.6009227
27.85174859992682	2.447178	1.5643458
27.869806447473923	2.3044944	1.5180562
27.887865001112267	2.0064805	1.416503
27.905924261373233	1.8924263	1.3756548
27.92398422878836	1.8556117	1.3622084
27.94204490388936	1.8804668	1.3713012
27.96010628720813	1.8492565	1.3598738
27.978168379276728	1.8349024	1.3545856
27.9962311806274	1.8268415	1.351607
28.014294691792568	1.8466411	1.3589118
28.0323589133048	1.858102	1.3631221
28.050423845696887	1.8206903	1.3493296
28.068489489501758	1.8083305	1.3447418
28.086555845252523	1.8125312	1.3463027
28.104622913482487	1.784217	1.3357458
28.122690694725115	1.7792325	1.3338788
28.14075918951405	1.8235636	1.3503939
28.15882839838312	1.8823739	1.3719963
28.176898321866304	1.875502	1.3694897
28.1949689604978	1.9119921	1.382748
28.213040314811945	1.9873621	1.4097383
28.23111238534327	1.9804382	1.4072804
28.249185172626493	1.924641	1.3873143
28.267258677196473	1.9069735	1.3809321
28.285332899588294	1.9070855	1.3809726
28.303407840337172	1.9377741	1.3920395
28.321483499978545	1.9604338	1.400155
28.33955987904799	1.9718082	1.4042109
28.357636978081285	2.0193899	1.4210523
28.37571479761439	2.0182223	1.4206415
28.393793338183425	2.001109	1.4146056
28.41187260032469	2.0364835	1.4270542
28.429952584574686	2.05197	1.4324698
28.448033291470065	1.980537	1.4073155
28.46611472154769	1.9956038	1.4126585
28.484196875344566	2.0403647	1.4284134
28.502279753397914	2.0117073	1.4183466
28.52036335624511	1.9867581	1.4095241
28.538447684423716	1.968621	1.4030756
28.556532738471482	1.9226713	1.3866042
28.574618518926325	1.8957902	1.376877
28.59270502632635	1.9471419	1.3954003
28.61079226120985	2.0186396	1.4207884
28.628880224115274	2.0307133	1.425031
28.646968915581287	1.9912362	1.4111117
28.66505833614671	1.9816092	1.4076964
28.68314848635055	2.040791	1.4285625
28.701239366732004	2.0696595	1.438631
28.71933097783044	2.0725083	1.4396209
28.737423320185403	2.1671276	1.4721167
28.75551639433665	2.1675456	1.4722587
28.773610200824074	2.1176238	1.4552058
28.791704740187793	2.1018655	1.4497812
28.80980001296809	2.1513417	1.4667453
28.827896019705413	2.1857963	1.4784439
28.845992760940433	2.1485164	1.4657818
28.86409023721397	2.1377027	1.4620885
28.88218844906704	2.1614695	1.4701936
28.900287397040845	2.1586885	1.4692476
28.918387081676755	2.1402216	1.4629496
28.936487503516343	2.203917	1.4845595
28.954588663101365	2.2441297	1.498042
28.97269056097374	2.2595906	1.5031935
28.990793197675597	2.3020191	1.5172406
29.00889657374923	2.3681636	1.5388839
29.027000689737125	2.368246	1.5389106
29.04510554618196	2.3356333	1.5282779
29.06321114362659	2.366296	1.538277
29.08131748261405	2.435081	1.5604746
29.099424563687567	2.4964359	1.5800114
29.11753238739057	2.555575	1.5986166
29.13564095426663	2.5709095	1.6034056
29.15375026485954	2.5830054	1.6071731
29.171860319713275	2.6342964	1.6230515
29.18997111937199	2.6914806	1.6405733
29.20808266438002	2.6921234	1.6407691
29.226194955281898	2.7097719	1.6461384
29.244307992622335	2.8091812	1.6760613
29.26242177694624	2.8427248	1.6860383
29.2805363087987	2.8398693	1.6851912
29.29865158872498	2.8932319	1.7009503
29.316767617270557	3.0192273	1.7375923
29.334884394981064	3.0003343	1.7321473
29.353001922402367	2.9043515	1.7042158
29.37112020008047	2.939157	1.714397
29.389239228561596	3.1476824	1.7741709
29.407359008392152	3.4100888	1.8466426
29.42547954011872	3.6645257	1.9142951
29.44360082428809	4.006933	2.0017326
29.46172286144722	4.825542	2.1967115
29.479845652143283	6.585049	2.5661352
29.497969196923606	9.428142	3.0705278
29.516093496335728	13.415628	3.662735
29.5342185509274	17.008518	4.1241384
29.55234436124651	20.064545	4.4793463
29.570470927841175	21.394844	4.625456
29.588598251259686	21.345905	4.620163
29.60672633205055	19.684265	4.436695
29.624855170762405	16.400229	4.0497193
29.642984767944146	12.926673	3.5953681
29.66111512414481	9.600898	3.0985315
29.67924623991366	7.019483	2.6494308
29.697378115800138	5.085707	2.2551513
29.71551075235387	4.165723	2.0410101
29.733644150124675	3.7622795	1.9396596
29.751778309662576	3.589428	1.8945786
29.769913231517766	3.444838	1.8560275
29.78804891624066	3.4196305	1.8492243
29.806185364381818	3.3782818	1.8380103
29.82432257649206	3.335923	1.826451
29.842460553122333	3.3177536	1.8214701
29.86059929482382	3.3738337	1.8367999
29.878738802147872	3.3724353	1.8364191
29.896879075646048	3.3630147	1.8338524
29.915020115870114	3.2911034	1.8141398
29.933161923371976	3.2487924	1.8024406
29.951304498703777	3.2754598	1.8098232
29.969447842417857	3.2672126	1.8075433
29.987591955066733	3.2214024	1.7948266
30.005736837203123	3.1812117	1.7835952
30.023882489379943	3.126591	1.7682168
30.04202891215028	3.1499932	1.774822
30.060176106067455	3.1706321	1.7806269
30.078324071684946	3.233326	1.7981452
30.09647280955646	3.2351103	1.7986412
30.114622320235863	3.1988974	1.7885462
30.132772604277257	3.1199536	1.7663391
30.1509236622349	3.0622647	1.7499328
30.16907549466328	3.0339713	1.7418299
30.18722810211705	2.9970589	1.7312015
30.205381485151097	2.9900484	1.7291757
30.22353564432045	3.0223596	1.7384934
30.241690580180403	3.046032	1.7452885
30.25984629328638	3.033322	1.7416435
30.278002784194037	2.998926	1.7317407
30.296160053459246	2.8704755	1.6942477
30.314318101638033	2.8880231	1.6994184
30.332476929286646	3.0041142	1.7332381
30.35063653696153	3.0221775	1.7384411
30.368796925219307	3.0145853	1.7362561
30.386958094616844	3.021555	1.738262
30.40512004571115	3.0020096	1.7326308
30.423282779059463	2.9381773	1.7141112
30.441446295219233	2.8996387	1.7028326
30.459610594748067	2.8644753	1.692476
30.47777567820382	2.7850041	1.6688331
30.495941546144504	2.7317717	1.6528072
30.51410819912835	2.7910078	1.6706309
30.532275637713795	2.8461988	1.6870681
30.55044386245946	2.8544545	1.6895131
30.56861287392416	2.8221684	1.679931
30.586782672666956	2.8301833	1.6823149
30.604953259247047	2.809276	1.6760895
30.623124634223885	2.7331269	1.6532171
30.641296798157075	2.7507029	1.6585243
30.659469751606462	2.802829	1.6741651
30.677643495132074	2.7298067	1.6522126
30.695818029294152	2.7343578	1.6535894
30.713993354653116	2.7348015	1.6537235
30.73216947176962	2.7171242	1.6483701
30.75034638120448	2.730894	1.6525418
30.768524083518756	2.7831435	1.6682756
30.786702579273673	2.780962	1.6676216
30.80488186903069	2.84316	1.6861672
30.82306195335144	3.0080824	1.7343824
30.841242832797782	3.2853565	1.8125552
30.85942450793176	3.608544	1.8996168
30.877606979315637	3.9944518	1.9986124
30.895790247511883	4.371551	2.0908256
30.913974313083134	4.807468	2.1925938
30.932159176592283	5.255204	2.2924232
30.95034483860237	5.4831862	2.3416204
30.968531299676698	5.4360323	2.33153
30.98671856037873	5.2023673	2.28087
31.00490662127215	4.741916	2.1775942
31.023095482920848	4.153101	2.037916
31.04128514588892	3.6215944	1.9030488
31.059475610740662	3.1353023	1.7706785
31.07766687804056	2.727994	1.651664
31.09585894835335	2.53366	1.5917474
31.11405182224393	2.4641626	1.5697651
31.132245500277417	2.4378486	1.5613611
31.15043998301914	2.4554796	1.566997
31.168635271034628	2.4425333	1.5628606
31.18683136488964	2.3942237	1.5473279
31.20502826515008	2.3971899	1.5482861
31.223225972382135	2.4428103	1.5629492
31.241424487152155	2.477648	1.5740546
31.259623810026692	2.451089	1.5655954
31.27782394157253	2.4500344	1.5652586
31.296024882356644	2.4539406	1.5665059
31.314226632946237	2.4661696	1.5704043
31.332429193908684	2.439167	1.5617833
31.350632565811598	2.4139898	1.553702
31.368836749222787	2.456922	1.5674572
31.387041744710295	2.543971	1.5949831
31.40524755284232	2.5479145	1.5962188
31.423454174187317	2.5527039	1.5977184
31.441661609313922	2.5494869	1.5967113
31.459869858791002	2.5124254	1.5850632
31.478078923187628	2.4804776	1.5749532
31.496288803073064	2.4137373	1.5536207
31.514499499016807	2.3850129	1.5443487
31.532711011588546	2.4000857	1.549221
31.550923341358178	2.3959932	1.5478996
31.56913648889584	2.3050158	1.5182278
31.587350454771844	2.2914119	1.513741
31.605565239556732	2.3026361	1.5174439
31.62378084382127	2.3230774	1.5241646
31.641997268136382	2.3459198	1.5316396
31.660214513073274	2.3495712	1.5328311
31.67843257920331	2.3125758	1.5207156
31.6966514670981	2.2756665	1.5085312
31.71487117732944	2.2918165	1.5138747
31.733091710469346	2.3174155	1.522306
31.751313067090052	2.352773	1.5338751
31.769535247764008	2.3191452	1.522874
31.787758253063878	2.2990663	1.5162672
31.805982083562526	2.2749288	1.5082867
31.824206739833024	2.308001	1.5192107
31.84243222244869	2.352353	1.5337383
31.860658531983013	2.338832	1.529324
31.878885669009737	2.2957017	1.5151573
31.897113634102784	2.2957842	1.5151845
31.91534242783632	2.301771	1.5171589
31.933572050784694	2.3292594	1.5261911
31.951802503522508	2.267627	1.5058643
31.970033786624548	2.2498884	1.4999628
31.988265900665834	2.2815547	1.5104816
32.006498846221575	2.246391	1.4987966
32.02473262386724	2.203137	1.4842968
32.04296723417845	2.190212	1.4799365
32.0612026777311	2.168725	1.4726591
32.07943895510129	2.1405478	1.4630611
32.097676066865304	2.1289043	1.4590765
32.115914013599685	2.1015673	1.4496783
32.13415279588115	2.0971763	1.448163
32.152392414286666	2.0963578	1.4478805
32.1706328693934	2.1308808	1.4597536
32.18887416177875	2.0840106	1.4436103
32.20711629202032	2.130143	1.4595009
32.225359260695924	2.1662033	1.4718027
32.243603068383614	2.163099	1.4707478
32.26184771566166	2.0826657	1.4431443
32.28009320310852	2.1017518	1.449742
32.2983395313029	2.1776726	1.475694
32.31658670082372	2.1525862	1.4671694
32.33483471225012	2.0865684	1.4444959
32.35308356616143	2.119754	1.4559375
32.371333263137245	2.1437724	1.4641627
32.38958380375734	2.0983198	1.4485579
32.407835188601744	2.1654856	1.4715589
32.42608741825067	2.13281	1.4604144
32.444340493284585	2.059382	1.4350547
32.46259441428416	1.9464395	1.3951485
32.48084918183028	1.9431691	1.393976
32.49910479650405	1.9831746	1.4082524
32.51736125888683	1.974672	1.4052302
32.53561856956014	2.025848	1.4233228
32.5538767291058	2.0608191	1.4355553
32.572135738105764	2.06735	1.4378282
32.59039559714228	2.0709803	1.4390901
32.608656306797776	2.0266643	1.4236096
32.62691786765491	1.9716774	1.4041643
32.645180280296586	1.9498037	1.3963537
32.663443545305896	1.9806975	1.4073726
32.68170766326619	1.9848188	1.408836
32.69997263476099	1.9979059	1.413473
32.7182384603741	1.9556984	1.3984629
32.7365051406895	1.9464437	1.3951501
32.75477267629144	1.9555382	1.3984056
32.77304106776434	1.9967543	1.4130656
32.79131031569289	1.9859073	1.4092222
32.809580420661966	2.0135057	1.4189805
32.827851383256714	2.0147133	1.4194059
32.84612320406245	2.0105941	1.4179542
32.86439588366476	1.932712	1.3902202
32.88266942264945	1.8996776	1.3782879
32.9009438216025	1.9644843	1.4016006
32.9192190811102	1.9578393	1.3992281
32.937495201758985	1.9564111	1.3987176
32.95577218413556	1.9451348	1.3946809
32.974050028826866	1.9350226	1.3910509
32.992328736420035	1.902835	1.3794329
33.010608307502444	1.9022471	1.3792198
33.02888874266169	1.9580375	1.3992989
33.047170042485604	1.9277896	1.3884486
33.06545220756225	1.8303592	1.3529077
33.083735238479896	1.8610859	1.3642162
33.10201913582707	1.8894595	1.3745761
33.12030390019248	1.8892409	1.3744966
33.138589532165135	1.9064219	1.3807324
33.15687603233419	1.9379349	1.3920972
33.17516340128909	2.0183563	1.4206886
33.19345163961947	2.1029015	1.4501384
33.211740747915215	2.0886548	1.4452178
33.23003072676643	1.9990649	1.413883
33.248321576763466	1.9895911	1.4105287
33.266613298496885	2.0244746	1.4228404
33.28490589255747	2.0434816	1.4295039
33.30319935953626	1.9970702	1.4131774
33.32149370002451	1.9454395	1.39479
33.339788914613706	2.0233648	1.4224503
33.358085003895575	2.013871	1.4191092
33.376381968462034	2.0191035	1.4209516
33.39467980890529	2.0096767	1.4176307
33.41297852581774	2.0440667	1.4297086
33.43127811979204	2.0858684	1.4442536
33.44957859142105	2.079716	1.442122
33.467879941297866	2.0080743	1.4170654
33.486182170015844	1.9359728	1.3913924
33.50448527816853	1.9683105	1.4029648
33.522789266349754	2.0043237	1.4157414
33.541094135153514	1.9657841	1.4020642
33.55939988517411	2.0179703	1.4205528
33.57770651700602	1.9324522	1.3901267
33.59601403124398	1.865596	1.3658682
33.61432242848296	1.8811581	1.3715532
33.632631709318154	2.0289176	1.4244008
33.650941874344994	2.071827	1.4393842
33.66925292415916	1.993128	1.4117818
33.68756485935654	1.9719152	1.404249
33.70587768053328	1.929678	1.3891284
33.724191388285746	1.8962607	1.3770478
33.74250598321054	1.8683699	1.3668833
33.760821465904506	1.9150554	1.3838552
33.77913783696474	2.0978756	1.4484046
33.79745509698852	2.1177068	1.4552343
33.815773246573414	1.9648732	1.4017394
33.8340922863172	1.8227859	1.3501059
33.852412216817896	1.7842746	1.3357674
33.87073303867377	1.8940337	1.376239
33.889054752483304	1.9720104	1.4042829
33.907377358845245	1.9295546	1.3890841
33.92570085835853	1.8879696	1.374034
33.94402525162239	1.9150085	1.3838383
33.96235053923627	1.8628522	1.3648634
33.980676721799824	1.8484159	1.3595645
33.999003799912984	1.8495888	1.3599958
34.01733177417592	1.9028686	1.3794451
34.03566064518901	1.9099596	1.3820128
34.0539904135529	1.9544309	1.3980097
34.07232107986846	2.0457284	1.4302896
34.090652644736785	1.957919	1.3992566
34.108985108759235	1.92114	1.3860519
34.12731847253742	1.8778327	1.3703403
34.14565273667313	1.9419097	1.3935242
34.16398790176847	2.0466325	1.4306056
34.18232396842574	2.0482047	1.431155
34.20066093724749	2.0152967	1.4196115
34.21899880883651	2.0497353	1.4316896
34.23733758379583	1.9266396	1.3880345
34.25567726272874	1.9184684	1.3850878
34.27401784623872	1.9952315	1.4125266
34.29235933492957	1.9638036	1.4013578
34.31070172940526	1.8771796	1.370102
34.32904503027003	1.8411846	1.3569026
34.347389238128386	1.9063407	1.380703
34.36573435358502	1.980488	1.4072981
34.38408037724492	1.9763534	1.4058284
34.402427309713296	1.8885782	1.3742555
34.42077515159559	1.9188958	1.3852421
34.43912390349752	1.9247913	1.3873684
34.45747356602499	1.9312977	1.3897114
34.47582413978423	1.954374	1.3979893
34.49417562538163	1.9287248	1.3887854
34.51252802342388	1.9395183	1.3926659
34.53088133451789	1.9099586	1.3820125
34.54923555927084	1.8126979	1.3463647
34.567590698290104	1.9710552	1.4039427
34.58594675218336	1.9589745	1.3996336
34.6043037215585	1.9332801	1.3904245
34.62266160702365	2.0013497	1.4146906
34.641020409187234	1.9717213	1.4041799
34.65938012865785	1.9892898	1.4104218
34.677740766044394	1.9120212	1.3827585
34.69610232195598	1.8419476	1.3571837
34.714464797002016	1.9429505	1.3938975
34.73282819179208	1.995309	1.412554
34.751192506936064	2.133104	1.460515
34.76955774304408	2.1454287	1.4647282
34.7879239007265	2.0848968	1.4439172
34.80629098059391	2.1649127	1.4713643
34.824658983257194	2.1363964	1.4616417
34.843027909327446	1.897424	1.3774701
34.86139775941603	1.8828776	1.3721799
34.879768534134534	1.9045534	1.3800555
34.89814023409483	2.0041852	1.4156924
34.91651285990901	1.991695	1.4112743
34.93488641218944	1.8570131	1.3627226
34.95326089154871	1.9348344	1.3909832
34.97163629859967	2.0107753	1.4180181
34.99001263395542	2.029742	1.4246901
35.00838989822934	1.7970215	1.3405303
35.02676809203499	1.6188006	1.272321
35.04514721598624	1.8359754	1.3549817
35.063527270697215	2.336406	1.5285307
35.081908256782256	2.48705	1.5770384
35.10029017485597	2.2339993	1.4946569
35.11867302553321	2.0398653	1.4282385
35.137056809429104	2.0437055	1.4295822
35.155441527159006	2.2406979	1.496896
35.173827179338524	2.4183226	1.5550957
35.19221376658354	2.2888863	1.5129066
35.21060128951017	2.0500023	1.431783
35.2289897487348	1.6635503	1.2897869
35.24737914487405	1.5860049	1.2593669
35.26576947854479	1.948969	1.3960547
35.28416075036418	2.416706	1.5545758
35.30255296094958	2.4120762	1.553086
35.32094611091867	2.142124	1.4635997
35.33934020088932	2.0180664	1.4205866
35.35773523147969	1.6690328	1.2919105
35.3761312033082	1.7961973	1.3402228
35.394528116993506	2.0286903	1.424321
35.41292597315452	1.9110991	1.3824251
35.431324772410434	1.8554639	1.3621541
35.449724515380666	2.1768758	1.4754239
35.46812520268491	2.3710983	1.5398371
35.486526834943106	2.4176643	1.554884
35.504929412775454	2.12739	1.4585575
35.52333293680242	2.1558368	1.4682769
35.54173740764471	2.337709	1.5289568
35.560142825923286	2.442974	1.5630016
35.5785491922594	2.2489448	1.4996482
35.59695650727454	1.9445806	1.3944821
35.61536477159042	1.8038257	1.3430657
