0.008763373481513119	0.0	0.0
0.026290120649546365	0.0	0.0
0.043816868432600686	0.0046239095	0.06799933
0.06134361724069026	0.083826594	0.28952822
0.07887036748382949	0.06548355	0.25589752
0.0963971195720331	0.054140806	0.23268177
0.11392387391531617	0.05230367	0.22869997
0.1314506309236943	0.048131265	0.21938838
0.1489773910071836	0.07876677	0.2806542
0.16650415457580078	0.06897416	0.26262933
0.18403092203956356	0.11246219	0.33535382
0.20155769380849	0.1050006	0.32403797
0.2190844702925996	0.1310645	0.36202833
0.2366112519019124	0.10685514	0.32688704
0.2541380390464497	0.050557803	0.22485062
0.27166483213623416	0.055922944	0.23648033
0.28919163158128947	0.054760065	0.23400868
0.3067184377916406	0.08505464	0.2916413
0.324245251177314	0.09690456	0.31129497
0.34177207214833777	0.14508641	0.3809021
0.3592989011147415	0.16501138	0.40621594
0.37682573848655654	0.14954199	0.3867066
0.39435258467381573	0.16157992	0.40197006
0.41187944008655414	0.16883004	0.41088933
0.42940630513480854	0.15590967	0.39485398
0.446933180228618	0.12044883	0.34705737
0.4644600657780234	0.12467488	0.3530933
0.48198696219306775	0.14116737	0.37572247
0.49951386988379676	0.14334254	0.37860605
0.5170407892602581	0.15885547	0.39856675
0.5345677207325025	0.15587431	0.39480922
0.5520946647105822	0.1690596	0.41116858
0.5696216216045534	0.19704442	0.44389686
0.5871485918244737	0.16495714	0.40614915
0.6046755757804043	0.19310574	0.439438
0.6222025738824094	0.17422634	0.4174043
0.6397295865405557	0.15581354	0.39473224
0.6572566141649129	0.11674283	0.3416765
0.6747836571655547	0.1582801	0.3978443
0.6923107159525568	0.19408621	0.44055218
0.7098377909359992	0.2674236	0.51713014
0.7273648825259653	0.2555372	0.5055069
0.7448919911325411	0.22143951	0.4705736
0.762419117165817	0.20875089	0.45689264
0.7799462610358868	0.19539098	0.44203052
0.7974734231528482	0.18241473	0.42710036
0.8150006039268024	0.1774318	0.42122656
0.8325278037678551	0.1888105	0.43452328
0.8500550230861152	0.22915134	0.47869754
0.8675822622916969	0.24607508	0.49605954
0.8851095217947171	0.20599131	0.45386267
0.9026368020052984	0.1712578	0.41383305
0.9201641033335665	0.16237684	0.4029601
0.9376914261896523	0.16768555	0.40949425
0.9552187709836915	0.20759156	0.45562217
0.9727461381258234	0.21290158	0.46141258
0.990273528026193	0.22086538	0.46996316
1.0078009410949496	0.2106343	0.45894912
1.0253283777422473	0.21335481	0.46190345
1.0428558383782454	0.26393732	0.5137483
1.0603833234131086	0.2737528	0.5232139
1.0779108332570058	0.31297702	0.5594435
1.0954383683201119	0.33273187	0.57682914
1.112965929012607	0.41047603	0.640684
1.1304935157446763	0.5473422	0.7398258
1.1480211289265108	0.54225576	0.73638016
1.1655487689683062	1.4094384	1.1871977
1.1830764362802655	1.7106134	1.3079042
1.200604131272596	2.1186144	1.4555461
1.2181318543555117	2.426711	1.5577904
1.235659605939232	2.4229228	1.5565741
1.253187386433982	3.9573054	1.9892977
1.270715196249994	6.1303773	2.4759598
1.2882430357975057	11.202405	3.3469994
1.3057709054867608	15.955489	3.9944322
1.3232988057280106	21.853003	4.6747193
1.3408267369315112	27.049627	5.200926
1.358354699507526	30.70715	5.5414033
1.3758826938663256	35.049015	5.920221
1.3934107204181858	36.956318	6.0791707
1.410938779573391	37.303673	6.107673
1.4284668717422309	37.705353	6.1404686
1.4459949973350033	37.18506	6.097955
1.4635231567620117	36.986008	6.081612
1.4810513504335687	35.716602	5.976337
1.4985795787599925	35.307972	5.942051
1.5161078421516088	34.982487	5.9145994
1.5336361410187505	34.36433	5.8621097
1.5511644757717598	34.529926	5.876217
1.5686928468209842	35.275124	5.939286
1.58622125457678	36.108013	6.0089946
1.6037496994495108	37.102562	6.091187
1.621278181849548	36.79973	6.066278
1.6388067021872719	37.62586	6.133992
1.6563352608730693	37.310703	6.1082487
1.673863858317336	36.508266	6.0422072
1.6913924949304753	35.51586	5.9595184
1.7089211711228998	34.091373	5.838782
1.7264498873050296	33.05396	5.749257
1.7439786438872935	32.22334	5.6765604
1.7615074412801288	31.401855	5.603736
1.779036279893981	30.554848	5.527644
1.796565160139305	29.82879	5.461574
1.814094082426564	29.386116	5.420896
1.8316230471662298	28.888632	5.3748145
1.849152054768784	28.050945	5.2963142
1.8666811056447168	27.176632	5.213121
1.8842102002045273	26.214317	5.119992
1.901739338858724	25.6403	5.0636253
1.9192685220178245	25.327047	5.0325985
1.9367977500923557	24.898706	4.9898605
1.9543270234928547	24.527107	4.952485
1.971856342629867	23.749716	4.873368
1.9893857079139496	23.106724	4.8069453
2.006915119755667	22.55202	4.7488966
2.0244445785655945	21.860497	4.675521
2.0419740847543175	21.864632	4.6759634
2.0595036387324317	21.557928	4.6430516
2.0770332409105414	21.1045	4.5939636
2.094562891699263	20.649597	4.544183
2.1120925915092217	20.026714	4.4751215
2.129622340751053	19.593447	4.4264483
2.1471521398354043	187.8714	13.706619
2.1646819891729323	444.31473	21.078773
2.182211889174303	440.60876	20.990683
2.1997418402501974	452.91104	21.281706
2.2172718428113023	432.92816	20.806927
2.234801897268317	320.73358	17.909037
2.2523320040319548	17.10722	4.1360874
2.269862163512935	16.692848	4.085688
2.287392376121992	16.28653	4.0356574
2.304922642269869	16.085684	4.0106964
2.322452962367322	15.778651	3.972235
2.3399833368251164	15.426455	3.9276526
2.357513766054032	15.146955	3.891909
2.3750442504648586	15.049004	3.8793044
2.3925747904683963	14.916087	3.862135
2.410105386475459	14.791933	3.8460283
2.4276360388968707	14.33231	3.7858038
2.445166748143469	13.97181	3.7378886
2.4626975146261025	13.636461	3.6927578
2.4802283387556323	13.5416	3.6798913
2.4977592209429305	13.464578	3.6694112
2.5152901615988825	13.220386	3.635985
2.5328211611343865	12.9588585	3.5998414
2.5503522199603523	12.532969	3.5401933
2.5678833384877024	12.42682	3.5251694
2.5854145171273712	12.420514	3.524275
2.6029457562903064	12.283108	3.5047264
2.620477056387469	12.121104	3.4815376
2.6380084178298326	11.888218	3.4479296
2.655539841028383	11.655822	3.4140623
2.673071326394119	11.473631	3.3872747
2.6906028743380523	11.145747	3.3385248
2.708134485271211	10.8208685	3.2895088
2.7256661596046325	10.67021	3.2665286
2.743197897749369	10.38128	3.2219994
2.760729700116486	10.294268	3.2084682
2.778261567117063	10.02001	3.1654398
2.795793499162193	9.880029	3.1432512
2.8133254966629817	9.753088	3.1229935
2.830857560030551	9.683116	3.1117706
2.8483896896760337	9.716488	3.1171281
2.865921886010578	9.661637	3.1083174
2.883454149445347	9.550643	3.0904114
2.9009864803915177	9.285347	3.0471869
2.91851887926028	9.0088	3.0014663
2.9360513464628384	8.83562	2.972477
2.953583882410413	8.79984	2.9664524
2.9711164875142373	8.793426	2.9653711
2.9886491621855606	8.6384115	2.9391174
3.0061819068356455	8.536419	2.921715
3.023714721875769	8.569229	2.9273245
3.041247607717225	8.410981	2.9001691
3.0587805647713213	8.352918	2.8901415
3.0763135934493806	8.202383	2.8639803
3.0938466941627407	8.164331	2.8573294
3.1113798673227544	8.170044	2.8583288
3.1289131133407904	8.015732	2.8312068
3.1464464326282315	7.9242234	2.8149998
3.1639798255964786	7.746216	2.7832024
3.1815132926569443	7.6039677	2.7575293
3.1990468342210603	7.6316276	2.76254
3.216580450700272	7.504801	2.739489
3.2341141425060416	7.4476824	2.7290442
3.251647910049847	7.2579412	2.6940567
3.2691817537431813	7.1534133	2.6745865
3.286715673997555	7.0961633	2.6638625
3.3042496712244938	7.1244774	2.6691716
3.32178374583554	7.150683	2.674076
3.339317898242251	6.9789114	2.641763
3.3568521288562034	6.767035	2.6013525
3.3743864380889876	6.623495	2.573615
3.3919208263522127	6.614753	2.571916
3.4094552940575023	6.602873	2.5696056
3.4269898416164972	6.5448112	2.5582829
3.444524469440858	6.5217843	2.5537784
3.4620591779422587	6.4697423	2.5435688
3.479593967532391	6.532532	2.555882
3.4971288386229658	6.5031767	2.5501328
3.5146637916257086	6.3417253	2.5182784
3.5321988269523628	6.2675357	2.5035048
3.5497339450146903	6.209551	2.491897
3.5672691462244708	6.1646824	2.4828777
3.5848044309934988	6.140892	2.4780824
3.60233979973359	6.173066	2.4845655
3.619875252856575	6.221043	2.494202
3.6374107907743034	6.190786	2.488129
3.6549464138986427	6.197675	2.4895132
3.6724821226414788	6.248309	2.499662
3.690017917414714	6.208696	2.4917254
3.7075537986302702	6.23752	2.4975028
3.7250897667000857	6.1809545	2.4861526
3.7426258220361235	6.3908577	2.5280147
3.7601619650503553	6.669933	2.5826213
3.777698196154779	7.2384653	2.6904397
3.7952345157614067	8.220148	2.86708
3.8127709242822716	9.068733	3.0114338
3.830307422129425	11.387934	3.3746014
3.847844009714936	30.200167	5.4954677
3.8653806874508954	97.772675	9.888006
3.882917455749409	96.8281	9.840127
3.900454315022606	96.54379	9.82567
3.917991265682631	41.071606	6.4087133
3.9355283081416506	10.733802	3.2762482
3.9530654428118495	8.5784445	2.928898
3.970602670105433	7.3317137	2.7077138
3.9881399904346244	6.456569	2.540978
4.005677404211669	6.357701	2.5214481
4.023214911848827	6.2961173	2.5092065
4.0407525137583855	6.32115	2.5141897
4.058290210352644	6.327952	2.515542
4.075828002043927	6.388289	2.5275066
4.0933658892445814	6.2575054	2.5015006
4.110903872366966	6.240266	2.4980524
4.128441951823468	6.095362	2.4688787
4.145980128026488	6.1545043	2.4808273
4.163518401388452	6.156982	2.4813266
4.181056772321807	6.16902	2.4837513
4.1985952412390155	6.147117	2.479338
4.216133808552567	6.180113	2.4859834
4.233672474674966	6.212535	2.4924958
4.251211240018741	6.3655696	2.523008
4.268750104996445	6.642169	2.5772405
4.286289070020643	7.594397	2.7557933
4.303828135503928	9.284499	3.0470476
4.3213673018589125	29.630354	5.443377
4.3389065694982305	90.801575	9.528986
4.356445938834537	166.06836	12.886751
4.3739854102805085	171.32622	13.089164
4.391524984248844	172.15836	13.120913
4.409064661152262	136.2234	11.671478
4.426604441403504	96.45812	9.82131
4.444144325415337	75.45893	8.68671
4.461684313600543	21.369545	4.6227207
4.47922440637193	21.777424	4.666629
4.496764604142329	20.29776	4.5053034
4.5143049073245916	18.447783	4.2950883
4.531845316331589	16.382387	4.0475163
4.5493858315762195	13.434359	3.665291
4.566926453471405	11.118924	3.334505
4.584467182430081	9.125168	3.0207894
4.602008018865218	8.017918	2.8315928
4.619548963189798	7.398909	2.7200935
4.637090015816834	6.8563533	2.618464
4.654631177159353	6.6387606	2.5765793
4.672172447630417	6.4147406	2.532734
4.689713827643102	6.189152	2.4878006
4.7072553176105085	6.000252	2.449541
4.724796917945764	5.8377542	2.4161446
4.742338629062015	5.679002	2.3830657
4.759880451372434	5.658852	2.3788342
4.777422385290215	5.7065415	2.3888369
4.794964431228581	5.688886	2.3851385
4.812506589600768	5.64451	2.3758178
4.830048860820047	5.538038	2.3533037
4.847591245299709	5.485377	2.3420882
4.8651337434530655	5.525774	2.3506966
4.882676355693457	5.560757	2.3581257
4.900219082434242	5.611604	2.3688824
4.917761924088813	5.56032	2.358033
4.935304881070575	5.451334	2.3348093
4.952847953792969	5.4142995	2.3268647
4.970391142669449	5.3457932	2.312097
4.9879344481135055	5.310828	2.3045235
5.005477870538642	5.370691	2.317475
5.023021410358394	5.37892	2.3192499
5.040565067986324	5.4253836	2.3292453
5.05810884383601	5.422773	2.3286848
5.075652738321066	5.405532	2.32498
5.09319675185512	5.4408536	2.3325636
5.110740884851836	5.3843927	2.3204293
5.128285137724894	5.354928	2.3140717
5.145829510888007	5.3081346	2.3039389
5.163374004754908	5.3007207	2.3023293
5.1809186197393595	5.310321	2.3044133
5.198463356255145	5.245014	2.2901995
5.216008214716077	5.2153063	2.2837045
5.233553195535998	5.126747	2.2642322
5.251098299128764	5.1593966	2.2714305
5.268643525908272	5.1856465	2.2772014
5.286188876288432	5.1831355	2.27665
5.3037343506831895	5.165774	2.2728338
5.32127994950651	5.182	2.2764008
5.3388256731723915	5.220109	2.2847557
5.356371522094851	5.226637	2.2861838
5.373917496687938	5.2021613	2.2808247
5.391463597365729	5.1587524	2.2712886
5.40900982454232	5.107223	2.2599165
5.426556178631843	5.0790505	2.253675
5.444102660048449	5.0350766	2.2438977
5.4616492692063225	5.146101	2.268502
5.479196006519669	5.164449	2.2725425
5.496742872402727	5.121702	2.2631178
5.514289867269756	5.0736055	2.2524664
5.531836991535049	5.09728	2.2577157
5.549384245612924	5.1675897	2.2732334
5.566931629917724	5.1447506	2.2682042
5.584479144863822	5.0898604	2.2560718
5.6020267908656205	4.971386	2.2296605
5.619574568337545	4.9355516	2.22161
5.637122477694054	4.948786	2.2245867
5.654670519349629	5.0667844	2.2509518
5.672218693718784	5.073555	2.2524552
5.689767001216059	5.1023	2.2588272
5.707315442256021	5.1508465	2.2695477
5.724864017253266	5.1705914	2.2738934
5.7424127266224225	5.1649275	2.2726476
5.75996157077814	5.0567985	2.2487326
5.777510550135105	5.001347	2.2363691
5.795059665108022	4.9756265	2.2306113
5.812608916111639	5.0129633	2.2389648
5.830158303560715	5.2097797	2.2824943
5.847707827870055	5.273056	2.2963135
5.86525748945448	5.3537517	2.3138175
5.8828072887288485	5.4584265	2.3363276
5.900357226108044	5.478587	2.3406382
5.917907302006979	5.6070113	2.3679128
5.9354575168406	6.3060994	2.5111947
5.9530078710238765	6.938766	2.6341538
5.970558364971812	7.400569	2.7203987
5.988108999099438	7.6950703	2.773999
6.005659773821818	8.240291	2.8705907
6.023210689554039	8.06078	2.8391511
6.040761746711227	8.507708	2.9167974
6.058312945708531	7.7863317	2.7904
6.075864286961132	7.2575264	2.6939797
6.093415770884244	6.58188	2.5655174
6.1109673978931065	6.0534286	2.4603717
6.128519168402993	5.4441953	2.3332798
6.146071082829204	5.3485827	2.3127003
6.163623141587075	5.259762	2.293417
6.181175345091969	5.1895866	2.2780664
6.198727693759281	5.2445135	2.2900903
6.216280188004435	5.192912	2.2787962
6.233832828242885	5.1158032	2.261814
6.251385614890126	5.093827	2.2569509
6.268938548361669	5.0492697	2.247058
6.286491629073067	5.0420723	2.245456
6.304044857439898	4.997219	2.235446
6.321598233877777	4.881615	2.2094378
6.339151758802344	4.80429	2.191869
6.356705432629277	4.8079667	2.1927075
6.37425925577428	4.8847537	2.2101479
6.391813228653095	4.974533	2.2303662
6.409367351681486	5.001131	2.236321
6.426921625275259	5.0020733	2.2365315
6.44447604985025	5.0714498	2.251988
6.46203062582232	5.0760193	2.2530022
6.47958535360737	5.035767	2.2440515
6.497140233621328	4.9273133	2.2197552
6.514695266280161	4.918502	2.2177696
6.532250451999859	5.0513487	2.2475204
6.549805791196454	5.0868573	2.2554061
6.567361284286002	5.0978107	2.2578332
6.584916931684597	4.980507	2.231705
6.602472733808367	4.929538	2.2202563
6.6200286910734665	4.939665	2.2225356
6.637584803896092	4.9889126	2.2335873
6.655141072692462	5.0117264	2.2386885
6.672697497878842	4.9650583	2.228241
6.690254079871514	4.9422717	2.2231221
6.707810819086808	4.929477	2.2202425
6.725367715941078	4.885319	2.210276
6.742924770850719	4.9028163	2.2142303
6.760481984232151	4.8627067	2.2051547
6.778039356501836	4.876955	2.2083828
6.795596888076266	4.845673	2.201289
6.813154579371963	4.774549	2.185074
6.830712430805492	4.804074	2.1918197
6.84827044279344	4.881512	2.2094145
6.865828615752445	4.942758	2.2232316
6.883386950099159	4.97899	2.231365
6.900945446250287	4.9391274	2.2224147
6.918504104622553	4.9660363	2.2284606
6.936062925632727	5.039628	2.2449117
6.953621909697607	5.0496283	2.2471378
6.971181057234028	5.0076113	2.2377694
6.988740368658859	5.0293403	2.242619
7.006299844389007	5.02915	2.2425766
7.023859484841407	5.067957	2.2512124
7.041419290433036	5.117498	2.2621887
7.058979261580902	5.2596955	2.2934027
7.0765393987020495	5.521238	2.3497314
7.094099702213559	5.86868	2.422536
7.111660172532549	6.2998366	2.5099475
7.129220810076164	6.660838	2.58086
7.146781615261595	7.186818	2.680824
7.16434258850606	7.427456	2.7253358
7.181903730226821	7.784955	2.7901533
7.1994650408411704	7.9708295	2.8232658
7.217026520766437	8.063811	2.839685
7.234588170419983	8.421858	2.9020438
7.252149990219215	8.414512	2.9007778
7.269711980581568	8.285947	2.8785322
7.2872741419245175	8.024813	2.83281
7.304836474665574	7.6281023	2.7619019
7.322398979222286	7.3815722	2.7169049
7.339961656012233	7.2032204	2.6838815
7.357524505453039	6.837958	2.614949
7.375087527962357	6.5335627	2.5560834
7.392650723957886	6.1923532	2.4884439
7.410214093857353	5.8378654	2.4161675
7.427777638078528	5.593817	2.3651252
7.445341357039213	5.443331	2.3330946
7.4629052511572525	5.342011	2.311279
7.480469320850524	5.3252	2.3076396
7.498033566536948	5.235852	2.2881985
7.5155979886344735	5.1886077	2.2778516
7.5331625875610975	5.153309	2.27009
7.550727363734844	5.129833	2.2649136
7.568292317573788	5.099855	2.2582858
7.585857449496025	5.03741	2.2444174
7.603422759919705	5.053864	2.24808
7.620988249263007	5.1333914	2.265699
7.638553917944147	5.1878443	2.277684
7.656119766381391	5.1838703	2.2768114
7.673685794993023	5.1498246	2.2693224
7.691252004197388	5.125164	2.2638824
7.70881839441285	5.1618686	2.2719746
7.726384966057826	5.168092	2.2733438
7.743951719550762	5.170369	2.2738445
7.761518655310149	5.1984878	2.2800193
7.779085773754511	5.198136	2.279942
7.796653075302419	5.2097273	2.2824826
7.814220560372475	5.2262306	2.2860951
7.831788229383323	5.257665	2.29296
7.8493560827536495	5.3580246	2.3147407
7.866924120902174	5.3407183	2.3109994
7.884492344247663	5.3229775	2.307158
7.9020607532089135	5.249211	2.2911155
7.919629348204771	5.2812414	2.2980952
7.937198129654115	5.291042	2.3002264
7.954767097975865	5.306529	2.3035905
7.972336253588986	5.2995815	2.302082
7.989905596912472	5.3182845	2.3061407
8.007475128365371	5.359058	2.3149638
8.025044848366756	5.3937454	2.322444
8.042614757335754	5.4126415	2.3265085
8.060184855691523	5.4651113	2.3377578
8.07775514385327	5.6384296	2.3745377
8.095325622240228	5.7387586	2.3955705
8.112896291271687	5.7476573	2.3974273
8.130467151366968	5.770139	2.4021113
8.148038202945436	5.737336	2.3952737
8.165609446426497	5.776775	2.4034922
8.183180882229594	5.84016	2.4166422
8.200752510774217	5.9110923	2.4312737
8.218324332479893	5.989818	2.4474106
8.235896347766193	5.945057	2.4382486
8.253468557052724	5.978852	2.445169
8.27104096075914	5.9431157	2.4378507
8.288613559305137	5.975102	2.4444022
8.306186353110448	6.0268497	2.4549644
8.32375934259485	6.1067595	2.471186
8.341332528178162	6.1025686	2.4703379
8.358905910280246	6.1889124	2.4877524
8.376479489321003	6.147613	2.479438
8.394053265720377	6.18543	2.4870524
8.411627239898356	6.198589	2.4896965
8.42920141227497	6.196615	2.4893003
8.44677578327029	6.211766	2.4923415
8.464350353304427	6.185169	2.487
8.48192512279754	6.077193	2.4651964
8.499500092169827	6.0289273	2.4553874
8.51707526184153	6.030579	2.4557238
8.534650632232934	6.04459	2.4585748
8.552226203764365	6.0652246	2.4627676
8.569801976856192	6.1631217	2.4825635
8.587377951928834	6.3178124	2.513526
8.60495412940274	6.3788733	2.525643
8.622530509698416	6.3928733	2.5284133
8.6401070932364	6.402951	2.5304053
8.657683880437283	6.4605794	2.541767
8.675260871721695	6.6229386	2.573507
8.692838067510303	6.7740145	2.6026938
8.710415468223834	6.8905506	2.624986
8.727993074283043	7.044813	2.6542068
8.745570886108737	7.050419	2.6552625
8.763148904121765	7.1071396	2.665922
8.78072712874302	7.0875106	2.662238
8.798305560393441	7.3103366	2.7037635
8.815884199494006	7.44379	2.728331
8.833463046465745	7.6112056	2.7588413
8.851042101729728	7.7799997	2.7892652
8.86862136570707	8.125902	2.850597
8.886200838818924	8.247515	2.8718486
8.903780521486505	8.265099	2.8749084
8.921360414131055	8.365471	2.8923123
8.938940517173874	8.483391	2.912626
8.956520831036297	8.603965	2.9332516
8.97410135613971	8.854132	2.9755893
8.99168209290554	9.0672655	3.01119
9.009263041755265	9.378067	3.062363
9.026844203110405	9.628952	3.1030552
9.044425577392525	9.819751	3.1336482
9.062007165023239	9.872979	3.1421297
9.079588966424197	10.152806	3.1863468
9.097170982017108	10.278324	3.2059824
9.11475321222372	11.320531	3.3645997
9.132335657465825	12.173581	3.489066
9.149918318165264	12.277073	3.5038655
9.167501194743924	12.919332	3.5943472
9.18508428762374	12.613893	3.5516043
9.202667597226693	12.608319	3.5508196
9.220251123974803	12.303618	3.5076513
9.237834868290143	11.988487	3.4624395
9.255418830594836	11.748302	3.4275796
9.273003011311046	11.222524	3.3500035
9.290587410860985	11.032787	3.321564
9.308172029666911	10.397606	3.224532
9.32575686815113	10.023745	3.1660297
9.343341926735997	8.601761	2.9328759
9.360927205843916	8.422856	2.9022157
9.378512705897327	8.32261	2.8848934
9.396098427318728	8.130668	2.8514326
9.413684370530664	7.9906306	2.8267703
9.431270535955722	7.7665906	2.7868605
9.448856924016539	7.713322	2.7772868
9.466443535135806	7.588329	2.754692
9.484030369736251	7.705121	2.77581
9.501617428240658	7.7772036	2.7887638
9.519204711071852	7.8654075	2.8045335
9.536792218652714	7.872876	2.8058646
9.55437995140617	7.7988048	2.792634
9.571967909755191	7.8185096	2.7961597
9.589556094122802	7.7983356	2.79255
9.60714450493207	7.8420057	2.800358
9.624733142606116	7.88458	2.8079495
9.642322007568108	7.881871	2.807467
9.659911100241267	7.965157	2.822261
9.677500421048851	7.9537506	2.8202395
9.695089970414175	7.9364967	2.817179
9.712679748760609	7.9114375	2.8127277
9.730269756511557	7.9368205	2.8172364
9.747859994090492	8.00027	2.8284748
9.765450461920915	8.036025	2.8347883
9.78304116042639	8.134329	2.8520744
9.800632090030527	8.123151	2.850114
9.81822325115699	8.219503	2.8669677
9.835814644229481	8.138802	2.8528585
9.853406269671762	8.184505	2.8608575
9.870998127907646	8.127579	2.8508909
9.888590219360985	8.101012	2.8462276
9.906182544455698	8.132531	2.8517592
9.923775103615734	8.140436	2.853145
9.941367897265108	8.149317	2.8547008
9.958960925827878	8.056018	2.8383124
9.97655418972816	8.095813	2.8453143
9.994147689390106	8.137339	2.852602
10.011741425237934	8.229886	2.8687778
10.029335397695904	8.264722	2.874843
10.04692960718833	8.184299	2.8608215
10.06452405413958	8.103113	2.8465967
10.082118738974064	8.089498	2.8442042
10.099713662116246	8.061679	2.8393097
10.117308823990651	8.152544	2.855266
10.134904225021844	8.199147	2.8634152
10.152499865634445	8.220083	2.8670688
10.170095746253125	8.163855	2.857246
10.18769186730261	8.092458	2.8447247
10.205288229207675	8.113183	2.848365
10.222884832393145	8.180411	2.8601418
10.2404816772839	8.211463	2.865565
10.258078764304868	8.151255	2.8550403
10.275676093881035	8.027331	2.8332546
10.293273666437438	8.061819	2.8393342
10.310871482399158	8.173962	2.859014
10.32846954219134	8.151961	2.855164
10.346067846239173	8.157137	2.8560703
10.363666394967908	8.08547	2.843496
10.38126518880283	8.081541	2.8428051
10.398864228169298	8.112002	2.8481576
10.416463513492713	8.127677	2.850908
10.434063045198531	8.084628	2.843348
10.451662823712262	8.096556	2.8454447
10.469262849459467	8.113328	2.8483903
10.486863122865758	8.089436	2.8441932
10.504463644356806	7.9767666	2.824317
10.522064414358338	7.866399	2.8047101
10.539665433296118	7.8274226	2.797753
10.557266701595987	7.82358	2.7970662
10.574868219683818	7.75895	2.7854893
10.592469987985552	7.6456904	2.7650843
10.610072006927185	7.5691137	2.7512023
10.627674276934751	7.4815702	2.735246
10.64527679843435	7.4241667	2.7247324
10.662879571852143	7.3392553	2.709106
10.680482597614331	7.1972365	2.6827667
10.698085876147173	6.9889436	2.643661
10.715689407876988	6.8272552	2.6129017
10.733293193230146	6.75616	2.5992613
10.750897232633072	6.6945043	2.587374
10.76850152651225	6.675691	2.583736
10.786106075294207	6.5566306	2.560592
10.803710879405534	6.5187097	2.5531764
10.821315939272877	6.4844375	2.5464559
10.83892125532294	6.41107	2.5320091
10.856526827982472	6.3747725	2.5248313
10.874132657678285	6.2732615	2.504648
10.891738744837243	6.212932	2.4925754
10.909345089886271	6.138283	2.4775558
10.926951693252343	6.0471363	2.4590926
10.944558555362494	6.0293407	2.4554715
10.96216567664381	5.978761	2.4451506
10.979773057523436	5.911932	2.4314466
10.997380698428573	5.78928	2.4060922
11.014988599786477	5.660791	2.3792417
11.032596762024461	5.5664325	2.3593287
11.050205185569892	5.4587274	2.336392
11.067813870850198	5.4384537	2.3320491
11.085422818292859	5.417146	2.3274763
11.10303202832541	5.3981476	2.3233914
11.120641501375454	5.3803363	2.3195553
11.138251237870636	5.3398256	2.3108063
11.155861238238671	5.3399997	2.310844
11.173471502907317	5.297209	2.3015666
11.191082032304402	5.1819406	2.2763877
11.208692826857805	5.0977974	2.2578301
11.226303886995465	5.0386853	2.2447016
11.243915213145371	4.9962883	2.2352378
11.261526805735578	4.9444165	2.2236044
11.279138665194196	4.881705	2.209458
11.296750791949393	4.818273	2.1950564
11.314363186429393	4.7652793	2.182952
11.331975849062479	4.7147503	2.1713476
11.34958878027699	4.6752477	2.1622322
11.36720198050133	4.619154	2.1492217
11.384815450163948	4.5453696	2.1319873
11.402429189693366	4.5118413	2.1241095
11.420043199518153	4.4735894	2.115086
11.437657480066942	63.461273	7.9662585
11.455272031768422	85.1501	9.227681
11.472886855051353	107.49049	10.367763
11.490501950344528	99.08427	9.954108
11.508117318076819	84.40742	9.187351
11.52573295867715	45.805683	6.7679896
11.543348872574514	4.0884337	2.0219877
11.560965060197946	4.056921	2.01418
11.57858152197655	4.0119686	2.00299
11.59619825833949	4.0000978	2.0000243
11.613815269715985	3.9794102	1.9948459
11.631432556535323	38.502365	6.2050276
11.649050119226837	83.019295	9.111492
11.666667958219929	93.38421	9.66355
11.68428607394406	107.66113	10.375988
11.701904466828756	82.4949	9.08267
11.719523137303586	65.386086	8.086166
11.737142085798196	4.6069655	2.1463842
11.754761312742286	3.7078586	1.92558
11.772380818565619	3.6645062	1.91429
11.790000603698015	3.630897	1.9054912
11.80762066856935	3.562322	1.8874115
11.825241013609572	3.5527349	1.8848699
11.842861639248683	3.5367286	1.8806192
11.860482545916748	3.4901943	1.8682061
11.878103734043883	3.4098384	1.8465748
11.895725204060282	3.3889234	1.8409029
11.91334695639619	3.3988547	1.8435984
11.930968991481919	3.3902643	1.841267
11.948591309747824	3.3482473	1.8298217
11.966213911624347	3.2891834	1.8136106
11.98383679754198	3.2452695	1.8014631
12.001459967931268	3.254888	1.8041308
12.019083423222835	3.2231147	1.7953035
12.036707163847352	3.1744044	1.7816858
12.05433119023556	3.1270025	1.7683332
12.071955502818259	3.0798743	1.7549571
12.089580102026313	3.0669544	1.7512722
12.107204988290643	3.0964863	1.7596836
12.12483016204224	3.0870476	1.7569996
12.142455623712152	3.0429459	1.7444042
12.16008137373149	3.0655081	1.7508593
12.177707412531431	3.0833888	1.7559581
12.19533374054321	3.1157784	1.7651567
12.212960358198126	3.0905044	1.7579831
12.230587265927545	3.0925708	1.7585707
12.248214464162889	3.0648615	1.7506746
12.265841953335649	3.0660536	1.7510151
12.283469733877375	3.033333	1.7416466
12.301097806219685	2.9978728	1.7314366
12.31872617079425	2.9390981	1.7143798
12.336354828032825	2.9000068	1.7029406
12.353983778367205	2.870819	1.6943492
12.371613022229262	2.8534687	1.6892213
12.389242560050928	2.8244636	1.6806141
12.406872392264201	2.790389	1.6704458
12.424502519301143	2.7832713	1.6683139
12.442132941593874	2.799902	1.6732907
12.459763659574586	2.8074925	1.6755574
12.477394673675532	2.7741585	1.6655805
12.49502598432903	2.7930827	1.6712519
12.51265759196746	2.8322794	1.6829377
12.530289497023267	2.8634357	1.692169
12.547921699928967	2.8372195	1.6844047
12.565554201117134	2.780464	1.6674724
12.583187001020404	2.7824814	1.6680771
12.600820100071486	2.7278903	1.6516325
12.618453498703152	2.7490804	1.6580352
12.636087197348235	2.7605011	1.6614755
12.65372119643964	2.8105788	1.6764781
12.671355496410326	2.8287187	1.6818795
12.68899009769333	2.829959	1.6822481
12.706625000721749	2.8315187	1.6827117
12.724260205928752	2.8486652	1.687799
12.741895713747551	2.8690424	1.6938248
12.759531524611454	2.935152	1.7132286
12.777167638953818	2.937682	1.7139667
12.794804057208072	2.9891756	1.7289232
12.812440779807702	3.0097702	1.7348689
12.830077807186271	3.1652632	1.7791187
12.847715139777405	3.1950655	1.7874746
12.865352778014795	3.381731	1.8389484
12.882990722332197	3.4861324	1.8671187
12.90062897316344	3.5806875	1.8922704
12.918267530942412	3.700234	1.9235992
12.935906396103071	3.5823753	1.8927164
12.953545569079449	3.7432601	1.9347507
12.971185050305628	3.5896487	1.8946369
12.988824840215775	3.609583	1.8998902
13.006464939244115	3.6199172	1.902608
13.024105347824943	3.417019	1.848518
13.041746066392617	3.5139668	1.8745577
13.05938709538157	3.3400428	1.8275784
13.077028435226296	3.4174812	1.8486431
13.094670086361363	3.3310623	1.8251199
13.112312049221401	3.2063293	1.7906226
13.129954324241112	3.0642884	1.7505109
13.147596911855258	2.8570795	1.6902897
13.165239812498685	2.80181	1.6738608
13.182883026606293	2.7298925	1.6522386
13.200526554613058	2.7101347	1.6462487
13.218170396954017	2.7031593	1.6441288
13.235814554064284	2.6945174	1.6414986
13.253459026379034	2.6972444	1.642329
13.271103814333523	2.680086	1.6370968
13.288748918363058	2.6564856	1.6298729
13.306394338903031	2.6364644	1.6237193
13.32404007638889	2.6299026	1.6216974
13.341686131256164	2.625347	1.6202922
13.359332503940449	2.6011481	1.6128075
13.376979194877402	2.5985842	1.6120125
13.394626204502751	2.6769173	1.6361288
13.412273533252307	2.7061021	1.6450235
13.429921181561937	2.7331038	1.6532102
13.447569149867581	2.705258	1.6447668
13.465217438605247	2.7094114	1.646029
13.482866048211022	2.66644	1.6329237
13.500514979121052	2.642501	1.6255772
13.518164231771568	2.623807	1.6198169
13.535813806598844	2.6347742	1.6231987
13.553463704039254	2.656362	1.629835
13.571113924529229	2.663084	1.6318958
13.588764468505275	2.6766753	1.6360548
13.606415336403956	2.701247	1.643547
13.624066528661917	2.7231712	1.6502033
13.641718045715882	2.8020875	1.6739438
13.659369888002635	2.848608	1.6877819
13.67702205595903	2.89636	1.7018695
13.694674550021993	2.9504535	1.7176884
13.712327370628532	3.017412	1.73707
13.729980518215713	3.1046839	1.7620113
13.747633993220681	3.1532705	1.775745
13.765287796080647	3.1860497	1.7849509
13.7829419272329	3.2384386	1.7995663
13.800596387114801	3.2715013	1.8087292
13.818251176163775	3.307269	1.8185898
13.835906294817324	3.3345418	1.8260728
13.853561743513023	3.3844655	1.8396916
13.871217522688525	3.4508069	1.8576348
13.888873632781538	3.4788177	1.8651589
13.906530074229858	3.5170257	1.8753735
13.92418684747135	3.533169	1.8796725
13.941843952943948	3.5406654	1.8816656
13.959501391085665	3.4665523	1.8618679
13.977159162334578	3.3711205	1.8360611
13.994817267128846	3.2849078	1.8124315
14.012475705906693	3.200101	1.7888826
14.030134479106424	3.1191342	1.7661071
14.047793587166414	3.0840616	1.7561496
14.065453030525108	3.065597	1.7508847
14.083112809621026	3.04146	1.7439783
14.100772924892766	2.9676015	1.7226728
14.118433376778997	2.9209735	1.7090856
14.136094165718458	2.8499808	1.6881887
14.153755292149969	2.7750978	1.6658624
14.171416756512416	2.6883175	1.639609
14.189078559244768	2.598131	1.6118718
14.20674070078606	2.548816	1.5965011
14.224403181575408	2.4839392	1.5760517
14.242066002051999	2.4514203	1.5657012
14.259729162655093	2.4273946	1.5580099
14.277392663824022	2.4435365	1.5631815
14.295056505998208	2.4208467	1.555907
14.312720689617128	2.4080477	1.5517886
14.330385215120348	2.382458	1.5435213
14.348050082947497	2.3676193	1.538707
14.3657152935383	2.3746674	1.5409956
14.383380847332528	2.3765805	1.5416162
14.401046744770051	2.3534307	1.5340896
14.418712986290798	2.3442473	1.5310935
14.436379572334793	2.329173	1.5261629
14.454046503342123	2.3343751	1.5278662
14.471713779752946	2.3441498	1.5310616
14.489381402007504	2.3800077	1.5427274
14.507049370546113	2.3439178	1.530986
14.524717685809168	2.3331776	1.5274743
14.542386348237134	2.338245	1.5291321
14.560055358270553	2.3793707	1.5425209
14.577724716350051	2.4115176	1.5529062
14.595394422916325	2.4116569	1.552951
14.61306447841015	2.430875	1.5591264
14.63073488327237	2.4608936	1.5687236
14.648405637943917	2.4872026	1.5770868
14.6660767428658	2.475041	1.5732263
14.683748198479094	2.452294	1.5659802
14.701420005224954	2.4411044	1.5624034
14.719092163544628	2.5058663	1.5829928
14.73676467387942	2.5610702	1.6003344
14.754437536670727	2.5860562	1.608122
14.772110752360014	2.6171098	1.6177484
14.78978432138882	2.6315806	1.6222147
14.807458244198777	2.6655264	1.6326439
14.82513252123159	2.6924858	1.6408796
14.842807152929028	2.728601	1.6518477
14.860482139732962	2.7256496	1.6509541
14.87815748208531	2.6860812	1.6389269
14.8958331804281	2.6644142	1.6323034
14.91350923520342	2.6320124	1.6223478
14.931185646853438	2.664185	1.6322331
14.948862415820408	2.6619196	1.631539
14.966539542546656	2.6563935	1.6298447
14.98421702747459	2.6353407	1.6233733
15.001894871046696	2.6361876	1.6236341
15.019573073705542	2.6532388	1.6288766
15.037251635893766	2.6602361	1.631023
15.054930558054092	2.6736314	1.6351243
15.072609840629323	2.7086494	1.6457975
15.090289484062351	2.8193314	1.6790864
15.107969488796124	3.076532	1.7540045
15.125649855273691	3.470538	1.8629379
15.14333058393817	3.9482415	1.9870182
15.161011675232768	4.975638	2.2306137
15.17869312960076	6.3154984	2.5130656
15.196374947485506	8.169233	2.858187
15.214057129330447	11.200962	3.3467839
15.231739675579114	15.999521	3.9999402
15.249422586675102	21.099567	4.5934267
15.267105863062092	24.22591	4.9219823
15.284789505183847	24.602463	4.960087
15.302473513484218	22.550383	4.7487245
15.320157888407127	19.00115	4.3590307
15.337842630396578	14.74079	3.8393736
15.355527739896656	11.404432	3.377045
15.37321321735153	8.934564	2.989074
15.39089906320545	6.531542	2.5556881
15.408585277902748	4.9392686	2.2224464
15.42627186188783	3.7740529	1.9426922
15.443958815605198	3.1922636	1.7866907
15.461646139499424	2.8548815	1.6896394
15.479333834015168	2.675112	1.635577
15.497021899597165	2.6402655	1.6248894
15.514710336690234	2.5708382	1.6033834
15.53239914573928	2.5406525	1.5939424
15.550088327189297	2.4805372	1.5749722
15.567777881485336	2.4740944	1.5729254
15.58546780907256	2.4757946	1.5734658
15.6031581103962	2.4841228	1.57611
15.620848785901568	2.4736104	1.5727715
15.638539836034063	2.4986978	1.580727
15.656231261239173	2.4848642	1.5763452
15.673923061962451	2.4600809	1.5684645
15.691615238649552	2.4096239	1.5522963
15.709307791746202	2.392864	1.5468885
15.727000721698221	2.407586	1.5516398
15.744694028951498	2.418159	1.5550431
15.76238771395202	2.3720555	1.5401479
15.780081777145844	2.3179111	1.5224688
15.797776218979125	2.2880435	1.512628
15.815471039898094	2.3017476	1.5171511
15.833166240349064	2.2971628	1.5156394
15.850861820778437	2.329153	1.5261563
15.868557781632699	2.369242	1.5392342
15.886254123358412	2.3899858	1.5459579
15.903950846402232	2.3726554	1.5403426
15.921647951210897	2.366771	1.5384313
15.939345438231225	2.3574502	1.5353991
15.957043307910133	2.3762238	1.5415004
15.974741560694602	2.4023466	1.5499505
15.992440197031714	2.4358077	1.5607074
16.01013921736862	2.4382656	1.5614947
16.02783862215259	2.462874	1.5693547
16.045538411830933	2.3996203	1.5490708
16.06323858685107	2.3909307	1.5462635
16.080939147660512	2.3822746	1.5434619
16.09864009470684	2.3845768	1.5442075
16.11634142843774	2.3675537	1.5386857
16.134043149300954	2.3811593	1.5431006
16.15174525774433	2.3830757	1.5437214
16.169447754215817	2.3866935	1.5448927
16.18715063916342	2.3929877	1.5469285
16.204853913035244	2.4388678	1.5616875
16.222557576279478	2.4455712	1.5638322
16.240261629344403	22.398418	4.7326965
16.257966072678386	42.936966	6.5526304
16.275670906729868	38.067486	6.169885
16.293376131947387	2.535216	1.5922362
16.31108174877957	2.5472162	1.5960001
16.328787757675133	2.5667777	1.6021166
16.34649415908287	2.5440598	1.5950109
16.364200953451657	2.56443	1.6013838
16.38190814123048	2.5875962	1.6086007
16.39961572286839	2.630422	1.6218576
16.41732369881455	2.6507602	1.6281155
16.43503206951817	2.6662908	1.6328781
16.45274083542859	2.7150145	1.6477301
16.47044999699522	2.7675438	1.6635936
16.488159554667558	2.8295	1.6821117
16.505869508895184	2.863199	1.692099
16.523579860127786	2.890653	1.700192
16.541290608815117	2.922094	1.7094134
16.559001755407035	3.0035713	1.7330815
16.57671330035348	3.0595386	1.7491537
16.59442524410448	3.1299546	1.7691678
16.61213758711015	3.1850774	1.7846786
16.629850329820705	3.2643843	1.8067607
16.647563472686436	3.3093064	1.8191499
16.665277016157724	3.3500907	1.8303254
16.682990960685053	3.3791347	1.8382423
16.70070530671898	3.413084	1.8474534
16.718420054710155	3.4693594	1.8626217
16.736135205109335	3.5551474	1.8855098
16.753850758367335	3.6084096	1.8995814
16.771566714935087	3.6506624	1.9106706
16.789283075263597	3.671013	1.9159888
16.80699983980398	3.7662117	1.940673
16.82471700900741	3.8505936	1.9622929
16.84243458332518	3.9505892	1.9876089
16.860152563208665	4.026308	2.0065663
16.87787094910932	4.069096	2.0172
16.89558974147871	4.0633426	2.0157735
16.913308940768466	4.067253	2.0167432
16.931028547430333	4.116985	2.0290353
16.94874856191613	4.171253	2.0423646
16.966468984677785	4.277961	2.0683231
16.98418981616729	4.351971	2.0861378
17.00191105683676	4.4203663	2.1024668
17.019632707138374	4.44188	2.1075768
17.03735476752442	4.485416	2.11788
17.05507723844728	4.5211563	2.126301
17.072800120359403	4.5015154	2.1216774
17.090523413713353	4.514867	2.1248217
17.108247118961785	4.560235	2.1354706
17.125971236557437	4.632613	2.1523507
17.143695766953133	4.618222	2.149005
17.161420710601806	4.6405106	2.1541843
17.179146067956477	4.642851	2.1547275
17.19687183947025	4.611404	2.147418
17.21459802559634	4.569403	2.1376162
17.232324626788028	4.5257	2.1273694
17.25005164349871	4.524386	2.1270604
17.267779076181863	4.5157514	2.1250298
17.285506925291074	4.5594835	2.1352947
17.30323519127999	4.558059	2.1349611
17.320963874602384	4.5483418	2.1326842
17.33869297571211	4.511809	2.1241019
17.356422495063114	4.511246	2.1239696
17.37415243310944	4.510603	2.123818
17.391882790305218	4.5369177	2.1300042
17.40961356710468	4.4882393	2.1185465
17.42734476396215	4.4561076	2.1109495
17.445076381332044	4.4367886	2.1063685
17.462808419668868	4.518887	2.1257675
17.48054087942723	4.627771	2.1512253
17.498273761061835	4.8664036	2.2059927
17.51600706502747	5.329268	2.3085208
17.533740791779024	6.033721	2.4563634
17.551474941771485	7.400303	2.7203498
17.56920951545993	8.485896	2.9130561
17.586944513299528	10.840709	3.2925231
17.60467993574556	12.704041	3.5642729
17.622415783253373	14.517238	3.8101492
17.64015205627843	15.902187	3.9877546
17.657888755276293	16.978582	4.1205077
17.675625880702604	17.516836	4.185312
17.69336343301311	17.363892	4.1670003
17.71110141266366	16.560434	4.0694513
17.728839820110178	15.504301	3.93755
17.746578655808705	14.506787	3.8087776
17.764317920215372	12.962676	3.6003716
17.7820576137864	11.483951	3.3887978
17.79979773697811	9.429537	3.070755
17.81753829024692	7.4945116	2.7376106
17.835279274049356	5.76146	2.400304
17.85302068884201	4.717667	2.1720192
17.870762535081607	4.0837073	2.0208185
17.888504813224934	3.8381295	1.9591144
17.90624752372891	3.6985626	1.9231647
17.923990667050536	3.5750065	1.8907688
17.941734243646895	3.4950094	1.8694944
17.959478253975185	3.424632	1.8505762
17.9772226984927	3.4037454	1.8449242
17.994967577656833	3.396138	1.8428613
18.01271289192506	3.3648171	1.8343438
18.030458641754965	3.367009	1.8349411
18.04820482760425	3.356366	1.8320388
18.06595144993067	3.3844848	1.8396969
18.083698509192125	3.331037	1.8251129
18.101446005846576	3.2783318	1.8106164
18.119193940352105	3.1958306	1.7876886
18.136942313166887	3.17199	1.7810081
18.1546911247492	3.195728	1.7876599
18.1724403755574	3.2040412	1.7899836
18.19019006604997	3.2181785	1.7939283
18.207940196685467	3.1584973	1.7772162
18.225690767922575	3.1188586	1.766029
18.243441780220046	3.0258722	1.7395035
18.261193234036764	2.997755	1.7314026
18.278945129831676	2.997564	1.7313474
18.29669746806386	2.9916341	1.729634
18.314450249192483	3.000865	1.7323005
18.3322034736768	3.03233	1.7413586
18.349957141976184	3.0512917	1.7467947
18.3677112545501	3.0307477	1.7409042
18.385465811858108	3.0268598	1.7397872
18.403220814359884	3.0371096	1.7427305
18.420976262515172	3.0322073	1.7413235
18.43873215678387	3.0766637	1.7540421
18.456488497625923	3.106686	1.7625794
18.474245285501407	3.2385242	1.79959
18.492002520870486	3.3526692	1.8310295
18.50976020419343	3.4722815	1.8634058
18.527518335930615	3.73668	1.9330494
18.545276916542516	4.3360515	2.0823188
18.563035946489688	4.438997	2.1068926
18.580795426232832	4.887434	2.2107542
18.598555356232698	4.710699	2.1704144
18.616315736950185	4.9593325	2.226956
18.63407656884626	4.5981064	2.1443195
18.65183785238201	4.8020363	2.191355
18.669599588018617	4.56478	2.1365347
18.68736177621737	4.49099	2.1191957
18.705124417439652	4.4864573	2.118126
18.72288751214696	4.3100963	2.0760772
18.740651060800886	4.448875	2.1092355
18.758415063863115	4.199091	2.0491683
18.77617952179546	4.414835	2.1011508
18.793944435059814	4.1521363	2.0376792
18.811709804118184	4.151718	2.0375764
18.829475629432675	4.1317368	2.0326674
18.8472419114655	3.9406662	1.9851111
18.86500865067897	3.9933338	1.9983327
18.88277584753551	3.6713586	1.9160789
18.90054350249763	3.6771486	1.9175893
18.918311616027957	3.3728664	1.8365365
18.936080188589226	3.2687807	1.807977
18.953849220644265	2.9783762	1.7257973
18.971618712656007	2.7941988	1.6715857
18.9893886650875	2.7491434	1.6580541
19.007159078401887	7.923786	2.814922
19.024929953062408	32.799175	5.7270565
19.042701289532435	32.75552	5.7232437
19.060473088275405	25.352346	5.0351114
19.07824534975489	2.6238477	1.6198295
19.096018074434568	2.6185265	1.6181861
19.113791262778197	2.566583	1.6020558
19.13156491524966	2.5577257	1.5992891
19.149339032312945	2.5348983	1.5921364
19.167113614432136	2.5501313	1.5969131
19.184888662071433	2.55362	1.598005
19.202664175695123	2.5286639	1.5901773
19.220440155767623	2.5116968	1.5848334
19.238216602753447	2.470777	1.5718706
19.2559935171172	2.4915712	1.5784712
19.27377089932361	2.4627748	1.5693231
19.291548749837514	2.4877908	1.5772732
19.309327069123835	2.4837883	1.5760039
19.32710585764763	2.5026593	1.5819795
19.344885115874032	2.4959424	1.5798552
19.362664844268313	2.4662814	1.5704399
19.380445043295822	2.4415092	1.5625329
19.39822571342203	2.440426	1.5621864
19.41600685511252	2.458012	1.5678048
19.43378846883297	2.492713	1.5788327
19.451570555049173	2.5207422	1.5876845
19.469353114227037	2.5078828	1.5836296
19.48713614683254	2.4692383	1.571381
19.50491965333182	2.4402366	1.5621257
19.52270363419109	2.4572873	1.5675737
19.540488089876686	2.4615958	1.5689473
19.55827302085503	2.4443188	1.5634317
19.576058427592674	2.456994	1.5674802
19.593844310556282	2.4772515	1.5739287
19.611630670212598	2.5349295	1.5921462
19.629417507028506	2.5188992	1.5871041
19.64720482147098	2.4914734	1.5784402
19.6649926140071	2.4446113	1.5635253
19.682780885104084	2.4399126	1.562022
19.70056963522921	2.4423597	1.562805
19.718358864849908	2.4562638	1.5672472
19.7361485744337	2.4612455	1.5688357
19.753938764448215	2.4684703	1.5711366
19.771729435361202	2.4902492	1.5780523
19.789520587640506	2.481832	1.5753832
19.807312221754092	2.455343	1.5669534
19.825104338170043	2.4571745	1.5675378
19.842896937356517	2.5040686	1.5824249
19.860690019781824	2.5369499	1.5927806
19.87848358591436	2.5158067	1.5861294
19.896277636222635	2.5278854	1.5899326
19.914072171175278	2.5473428	1.5960398
19.931867191241015	2.550347	1.5969806
19.94966269688869	2.5068133	1.5832919
19.967458688587264	2.4697886	1.5715561
19.985255166805807	2.4708734	1.5719012
20.00305213201348	2.4831715	1.5758082
20.020849584679578	2.5108294	1.5845597
20.038647525273507	2.527479	1.5898046
20.05644595426477	2.5155423	1.5860461
20.07424487212299	2.4796631	1.5746946
20.092044279317903	2.4367821	1.5610195
20.109844176319353	2.4274726	1.5580349
20.127644563597304	2.4233963	1.5567262
20.145445441621817	2.4296377	1.5587295
20.16324681086307	2.4098132	1.5523573
20.181048671791373	2.3952014	1.5476438
20.198851024877122	2.3727489	1.540373
20.216653870590836	2.353717	1.5341829
20.234457209403146	2.3566563	1.5351405
20.252261041784802	2.362866	1.5371616
20.270065368206662	2.4014187	1.5496511
20.287870189139685	2.4190252	1.5553216
20.305675505054968	2.389935	1.5459415
20.323481316423702	2.3558	1.5348616
20.341287623717207	2.3270423	1.5254647
20.359094427406884	2.331587	1.5269536
20.376901727964288	2.3319767	1.5270811
20.39470952586107	2.3408525	1.5299845
20.41251782156899	2.3363895	1.5285252
20.430326615559935	2.3121412	1.5205727
20.448135908305886	2.30325	1.5176462
20.465945700278965	2.2857618	1.5118736
20.483755991951384	2.284892	1.511586
20.50156678379548	2.2920487	1.5139513
20.519378076283708	2.3084586	1.5193613
20.537189869888635	2.3166094	1.5220412
20.55500216508294	2.345377	1.5314623
20.572814962339415	2.3290935	1.5261368
20.59062826213098	2.2716513	1.5071998
20.60844206493066	2.2461941	1.4987308
20.626256371211593	2.263776	1.504585
20.644071181447032	2.3117836	1.520455
20.66188649611036	2.3269284	1.5254272
20.67970231567506	2.311801	1.5204607
20.697518640614742	2.3094726	1.5196949
20.715335471403122	2.3066516	1.5187665
20.73315280851404	2.309174	1.5195967
20.750970652421447	2.268827	1.5062625
20.768789003599412	2.271367	1.5071055
20.786607862522136	2.2773461	1.5090878
20.8044272296639	2.2977562	1.5158352
20.82224710549913	2.296073	1.5152798
20.84006749050237	2.283516	1.5111307
20.857888385148268	3.8187723	1.954168
20.8757097899116	45.88941	6.7741723
20.893531705267254	64.751175	8.046811
20.911354131690224	83.77911	9.153093
20.92917706965566	69.03425	8.308685
20.94700051963877	50.09343	7.077671
20.96482448211493	29.37469	5.4198422
20.982648957559622	4.1225576	2.0304081
21.00047394644843	2.2437778	1.4979244
21.01829944925707	2.256447	1.5021474
21.036125466461375	2.242672	1.4975554
21.053951998537297	2.1904037	1.4800012
21.071779045960906	2.2027133	1.4841541
21.089606609208378	2.233917	1.4946294
21.10743468875603	2.218415	1.4894345
21.12526328508028	2.1750407	1.4748019
21.143092398657675	2.171212	1.4735034
21.16092202996488	2.1539354	1.4676292
21.17875217947867	2.1588879	1.4693154
21.19658284767596	2.163486	1.4708793
21.21441403503377	2.1405838	1.4630734
21.232245742029225	2.1176713	1.455222
21.2500779691396	2.109019	1.4522462
21.26791071684227	2.1376646	1.4620755
21.28574398561475	2.1328485	1.4604275
21.30357777593465	2.151833	1.4669127
21.321412088279704	2.1157	1.4545447
21.339246923127792	2.1352603	1.461253
21.357082280956888	2.12884	1.4590545
21.3749181622451	2.1335845	1.4606794
21.392754567470647	2.1002772	1.4492333
21.41059149711187	2.0852668	1.4440453
21.42842895164726	2.0841238	1.4436495
21.446266931555378	2.0968382	1.4480463
21.464105437314945	2.1134422	1.4537683
21.481944469404798	2.0988111	1.4487274
21.49978402830388	2.115258	1.4543927
21.51762411449127	2.1187408	1.4555895
21.53546472844617	2.0954247	1.4475582
21.553305870647876	2.0790322	1.441885
21.571147541575865	2.116965	1.4549794
21.58898974170967	2.1308043	1.4597275
21.60683247152899	2.0781171	1.4415675
21.62467573151363	2.048391	1.4312202
21.642519522143523	2.050577	1.4319836
21.660363843898722	2.0243688	1.4228032
21.6782086972594	2.0145245	1.4193394
21.696054082705864	1.9944782	1.4122599
21.713900000718535	2.006252	1.4164222
21.73174645177795	2.0104933	1.4179187
21.749593436364794	2.0167687	1.4201298
21.767440954959845	2.0330324	1.4258444
21.785289008044032	2.0087273	1.4172958
21.803137596098388	1.9789774	1.4067613
21.820986719604086	1.9678146	1.4027882
21.838836379042412	1.9808837	1.4074388
21.85668657489478	2.028093	1.4241114
21.87453730764273	2.0512135	1.4322058
21.892388577767914	2.034292	1.4262861
21.91024038575213	2.01756	1.4204084
21.928092732077285	1.999721	1.414115
21.945945617225426	1.9922589	1.411474
21.963799041678694	1.9854503	1.4090601
21.981653005919398	31.298532	5.594509
21.999507510429943	78.09326	8.837039
22.01736255569286	73.0727	8.548257
22.035218142190818	4.1946936	2.048095
22.05307427040661	2.0230405	1.4223363
22.07093094082315	2.0122967	1.4185544
22.088788153923474	1.98888	1.4102765
22.106645910190746	1.9677014	1.4027479
22.12450421010827	1.9533961	1.3976395
22.142363054159464	1.9535288	1.397687
22.16022244282787	1.9502622	1.3965179
22.178082376597164	1.9641998	1.4014992
22.195942855951145	1.9698308	1.4035066
22.213803881373742	1.9766434	1.4059315
22.231665453349002	1.9773043	1.4061666
22.24952757236111	1.9865258	1.4094417
22.26739023889438	1.9869785	1.4096023
22.28525345343323	1.9800919	1.4071574
22.30311721646225	1.9719859	1.4042742
22.320981528466113	1.9474792	1.3955212
22.33884638992964	1.9058648	1.3805306
22.356711801337788	1.871752	1.3681198
22.37457776317561	1.8847083	1.3728467
22.392444275928337	1.9234883	1.3868988
22.410311340081282	1.9650183	1.4017911
22.428178956119904	1.983654	1.4084226
22.446047124529805	1.9491047	1.3961034
22.46391584579669	1.9482884	1.3958111
22.481785120406414	1.9744077	1.4051362
22.49965494884496	1.9646013	1.4016423
22.51752533159841	1.9197456	1.3855488
22.53539626915302	1.8760697	1.369697
22.553267761995137	1.8818029	1.3717883
22.571139810611264	1.8671216	1.3664266
22.589012415488025	1.8771014	1.3700736
22.60688557711216	1.8928547	1.3758105
22.624759295970566	1.9262099	1.3878796
22.642633572550263	1.9325325	1.3901556
22.660508407338362	1.9215007	1.3861821
22.67838380082217	1.9289725	1.3888745
22.696259753489077	1.927122	1.3882082
22.714136265826614	1.9118944	1.3827127
22.73201333832246	1.9136697	1.3833545
22.74989097146439	1.9227781	1.3866428
22.76776916574035	1.9274359	1.3883213
22.785647921638393	1.950853	1.3967294
22.803527239646712	1.9400232	1.3928472
22.82140712025363	1.9280248	1.3885334
22.839287563947593	1.8925941	1.3757159
22.85716857121719	1.8990935	1.3780761
22.875050142551135	1.9021033	1.3791676
22.892932278438277	1.8905858	1.3749857
22.910814979367604	1.8814638	1.3716646
22.928698245828222	1.8690149	1.3671192
22.946582078309387	1.8949918	1.376587
22.96446647730047	1.9172632	1.3846527
22.98235144329098	1.954157	1.3979117
23.000236976770562	1.9737084	1.4048873
23.018123078229	1.922249	1.386452
23.03600974815619	1.8324242	1.3536706
23.053896987042194	1.8080136	1.3446239
23.071784795377173	1.8289999	1.3524052
23.08967317365145	1.8695463	1.3673135
23.10756212235546	1.865991	1.3660128
23.125451641979787	1.8863652	1.37345
23.143341733015134	1.8689816	1.367107
23.161232395952357	1.8625137	1.3647394
23.179123631282426	1.8775136	1.370224
23.197015439496468	1.9253125	1.3875563
23.214907821085717	1.9543972	1.3979976
23.23280077654157	1.9479553	1.3956916
23.250694306355538	1.919497	1.3854592
23.268588411019277	1.9311033	1.3896414
23.28648309102458	1.9625385	1.4009063
23.304378346863356	1.9658587	1.4020908
23.322274179027676	1.9173703	1.3846914
23.340170588009723	1.936227	1.3914838
23.358067574301852	1.946992	1.3953465
23.37596513839651	1.9306762	1.3894877
23.39386328078629	1.8991866	1.3781098
23.411762001963947	1.8993229	1.3781593
23.429661302422353	1.9273027	1.3882732
23.4475611826545	1.9374759	1.3919325
23.46546164315356	1.9480062	1.3957099
23.48336268441279	1.9366395	1.391632
23.501264306925638	1.9221088	1.3864014
23.51916651118564	1.9182699	1.3850162
23.537069297686497	1.9417475	1.393466
23.554972666922037	1.921306	1.3861119
23.57287661938623	1.9031773	1.3795569
23.59078115557318	1.9202162	1.3857187
23.608686275977128	1.9542283	1.3979372
23.62659198109246	1.9340388	1.3906972
23.6444982714137	1.9321696	1.390025
23.66240514743549	1.9005235	1.3785948
23.68031260965263	1.9013424	1.3788917
23.698220658560068	1.8870586	1.3737025
23.716129294652845	1.8827685	1.3721402
23.7340385184262	1.8861221	1.3733616
23.75194833037546	1.8716694	1.3680897
23.769858730996123	1.8852334	1.373038
23.78776972078382	1.895784	1.3768747
23.80568130023431	1.8921514	1.3755549
23.823593469843495	1.8968914	1.3772768
23.841506230107424	1.8913752	1.3752728
23.859419581522275	1.8840965	1.3726239
23.87733352458438	1.8659203	1.365987
23.89524805979019	1.8700676	1.3675041
23.913163187636318	1.900406	1.3785522
23.931078908619508	1.9421802	1.3936212
23.948995223236633	1.9657103	1.4020379
23.966912131984735	1.9916637	1.4112631
23.98482963536096	2.0281634	1.424136
24.002747733862616	1.9961231	1.4128422
24.020666427987155	1.9811665	1.4075391
24.038585718232156	1.9504633	1.3965899
24.056505605095353	1.9942353	1.412174
24.074426089074617	2.0484831	1.4312522
24.092347170667946	2.053306	1.4329362
24.110268850373515	2.0172997	1.4203167
24.128191128689586	2.0348475	1.4264808
24.146114006114626	2.0014331	1.4147202
24.164037483147187	2.015288	1.4196085
24.181961560286005	2.0254633	1.4231877
24.199886238029926	2.0379303	1.4275609
24.21781151687797	2.054024	1.4331867
24.235737397329274	2.0213916	1.4217565
24.253663879883135	2.04681	1.4306676
24.271590965038975	2.019102	1.4209511
24.289518653296376	2.0204968	1.4214418
24.30744694515505	2.0308537	1.4250803
24.32537584111486	2.0285618	1.4242759
24.34330534167581	1.9891994	1.4103898
24.361235447338046	1.99984	1.414157
24.379166158601876	2.0190365	1.420928
24.39709747596772	2.0212536	1.421708
24.41502939993615	2.008285	1.4171398
24.432961931007917	1.966145	1.402193
24.450895069683856	1.9947298	1.412349
24.468828816465	2.0000172	1.4142196
24.4867631718525	1.9961437	1.4128495
24.504698136347656	1.9733632	1.4047644
24.52263371045192	1.9329183	1.3902943
24.540569894666874	1.939008	1.3924826
24.558506689494266	1.9414974	1.3933762
24.57644409543597	1.9471332	1.3953972
24.594382112994012	1.9067299	1.3808439
24.61232074267057	1.9144099	1.383622
24.630259984967953	1.8954403	1.3767499
24.64819984038863	1.8638586	1.3652321
24.66614030943522	1.8485844	1.3596265
24.684081392610462	1.9099455	1.3820077
24.702023090417274	1.9873782	1.409744
24.7199654033587	1.9888525	1.4102669
24.737908331937927	1.96782	1.4027901
24.755851876658305	1.9972228	1.4132314
24.773796038023324	2.0674334	1.4378572
24.79174081653661	2.1018193	1.4497652
24.809686212701962	2.075046	1.440502
24.827632227023294	2.0668607	1.4376581
24.8455788600047	2.099613	1.4490042
24.8635261121504	2.1316547	1.4600188
24.88147398396475	2.115871	1.4546033
24.899422475952303	2.0643094	1.4367704
24.917371588617698	2.0478575	1.4310337
24.935321322465768	2.105142	1.4509108
24.953271678001478	2.2199714	1.4899569
24.97122265572994	2.4031122	1.5501975
24.989174256156414	2.7297318	1.65219
25.00712647978632	3.2361884	1.7989409
25.02507932712521	3.822766	1.9551895
25.043032798678798	4.3763065	2.0919623
25.060986894952933	4.9860883	2.232955
25.078941616453637	5.6884103	2.3850389
25.096896963687055	6.6458387	2.5779524
25.114852937159508	7.9114833	2.8127358
25.132809537377444	8.431957	2.9037833
25.150766764847468	8.423153	2.9022667
25.168724620076347	7.769554	2.787392
25.186683103570985	6.7872267	2.6052306
25.204642215838426	5.6436043	2.375627
25.222601957385894	4.232116	2.0572107
25.24056232872074	3.1495075	1.7746851
25.25852333035048	2.5710511	1.6034497
25.276484962782778	2.24189	1.4972942
25.294447226525435	2.0873764	1.4447756
25.312410122086423	2.0055726	1.4161824
25.330373649973843	1.9738259	1.4049292
25.348337810695988	1.9615581	1.4005563
25.366302604761245	1.9287568	1.3887969
25.384268032678207	1.8935148	1.3760505
25.40223409495558	1.9035591	1.3796953
25.420200792102257	1.9020766	1.3791579
25.438168124627246	1.8969246	1.3772888
25.45613609303974	1.8828167	1.3721577
25.474104697849057	1.8748859	1.3692647
25.492073939564698	1.8513367	1.3606384
25.510043818696285	1.8825228	1.3720506
25.528014335753614	1.9024057	1.3792772
25.54598549124664	1.9111089	1.3824286
25.56395728568544	1.8690548	1.3671337
25.58192971958028	1.8053108	1.3436185
25.59990279344156	1.8198208	1.3490074
25.617876507779833	1.8504189	1.360301
25.635850863105826	1.8887192	1.3743068
25.653825859930386	1.8355223	1.3548145
25.671801498764548	1.8062949	1.3439847
25.68977778011949	1.8600198	1.3638254
25.707754704506524	1.880655	1.3713697
25.725732272437153	1.8522204	1.3609631
25.743710484423012	1.8048469	1.3434459
25.761689340975888	1.7958024	1.3400755
25.77966884260774	1.8261725	1.3513595
25.797648989830662	1.8745078	1.3691267
25.815629783156922	1.895552	1.3767905
25.83361122309895	1.8488548	1.359726
25.85159331016929	1.8478566	1.3593589
25.869576044880695	1.8529931	1.361247
25.887559427746034	1.8669944	1.36638
25.90554345927836	1.8520297	1.360893
25.92352813999086	1.80362	1.3429892
25.94151347039689	1.8158596	1.3475384
25.959499451009965	1.8623275	1.3646712
25.97748608234374	1.8798792	1.3710868
25.995473364912062	1.88825	1.3741361
26.013461299228904	1.828598	1.3522567
26.03144988580839	1.7857114	1.3363051
26.04943912516483	1.7993395	1.3413947
26.067429017812675	1.8103074	1.3454766
26.085419564266537	1.807664	1.344494
26.103410765041186	1.8015752	1.3422277
26.12140262065155	1.7975228	1.3407173
26.139395131612723	1.7985156	1.3410875
26.157388298439948	1.7871655	1.3368491
26.17538212164861	1.7669631	1.3292717
26.193376601754295	1.8199676	1.3490617
26.211371739272714	1.8513713	1.360651
26.229367534719746	1.8537017	1.3615072
26.247363988611433	1.8484112	1.3595629
26.26536110146397	1.8544011	1.361764
26.283358873793727	1.8037914	1.343053
26.301357306117204	1.822466	1.3499874
26.319356398951104	1.8459445	1.3586555
26.33735615281224	1.8596771	1.3636998
26.35535656821762	1.8348771	1.3545763
26.373357645684404	1.8386902	1.3559831
26.39135938572991	1.8484489	1.3595767
26.409361788871614	1.8403158	1.3565824
26.427364855627165	1.8073155	1.3443643
26.445368586514352	1.7995902	1.3414881
26.46337298205115	1.837172	1.3554232
26.48137804275568	1.8181474	1.348387
26.499383769146217	1.8375727	1.355571
26.517390161741215	1.8400409	1.3564811
26.53539722105928	1.8238308	1.3504928
26.553404947619182	1.7962878	1.3402566
26.571413341939856	1.7792196	1.3338739
26.589422404540397	1.7758833	1.3326228
26.60743213594006	1.7975981	1.3407453
26.62544253665827	1.8097893	1.3452841
26.64345360721459	1.8004177	1.3417964
26.66146534812879	1.8240993	1.3505923
26.679477759920758	1.8260446	1.3513122
26.69749084311057	1.7969002	1.3404851
26.71550459821847	1.7995822	1.3414851
26.733519025764842	1.8383241	1.3558481
26.751534126270258	1.8600761	1.3638461
26.769549900255434	1.8035622	1.3429676
26.787566348241267	1.7730775	1.3315696
26.80558347074881	1.7863357	1.3365387
26.823601268299267	1.8019994	1.3423858
26.841619741414036	1.8039074	1.3430963
26.85963889061465	1.7958813	1.3401049
26.877658716422832	1.7715076	1.33098
26.89567921936045	1.7665915	1.3291318
26.913700399949544	1.7763566	1.3328003
26.93172225871233	1.7887497	1.3374414
26.949744796171174	1.810587	1.3455806
26.967768012848605	1.810082	1.3453928
26.98579190926733	1.8123493	1.3462353
27.003816485950225	1.7739537	1.3318986
27.021841743420318	1.7417136	1.3197399
27.039867682200814	1.6959184	1.3022743
27.057894302815072	1.7189654	1.3110932
27.07592160578664	1.7959307	1.3401234
27.0939495916392	1.8701342	1.3675286
27.111978260896635	1.892356	1.3756293
27.13000761408296	1.8526459	1.3611194
27.148037651722397	1.8162509	1.3476835
27.166068374339304	1.8084103	1.3447715
27.184099782458215	1.7678037	1.3295878
27.20213187660384	1.7245136	1.3132074
27.22016465730105	1.7245027	1.3132032
27.23819812507487	1.7907162	1.3381765
27.256232280450533	1.821892	1.3497748
27.274267123953383	1.8063508	1.3440055
27.292302656108987	1.798497	1.3410805
27.31033887744306	1.7860359	1.3364265
27.32837578848146	1.7975599	1.3407311
27.34641338975026	1.8013189	1.3421322
27.364451681775673	1.8364278	1.3551487
27.382490665084074	1.8551842	1.3620515
27.400530340202046	1.8421901	1.3572731
27.41857070765629	1.8073051	1.3443605
27.436611767973726	1.8158774	1.3475449
27.454653521681404	1.8307254	1.3530431
27.472695969306564	1.8298135	1.352706
27.490739111376627	1.8156997	1.347479
27.508782948419153	1.7864075	1.3365655
27.526827480961902	1.7609433	1.3270054
27.54487270953279	1.779625	1.3340259
27.562918634659898	1.8000036	1.3416421
27.580965256871508	1.7798615	1.3341144
27.599012576696026	1.7463608	1.3214995
27.617060594662068	1.7829456	1.3352699
27.63510931129842	1.8059232	1.3438464
27.65315872713401	1.8072069	1.344324
27.67120884269797	1.8121358	1.3461559
27.68925965851958	1.8205756	1.349287
27.707311175128307	1.8270531	1.3516853
27.725363393053787	1.8605827	1.3640318
27.74341631282583	1.8773067	1.3701484
27.7614699349744	1.897027	1.377326
27.77952426002968	2.0563684	1.4340043
27.797579288521973	2.1432693	1.4639909
27.815635020981784	2.4899476	1.5779568
27.83369145793979	2.5380464	1.5931247
27.85174859992682	2.3733222	1.540559
27.869806447473923	2.214346	1.4880679
27.887865001112267	1.9642378	1.4015127
27.905924261373233	1.8596655	1.3636955
27.92398422878836	1.846273	1.3587762
27.94204490388936	1.8236182	1.350414
27.96010628720813	1.8266221	1.3515259
27.978168379276728	1.786783	1.336706
27.9962311806274	1.8430486	1.3575892
28.014294691792568	1.8466436	1.3589126
28.0323589133048	1.8107371	1.3456364
28.050423845696887	1.7768402	1.3329817
28.068489489501758	1.7895697	1.337748
28.086555845252523	1.7988734	1.3412209
28.104622913482487	1.8111974	1.3458073
28.122690694725115	1.8504096	1.3602977
28.14075918951405	1.8570821	1.362748
28.15882839838312	1.8659526	1.3659987
28.176898321866304	1.8905026	1.3749555
28.1949689604978	1.8751036	1.3693442
28.213040314811945	1.8905464	1.3749714
28.23111238534327	1.9180579	1.3849397
28.249185172626493	1.9322618	1.3900582
28.267258677196473	1.8758476	1.3696158
28.285332899588294	1.8702533	1.3675721
28.303407840337172	1.885929	1.3732913
28.321483499978545	1.9375616	1.3919632
28.33955987904799	1.9389313	1.3924551
28.357636978081285	1.9840484	1.4085625
28.37571479761439	1.9388827	1.3924377
28.393793338183425	1.9181117	1.3849591
28.41187260032469	1.9260699	1.3878292
28.429952584574686	1.9646933	1.4016752
28.448033291470065	2.0028803	1.4152316
28.46611472154769	2.0271735	1.4237884
28.484196875344566	2.0450425	1.4300498
28.502279753397914	1.9988221	1.413797
28.52036335624511	1.9601196	1.4000428
28.538447684423716	1.9521478	1.3971928
28.556532738471482	1.9629314	1.4010465
28.574618518926325	2.0085096	1.4172189
28.59270502632635	2.0180945	1.4205966
28.61079226120985	2.0104866	1.4179163
28.628880224115274	1.9650775	1.4018122
28.646968915581287	1.9720522	1.4042977
28.66505833614671	1.9987267	1.4137633
28.68314848635055	2.0113065	1.4182054
28.701239366732004	2.0242815	1.4227725
28.71933097783044	2.0695627	1.4385974
28.737423320185403	2.0945907	1.44727
28.75551639433665	2.0762863	1.4409324
28.773610200824074	2.1106775	1.4528171
28.791704740187793	2.1472635	1.4653544
28.80980001296809	2.1280944	1.458799
28.827896019705413	2.1479888	1.4656018
28.845992760940433	2.1481452	1.4656552
28.86409023721397	2.1433992	1.4640353
28.88218844906704	2.2063632	1.4853832
28.900287397040845	2.2421808	1.4973913
28.918387081676755	2.272455	1.5074664
28.936487503516343	2.3146262	1.5213896
28.954588663101365	2.3064451	1.5186985
28.97269056097374	2.2933896	1.5143942
28.990793197675597	2.2998838	1.5165368
29.00889657374923	2.360917	1.5365276
29.027000689737125	2.3318393	1.5270361
29.04510554618196	2.3314521	1.5269094
29.06321114362659	2.3301353	1.526478
29.08131748261405	2.363789	1.5374619
29.099424563687567	2.395813	1.5478414
29.11753238739057	2.3666346	1.5383871
29.13564095426663	2.4212272	1.5560293
29.15375026485954	2.498071	1.5805287
29.171860319713275	2.5728571	1.6040128
29.18997111937199	2.630987	1.6220317
29.20808266438002	2.7837648	1.6684618
29.226194955281898	2.8489351	1.6878788
29.244307992622335	2.8344114	1.683571
29.26242177694624	2.8364067	1.6841635
29.2805363087987	2.840805	1.6854688
29.29865158872498	2.9036605	1.7040131
29.316767617270557	2.958444	1.7200128
29.334884394981064	3.0149043	1.7363479
29.353001922402367	3.0534203	1.7474039
29.37112020008047	3.1170175	1.7655077
29.389239228561596	3.1620495	1.7782153
29.407359008392152	3.3231406	1.8229483
29.42547954011872	3.6623845	1.9137357
29.44360082428809	4.32625	2.079964
29.46172286144722	5.318096	2.3061
29.479845652143283	6.8873243	2.6243713
29.497969196923606	9.051079	3.008501
29.516093496335728	11.748429	3.4275982
29.5342185509274	14.59166	3.8199031
29.55234436124651	16.967743	4.119192
29.570470927841175	18.44914	4.295246
29.588598251259686	18.207144	4.266983
29.60672633205055	16.839832	4.1036363
29.624855170762405	14.74422	3.8398204
29.642984767944146	11.892488	3.4485486
29.66111512414481	8.957171	2.9928534
29.67924623991366	6.6205993	2.5730524
29.697378115800138	5.053991	2.2481084
29.71551075235387	4.158813	2.039317
29.733644150124675	3.7934172	1.9476697
29.751778309662576	3.5537071	1.8851279
29.769913231517766	3.3587272	1.8326831
29.78804891624066	3.3089359	1.819048
29.806185364381818	3.3050973	1.8179927
29.82432257649206	3.3727236	1.8364977
29.842460553122333	3.3895783	1.8410808
29.86059929482382	3.3353925	1.8263057
29.878738802147872	3.245574	1.8015476
29.896879075646048	3.1502423	1.7748922
29.915020115870114	3.159709	1.777557
29.933161923371976	3.2573252	1.8048061
29.951304498703777	3.2600846	1.8055705
29.969447842417857	3.214766	1.7929769
29.987591955066733	3.1606913	1.7778333
30.005736837203123	3.1499252	1.7748029
30.023882489379943	3.1844742	1.7845095
30.04202891215028	3.1725748	1.7811723
30.060176106067455	3.1098843	1.7634864
30.078324071684946	3.0671957	1.7513411
30.09647280955646	3.0530372	1.7472942
30.114622320235863	3.0949197	1.7592384
30.132772604277257	3.0783052	1.7545099
30.1509236622349	3.0453174	1.7450838
30.16907549466328	3.0639145	1.7504041
30.18722810211705	3.0267963	1.7397691
30.205381485151097	2.9950042	1.730608
30.22353564432045	3.003145	1.7329584
30.241690580180403	3.0549088	1.7478297
30.25984629328638	3.071198	1.7524834
30.278002784194037	3.1310642	1.7694813
30.296160053459246	3.1360474	1.7708888
30.314318101638033	3.0517168	1.7469164
30.332476929286646	2.9250996	1.7102922
30.35063653696153	2.9222944	1.709472
30.368796925219307	2.831765	1.6827849
30.386958094616844	2.8330197	1.6831577
30.40512004571115	2.8472958	1.6873932
30.423282779059463	2.876443	1.696008
30.441446295219233	2.9030213	1.7038255
30.459610594748067	2.9343247	1.7129871
30.47777567820382	2.8470383	1.6873169
30.495941546144504	2.7861984	1.6691909
30.51410819912835	2.7915332	1.6707882
30.532275637713795	2.767789	1.6636673
30.55044386245946	2.770736	1.6645528
30.56861287392416	2.8161607	1.6781421
30.586782672666956	2.8339515	1.6834345
30.604953259247047	2.848932	1.687878
30.623124634223885	2.8189962	1.6789867
30.641296798157075	2.7809203	1.6676091
30.659469751606462	2.7684839	1.6638762
30.677643495132074	2.793452	1.6713623
30.695818029294152	2.7305927	1.6524506
30.713993354653116	2.6941726	1.6413935
30.73216947176962	2.7232091	1.6502149
30.75034638120448	2.680675	1.6372768
30.768524083518756	2.687016	1.639212
30.786702579273673	2.7226439	1.6500436
30.80488186903069	2.7897043	1.6702408
30.82306195335144	2.9339178	1.7128683
30.841242832797782	3.1080813	1.7629751
30.85942450793176	3.380832	1.8387039
30.877606979315637	3.710951	1.9263829
30.895790247511883	4.074244	2.0184758
30.913974313083134	4.5443554	2.1317494
30.932159176592283	4.8718786	2.2072332
30.95034483860237	4.905109	2.2147481
30.968531299676698	4.7142005	2.171221
30.98671856037873	4.4106054	2.1001441
31.00490662127215	4.0557747	2.0138955
31.023095482920848	3.6125138	1.9006613
31.04128514588892	3.1132936	1.7644528
31.059475610740662	2.7594883	1.6611707
31.07766687804056	2.5995648	1.6123166
31.09585894835335	2.5069087	1.583322
31.11405182224393	2.4854667	1.5765363
31.132245500277417	2.4370058	1.5610912
31.15043998301914	2.4284885	1.5583608
31.168635271034628	2.4395974	1.561921
31.18683136488964	2.4497437	1.5651658
31.20502826515008	2.4680622	1.5710068
31.223225972382135	2.4474266	1.5644253
31.241424487152155	2.4516804	1.5657843
31.259623810026692	2.4403079	1.5621485
31.27782394157253	2.397774	1.5484747
31.296024882356644	2.3799658	1.5427138
31.314226632946237	2.4073265	1.5515561
31.332429193908684	2.4047594	1.5507287
31.350632565811598	2.4445739	1.5635133
31.368836749222787	2.5085785	1.5838493
31.387041744710295	2.5339491	1.5918382
31.40524755284232	2.5589333	1.5996666
31.423454174187317	2.6464944	1.626805
31.441661609313922	2.5697746	1.6030517
31.459869858791002	2.5125456	1.5851011
31.478078923187628	2.4356372	1.5606529
31.496288803073064	2.368042	1.5388443
31.514499499016807	2.3513758	1.5334196
31.532711011588546	2.3611324	1.5365976
31.550923341358178	2.3164332	1.5219833
31.56913648889584	2.300154	1.5166259
31.587350454771844	2.2924154	1.5140724
31.605565239556732	2.2474651	1.4991548
31.62378084382127	2.190913	1.4801732
31.641997268136382	2.2228713	1.4909297
31.660214513073274	2.331216	1.5268321
31.67843257920331	2.3222792	1.5239027
31.6966514670981	2.3255053	1.5249608
31.71487117732944	2.3336313	1.5276227
31.733091710469346	2.279552	1.5098186
31.751313067090052	2.1748426	1.4747348
31.769535247764008	2.1876433	1.4790684
31.787758253063878	2.2273738	1.4924389
31.805982083562526	2.246995	1.498998
31.824206739833024	2.2479775	1.4993256
31.84243222244869	2.3393123	1.529481
31.860658531983013	2.3339562	1.5277292
31.878885669009737	2.271538	1.5071622
31.897113634102784	2.237033	1.4956714
31.91534242783632	2.2347033	1.4948924
31.933572050784694	2.218289	1.4893922
31.951802503522508	2.1895142	1.4797007
31.970033786624548	2.149384	1.4660778
31.988265900665834	2.1931849	1.4809406
32.006498846221575	2.2566092	1.5022014
32.02473262386724	2.2381437	1.4960427
32.04296723417845	2.1833522	1.477617
32.0612026777311	2.204755	1.4848418
32.07943895510129	2.2199416	1.4899468
32.097676066865304	2.1922584	1.4806277
32.115914013599685	2.1354806	1.4613284
32.13415279588115	2.126432	1.4582291
32.152392414286666	2.158639	1.4692308
32.1706328693934	2.1986837	1.482796
32.18887416177875	2.2233603	1.4910936
32.20711629202032	2.1817265	1.4770669
32.225359260695924	2.1750414	1.4748021
32.243603068383614	2.1619043	1.4703416
32.26184771566166	2.0819635	1.4429011
32.28009320310852	2.0442624	1.429777
32.2983395313029	2.0188692	1.4208691
32.31658670082372	2.0819476	1.4428955
32.33483471225012	2.1177511	1.4552495
32.35308356616143	2.1637747	1.4709774
32.371333263137245	2.1278152	1.4587033
32.38958380375734	2.1239429	1.4573753
32.407835188601744	2.0905428	1.445871
32.42608741825067	2.108258	1.4519842
32.444340493284585	2.061814	1.4359019
32.46259441428416	2.0788403	1.4418184
32.48084918183028	2.1185355	1.455519
32.49910479650405	2.0959802	1.4477501
32.51736125888683	2.026489	1.423548
32.53561856956014	2.021063	1.421641
32.5538767291058	2.0084608	1.4172018
32.572135738105764	2.05117	1.4321907
32.59039559714228	2.1270785	1.4584507
32.608656306797776	2.131237	1.4598757
32.62691786765491	2.1132033	1.4536861
32.645180280296586	2.0175884	1.4204184
32.663443545305896	1.9212686	1.3860984
32.68170766326619	1.8864567	1.3734834
32.69997263476099	1.8877827	1.3739661
32.7182384603741	1.9438678	1.3942266
32.7365051406895	1.9329069	1.3902903
32.75477267629144	1.9449334	1.3946087
32.77304106776434	1.9445301	1.3944641
32.79131031569289	1.920838	1.385943
32.809580420661966	1.8440348	1.3579525
32.827851383256714	1.8664336	1.3661748
32.84612320406245	1.936558	1.3916026
32.86439588366476	1.9933414	1.4118575
32.88266942264945	1.9537419	1.3977631
32.9009438216025	1.9156256	1.3840612
32.9192190811102	1.9115896	1.3826025
32.937495201758985	1.9697948	1.4034938
32.95577218413556	2.0509963	1.43213
32.974050028826866	2.0826492	1.4431387
32.992328736420035	2.0813777	1.4426981
33.010608307502444	2.0939462	1.4470475
33.02888874266169	2.0299122	1.4247499
33.047170042485604	1.982609	1.4080515
33.06545220756225	1.9630492	1.4010886
33.083735238479896	2.003507	1.4154528
33.10201913582707	1.9860641	1.4092779
33.12030390019248	1.9489372	1.3960434
33.138589532165135	1.9359415	1.3913811
33.15687603233419	1.9992374	1.4139439
33.17516340128909	1.9589947	1.3996409
33.19345163961947	1.9732349	1.4047188
33.211740747915215	2.052843	1.4327747
33.23003072676643	2.0439966	1.429684
33.248321576763466	2.038599	1.4277952
33.266613298496885	1.9757549	1.4056154
33.28490589255747	1.9474548	1.3955123
33.30319935953626	1.9537617	1.3977703
33.32149370002451	1.9838772	1.4085017
33.339788914613706	1.9112873	1.3824931
33.358085003895575	1.8697658	1.3673937
33.376381968462034	1.7869941	1.336785
33.39467980890529	1.814534	1.3470464
33.41297852581774	1.8549799	1.3619765
33.43127811979204	1.964577	1.4016336
33.44957859142105	2.0466113	1.4305983
33.467879941297866	2.0289717	1.4244198
33.486182170015844	1.9487625	1.3959808
33.50448527816853	1.9130853	1.3831433
33.522789266349754	1.8950588	1.3766114
33.541094135153514	1.9355326	1.3912342
33.55939988517411	2.0092802	1.4174908
33.57770651700602	1.9359393	1.3913803
33.59601403124398	1.8593837	1.3635921
33.61432242848296	1.8806149	1.3713552
33.632631709318154	1.847168	1.3591056
33.650941874344994	1.783809	1.3355931
33.66925292415916	1.8123722	1.3462437
33.68756485935654	1.8614378	1.3643452
33.70587768053328	1.8320688	1.3535393
33.724191388285746	1.8278896	1.3519946
33.74250598321054	1.9481194	1.3957505
33.760821465904506	1.9942216	1.4121691
33.77913783696474	1.9732205	1.4047136
33.79745509698852	1.8833321	1.3723454
33.815773246573414	1.8671488	1.3664365
33.8340922863172	1.8789464	1.3707466
33.852412216817896	1.8916146	1.3753598
33.87073303867377	1.9888066	1.4102505
33.889054752483304	2.0408602	1.4285867
33.907377358845245	2.0285475	1.4242709
33.92570085835853	2.0632164	1.43639
33.94402525162239	2.009539	1.417582
33.96235053923627	1.8039967	1.3431294
33.980676721799824	1.7827506	1.3351969
33.999003799912984	1.7727528	1.3314476
34.01733177417592	1.8602452	1.363908
34.03566064518901	1.9452417	1.3947192
34.0539904135529	2.0644732	1.4368274
34.07232107986846	2.0155265	1.4196924
34.090652644736785	1.9620739	1.4007405
34.108985108759235	1.9876592	1.4098437
34.12731847253742	2.125282	1.4578347
34.14565273667313	1.9772228	1.4061376
34.16398790176847	1.807752	1.3445266
34.18232396842574	1.7150862	1.309613
34.20066093724749	1.7769427	1.3330202
34.21899880883651	1.854647	1.3618543
34.23733758379583	1.9178659	1.3848703
34.25567726272874	1.9364845	1.3915763
34.27401784623872	1.936163	1.3914608
34.29235933492957	1.9455147	1.3948171
34.31070172940526	2.06429	1.4367638
34.32904503027003	2.1593215	1.469463
34.347389238128386	2.0161612	1.4199159
34.36573435358502	1.850135	1.3601967
34.38408037724492	1.7394054	1.3188652
34.402427309713296	1.745283	1.3210917
34.42077515159559	1.8689557	1.3670976
34.43912390349752	1.9312066	1.3896786
34.45747356602499	1.9534166	1.3976468
34.47582413978423	2.015142	1.419557
34.49417562538163	2.028716	1.42433
34.51252802342388	2.1330304	1.4604897
34.53088133451789	2.0715175	1.4392767
34.54923555927084	1.911265	1.382485
34.567590698290104	1.852687	1.3611344
34.58594675218336	1.8717115	1.368105
34.6043037215585	1.965221	1.4018635
34.62266160702365	2.050681	1.43202
34.641020409187234	2.10286	1.4501241
34.65938012865785	2.077764	1.4414451
34.677740766044394	1.9170145	1.384563
34.69610232195598	1.9758172	1.4056376
34.714464797002016	1.9499265	1.3963977
34.73282819179208	1.9453802	1.3947688
34.751192506936064	1.9623873	1.4008523
34.76955774304408	1.8850808	1.3729825
34.7879239007265	1.9381132	1.3921614
34.80629098059391	2.0423062	1.4290928
34.824658983257194	1.9907632	1.4109441
34.843027909327446	1.9638442	1.4013722
34.86139775941603	2.0383165	1.4276962
34.879768534134534	1.7806869	1.3344238
34.89814023409483	1.7107812	1.3079684
34.91651285990901	1.9493085	1.3961763
34.93488641218944	2.073887	1.4400997
34.95326089154871	2.0839763	1.4435984
34.97163629859967	1.9696372	1.4034376
34.99001263395542	1.8567135	1.3626127
35.00838989822934	1.9668359	1.4024392
35.02676809203499	2.1024556	1.4499847
35.04514721598624	2.0168405	1.420155
35.063527270697215	1.8939049	1.3761922
35.081908256782256	2.109092	1.4522713
35.10029017485597	2.5565796	1.5989307
35.11867302553321	2.5423474	1.5944741
35.137056809429104	2.2702594	1.506738
35.155441527159006	1.9406291	1.3930646
35.173827179338524	2.10607	1.4512305
35.19221376658354	2.160172	1.4697523
35.21060128951017	2.2132022	1.4876835
35.2289897487348	2.1859918	1.47851
35.24737914487405	2.0818768	1.442871
35.26576947854479	2.0800114	1.4422245
35.28416075036418	1.9159105	1.3841642
35.30255296094958	1.9555005	1.3983921
35.32094611091867	2.0522702	1.4325746
35.33934020088932	1.8306814	1.3530267
35.35773523147969	1.7032298	1.3050785
35.3761312033082	2.2493136	1.4997712
35.394528116993506	2.2669368	1.505635
35.41292597315452	1.9535769	1.3977041
35.431324772410434	2.0863385	1.4444163
35.449724515380666	2.1019838	1.449822
35.46812520268491	2.0748293	1.4404268
35.486526834943106	2.4856453	1.5765929
35.504929412775454	2.5636556	1.6011419
35.52333293680242	2.0584118	1.4347166
35.54173740764471	1.8376318	1.3555928
35.560142825923286	1.9223218	1.3864782
35.5785491922594	2.0800405	1.4422345
35.59695650727454	2.0165608	1.4200566
35.61536477159042	1.962437	1.4008701
