0.008763373481513119	0.051685803	0.22734512
0.026290120649546365	0.35608906	0.59673196
0.043816868432600686	0.24372914	0.49368933
0.06134361724069026	0.23952724	0.4894152
0.07887036748382949	0.12412014	0.35230687
0.0963971195720331	0.14464925	0.38032782
0.11392387391531617	0.15147741	0.389201
0.1314506309236943	0.12762116	0.35724103
0.1489773910071836	0.111968406	0.3346168
0.16650415457580078	0.15168045	0.38946176
0.18403092203956356	0.22155468	0.47069594
0.20155769380849	0.17496979	0.4182939
0.2190844702925996	0.12342062	0.3513127
0.2366112519019124	0.14689557	0.38326958
0.2541380390464497	0.15415984	0.39263195
0.27166483213623416	0.15145564	0.38917303
0.28919163158128947	0.101050206	0.31788394
0.3067184377916406	0.11476048	0.33876318
0.324245251177314	0.098951474	0.31456554
0.34177207214833777	0.10598656	0.32555577
0.3592989011147415	0.10250395	0.3201624
0.37682573848655654	0.10701414	0.32713017
0.39435258467381573	0.085901044	0.2930888
0.41187944008655414	0.0865432	0.29418227
0.42940630513480854	0.14537598	0.38128203
0.446933180228618	0.187491	0.43300232
0.4644600657780234	0.23063372	0.48024338
0.48198696219306775	0.19171865	0.43785688
0.49951386988379676	0.15814239	0.3976712
0.5170407892602581	0.12556061	0.35434532
0.5345677207325025	0.11744274	0.3426992
0.5520946647105822	0.12010295	0.34655872
0.5696216216045534	0.1160417	0.34064895
0.5871485918244737	0.12301048	0.3507285
0.6046755757804043	0.10100543	0.31781352
0.6222025738824094	0.09890131	0.3144858
0.6397295865405557	0.10540767	0.3246655
0.6572566141649129	0.102503814	0.32016218
0.6747836571655547	0.12502635	0.35359064
0.6923107159525568	0.17637525	0.41997054
0.7098377909359992	0.22224158	0.47142506
0.7273648825259653	0.21221869	0.460672
0.7448919911325411	0.17270716	0.4155805
0.762419117165817	0.1651397	0.40637386
0.7799462610358868	0.17582868	0.4193193
0.7974734231528482	0.21236272	0.4608283
0.8150006039268024	0.2224522	0.47164837
0.8325278037678551	0.211395	0.45977712
0.8500550230861152	0.19405398	0.44051558
0.8675822622916969	0.17027824	0.41264784
0.8851095217947171	0.20623833	0.4541347
0.9026368020052984	0.26720074	0.5169146
0.9201641033335665	0.2700777	0.51969004
0.9376914261896523	0.2640974	0.5139041
0.9552187709836915	0.19436786	0.4408717
0.9727461381258234	0.18172258	0.42628932
0.990273528026193	0.2052933	0.45309302
1.0078009410949496	0.23818046	0.48803735
1.0253283777422473	0.23792887	0.48777953
1.0428558383782454	0.30608293	0.55324763
1.0603833234131086	0.32805106	0.5727574
1.0779108332570058	0.3609494	0.6007906
1.0954383683201119	0.30906326	0.5559346
1.112965929012607	0.33947086	0.5826413
1.1304935157446763	0.44015333	0.6634405
1.1480211289265108	0.46538934	0.68219453
1.1655487689683062	1.1623749	1.0781349
1.1830764362802655	1.4337759	1.1974038
1.200604131272596	1.9178917	1.3848797
1.2181318543555117	2.3399599	1.5296928
1.235659605939232	2.3663087	1.5382811
1.253187386433982	3.9240873	1.9809309
1.270715196249994	6.299184	2.5098176
1.2882430357975057	11.836294	3.4403915
1.3057709054867608	16.693548	4.085774
1.3232988057280106	22.755987	4.7703238
1.3408267369315112	27.69265	5.2623806
1.358354699507526	30.959	5.564081
1.3758826938663256	34.464706	5.870665
1.3934107204181858	36.063988	6.00533
1.410938779573391	36.720108	6.059712
1.4284668717422309	37.523388	6.1256337
1.4459949973350033	37.497017	6.123481
1.4635231567620117	37.83166	6.150745
1.4810513504335687	37.280323	6.1057615
1.4985795787599925	36.59414	6.049309
1.5161078421516088	35.947765	5.9956455
1.5336361410187505	35.112698	5.9255967
1.5511644757717598	35.059746	5.921127
1.5686928468209842	35.87995	5.9899874
1.58622125457678	36.303707	6.0252557
1.6037496994495108	37.338795	6.110548
1.621278181849548	37.45526	6.1200705
1.6388067021872719	38.477486	6.2030225
1.6563352608730693	37.670708	6.1376467
1.673863858317336	36.298584	6.024831
1.6913924949304753	35.4576	5.9546285
1.7089211711228998	34.43678	5.8682857
1.7264498873050296	33.55762	5.792894
1.7439786438872935	32.481667	5.699269
1.7615074412801288	31.533115	5.6154356
1.779036279893981	31.228113	5.588212
1.796565160139305	30.652525	5.5364723
1.814094082426564	30.241104	5.4991913
1.8316230471662298	29.579994	5.4387493
1.849152054768784	28.389065	5.328139
1.8666811056447168	27.674053	5.2606134
1.8842102002045273	26.447668	5.1427298
1.901739338858724	26.016432	5.1006308
1.9192685220178245	25.527428	5.0524673
1.9367977500923557	24.991076	4.9991074
1.9543270234928547	24.589357	4.9587655
1.971856342629867	24.033953	4.9024434
1.9893857079139496	23.481462	4.8457675
2.006915119755667	23.131372	4.8095083
2.0244445785655945	22.253086	4.7173176
2.0419740847543175	22.17266	4.7087855
2.0595036387324317	21.599396	4.647515
2.0770332409105414	21.132856	4.5970488
2.094562891699263	20.806982	4.561467
2.1120925915092217	20.15624	4.48957
2.129622340751053	20.037333	4.476308
2.1471521398354043	188.1762	13.717732
2.1646819891729323	444.63986	21.086485
2.182211889174303	440.75125	20.994076
2.1997418402501974	453.05618	21.285116
2.2172718428113023	432.9033	20.806328
2.234801897268317	320.67935	17.907522
2.2523320040319548	17.186632	4.145676
2.269862163512935	16.989182	4.1217933
2.287392376121992	16.83724	4.1033206
2.304922642269869	16.54903	4.06805
2.322452962367322	16.045822	4.0057235
2.3399833368251164	15.746967	3.9682448
2.357513766054032	15.337455	3.9163063
2.3750442504648586	15.147162	3.8919356
2.3925747904683963	15.066764	3.881593
2.410105386475459	14.820454	3.8497343
2.4276360388968707	14.367305	3.7904227
2.445166748143469	13.840174	3.7202384
2.4626975146261025	13.570256	3.6837828
2.4802283387556323	13.653659	3.6950858
2.4977592209429305	13.573348	3.6842024
2.5152901615988825	13.254451	3.6406662
2.5328211611343865	12.840599	3.583378
2.5503522199603523	12.649634	3.5566325
2.5678833384877024	12.473285	3.5317538
2.5854145171273712	12.3358345	3.5122406
2.6029457562903064	12.102587	3.4788773
2.620477056387469	11.875732	3.4461184
2.6380084178298326	11.70305	3.420972
2.655539841028383	11.457097	3.3848333
2.673071326394119	11.381408	3.373634
2.6906028743380523	11.206271	3.3475769
2.708134485271211	11.039469	3.3225696
2.7256661596046325	10.933039	3.3065145
2.743197897749369	10.670527	3.2665772
2.760729700116486	10.559585	3.2495515
2.778261567117063	10.366085	3.2196405
2.795793499162193	10.311347	3.2111287
2.8133254966629817	10.144509	3.1850445
2.830857560030551	9.997617	3.1619008
2.8483896896760337	9.935475	3.1520588
2.865921886010578	9.633553	3.1037965
2.883454149445347	9.529101	3.0869243
2.9009864803915177	9.253143	3.041898
2.91851887926028	9.172128	3.028552
2.9360513464628384	9.159549	3.0264747
2.953583882410413	9.115605	3.019206
2.9711164875142373	9.041598	3.006925
2.9886491621855606	8.942171	2.9903464
3.0061819068356455	8.62467	2.9367788
3.023714721875769	8.451877	2.907211
3.041247607717225	8.359052	2.8912024
3.0587805647713213	8.349896	2.8896186
3.0763135934493806	8.283649	2.878133
3.0938466941627407	8.147729	2.8544228
3.1113798673227544	8.05667	2.8384273
3.1289131133407904	8.037314	2.8350158
3.1464464326282315	7.9347277	2.816865
3.1639798255964786	7.874345	2.8061264
3.1815132926569443	7.685212	2.7722216
3.1990468342210603	7.6082563	2.7583067
3.216580450700272	7.5419436	2.74626
3.2341141425060416	7.5910044	2.7551777
3.251647910049847	7.480456	2.735042
3.2691817537431813	7.221008	2.6871934
3.286715673997555	6.995203	2.6448445
3.3042496712244938	6.9293027	2.632357
3.32178374583554	6.967436	2.63959
3.339317898242251	7.1036124	2.6652603
3.3568521288562034	7.1211877	2.6685553
3.3743864380889876	6.962244	2.6386065
3.3919208263522127	6.8379087	2.6149395
3.4094552940575023	6.7340455	2.5950038
3.4269898416164972	6.710387	2.5904415
3.444524469440858	6.6871095	2.5859447
3.4620591779422587	6.5758533	2.5643427
3.479593967532391	6.5213695	2.553697
3.4971288386229658	6.419665	2.5337057
3.5146637916257086	6.3599925	2.5219026
3.5321988269523628	6.450072	2.539699
3.5497339450146903	6.356285	2.5211675
3.5672691462244708	6.3209114	2.5141423
3.5848044309934988	6.2726536	2.5045266
3.60233979973359	6.235118	2.497022
3.619875252856575	6.2563596	2.5012715
3.6374107907743034	6.2572803	2.5014555
3.6549464138986427	6.2154446	2.4930794
3.6724821226414788	6.2488356	2.499767
3.690017917414714	6.335109	2.5169642
3.7075537986302702	6.4788227	2.5453532
3.7250897667000857	6.5676165	2.562736
3.7426258220361235	6.7343416	2.595061
3.7601619650503553	6.936844	2.6337888
3.777698196154779	7.484544	2.7357895
3.7952345157614067	8.341147	2.8881044
3.8127709242822716	9.024507	3.0040817
3.830307422129425	10.9596	3.3105288
3.847844009714936	12.409686	3.5227385
3.8653806874508954	15.941693	3.992705
3.882917455749409	15.725778	3.965574
3.900454315022606	16.00884	4.001105
3.917991265682631	12.942599	3.5975823
3.9355283081416506	11.033881	3.3217287
3.9530654428118495	8.828976	2.9713593
3.970602670105433	7.633579	2.7628932
3.9881399904346244	6.813519	2.610272
4.005677404211669	6.685409	2.5856159
4.023214911848827	6.5536137	2.5600026
4.0407525137583855	6.4319572	2.5361304
4.058290210352644	6.411187	2.5320323
4.075828002043927	6.3330283	2.5165508
4.0933658892445814	6.217925	2.4935768
4.110903872366966	6.201183	2.4902174
4.128441951823468	6.2463026	2.4992604
4.145980128026488	6.313875	2.5127425
4.163518401388452	6.306098	2.5111945
4.181056772321807	6.1920567	2.4883842
4.1985952412390155	6.1100326	2.471848
4.216133808552567	6.119358	2.4737337
4.233672474674966	6.197475	2.4894729
4.251211240018741	6.4672017	2.5430694
4.268750104996445	6.749243	2.5979304
4.286289070020643	7.672053	2.7698472
4.303828135503928	9.298813	3.0493956
4.3213673018589125	29.598776	5.4404755
4.3389065694982305	90.84785	9.531414
4.356445938834537	166.09084	12.887624
4.3739854102805085	171.86871	13.109871
4.391524984248844	172.67276	13.140501
4.409064661152262	136.67047	11.690615
4.426604441403504	96.8728	9.842399
4.444144325415337	75.73385	8.702519
4.461684313600543	21.740442	4.662665
4.47922440637193	22.045187	4.69523
4.496764604142329	20.179056	4.4921103
4.5143049073245916	18.410675	4.2907662
4.531845316331589	16.322563	4.040119
4.5493858315762195	13.552738	3.6814044
4.566926453471405	11.257789	3.3552628
4.584467182430081	9.35502	3.0585976
4.602008018865218	8.29353	2.879849
4.619548963189798	7.5692945	2.751235
4.637090015816834	7.0099525	2.6476314
4.654631177159353	6.696985	2.5878534
4.672172447630417	6.451574	2.539995
4.689713827643102	6.289325	2.5078528
4.7072553176105085	5.981746	2.445761
4.724796917945764	5.8758626	2.424018
4.742338629062015	5.737392	2.3952854
4.759880451372434	5.726942	2.3931031
4.777422385290215	5.774247	2.4029663
4.794964431228581	5.7332363	2.3944178
4.812506589600768	5.714257	2.3904512
4.830048860820047	5.749342	2.3977785
4.847591245299709	5.733012	2.394371
4.8651337434530655	5.643464	2.3755977
4.882676355693457	5.5067925	2.3466556
4.900219082434242	5.3956594	2.322856
4.917761924088813	5.454014	2.335383
4.935304881070575	5.553724	2.356634
4.952847953792969	5.591656	2.3646684
4.970391142669449	5.5741696	2.3609679
4.9879344481135055	5.5752044	2.361187
5.005477870538642	5.4808764	2.3411272
5.023021410358394	5.395239	2.3227654
5.040565067986324	5.3249497	2.3075852
5.05810884383601	5.345615	2.3120587
5.075652738321066	5.4238896	2.3289247
5.09319675185512	5.423683	2.3288803
5.110740884851836	5.3233438	2.3072371
5.128285137724894	5.3032093	2.3028698
5.145829510888007	5.2750554	2.2967489
5.163374004754908	5.2836127	2.298611
5.1809186197393595	5.3436055	2.311624
5.198463356255145	5.350815	2.3131828
5.216008214716077	5.3964567	2.3230274
5.233553195535998	5.335351	2.3098378
5.251098299128764	5.2355866	2.2881405
5.268643525908272	5.2008233	2.2805314
5.286188876288432	5.2171755	2.2841136
5.3037343506831895	5.2862563	2.299186
5.32127994950651	5.321468	2.3068306
5.3388256731723915	5.3056273	2.3033948
5.356371522094851	5.27988	2.2977989
5.373917496687938	5.265226	2.294608
5.391463597365729	5.2565074	2.2927074
5.40900982454232	5.2940655	2.3008835
5.426556178631843	5.3337636	2.3094943
5.444102660048449	5.311158	2.304595
5.4616492692063225	5.205147	2.2814791
5.479196006519669	5.1843133	2.2769086
5.496742872402727	5.1734676	2.274526
5.514289867269756	5.2447104	2.2901332
5.531836991535049	5.205185	2.2814875
5.549384245612924	5.1693234	2.2736146
5.566931629917724	5.1572957	2.270968
5.584479144863822	5.1460257	2.2684853
5.6020267908656205	5.216616	2.2839913
5.619574568337545	5.1807833	2.2761333
5.637122477694054	5.195625	2.2793913
5.654670519349629	5.1589494	2.271332
5.672218693718784	5.1566205	2.2708194
5.689767001216059	5.1409626	2.267369
5.707315442256021	5.154947	2.2704508
5.724864017253266	5.1229997	2.2634044
5.7424127266224225	5.079626	2.2538025
5.75996157077814	5.0323725	2.243295
5.777510550135105	5.1034184	2.2590747
5.795059665108022	5.207264	2.281943
5.812608916111639	5.273112	2.2963257
5.830158303560715	5.3630104	2.3158174
5.847707827870055	5.3558106	2.3142624
5.86525748945448	5.4107804	2.3261085
5.8828072887288485	5.5173492	2.348904
5.900357226108044	5.5491595	2.3556654
5.917907302006979	5.588157	2.3639283
5.9354575168406	6.1685796	2.4836626
5.9530078710238765	6.793287	2.6063933
5.970558364971812	7.2862234	2.6993005
5.988108999099438	7.551581	2.748014
6.005659773821818	8.044875	2.836349
6.023210689554039	7.8225174	2.7968764
6.040761746711227	8.18057	2.8601694
6.058312945708531	7.6464043	2.7652133
6.075864286961132	7.262652	2.6949308
6.093415770884244	6.690745	2.5866475
6.1109673978931065	6.127167	2.4753115
6.128519168402993	5.5196476	2.3493931
6.146071082829204	5.3368554	2.3101635
6.163623141587075	5.2184567	2.2843943
6.181175345091969	5.194016	2.2790384
6.198727693759281	5.141592	2.2675078
6.216280188004435	5.173279	2.2744844
6.233832828242885	5.1406474	2.2672997
6.251385614890126	5.1319885	2.2653892
6.268938548361669	5.0842347	2.2548249
6.286491629073067	5.101631	2.2586792
6.304044857439898	5.1085734	2.2602153
6.321598233877777	5.088199	2.2557037
6.339151758802344	5.0963397	2.2575073
6.356705432629277	5.1019144	2.2587419
6.37425925577428	5.09629	2.2574964
6.391813228653095	5.074264	2.2526128
6.409367351681486	5.058265	2.2490587
6.426921625275259	4.9992514	2.2359006
6.44447604985025	4.9836173	2.2324016
6.46203062582232	4.9769053	2.230898
6.47958535360737	5.0105896	2.2384346
6.497140233621328	4.989286	2.233671
6.514695266280161	4.9636064	2.2279153
6.532250451999859	4.9226074	2.218695
6.549805791196454	4.9295297	2.2202544
6.567361284286002	4.926588	2.2195919
6.584916931684597	4.9513946	2.225173
6.602472733808367	4.966209	2.2284992
6.6200286910734665	4.9434557	2.2233884
6.637584803896092	4.9230833	2.2188022
6.655141072692462	4.9906178	2.233969
6.672697497878842	4.973205	2.2300684
6.690254079871514	4.939424	2.2224815
6.707810819086808	4.9532614	2.2255924
6.725367715941078	4.9604735	2.227212
6.742924770850719	5.01805	2.2401004
6.760481984232151	5.0359497	2.2440922
6.778039356501836	5.023032	2.2412121
6.795596888076266	5.017625	2.2400055
6.813154579371963	5.0258274	2.2418358
6.830712430805492	5.0043435	2.237039
6.84827044279344	5.0281734	2.242359
6.865828615752445	5.0367923	2.2442799
6.883386950099159	5.0733757	2.2524154
6.900945446250287	5.051491	2.2475522
6.918504104622553	5.0735188	2.2524474
6.936062925632727	5.0618696	2.2498598
6.953621909697607	5.0279794	2.2423155
6.971181057234028	5.066359	2.2508574
6.988740368658859	5.157078	2.27092
7.006299844389007	5.1956134	2.279389
7.023859484841407	5.246188	2.2904558
7.041419290433036	5.302331	2.302679
7.058979261580902	5.3871627	2.3210263
7.0765393987020495	5.645115	2.375945
7.094099702213559	5.995854	2.4486432
7.111660172532549	6.440283	2.5377712
7.129220810076164	6.9011416	2.6270025
7.146781615261595	7.555198	2.748672
7.16434258850606	7.743515	2.7827172
7.181903730226821	8.163322	2.857153
7.1994650408411704	8.117553	2.8491318
7.217026520766437	8.308215	2.8823974
7.234588170419983	8.591492	2.9311247
7.252149990219215	8.55932	2.9256315
7.269711980581568	8.456885	2.9080725
7.2872741419245175	8.28409	2.8782096
7.304836474665574	7.858179	2.8032444
7.322398979222286	7.541568	2.7461915
7.339961656012233	7.221327	2.6872528
7.357524505453039	6.858884	2.618947
7.375087527962357	6.573064	2.5637987
7.392650723957886	6.240361	2.4980714
7.410214093857353	5.903495	2.4297109
7.427777638078528	5.809293	2.4102476
7.445341357039213	5.635029	2.3738215
7.4629052511572525	5.474888	2.3398478
7.480469320850524	5.334721	2.3097014
7.498033566536948	5.291934	2.3004203
7.5155979886344735	5.2819943	2.298259
7.5331625875610975	5.229278	2.2867615
7.550727363734844	5.1702046	2.2738085
7.568292317573788	5.0923705	2.256628
7.585857449496025	5.084107	2.2547965
7.603422759919705	5.1337647	2.2657812
7.620988249263007	5.1443853	2.2681239
7.638553917944147	5.239548	2.289006
7.656119766381391	5.283468	2.2985795
7.673685794993023	5.304527	2.303156
7.691252004197388	5.2043805	2.281311
7.70881839441285	5.1356006	2.2661862
7.726384966057826	5.18827	2.2777774
7.743951719550762	5.163916	2.2724252
7.761518655310149	5.2262344	2.2860959
7.779085773754511	5.2629457	2.294111
7.796653075302419	5.295867	2.301275
7.814220560372475	5.3330703	2.309344
7.831788229383323	5.3694277	2.3172026
7.8493560827536495	5.3511415	2.3132534
7.866924120902174	5.332288	2.3091748
7.884492344247663	5.2768936	2.297149
7.9020607532089135	5.3197308	2.3064542
7.919629348204771	5.3542223	2.3139193
7.937198129654115	5.3519382	2.3134255
7.954767097975865	5.315933	2.3056307
7.972336253588986	5.2988944	2.3019328
7.989905596912472	5.3062944	2.3035395
8.007475128365371	5.395497	2.322821
8.025044848366756	5.5033946	2.3459315
8.042614757335754	5.657082	2.378462
8.060184855691523	5.6927505	2.3859487
8.07775514385327	5.790491	2.406344
8.095325622240228	5.843374	2.4173071
8.112896291271687	5.9213614	2.4333847
8.130467151366968	6.011681	2.451873
8.148038202945436	5.993319	2.4481256
8.165609446426497	5.941954	2.4376123
8.183180882229594	5.9476805	2.4387867
8.200752510774217	5.9923096	2.4479194
8.218324332479893	6.0720873	2.4641607
8.235896347766193	6.044291	2.458514
8.253468557052724	5.9831223	2.4460423
8.27104096075914	5.9687624	2.443105
8.288613559305137	6.045562	2.4587724
8.306186353110448	6.1009436	2.4700089
8.32375934259485	6.216405	2.4932718
8.341332528178162	6.214664	2.4929228
8.358905910280246	6.2916245	2.508311
8.376479489321003	6.238026	2.4976041
8.394053265720377	6.264875	2.5029733
8.411627239898356	6.329066	2.5157635
8.42920141227497	6.370457	2.5239766
8.44677578327029	6.4418283	2.5380757
8.464350353304427	6.3547964	2.520872
8.48192512279754	6.3541427	2.5207424
8.499500092169827	6.2346816	2.4969344
8.51707526184153	6.2241864	2.494832
8.534650632232934	6.2367473	2.497348
8.552226203764365	6.2449803	2.4989958
8.569801976856192	6.266815	2.5033607
8.587377951928834	6.244654	2.4989307
8.60495412940274	6.287326	2.5074542
8.622530509698416	6.3365574	2.517252
8.6401070932364	6.4887443	2.5473013
8.657683880437283	6.591704	2.5674314
8.675260871721695	6.728882	2.594009
8.692838067510303	6.866789	2.6204557
8.710415468223834	7.0661225	2.658218
8.727993074283043	7.1702795	2.6777377
8.745570886108737	7.213117	2.6857247
8.763148904121765	7.261775	2.6947682
8.78072712874302	7.2701063	2.6963134
8.798305560393441	7.535819	2.7451446
8.815884199494006	7.7037106	2.7755558
8.833463046465745	7.9089537	2.8122861
8.851042101729728	7.990197	2.8266938
8.86862136570707	8.251585	2.8725572
8.886200838818924	8.424806	2.9025517
8.903780521486505	8.505139	2.9163573
8.921360414131055	8.605422	2.9335
8.938940517173874	8.696538	2.9489894
8.956520831036297	8.808123	2.967848
8.97410135613971	9.083077	3.0138144
8.99168209290554	9.258791	3.0428262
9.009263041755265	9.457004	3.0752242
9.026844203110405	9.770543	3.1257868
9.044425577392525	9.86428	3.1407452
9.062007165023239	9.966765	3.1570184
9.079588966424197	10.1319685	3.1830754
9.097170982017108	10.211704	3.1955757
9.11475321222372	11.130942	3.3363068
9.132335657465825	11.999003	3.4639578
9.149918318165264	12.070626	3.4742806
9.167501194743924	12.672361	3.5598261
9.18508428762374	12.445836	3.5278656
9.202667597226693	12.465245	3.5306153
9.220251123974803	11.989878	3.4626403
9.237834868290143	11.693483	3.4195735
9.255418830594836	11.387064	3.3744724
9.273003011311046	10.954449	3.3097506
9.290587410860985	10.790169	3.2848392
9.308172029666911	10.220587	3.1969652
9.32575686815113	10.03036	3.1670744
9.343341926735997	8.862744	2.9770362
9.360927205843916	8.640196	2.939421
9.378512705897327	8.445376	2.906093
9.396098427318728	8.199771	2.8635242
9.413684370530664	8.091542	2.8445637
9.431270535955722	8.023342	2.8325505
9.448856924016539	7.919215	2.81411
9.466443535135806	7.7817554	2.7895799
9.484030369736251	7.722586	2.778954
9.501617428240658	7.6703844	2.7695458
9.519204711071852	7.765108	2.7865944
9.536792218652714	7.773834	2.7881596
9.55437995140617	7.841801	2.8003216
9.571967909755191	7.896548	2.8100796
9.589556094122802	7.955219	2.8204997
9.60714450493207	7.9364185	2.817165
9.624733142606116	7.95171	2.8198776
9.642322007568108	7.9796963	2.8248355
9.659911100241267	8.020744	2.8320918
9.677500421048851	8.020014	2.8319628
9.695089970414175	8.005396	2.8293808
9.712679748760609	8.012372	2.8306134
9.730269756511557	8.076623	2.84194
9.747859994090492	8.118065	2.8492217
9.765450461920915	8.164515	2.8573616
9.78304116042639	8.295845	2.880251
9.800632090030527	8.2634945	2.8746295
9.81822325115699	8.317006	2.883922
9.835814644229481	8.276244	2.8768463
9.853406269671762	8.268423	2.8754866
9.870998127907646	8.275692	2.8767502
9.888590219360985	8.311913	2.8830388
9.906182544455698	8.326974	2.8856497
9.923775103615734	8.387977	2.8962004
9.941367897265108	8.351287	2.8898594
9.958960925827878	8.395166	2.8974414
9.97655418972816	8.39923	2.8981426
9.994147689390106	8.374274	2.8938339
10.011741425237934	8.303883	2.881646
10.029335397695904	8.237176	2.870048
10.04692960718833	8.281252	2.8777165
10.06452405413958	8.275406	2.8767004
10.082118738974064	8.321185	2.8846464
10.099713662116246	8.305262	2.881885
10.117308823990651	8.324614	2.8852406
10.134904225021844	8.246332	2.8716428
10.152499865634445	8.249192	2.8721406
10.170095746253125	8.204058	2.8642726
10.18769186730261	8.142427	2.853494
10.205288229207675	8.074518	2.8415697
10.222884832393145	8.041118	2.8356864
10.2404816772839	8.12716	2.8508174
10.258078764304868	8.154399	2.8555908
10.275676093881035	8.135033	2.852198
10.293273666437438	8.032116	2.8340988
10.310871482399158	8.031902	2.8340611
10.32846954219134	8.044179	2.8362262
10.346067846239173	8.123975	2.8502588
10.363666394967908	8.1174755	2.8491185
10.38126518880283	8.163775	2.857232
10.398864228169298	8.18842	2.8615415
10.416463513492713	8.183523	2.8606858
10.434063045198531	8.20412	2.8642836
10.451662823712262	8.180808	2.8602111
10.469262849459467	8.182652	2.8605337
10.486863122865758	8.156931	2.856034
10.504463644356806	8.1549225	2.8556824
10.522064414358338	8.105334	2.8469868
10.539665433296118	8.040745	2.8356206
10.557266701595987	7.968061	2.8227754
10.574868219683818	7.90007	2.8107064
10.592469987985552	7.7741704	2.78822
10.610072006927185	7.6457605	2.765097
10.627674276934751	7.5204873	2.7423506
10.64527679843435	7.3793736	2.7165003
10.662879571852143	7.355798	2.7121575
10.680482597614331	7.3009624	2.7020292
10.698085876147173	7.2008452	2.683439
10.715689407876988	7.0384684	2.653011
10.733293193230146	6.8240643	2.612291
10.750897232633072	6.6428123	2.5773654
10.76850152651225	6.543789	2.558083
10.786106075294207	6.504999	2.55049
10.803710879405534	6.445254	2.5387504
10.821315939272877	6.399908	2.529804
10.83892125532294	6.339479	2.5178323
10.856526827982472	6.279038	2.505801
10.874132657678285	6.2630143	2.5026016
10.891738744837243	6.226657	2.495327
10.909345089886271	6.2031455	2.4906116
10.926951693252343	6.1553907	2.481006
10.944558555362494	6.107677	2.4713714
10.96216567664381	6.016887	2.4529345
10.979773057523436	5.9423985	2.4377036
10.997380698428573	5.8538527	2.4194736
11.014988599786477	5.7805266	2.4042726
11.032596762024461	5.7119627	2.3899713
11.050205185569892	5.5867796	2.363637
11.067813870850198	5.530825	2.3517706
11.085422818292859	5.4993024	2.3450592
11.10303202832541	5.4962664	2.3444118
11.120641501375454	5.4044642	2.3247504
11.138251237870636	5.337769	2.3103611
11.155861238238671	5.2942553	2.3009248
11.173471502907317	5.2832	2.2985213
11.191082032304402	5.2378793	2.2886415
11.208692826857805	5.1210914	2.2629828
11.226303886995465	5.0407524	2.245162
11.243915213145371	4.96629	2.2285175
11.261526805735578	4.971167	2.2296114
11.279138665194196	4.9271107	2.2197096
11.296750791949393	4.8908043	2.2115164
11.314363186429393	4.8196864	2.1953783
11.331975849062479	4.7146983	2.1713357
11.34958878027699	4.653517	2.157201
11.36720198050133	4.6241317	2.1503794
11.384815450163948	4.638415	2.153698
11.402429189693366	4.604244	2.1457503
11.420043199518153	4.55924	2.1352377
11.437657480066942	63.48065	7.9674745
11.455272031768422	85.134224	9.226821
11.472886855051353	107.47005	10.366776
11.490501950344528	99.062096	9.952994
11.508117318076819	84.434906	9.188847
11.52573295867715	45.88245	6.7736588
11.543348872574514	4.2104506	2.0519383
11.560965060197946	4.1822143	2.0450463
11.57858152197655	4.094218	2.0234172
11.59619825833949	4.0728097	2.0181203
11.613815269715985	4.0312304	2.0077925
11.631432556535323	38.529736	6.2072325
11.649050119226837	82.987144	9.109728
11.666667958219929	93.39715	9.66422
11.68428607394406	107.64372	10.37515
11.701904466828756	82.48945	9.08237
11.719523137303586	65.32839	8.082598
11.737142085798196	4.604255	2.145753
11.754761312742286	3.7441812	1.9349886
11.772380818565619	3.7128158	1.9268668
11.790000603698015	3.6834214	1.9192241
11.80762066856935	3.6569614	1.9123183
11.825241013609572	3.6206617	1.9028037
11.842861639248683	3.5910976	1.8950192
11.860482545916748	3.5180564	1.8756483
11.878103734043883	3.4774032	1.8647797
11.895725204060282	3.4508057	1.8576344
11.91334695639619	3.4090497	1.8463612
11.930968991481919	3.385776	1.8400478
11.948591309747824	3.3507922	1.8305169
11.966213911624347	3.3165488	1.8211395
11.98383679754198	3.301143	1.8169048
12.001459967931268	3.287034	1.813018
12.019083423222835	3.2965448	1.8156389
12.036707163847352	3.2386246	1.7996179
12.05433119023556	3.2148118	1.7929896
12.071955502818259	3.1354043	1.7707072
12.089580102026313	3.106917	1.7626449
12.107204988290643	3.085041	1.7564285
12.12483016204224	3.0943522	1.7590771
12.142455623712152	3.15804	1.7770876
12.16008137373149	3.1611774	1.7779701
12.177707412531431	3.1928375	1.7868513
12.19533374054321	3.1686735	1.7800769
12.212960358198126	3.1025815	1.7614146
12.230587265927545	3.0574775	1.7485644
12.248214464162889	2.9949765	1.7306
12.265841953335649	2.98256	1.7270089
12.283469733877375	2.9674067	1.7226162
12.301097806219685	2.981789	1.7267858
12.31872617079425	2.9565318	1.7194568
12.336354828032825	2.909907	1.705845
12.353983778367205	2.8952172	1.7015338
12.371613022229262	2.8587198	1.6907749
12.389242560050928	2.8893714	1.6998152
12.406872392264201	2.8804724	1.6971954
12.424502519301143	2.873882	1.6952528
12.442132941593874	2.8735354	1.6951505
12.459763659574586	2.8697238	1.6940259
12.477394673675532	2.8420556	1.6858398
12.49502598432903	2.7981439	1.6727654
12.51265759196746	2.7833638	1.6683416
12.530289497023267	2.7826324	1.6681224
12.547921699928967	2.7922204	1.6709938
12.565554201117134	2.7941835	1.6715811
12.583187001020404	2.7874668	1.6695708
12.600820100071486	2.7627597	1.6621552
12.618453498703152	2.7636845	1.6624333
12.636087197348235	2.7915974	1.6708074
12.65372119643964	2.7898736	1.6702914
12.671355496410326	2.7948902	1.6717925
12.68899009769333	2.7863622	1.66924
12.706625000721749	2.8277829	1.6816013
12.724260205928752	2.9175012	1.7080694
12.741895713747551	2.9586136	1.7200621
12.759531524611454	2.9993093	1.7318515
12.777167638953818	2.9710233	1.7236657
12.794804057208072	3.0183432	1.737338
12.812440779807702	3.0861225	1.7567363
12.830077807186271	3.3025155	1.8172824
12.847715139777405	3.321466	1.8224889
12.865352778014795	3.4484909	1.8570113
12.882990722332197	3.5472224	1.8834071
12.90062897316344	3.601312	1.8977122
12.918267530942412	3.7094722	1.925999
12.935906396103071	3.578654	1.891733
12.953545569079449	3.7409856	1.9341627
12.971185050305628	3.5855482	1.8935543
12.988824840215775	3.6407552	1.9080763
13.006464939244115	3.6668048	1.9148903
13.024105347824943	3.5555787	1.8856242
13.041746066392617	3.6262093	1.9042609
13.05938709538157	3.394322	1.8423686
13.077028435226296	3.3887227	1.8408483
13.094670086361363	3.3123116	1.8199757
13.112312049221401	3.2363982	1.7989992
13.129954324241112	3.1335354	1.7701795
13.147596911855258	2.9052575	1.7044816
13.165239812498685	2.8788514	1.6967179
13.182883026606293	2.8475494	1.6874684
13.200526554613058	2.8455184	1.6868664
13.218170396954017	2.8052044	1.6748744
13.235814554064284	2.7905333	1.670489
13.253459026379034	2.7809887	1.6676297
13.271103814333523	2.7422435	1.6559721
13.288748918363058	2.7214308	1.649676
13.306394338903031	2.6731098	1.6349647
13.32404007638889	2.6503823	1.6279994
13.341686131256164	2.676343	1.6359532
13.359332503940449	2.6890302	1.6398263
13.376979194877402	2.6711504	1.6343654
13.394626204502751	2.6852512	1.6386737
13.412273533252307	2.6914692	1.6405698
13.429921181561937	2.7255363	1.6509198
13.447569149867581	2.7664874	1.6632761
13.465217438605247	2.7997136	1.6732345
13.482866048211022	2.7582169	1.660788
13.500514979121052	2.7388198	1.654938
13.518164231771568	2.6900713	1.6401438
13.535813806598844	2.7102563	1.6462857
13.553463704039254	2.688401	1.6396344
13.571113924529229	2.6871939	1.6392663
13.588764468505275	2.6899061	1.6400933
13.606415336403956	2.744522	1.65666
13.624066528661917	2.7624145	1.6620513
13.641718045715882	2.818917	1.6789631
13.659369888002635	2.858512	1.6907134
13.67702205595903	2.899457	1.7027792
13.694674550021993	2.9673061	1.722587
13.712327370628532	3.079254	1.7547803
13.729980518215713	3.1687894	1.7801094
13.747633993220681	3.241164	1.8003232
13.765287796080647	3.2261305	1.7961432
13.7829419272329	3.2367246	1.7990899
13.800596387114801	3.27936	1.8109003
13.818251176163775	3.3233757	1.8230128
13.835906294817324	3.3843327	1.8396556
13.853561743513023	3.3753452	1.8372113
13.871217522688525	3.4218845	1.8498336
13.888873632781538	3.4617217	1.8605702
13.906530074229858	3.5029655	1.8716211
13.92418684747135	3.4831724	1.8663259
13.941843952943948	3.4460359	1.8563502
13.959501391085665	3.4384234	1.8542986
13.977159162334578	3.4535933	1.8583846
13.994817267128846	3.4890027	1.8678873
14.012475705906693	3.3880758	1.8406726
14.030134479106424	3.2464159	1.8017813
14.047793587166414	3.130774	1.7693993
14.065453030525108	3.048239	1.7459207
14.083112809621026	2.9650166	1.7219224
14.100772924892766	2.9240074	1.709973
14.118433376778997	2.8956916	1.7016732
14.136094165718458	2.8630838	1.692065
14.153755292149969	2.777958	1.6667207
14.171416756512416	2.6996083	1.6430485
14.189078559244768	2.6251614	1.620235
14.20674070078606	2.5466573	1.595825
14.224403181575408	2.509556	1.5841578
14.242066002051999	2.472101	1.5722916
14.259729162655093	2.469814	1.5715642
14.277392663824022	2.476832	1.5737954
14.295056505998208	2.4527647	1.5661305
14.312720689617128	2.4217188	1.5561873
14.330385215120348	2.3986356	1.5487529
14.348050082947497	2.4445233	1.5634972
14.3657152935383	2.440876	1.5623304
14.383380847332528	2.4185855	1.5551802
14.401046744770051	2.3729706	1.540445
14.418712986290798	2.3888843	1.5456016
14.436379572334793	2.3695354	1.5393295
14.454046503342123	2.3837917	1.5439533
14.471713779752946	2.3494132	1.5327796
14.489381402007504	2.3425322	1.5305333
14.507049370546113	2.3456507	1.5315517
14.524717685809168	2.3887403	1.545555
14.542386348237134	2.3740351	1.5407904
14.560055358270553	2.3990433	1.5488845
14.577724716350051	2.4469852	1.5642842
14.595394422916325	2.4811146	1.5751554
14.61306447841015	2.4928782	1.5788851
14.63073488327237	2.5120845	1.5849557
14.648405637943917	2.525552	1.5891986
14.6660767428658	2.5331848	1.5915982
14.683748198479094	2.5516436	1.5973865
14.701420005224954	2.6005654	1.6126269
14.719092163544628	2.6480467	1.627282
14.73676467387942	2.6643639	1.632288
14.754437536670727	2.6553428	1.6295223
14.772110752360014	2.680749	1.6372993
14.78978432138882	2.6653845	1.6326005
14.807458244198777	2.6691265	1.6337461
14.82513252123159	2.6445713	1.6262138
14.842807152929028	2.7316513	1.6527708
14.860482139732962	2.7521522	1.6589612
14.87815748208531	2.7174823	1.6484787
14.8958331804281	2.6392782	1.6245855
14.91350923520342	2.5803952	1.6063609
14.931185646853438	2.5849602	1.6077812
14.948862415820408	2.6030083	1.6133841
14.966539542546656	2.6696582	1.6339089
14.98421702747459	2.6733942	1.6350517
15.001894871046696	2.671835	1.6345749
15.019573073705542	2.655993	1.6297218
15.037251635893766	2.6537595	1.6290363
15.054930558054092	2.6695623	1.6338795
15.072609840629323	2.6899428	1.6401045
15.090289484062351	2.8589158	1.6908329
15.107969488796124	3.1811514	1.7835783
15.125649855273691	3.6526	1.9111776
15.14333058393817	4.1419625	2.0351813
15.161011675232768	5.0759177	2.2529798
15.17869312960076	6.451285	2.539938
15.196374947485506	8.237836	2.870163
15.214057129330447	11.381171	3.373599
15.231739675579114	15.981358	3.997669
15.249422586675102	20.900814	4.5717406
15.267105863062092	23.736305	4.871992
15.284789505183847	23.85312	4.8839655
15.302473513484218	21.802011	4.6692624
15.320157888407127	18.3416	4.2827096
15.337842630396578	14.339061	3.7866952
15.355527739896656	11.149684	3.3391142
15.37321321735153	8.688856	2.9476867
15.39089906320545	6.400012	2.5298245
15.408585277902748	4.829314	2.19757
15.42627186188783	3.721435	1.9291022
15.443958815605198	3.1833267	1.7841879
15.461646139499424	2.8777833	1.696403
15.479333834015168	2.7646322	1.6627183
15.497021899597165	2.7160897	1.6480564
15.514710336690234	2.670118	1.6340497
15.53239914573928	2.621665	1.6191556
15.550088327189297	2.587579	1.6085954
15.567777881485336	2.529159	1.590333
15.58546780907256	2.5282247	1.5900393
15.6031581103962	2.5042312	1.5824763
15.620848785901568	2.479487	1.5746387
15.638539836034063	2.4171333	1.5547132
15.656231261239173	2.3983753	1.5486689
15.673923061962451	2.4002142	1.5492625
15.691615238649552	2.4359052	1.5607387
15.709307791746202	2.4781096	1.5742012
15.727000721698221	2.4802542	1.5748823
15.744694028951498	2.4428723	1.5629691
15.76238771395202	2.3891857	1.5456991
15.780081777145844	2.3785641	1.5422595
15.797776218979125	2.3956265	1.5477811
15.815471039898094	2.3966293	1.5481051
15.833166240349064	2.369784	1.5394104
15.850861820778437	2.3558228	1.534869
15.868557781632699	2.3494463	1.5327904
15.886254123358412	2.3744793	1.5409346
15.903950846402232	2.39703	1.5482345
15.921647951210897	2.3791342	1.5424442
15.939345438231225	2.3734543	1.540602
15.957043307910133	2.3925598	1.5467901
15.974741560694602	2.4259212	1.557537
15.992440197031714	2.4449236	1.5636252
16.01013921736862	2.4170318	1.5546806
16.02783862215259	2.394655	1.5474672
16.045538411830933	2.3788848	1.5423634
16.06323858685107	2.384752	1.5442642
16.080939147660512	2.374956	1.5410892
16.09864009470684	2.355278	1.5346915
16.11634142843774	2.3195722	1.5230142
16.134043149300954	2.3532298	1.534024
16.15174525774433	2.3909805	1.5462795
16.169447754215817	2.4428782	1.562971
16.18715063916342	2.4690375	1.5713171
16.204853913035244	2.4621413	1.5691211
16.222557576279478	2.4348307	1.5603944
16.240261629344403	22.445978	4.7377186
16.257966072678386	43.01603	6.5586605
16.275670906729868	38.140526	6.1758018
16.293376131947387	2.5237613	1.5886351
16.31108174877957	2.506077	1.5830594
16.328787757675133	2.516211	1.586257
16.34649415908287	2.542612	1.594557
16.364200953451657	2.6158867	1.6173702
16.38190814123048	2.664391	1.6322962
16.39961572286839	2.6791084	1.6367983
16.41732369881455	2.6797004	1.636979
16.43503206951817	2.6966813	1.6421576
16.45274083542859	2.7207484	1.6494691
16.47044999699522	2.773091	1.6652601
16.488159554667558	2.8083906	1.6758254
16.505869508895184	2.8628001	1.6919811
16.523579860127786	2.9039474	1.7040973
16.541290608815117	2.9768524	1.7253557
16.559001755407035	3.0002716	1.7321292
16.57671330035348	3.046738	1.7454908
16.59442524410448	3.051319	1.7468024
16.61213758711015	3.128344	1.7687125
16.629850329820705	3.1995494	1.7887285
16.647563472686436	3.3321493	1.8254175
16.665277016157724	3.4027612	1.8446574
16.682990960685053	3.4271362	1.8512526
16.70070530671898	3.4146717	1.847883
16.718420054710155	3.442228	1.8553243
16.736135205109335	3.4674885	1.8621193
16.753850758367335	3.5564127	1.8858453
16.771566714935087	3.6199439	1.902615
16.789283075263597	3.7175112	1.9280849
16.80699983980398	3.7986197	1.9490048
16.82471700900741	3.8816168	1.970182
16.84243458332518	3.9351728	1.983727
16.860152563208665	3.9004066	1.9749447
16.87787094910932	3.934737	1.9836172
16.89558974147871	4.009202	2.002299
16.913308940768466	4.0752263	2.018719
16.931028547430333	4.1792145	2.0443127
16.94874856191613	4.261756	2.064402
16.966468984677785	4.281013	2.0690608
16.98418981616729	4.339331	2.083106
17.00191105683676	4.439931	2.1071143
17.019632707138374	4.5213623	2.1263494
17.03735476752442	4.525512	2.127325
17.05507723844728	4.551472	2.1334178
17.072800120359403	4.581112	2.1403532
17.090523413713353	4.614847	2.1482196
17.108247118961785	4.630665	2.151898
17.125971236557437	4.6711984	2.1612954
17.143695766953133	4.649188	2.1561975
17.161420710601806	4.636655	2.1532893
17.179146067956477	4.623121	2.1501443
17.19687183947025	4.605605	2.1460674
17.21459802559634	4.646003	2.155459
17.232324626788028	4.7176933	2.1720252
17.25005164349871	4.725667	2.1738598
17.267779076181863	4.679498	2.1632147
17.285506925291074	4.588087	2.141982
17.30323519127999	4.5762672	2.1392212
17.320963874602384	4.579551	2.1399887
17.33869297571211	4.6253967	2.1506736
17.356422495063114	4.608786	2.1468084
17.37415243310944	4.610968	2.1473165
17.391882790305218	4.5805287	2.140217
17.40961356710468	4.549109	2.132864
17.42734476396215	4.494035	2.1199138
17.445076381332044	4.487238	2.1183102
17.462808419668868	4.582563	2.1406922
17.48054087942723	4.705837	2.169294
17.498273761061835	4.986314	2.2330055
17.51600706502747	5.4905	2.3431816
17.533740791779024	6.2450128	2.4990025
17.551474941771485	7.6439433	2.7647681
17.56920951545993	8.664974	2.9436328
17.586944513299528	10.731989	3.2759714
17.60467993574556	12.3003235	3.5071816
17.622415783253373	13.771089	3.7109418
17.64015205627843	15.1146	3.88775
17.657888755276293	16.174448	4.021747
17.675625880702604	16.717485	4.088702
17.69336343301311	16.583767	4.072317
17.71110141266366	15.873415	3.9841454
17.728839820110178	14.980966	3.8705251
17.746578655808705	14.189426	3.7668855
17.764317920215372	12.826808	3.5814533
17.7820576137864	11.447921	3.3834777
17.79979773697811	9.456993	3.0752225
17.81753829024692	7.6347218	2.7631
17.835279274049356	5.976405	2.4446688
17.85302068884201	4.908178	2.2154408
17.870762535081607	4.209858	2.0517938
17.888504813224934	3.8948116	1.9735277
17.90624752372891	3.6879497	1.9204035
17.923990667050536	3.6206844	1.9028096
17.941734243646895	3.5574276	1.8861145
17.959478253975185	3.541179	1.8818021
17.9772226984927	3.4985752	1.8704479
17.994967577656833	3.457381	1.8594034
18.01271289192506	3.3935442	1.8421575
18.030458641754965	3.302634	1.8173151
18.04820482760425	3.2734504	1.8092679
18.06595144993067	3.2675977	1.8076497
18.083698509192125	3.2466798	1.8018545
18.101446005846576	3.218565	1.7940359
18.119193940352105	3.2342176	1.7983931
18.136942313166887	3.2329037	1.7980278
18.1546911247492	3.2185538	1.7940328
18.1724403755574	3.1703649	1.7805518
18.19019006604997	3.182731	1.784021
18.207940196685467	3.1824856	1.7839522
18.225690767922575	3.1334116	1.7701446
18.243441780220046	3.0354764	1.7422619
18.261193234036764	3.0135205	1.7359494
18.278945129831676	2.9922266	1.7298054
18.29669746806386	3.0228896	1.7386459
18.314450249192483	3.0380294	1.7429944
18.3322034736768	3.0648224	1.7506634
18.349957141976184	3.05654	1.7482963
18.3677112545501	3.079524	1.7548573
18.385465811858108	3.083187	1.7559006
18.403220814359884	3.0371563	1.742744
18.420976262515172	3.0477116	1.7457696
18.43873215678387	3.1027904	1.7614739
18.456488497625923	3.1653302	1.7791375
18.474245285501407	3.2581937	1.8050468
18.492002520870486	3.3334186	1.8257653
18.50976020419343	3.4030485	1.8447354
18.527518335930615	3.7205532	1.9288735
18.545276916542516	4.2604933	2.0640962
18.563035946489688	4.4823685	2.1171606
18.580795426232832	4.996422	2.2352676
18.598555356232698	4.927537	2.2198057
18.616315736950185	5.1865997	2.2774107
18.63407656884626	4.7605486	2.181868
18.65183785238201	4.9491363	2.2246654
18.669599588018617	4.74983	2.1794105
18.68736177621737	4.7641172	2.1826859
18.705124417439652	4.756338	2.180903
18.72288751214696	4.573141	2.1384904
18.740651060800886	4.754134	2.1803977
18.758415063863115	4.482757	2.1172523
18.77617952179546	4.649478	2.1562648
18.793944435059814	4.319889	2.0784342
18.811709804118184	4.2725835	2.0670228
18.829475629432675	4.2246475	2.0553946
18.8472419114655	4.0404468	2.0100863
18.86500865067897	4.154425	2.0382407
18.88277584753551	3.8011947	1.9496653
18.90054350249763	3.7733636	1.9425148
18.918311616027957	3.4579878	1.8595666
18.936080188589226	3.3456342	1.8291075
18.953849220644265	3.0343616	1.7419419
18.971618712656007	2.8288875	1.6819297
18.9893886650875	2.787728	1.6696491
19.007159078401887	7.9803987	2.82496
19.024929953062408	32.85401	5.731842
19.042701289532435	32.817566	5.728662
19.060473088275405	25.371288	5.036992
19.07824534975489	2.679041	1.6367776
19.096018074434568	2.6757462	1.6357708
19.113791262778197	2.6765065	1.6360033
19.13156491524966	2.6109889	1.6158555
19.149339032312945	2.5821784	1.6069158
19.167113614432136	2.5536845	1.5980252
19.184888662071433	2.514979	1.5858685
19.202664175695123	2.500672	1.5813514
19.220440155767623	2.5003889	1.5812618
19.238216602753447	2.5210018	1.5877663
19.2559935171172	2.4953716	1.5796745
19.27377089932361	2.4915578	1.5784669
19.291548749837514	2.514017	1.5855652
19.309327069123835	2.5111265	1.5846535
19.32710585764763	2.5297773	1.5905274
19.344885115874032	2.542485	1.5945171
19.362664844268313	2.5264494	1.5894809
19.380445043295822	2.4842234	1.576142
19.39822571342203	2.5001366	1.581182
19.41600685511252	2.5201206	1.5874888
19.43378846883297	2.5245202	1.5888739
19.451570555049173	2.4781737	1.5742216
19.469353114227037	2.4746652	1.5731069
19.48713614683254	2.4787443	1.5744028
19.50491965333182	2.491918	1.5785811
19.52270363419109	2.5155914	1.5860616
19.540488089876686	2.538151	1.5931575
19.55827302085503	2.5418503	1.5943182
19.576058427592674	2.4929557	1.5789096
19.593844310556282	2.4738188	1.5728378
19.611630670212598	2.4835856	1.5759395
19.629417507028506	2.5132923	1.5853367
19.64720482147098	2.527341	1.5897613
19.6649926140071	2.523085	1.5884222
19.682780885104084	2.5092556	1.584063
19.70056963522921	2.4999022	1.581108
19.718358864849908	2.4987555	1.5807452
19.7361485744337	2.4707346	1.5718571
19.753938764448215	2.461383	1.5688796
19.771729435361202	2.480548	1.5749755
19.789520587640506	2.4859304	1.5766834
19.807312221754092	2.4885976	1.577529
19.825104338170043	2.4912262	1.5783619
19.842896937356517	2.4998176	1.5810812
19.860690019781824	2.5258136	1.5892808
19.87848358591436	2.5064352	1.5831724
19.896277636222635	2.4709804	1.5719353
19.914072171175278	2.4092228	1.5521672
19.931867191241015	2.4194987	1.5554738
19.94966269688869	2.4421978	1.5627533
19.967458688587264	2.4379344	1.5613886
19.985255166805807	2.4476407	1.5644938
20.00305213201348	2.464008	1.569716
20.020849584679578	2.4661186	1.5703881
20.038647525273507	2.4561756	1.567219
20.05644595426477	2.43067	1.5590606
20.07424487212299	2.4416955	1.5625925
20.092044279317903	2.440828	1.562315
20.109844176319353	2.4747212	1.5731246
20.127644563597304	2.474605	1.5730878
20.145445441621817	2.4539452	1.5665073
20.16324681086307	2.400249	1.5492737
20.181048671791373	2.3750036	1.5411047
20.198851024877122	2.406392	1.551255
20.216653870590836	2.428013	1.5582083
20.234457209403146	2.427876	1.5581644
20.252261041784802	2.416036	1.5543603
20.270065368206662	2.389708	1.545868
20.287870189139685	2.394494	1.5474153
20.305675505054968	2.3829174	1.54367
20.323481316423702	2.4110305	1.5527494
20.341287623717207	2.379694	1.5426257
20.359094427406884	2.3339376	1.5277231
20.376901727964288	2.3226175	1.5240136
20.39470952586107	2.3344758	1.5278991
20.41251782156899	2.360347	1.5363421
20.430326615559935	2.369177	1.5392132
20.448135908305886	2.37774	1.5419922
20.465945700278965	2.3742359	1.5408555
20.483755991951384	2.353855	1.5342277
20.50156678379548	2.3114328	1.5203397
20.519378076283708	2.3000634	1.516596
20.537189869888635	2.3096082	1.5197395
20.55500216508294	2.3099437	1.5198499
20.572814962339415	2.3127995	1.5207891
20.59062826213098	2.3286235	1.5259829
20.60844206493066	2.3380566	1.5290705
20.626256371211593	2.325306	1.5248954
20.644071181447032	2.3023634	1.5173541
20.66188649611036	2.3133695	1.5209765
20.67970231567506	2.3277626	1.5257007
20.697518640614742	2.3403108	1.5298074
20.715335471403122	2.3148322	1.5214573
20.73315280851404	2.280816	1.5102371
20.750970652421447	2.2818882	1.510592
20.768789003599412	2.291346	1.5137193
20.786607862522136	2.2978926	1.5158801
20.8044272296639	2.2818692	1.5105857
20.82224710549913	2.2459054	1.4986345
20.84006749050237	2.2272468	1.4923964
20.857888385148268	3.8108404	1.9521374
20.8757097899116	45.94831	6.778518
20.893531705267254	64.803925	8.050089
20.911354131690224	83.81019	9.154791
20.92917706965566	69.06646	8.310623
20.94700051963877	50.131023	7.0803266
20.96482448211493	29.405296	5.422665
20.982648957559622	4.1326933	2.0329027
21.00047394644843	2.2357233	1.4952335
21.01829944925707	2.2463834	1.498794
21.036125466461375	2.241071	1.4970207
21.053951998537297	2.2639272	1.5046352
21.071779045960906	2.2597625	1.5032506
21.089606609208378	2.2409031	1.4969647
21.10743468875603	2.243389	1.4977946
21.12526328508028	2.2288575	1.4929359
21.143092398657675	2.2143779	1.4880786
21.16092202996488	2.231819	1.4939274
21.17875217947867	2.2098305	1.4865499
21.19658284767596	2.1982064	1.4826349
21.21441403503377	2.208216	1.4860067
21.232245742029225	2.208109	1.4859707
21.2500779691396	2.1732774	1.474204
21.26791071684227	2.125973	1.4580717
21.28574398561475	2.1188376	1.4556228
21.30357777593465	2.139317	1.4626404
21.321412088279704	2.1440158	1.4642458
21.339246923127792	2.1366985	1.461745
21.357082280956888	2.1366174	1.4617172
21.3749181622451	2.1186001	1.4555411
21.392754567470647	2.1198971	1.4559866
21.41059149711187	2.1095986	1.4524457
21.42842895164726	2.1233141	1.4571596
21.446266931555378	2.1278403	1.4587119
21.464105437314945	2.1178114	1.4552702
21.481944469404798	2.1186109	1.4555448
21.49978402830388	2.1321516	1.4601889
21.51762411449127	2.1296318	1.4593258
21.53546472844617	2.146308	1.4650283
21.553305870647876	2.1141968	1.4540278
21.571147541575865	2.121328	1.456478
21.58898974170967	2.1301892	1.4595168
21.60683247152899	2.1557803	1.4682575
21.62467573151363	2.1203716	1.4561496
21.642519522143523	2.080942	1.4425471
21.660363843898722	2.0741007	1.4401739
21.6782086972594	2.0880558	1.4450107
21.696054082705864	2.0989935	1.4487903
21.713900000718535	2.067335	1.4378229
21.73174645177795	2.0564234	1.4340235
21.749593436364794	2.0330281	1.425843
21.767440954959845	2.074506	1.4403145
21.785289008044032	2.059486	1.4350909
21.803137596098388	2.0672467	1.4377923
21.820986719604086	2.0234988	1.4224974
21.838836379042412	2.0243433	1.4227942
21.85668657489478	1.9924002	1.411524
21.87453730764273	1.9921712	1.411443
21.892388577767914	1.9673694	1.4026295
21.91024038575213	1.9897594	1.4105884
21.928092732077285	2.0059345	1.4163102
21.945945617225426	2.017012	1.4202155
21.963799041678694	2.002833	1.4152148
21.981653005919398	31.335665	5.597827
21.999507510429943	78.140335	8.839703
22.01736255569286	73.09542	8.549586
22.035218142190818	4.17491	2.0432596
22.05307427040661	1.9618351	1.4006553
22.07093094082315	1.9826363	1.4080611
22.088788153923474	2.010415	1.417891
22.106645910190746	2.0373363	1.4273529
22.12450421010827	2.0353374	1.4266526
22.142363054159464	2.037457	1.4273952
22.16022244282787	2.049785	1.431707
22.178082376597164	2.042372	1.4291158
22.195942855951145	2.024598	1.4228836
22.213803881373742	1.9876564	1.4098427
22.231665453349002	1.9957877	1.4127235
22.24952757236111	2.0119686	1.4184388
22.26739023889438	2.0021205	1.4149631
22.28525345343323	1.9870942	1.4096433
22.30311721646225	1.9825083	1.4080157
22.320981528466113	1.9819455	1.4078158
22.33884638992964	1.9537838	1.3977782
22.356711801337788	1.9338341	1.3906236
22.37457776317561	1.9443746	1.3944083
22.392444275928337	1.9617925	1.40064
22.410311340081282	1.9598227	1.3999367
22.428178956119904	1.9587098	1.3995391
22.446047124529805	1.9538387	1.3977978
22.46391584579669	1.9534271	1.3976506
22.481785120406414	1.9501417	1.3964747
22.49965494884496	1.9252831	1.3875457
22.51752533159841	1.9015094	1.3789523
22.53539626915302	1.8925107	1.3756856
22.553267761995137	1.9151914	1.3839045
22.571139810611264	1.951388	1.3969209
22.589012415488025	1.9862525	1.4093447
22.60688557711216	2.0023031	1.4150276
22.624759295970566	1.9498212	1.39636
22.642633572550263	1.9472752	1.395448
22.660508407338362	1.9701815	1.4036316
22.67838380082217	2.0006146	1.4144309
22.696259753489077	1.981017	1.4074861
22.714136265826614	1.9478782	1.3956641
22.73201333832246	1.9208424	1.3859446
22.74989097146439	1.907501	1.3811231
22.76776916574035	1.9095442	1.3818626
22.785647921638393	1.9372203	1.3918406
22.803527239646712	1.9772142	1.4061345
22.82140712025363	1.9807751	1.4074001
22.839287563947593	1.955637	1.398441
22.85716857121719	1.9167356	1.3844622
22.875050142551135	1.8958921	1.376914
22.892932278438277	1.9068018	1.38087
22.910814979367604	1.9115182	1.3825767
22.928698245828222	1.9279525	1.3885072
22.946582078309387	1.9123167	1.3828654
22.96446647730047	1.8991494	1.3780963
22.98235144329098	1.8857666	1.3732321
23.000236976770562	1.8876026	1.3739005
23.018123078229	1.9052181	1.3802963
23.03600974815619	1.9508445	1.3967264
23.053896987042194	1.9626801	1.4009569
23.071784795377173	1.9301817	1.3893098
23.08967317365145	1.8956528	1.3768271
23.10756212235546	1.9143595	1.3836038
23.125451641979787	1.9367434	1.3916693
23.143341733015134	1.9316242	1.3898288
23.161232395952357	1.9320408	1.3899788
23.179123631282426	1.9114087	1.382537
23.197015439496468	1.9185742	1.3851261
23.214907821085717	1.9208596	1.3859508
23.23280077654157	1.949697	1.3963156
23.250694306355538	1.9610107	1.400361
23.268588411019277	1.9115458	1.3825866
23.28648309102458	1.8981237	1.3777242
23.304378346863356	1.9084384	1.3814625
23.322274179027676	1.9566643	1.3988081
23.340170588009723	1.9056458	1.3804513
23.358067574301852	1.882075	1.3718873
23.37596513839651	1.9074169	1.3810927
23.39386328078629	1.9445937	1.3944869
23.411762001963947	1.9436679	1.3941549
23.429661302422353	1.928055	1.3885442
23.4475611826545	1.9252442	1.3875316
23.46546164315356	1.9311194	1.3896472
23.48336268441279	1.9500161	1.3964298
23.501264306925638	1.9325403	1.3901584
23.51916651118564	1.9245176	1.3872699
23.537069297686497	1.9176311	1.3847857
23.554972666922037	1.9405158	1.393024
23.57287661938623	1.9129548	1.3830961
23.59078115557318	1.8754544	1.3694723
23.608686275977128	1.8949322	1.3765653
23.62659198109246	1.9281707	1.3885858
23.6444982714137	1.9423891	1.3936962
23.66240514743549	1.9582945	1.3993908
23.68031260965263	1.9108856	1.3823478
23.698220658560068	1.897855	1.3776267
23.716129294652845	1.9003116	1.3785179
23.7340385184262	1.93611	1.3914417
23.75194833037546	1.8945504	1.3764267
23.769858730996123	1.9003829	1.3785437
23.78776972078382	1.9221677	1.3864226
23.80568130023431	1.9143099	1.3835858
23.823593469843495	1.922082	1.3863918
23.841506230107424	1.9148453	1.3837794
23.859419581522275	1.904952	1.3802
23.87733352458438	1.8655865	1.3658648
23.89524805979019	1.8570242	1.3627268
23.913163187636318	1.8650701	1.3656757
23.931078908619508	1.9170903	1.3845903
23.948995223236633	1.9581003	1.3993214
23.966912131984735	1.9899789	1.4106661
23.98482963536096	1.985777	1.409176
24.002747733862616	2.0177808	1.4204861
24.020666427987155	2.0139844	1.4191492
24.038585718232156	2.0289807	1.424423
24.056505605095353	2.020476	1.4214345
24.074426089074617	2.0678766	1.4380113
24.092347170667946	2.0833533	1.4433826
24.110268850373515	2.0867064	1.4445437
24.128191128689586	2.0747855	1.4404116
24.146114006114626	2.0473034	1.4308401
24.164037483147187	2.0491593	1.4314885
24.181961560286005	2.0593252	1.4350349
24.199886238029926	2.0616002	1.4358274
24.21781151687797	2.0770743	1.4412059
24.235737397329274	2.078084	1.4415561
24.253663879883135	2.0555053	1.4337033
24.271590965038975	2.058759	1.4348376
24.289518653296376	2.058576	1.4347739
24.30744694515505	2.093898	1.4470308
24.32537584111486	2.060231	1.4353504
24.34330534167581	2.0964828	1.4479237
24.361235447338046	2.0769067	1.4411477
24.379166158601876	2.0659306	1.4373345
24.39709747596772	2.0492074	1.4315053
24.41502939993615	2.008845	1.4173373
24.432961931007917	2.0291262	1.424474
24.450895069683856	2.0390782	1.427963
24.468828816465	2.0091584	1.4174478
24.4867631718525	1.9801041	1.4071617
24.504698136347656	1.9312767	1.3897038
24.52263371045192	1.9436344	1.3941429
24.540569894666874	1.9478925	1.3956692
24.558506689494266	1.9672894	1.402601
24.57644409543597	1.9225655	1.386566
24.594382112994012	1.8767651	1.3699508
24.61232074267057	1.8826166	1.3720847
24.630259984967953	1.9365681	1.3916063
24.64819984038863	1.9217616	1.3862761
24.66614030943522	1.9119887	1.3827468
24.684081392610462	1.9314065	1.3897505
24.702023090417274	1.9423968	1.3936989
24.7199654033587	1.9590458	1.3996592
24.737908331937927	1.9376404	1.3919915
24.755851876658305	1.9663409	1.4022628
24.773796038023324	2.006719	1.4165871
24.79174081653661	2.0465634	1.4305815
24.809686212701962	2.0341663	1.426242
24.827632227023294	2.0254529	1.423184
24.8455788600047	2.066841	1.4376512
24.8635261121504	2.0914059	1.4461694
24.88147398396475	2.1198816	1.4559814
24.899422475952303	2.1105185	1.4527624
24.917371588617698	2.0867238	1.4445497
24.935321322465768	2.1008658	1.4494364
24.953271678001478	2.230437	1.4934648
24.97122265572994	2.4530573	1.5662239
24.989174256156414	2.7918358	1.6708788
25.00712647978632	3.228803	1.796887
25.02507932712521	3.753602	1.9374214
25.043032798678798	4.3055606	2.0749846
25.060986894952933	4.9481	2.2244325
25.078941616453637	5.6751056	2.382248
25.096896963687055	6.523787	2.5541706
25.114852937159508	7.584438	2.753986
25.132809537377444	7.9154744	2.8134453
25.150766764847468	7.896568	2.8100832
25.168724620076347	7.329352	2.7072775
25.186683103570985	6.443668	2.538438
25.204642215838426	5.4452863	2.3335137
25.222601957385894	4.18984	2.0469098
25.24056232872074	3.2108746	1.7918913
25.25852333035048	2.603604	1.6135688
25.276484962782778	2.2310627	1.4936742
25.294447226525435	2.0436516	1.4295634
25.312410122086423	1.9751648	1.4054055
25.330373649973843	1.9524983	1.3973182
25.348337810695988	1.917429	1.3847126
25.366302604761245	1.8966639	1.3771942
25.384268032678207	1.8640311	1.3652953
25.40223409495558	1.8612808	1.3642876
25.420200792102257	1.8614125	1.3643359
25.438168124627246	1.8478464	1.3593551
25.45613609303974	1.8348634	1.3545713
25.474104697849057	1.8630257	1.3649269
25.492073939564698	1.8803195	1.3712474
25.510043818696285	1.8652351	1.3657361
25.528014335753614	1.879168	1.3708276
25.54598549124664	1.9019938	1.3791279
25.56395728568544	1.9431132	1.393956
25.58192971958028	1.9275645	1.3883675
25.59990279344156	1.8329363	1.3538598
25.617876507779833	1.8121424	1.3461584
25.635850863105826	1.8151267	1.3472663
25.653825859930386	1.8099595	1.3453474
25.671801498764548	1.8085701	1.3448309
25.68977778011949	1.8511996	1.360588
25.707754704506524	1.8576365	1.3629514
25.725732272437153	1.824645	1.3507942
25.743710484423012	1.7957075	1.3400401
25.761689340975888	1.8002095	1.3417189
25.77966884260774	1.8022008	1.3424608
25.797648989830662	1.82022	1.3491553
25.815629783156922	1.8445336	1.358136
25.83361122309895	1.8823842	1.3720001
25.85159331016929	1.8561274	1.3623977
25.869576044880695	1.836048	1.3550085
25.887559427746034	1.8564503	1.3625162
25.90554345927836	1.886528	1.3735094
25.92352813999086	1.8379054	1.3556937
25.94151347039689	1.8518236	1.3608172
25.959499451009965	1.860603	1.3640392
25.97748608234374	1.865995	1.3660142
25.995473364912062	1.8663151	1.3661314
26.013461299228904	1.867656	1.3666221
26.03144988580839	1.8223561	1.3499467
26.04943912516483	1.8081359	1.3446695
26.067429017812675	1.7813283	1.3346641
26.085419564266537	1.8074611	1.3444185
26.103410765041186	1.8200997	1.3491107
26.12140262065155	1.834046	1.3542695
26.139395131612723	1.8263835	1.3514376
26.157388298439948	1.8245566	1.3507615
26.17538212164861	1.8286188	1.3522643
26.193376601754295	1.8415151	1.3570243
26.211371739272714	1.8269248	1.3516378
26.229367534719746	1.7908355	1.3382211
26.247363988611433	1.7830349	1.3353033
26.26536110146397	1.783121	1.3353355
26.283358873793727	1.7996558	1.3415126
26.301357306117204	1.8220282	1.3498253
26.319356398951104	1.8055005	1.3436891
26.33735615281224	1.769726	1.3303105
26.35535656821762	1.7846128	1.335894
26.373357645684404	1.8151704	1.3472826
26.39135938572991	1.81218	1.3461723
26.409361788871614	1.835154	1.3546786
26.427364855627165	1.8426193	1.3574312
26.445368586514352	1.8115848	1.3459513
26.46337298205115	1.7770991	1.3330789
26.48137804275568	1.8236699	1.3504332
26.499383769146217	1.8750331	1.3693185
26.517390161741215	1.8640918	1.3653175
26.53539722105928	1.8406737	1.3567142
26.553404947619182	1.8092866	1.3450972
26.571413341939856	1.8272771	1.3517681
26.589422404540397	1.8605008	1.3640018
26.60743213594006	1.8791716	1.3708287
26.62544253665827	1.845707	1.3585681
26.64345360721459	1.8405952	1.3566854
26.66146534812879	1.8301227	1.3528203
26.679477759920758	1.8103472	1.3454914
26.69749084311057	1.7770985	1.3330786
26.71550459821847	1.7874678	1.3369622
26.733519025764842	1.7687541	1.3299452
26.751534126270258	1.8177137	1.3482262
26.769549900255434	1.7954823	1.339956
26.787566348241267	1.7957428	1.3400533
26.80558347074881	1.7980579	1.3409169
26.823601268299267	1.8344357	1.3544134
26.841619741414036	1.8280076	1.3520383
26.85963889061465	1.7934303	1.3391901
26.877658716422832	1.7430192	1.3202345
26.89567921936045	1.740831	1.3194056
26.913700399949544	1.7462046	1.3214403
26.93172225871233	1.7663857	1.3290545
26.949744796171174	1.8157464	1.3474964
26.967768012848605	1.8341547	1.3543097
26.98579190926733	1.8244656	1.3507278
27.003816485950225	1.7863199	1.3365328
27.021841743420318	1.7541537	1.3244447
27.039867682200814	1.7500377	1.3228899
27.057894302815072	1.7513498	1.3233857
27.07592160578664	1.712415	1.3085928
27.0939495916392	1.7180395	1.3107401
27.111978260896635	1.8156533	1.3474618
27.13000761408296	1.8219973	1.3498138
27.148037651722397	1.7754996	1.3324788
27.166068374339304	1.7806593	1.3344135
27.184099782458215	1.805559	1.3437109
27.20213187660384	1.7658994	1.3288715
27.22016465730105	1.8160365	1.3476039
27.23819812507487	1.7929807	1.3390223
27.256232280450533	1.7814647	1.3347152
27.274267123953383	1.7427218	1.3201219
27.292302656108987	1.7817549	1.3348238
27.31033887744306	1.7922149	1.3387363
27.32837578848146	1.7799159	1.3341349
27.34641338975026	1.7680323	1.3296738
27.364451681775673	1.7733666	1.3316782
27.382490665084074	1.8198023	1.3490005
27.400530340202046	1.8263106	1.3514106
27.41857070765629	1.7951316	1.3398252
27.436611767973726	1.7645271	1.3283551
27.454653521681404	1.7770072	1.3330443
27.472695969306564	1.764774	1.3284479
27.490739111376627	1.7706479	1.3306569
27.508782948419153	1.729338	1.315043
27.526827480961902	1.7280835	1.3145659
27.54487270953279	1.8057349	1.3437763
27.562918634659898	1.8399178	1.3564357
27.580965256871508	1.8414147	1.3569874
27.599012576696026	1.8224821	1.3499933
27.617060594662068	1.8507972	1.36044
27.63510931129842	1.8575131	1.3629061
27.65315872713401	1.8208495	1.3493886
27.67120884269797	1.7999582	1.3416252
27.68925965851958	1.79005	1.3379275
27.707311175128307	1.8222286	1.3498994
27.725363393053787	1.8369994	1.3553596
27.74341631282583	1.8398534	1.3564119
27.7614699349744	1.814574	1.3470613
27.77952426002968	2.0524244	1.4326285
27.797579288521973	2.180272	1.4765744
27.815635020981784	2.5898256	1.6092935
27.83369145793979	2.6272995	1.6208947
27.85174859992682	2.4829752	1.5757459
27.869806447473923	2.3070636	1.5189021
27.887865001112267	2.0176148	1.4204277
27.905924261373233	1.9045949	1.3800706
27.92398422878836	1.8527483	1.361157
27.94204490388936	1.8058534	1.3438205
27.96010628720813	1.7930812	1.3390598
27.978168379276728	1.8123273	1.346227
27.9962311806274	1.8819295	1.3718344
28.014294691792568	1.8976364	1.3775473
28.0323589133048	1.8557094	1.3622442
28.050423845696887	1.8061996	1.3439492
28.068489489501758	1.8084862	1.3447996
28.086555845252523	1.859906	1.3637837
28.104622913482487	1.9099246	1.3820002
28.122690694725115	1.887021	1.3736888
28.14075918951405	1.8583444	1.363211
28.15882839838312	1.8690535	1.3671333
28.176898321866304	1.8517443	1.3607881
28.1949689604978	1.8661498	1.366071
28.213040314811945	1.8973485	1.3774427
28.23111238534327	1.9158077	1.384127
28.249185172626493	1.9013263	1.3788859
28.267258677196473	1.9074894	1.3811189
28.285332899588294	1.9628687	1.4010241
28.303407840337172	1.9429928	1.3939128
28.321483499978545	1.9503586	1.3965524
28.33955987904799	1.9808176	1.4074152
28.357636978081285	1.9285597	1.3887259
28.37571479761439	1.8679168	1.3667176
28.393793338183425	1.8784798	1.3705765
28.41187260032469	1.936855	1.3917093
28.429952584574686	1.9315101	1.3897878
28.448033291470065	1.8902767	1.3748733
28.46611472154769	1.8920926	1.3755336
28.484196875344566	1.9513129	1.396894
28.502279753397914	1.9636624	1.4013073
28.52036335624511	1.9513174	1.3968956
28.538447684423716	1.9220749	1.3863891
28.556532738471482	1.9669259	1.4024713
28.574618518926325	1.9939387	1.412069
28.59270502632635	2.0646431	1.4368867
28.61079226120985	2.0759218	1.4408059
28.628880224115274	2.0545802	1.4333807
28.646968915581287	2.0085351	1.417228
28.66505833614671	1.9847466	1.4088104
28.68314848635055	2.0039265	1.4156011
28.701239366732004	2.0111609	1.418154
28.71933097783044	1.9642355	1.4015119
28.737423320185403	2.015282	1.4196062
28.75551639433665	2.076883	1.4411395
28.773610200824074	2.1334052	1.4606181
28.791704740187793	2.138878	1.4624903
28.80980001296809	2.1288695	1.4590646
28.827896019705413	2.144322	1.4643503
28.845992760940433	2.1628091	1.4706492
28.86409023721397	2.2060368	1.4852734
28.88218844906704	2.2250407	1.491657
28.900287397040845	2.2106335	1.48682
28.918387081676755	2.1788611	1.4760966
28.936487503516343	2.192385	1.4806705
28.954588663101365	2.2400007	1.4966632
28.97269056097374	2.271378	1.5071092
28.990793197675597	2.291329	1.5137136
29.00889657374923	2.368486	1.5389886
29.027000689737125	2.4052186	1.5508767
29.04510554618196	2.420776	1.5558842
29.06321114362659	2.4306357	1.5590496
29.08131748261405	2.4358933	1.5607349
29.099424563687567	2.4757266	1.5734441
29.11753238739057	2.5889838	1.6090319
29.13564095426663	2.5956523	1.6111028
29.15375026485954	2.5602093	1.6000654
29.171860319713275	2.6328137	1.6225947
29.18997111937199	2.6374736	1.62403
29.20808266438002	2.6863246	1.6390011
29.226194955281898	2.7123563	1.6469233
29.244307992622335	2.801079	1.6736424
29.26242177694624	2.8729641	1.694982
29.2805363087987	2.9188607	1.7084674
29.29865158872498	2.8907623	1.7002242
29.316767617270557	2.8251405	1.6808155
29.334884394981064	2.8548968	1.689644
29.353001922402367	2.9250412	1.7102752
29.37112020008047	2.9732482	1.724311
29.389239228561596	3.0528173	1.7472314
29.407359008392152	3.2949753	1.8152066
29.42547954011872	3.7599983	1.9390715
29.44360082428809	4.3679547	2.0899653
29.46172286144722	5.38376	2.3202932
29.479845652143283	6.8931937	2.6254892
29.497969196923606	8.834631	2.9723108
29.516093496335728	11.063048	3.326116
29.5342185509274	13.504476	3.6748435
29.55234436124651	15.58079	3.9472508
29.570470927841175	16.773653	4.095565
29.588598251259686	16.558971	4.0692716
29.60672633205055	15.369395	3.920382
29.624855170762405	13.359592	3.6550777
29.642984767944146	10.8695345	3.2968976
29.66111512414481	8.445897	2.9061825
29.67924623991366	6.431571	2.5360541
29.697378115800138	5.020482	2.2406433
29.71551075235387	4.1906533	2.0471084
29.733644150124675	3.7650716	1.9403793
29.751778309662576	3.5383868	1.88106
29.769913231517766	3.3462925	1.8292874
29.78804891624066	3.2674916	1.8076204
29.806185364381818	3.3310046	1.825104
29.82432257649206	3.402874	1.844688
29.842460553122333	3.3784018	1.8380429
29.86059929482382	3.349649	1.8302046
29.878738802147872	3.3091333	1.8191023
29.896879075646048	3.2598152	1.8054959
29.915020115870114	3.2777746	1.8104625
29.933161923371976	3.295598	1.8153782
29.951304498703777	3.1888409	1.7857326
29.969447842417857	3.119691	1.7662647
29.987591955066733	3.0998828	1.7606484
30.005736837203123	3.1058877	1.7623528
30.023882489379943	3.1481304	1.7742971
30.04202891215028	3.2223637	1.7950944
30.060176106067455	3.2406623	1.800184
30.078324071684946	3.2051344	1.7902889
30.09647280955646	3.1846657	1.7845632
30.114622320235863	3.1250765	1.7677886
30.132772604277257	3.1028094	1.7614794
30.1509236622349	3.0971723	1.7598785
30.16907549466328	3.0199072	1.7377881
30.18722810211705	3.007915	1.7343342
30.205381485151097	3.0598016	1.7492288
30.22353564432045	3.0383883	1.7430973
30.241690580180403	3.0031316	1.7329546
30.25984629328638	2.9945788	1.7304852
30.278002784194037	2.942914	1.7154924
30.296160053459246	2.9441152	1.7158424
30.314318101638033	2.8855987	1.698705
30.332476929286646	2.8416927	1.6857321
30.35063653696153	2.9019015	1.7034968
30.368796925219307	2.9345367	1.7130489
30.386958094616844	2.8821633	1.6976935
30.40512004571115	2.8561854	1.6900253
30.423282779059463	2.848961	1.6878866
30.441446295219233	2.8599617	1.6911422
30.459610594748067	2.8627455	1.691965
30.47777567820382	2.8369048	1.6843114
30.495941546144504	2.8318334	1.6828052
30.51410819912835	2.8572583	1.6903427
30.532275637713795	2.8292544	1.6820388
30.55044386245946	2.8254867	1.6809185
30.56861287392416	2.8500555	1.6882107
30.586782672666956	2.8198245	1.6792333
30.604953259247047	2.7168107	1.648275
30.623124634223885	2.6890917	1.639845
30.641296798157075	2.7444165	1.656628
30.659469751606462	2.8003578	1.673427
30.677643495132074	2.8611743	1.6915007
30.695818029294152	2.833071	1.683173
30.713993354653116	2.7652926	1.6629169
30.73216947176962	2.7257273	1.6509777
30.75034638120448	2.692534	1.6408943
30.768524083518756	2.7173939	1.6484519
30.786702579273673	2.7816935	1.667841
30.80488186903069	2.885253	1.6986033
30.82306195335144	3.002903	1.7328886
30.841242832797782	3.1793087	1.7830616
30.85942450793176	3.4228983	1.8501077
30.877606979315637	3.7347345	1.9325461
30.895790247511883	4.1376824	2.0341294
30.913974313083134	4.448491	2.1091447
30.932159176592283	4.6444616	2.1551013
30.95034483860237	4.674862	2.162143
30.968531299676698	4.5505714	2.1332068
30.98671856037873	4.287387	2.0706005
31.00490662127215	3.9437897	1.9858977
31.023095482920848	3.5015504	1.871243
31.04128514588892	3.0768247	1.754088
31.059475610740662	2.8232298	1.680247
31.07766687804056	2.72286	1.6501092
31.09585894835335	2.625717	1.6204064
31.11405182224393	2.5246606	1.5889181
31.132245500277417	2.4567745	1.5674101
31.15043998301914	2.4643104	1.5698122
31.168635271034628	2.496324	1.579976
31.18683136488964	2.5119998	1.584929
31.20502826515008	2.455499	1.5670031
31.223225972382135	2.3951085	1.5476137
31.241424487152155	2.321843	1.5237595
31.259623810026692	2.3435552	1.5308675
31.27782394157253	2.3540516	1.5342919
31.296024882356644	2.3974764	1.5483787
31.314226632946237	2.418462	1.5551405
31.332429193908684	2.3734448	1.5405989
31.350632565811598	2.393121	1.5469716
31.368836749222787	2.529972	1.5905886
31.387041744710295	2.6093416	1.6153457
31.40524755284232	2.562512	1.6007848
31.423454174187317	2.5645938	1.601435
31.441661609313922	2.6073542	1.6147304
31.459869858791002	2.5696716	1.6030195
31.478078923187628	2.4188085	1.5552518
31.496288803073064	2.3661537	1.5382307
31.514499499016807	2.3892922	1.5457336
31.532711011588546	2.381852	1.543325
31.550923341358178	2.2914412	1.5137507
31.56913648889584	2.2155094	1.4884588
31.587350454771844	2.2473438	1.4991143
31.605565239556732	2.2476497	1.4992163
31.62378084382127	2.2844582	1.5114424
31.641997268136382	2.3020053	1.5172361
31.660214513073274	2.2951005	1.5149589
31.67843257920331	2.311763	1.5204483
31.6966514670981	2.3909247	1.5462615
31.71487117732944	2.3800554	1.5427428
31.733091710469346	2.2849128	1.5115929
31.751313067090052	2.3064272	1.5186926
31.769535247764008	2.314276	1.5212744
31.787758253063878	2.3085303	1.5193849
31.805982083562526	2.2612836	1.5037565
31.824206739833024	2.2215695	1.490493
31.84243222244869	2.2393987	1.4964621
31.860658531983013	2.2616398	1.5038749
31.878885669009737	2.2891784	1.5130031
31.897113634102784	2.2628453	1.5042757
31.91534242783632	2.2024567	1.4840677
31.933572050784694	2.1912568	1.4802895
31.951802503522508	2.194817	1.4814914
31.970033786624548	2.1207464	1.4562782
31.988265900665834	2.1275797	1.4586226
32.006498846221575	2.1844778	1.4779979
32.02473262386724	2.1525452	1.4671555
32.04296723417845	2.0803475	1.442341
32.0612026777311	2.1134632	1.4537755
32.07943895510129	2.1467752	1.4651878
32.097676066865304	2.1332996	1.4605819
32.115914013599685	2.0839832	1.4436008
32.13415279588115	2.1432507	1.4639845
32.152392414286666	2.2245417	1.4914898
32.1706328693934	2.2381957	1.49606
32.18887416177875	2.1874492	1.4790028
32.20711629202032	2.1685102	1.4725863
32.225359260695924	2.1959972	1.4818897
32.243603068383614	2.1930735	1.4809029
32.26184771566166	2.203052	1.4842682
32.28009320310852	2.136303	1.4616097
32.2983395313029	2.1450336	1.4645933
32.31658670082372	2.163813	1.4709905
32.33483471225012	2.153412	1.4674509
32.35308356616143	2.0802186	1.4422963
32.371333263137245	2.0699372	1.4387276
32.38958380375734	2.03124	1.4252157
32.407835188601744	1.9982363	1.4135898
32.42608741825067	1.9635891	1.4012812
32.444340493284585	1.9292146	1.3889617
32.46259441428416	2.0170934	1.4202441
32.48084918183028	2.0668547	1.4376559
32.49910479650405	2.1232524	1.4571384
32.51736125888683	2.156924	1.468647
32.53561856956014	2.140007	1.4628763
32.5538767291058	2.0689538	1.4383858
32.572135738105764	1.9669267	1.4024717
32.59039559714228	2.0211928	1.4216866
32.608656306797776	2.1060336	1.451218
32.62691786765491	2.0797215	1.4421239
32.645180280296586	2.0458598	1.4303355
32.663443545305896	2.0285132	1.4242588
32.68170766326619	1.9779298	1.4063889
32.69997263476099	1.9672081	1.4025719
32.7182384603741	1.9326106	1.3901837
32.7365051406895	1.9769417	1.4060376
32.75477267629144	2.0821989	1.4429827
32.77304106776434	2.1093378	1.452356
32.79131031569289	2.0954182	1.4475559
32.809580420661966	1.9692148	1.4032872
32.827851383256714	1.9212662	1.3860974
32.84612320406245	1.9638408	1.401371
32.86439588366476	1.9519167	1.3971101
32.88266942264945	1.9162971	1.3843038
32.9009438216025	1.9300508	1.3892627
32.9192190811102	1.9745219	1.4051768
32.937495201758985	1.9968438	1.4130973
32.95577218413556	2.0178232	1.420501
32.974050028826866	2.0540483	1.4331951
32.992328736420035	1.9109232	1.3823615
33.010608307502444	1.8879654	1.3740325
33.02888874266169	2.0049818	1.4159738
33.047170042485604	2.0059474	1.4163147
33.06545220756225	1.9515007	1.3969612
33.083735238479896	1.9932318	1.4118186
33.10201913582707	2.0435536	1.4295292
33.12030390019248	1.9804014	1.4072673
33.138589532165135	1.9106134	1.3822494
33.15687603233419	1.9175864	1.3847694
33.17516340128909	1.9634485	1.401231
33.19345163961947	1.9325132	1.3901486
33.211740747915215	1.8961763	1.3770171
33.23003072676643	1.9443088	1.3943847
33.248321576763466	1.9275415	1.3883593
33.266613298496885	1.8473793	1.3591833
33.28490589255747	1.7915212	1.3384771
33.30319935953626	1.890096	1.3748076
33.32149370002451	2.0287807	1.4243528
33.339788914613706	2.0508575	1.4320816
33.358085003895575	2.0036945	1.4155191
33.376381968462034	1.9651891	1.401852
33.39467980890529	1.9607916	1.4002827
33.41297852581774	1.8911865	1.3752042
33.43127811979204	1.7838702	1.335616
33.44957859142105	1.826513	1.3514855
33.467879941297866	2.0246677	1.4229082
33.486182170015844	2.0703332	1.4388653
33.50448527816853	1.9865292	1.4094429
33.522789266349754	1.959057	1.3996632
33.541094135153514	2.015147	1.4195588
33.55939988517411	1.9899207	1.4106455
33.57770651700602	1.9944822	1.4122614
33.59601403124398	1.9765425	1.4058956
33.61432242848296	1.9360896	1.3914344
33.632631709318154	1.7962091	1.3402272
33.650941874344994	1.7742678	1.3320165
33.66925292415916	1.8903066	1.3748842
33.68756485935654	1.8858507	1.3732628
33.70587768053328	1.8361167	1.3550339
33.724191388285746	1.8419567	1.357187
33.74250598321054	1.8170012	1.3479619
33.760821465904506	1.8529521	1.3612318
33.77913783696474	1.8863227	1.3734347
33.79745509698852	1.8693119	1.3672278
33.815773246573414	1.8559804	1.3623437
33.8340922863172	1.950898	1.3967456
33.852412216817896	2.0448916	1.4299971
33.87073303867377	2.1082547	1.451983
33.889054752483304	2.1492412	1.466029
33.907377358845245	2.1351168	1.4612039
33.92570085835853	2.0350819	1.4265629
33.94402525162239	1.9750472	1.4053637
33.96235053923627	1.9489247	1.3960389
33.980676721799824	1.8763412	1.369796
33.999003799912984	1.8973778	1.3774534
34.01733177417592	1.9357531	1.3913134
34.03566064518901	1.9483231	1.3958235
34.0539904135529	1.8408439	1.3567771
34.07232107986846	1.8352011	1.3546959
34.090652644736785	1.8761467	1.369725
34.108985108759235	1.8999375	1.3783822
34.12731847253742	1.9070828	1.3809717
34.14565273667313	1.8646513	1.3655224
34.16398790176847	1.9418335	1.3934969
34.18232396842574	1.9727672	1.4045523
34.20066093724749	2.0046642	1.4158616
34.21899880883651	1.8702886	1.367585
34.23733758379583	1.8545692	1.3618257
34.25567726272874	1.8008235	1.3419477
34.27401784623872	1.7889216	1.3375057
34.29235933492957	1.8673195	1.366499
34.31070172940526	1.8773519	1.3701649
34.32904503027003	1.8822232	1.3719414
34.347389238128386	1.9236718	1.3869649
34.36573435358502	1.9151838	1.3839016
34.38408037724492	1.9253738	1.3875784
34.402427309713296	1.8268672	1.3516165
34.42077515159559	1.861671	1.3644307
34.43912390349752	1.915681	1.3840812
34.45747356602499	1.8718647	1.3681611
34.47582413978423	1.8711494	1.3678997
34.49417562538163	1.9349874	1.3910383
34.51252802342388	2.0526805	1.4327179
34.53088133451789	2.0101123	1.4177843
34.54923555927084	1.8486259	1.3596418
34.567590698290104	1.9135805	1.3833222
34.58594675218336	1.9685464	1.403049
34.6043037215585	1.9152381	1.3839213
34.62266160702365	1.8892097	1.3744853
34.641020409187234	1.9123956	1.3828939
34.65938012865785	1.9394057	1.3926255
34.677740766044394	1.9304776	1.3894163
34.69610232195598	1.9531113	1.3975376
34.714464797002016	2.09827	1.4485406
34.73282819179208	2.2181027	1.4893296
34.751192506936064	2.192097	1.4805732
34.76955774304408	2.0560167	1.4338816
34.7879239007265	1.9768239	1.4059957
34.80629098059391	1.8577477	1.3629922
34.824658983257194	1.7537429	1.3242896
34.843027909327446	1.7155852	1.3098035
34.86139775941603	1.7733948	1.3316888
34.879768534134534	1.8627355	1.3648207
34.89814023409483	1.9208227	1.3859375
34.91651285990901	1.9746151	1.40521
34.93488641218944	2.0843744	1.4437363
34.95326089154871	2.0613313	1.4357337
34.97163629859967	1.8988496	1.3779875
34.99001263395542	1.8026825	1.3426402
35.00838989822934	1.9303583	1.3893733
35.02676809203499	2.120785	1.4562916
35.04514721598624	2.1682472	1.472497
35.063527270697215	1.9624876	1.4008881
35.081908256782256	1.841653	1.3570752
35.10029017485597	1.9215422	1.386197
35.11867302553321	1.9844432	1.4087026
35.137056809429104	2.0761564	1.4408873
35.155441527159006	2.3437636	1.5309355
35.173827179338524	2.5354424	1.5923072
35.19221376658354	2.139914	1.4628445
35.21060128951017	1.7209677	1.3118565
35.2289897487348	1.8404547	1.3566335
35.24737914487405	1.7899542	1.3378917
35.26576947854479	1.6396635	1.2804935
35.28416075036418	1.8116738	1.3459843
35.30255296094958	1.8466384	1.3589108
35.32094611091867	2.0019448	1.414901
35.33934020088932	1.8944147	1.3763773
35.35773523147969	1.863597	1.3651363
35.3761312033082	1.9167203	1.3844566
35.394528116993506	1.9069197	1.3809127
35.41292597315452	1.871653	1.3680837
35.431324772410434	2.0355577	1.4267297
35.449724515380666	2.170235	1.4731717
35.46812520268491	2.4379745	1.5614015
35.486526834943106	2.2308028	1.4935873
35.504929412775454	2.063253	1.4364028
35.52333293680242	1.9941571	1.4121462
35.54173740764471	1.9176728	1.3848007
35.560142825923286	1.5355958	1.2391915
35.5785491922594	1.283553	1.1329399
35.59695650727454	1.2143378	1.10197
35.61536477159042	1.1671087	1.080328
