0.008763373481513119	0.56609195	0.7523908
0.026290120649546365	0.18888974	0.43461448
0.043816868432600686	0.22257306	0.4717765
0.06134361724069026	0.09919149	0.3149468
0.07887036748382949	0.07748628	0.27836356
0.0963971195720331	0.0036183195	0.060152467
0.11392387391531617	0.0	0.0
0.1314506309236943	0.02604249	0.16137685
0.1489773910071836	0.16872811	0.4107653
0.16650415457580078	0.16110371	0.40137726
0.18403092203956356	0.13831852	0.37191197
0.20155769380849	0.07165688	0.26768804
0.2190844702925996	0.04966256	0.22285098
0.2366112519019124	0.0706754	0.26584846
0.2541380390464497	0.12697813	0.3563399
0.27166483213623416	0.1510088	0.3885985
0.28919163158128947	0.19716373	0.44403124
0.3067184377916406	0.19780773	0.44475582
0.324245251177314	0.16776411	0.40959018
0.34177207214833777	0.13873985	0.37247798
0.3592989011147415	0.11718115	0.3423173
0.37682573848655654	0.07653639	0.2766521
0.39435258467381573	0.11603731	0.34064248
0.41187944008655414	0.10924958	0.33052924
0.42940630513480854	0.114062496	0.3377314
0.446933180228618	0.12584159	0.35474157
0.4644600657780234	0.1380774	0.37158766
0.48198696219306775	0.18594041	0.43120807
0.49951386988379676	0.18169388	0.42625564
0.5170407892602581	0.13407718	0.36616552
0.5345677207325025	0.11028075	0.33208546
0.5520946647105822	0.1163112	0.34104428
0.5696216216045534	0.15474944	0.39338204
0.5871485918244737	0.1960413	0.4427655
0.6046755757804043	0.20278545	0.45031705
0.6222025738824094	0.21866179	0.46761286
0.6397295865405557	0.19855641	0.4455967
0.6572566141649129	0.1866332	0.43201065
0.6747836571655547	0.1659912	0.4074202
0.6923107159525568	0.14883478	0.38579112
0.7098377909359992	0.12231329	0.34973317
0.7273648825259653	0.08263183	0.28745753
0.7448919911325411	0.11981025	0.34613618
0.762419117165817	0.19592412	0.44263315
0.7799462610358868	0.21062994	0.45894438
0.7974734231528482	0.21433291	0.46296102
0.8150006039268024	0.21468388	0.46333992
0.8325278037678551	0.23282805	0.48252258
0.8500550230861152	0.27042174	0.5200209
0.8675822622916969	0.2352373	0.48501268
0.8851095217947171	0.23267084	0.48235965
0.9026368020052984	0.23070177	0.48031425
0.9201641033335665	0.20737919	0.45538905
0.9376914261896523	0.16238502	0.40297025
0.9552187709836915	0.1514624	0.3891817
0.9727461381258234	0.18508786	0.4302184
0.990273528026193	0.26806784	0.5177527
1.0078009410949496	0.31547686	0.5616733
1.0253283777422473	0.32514322	0.5702133
1.0428558383782454	0.30736938	0.554409
1.0603833234131086	0.2851818	0.5340241
1.0779108332570058	0.32050708	0.56613344
1.0954383683201119	0.36877635	0.6072696
1.112965929012607	0.44871107	0.669859
1.1304935157446763	0.5680394	0.7536839
1.1480211289265108	0.5858564	0.76541257
1.1655487689683062	1.5118437	1.2295705
1.1830764362802655	1.8374493	1.3555255
1.200604131272596	2.240731	1.4969071
1.2181318543555117	2.329564	1.526291
1.235659605939232	2.2438536	1.4979498
1.253187386433982	3.7153072	1.9275132
1.270715196249994	6.189886	2.4879482
1.2882430357975057	11.934402	3.4546204
1.3057709054867608	17.036224	4.1274962
1.3232988057280106	22.778316	4.7726636
1.3408267369315112	27.682241	5.2613916
1.358354699507526	30.949917	5.563265
1.3758826938663256	35.01322	5.917197
1.3934107204181858	36.914494	6.07573
1.410938779573391	37.96981	6.161965
1.4284668717422309	38.77201	6.2267175
1.4459949973350033	38.163635	6.1776724
1.4635231567620117	38.1889	6.1797166
1.4810513504335687	37.31117	6.108287
1.4985795787599925	36.574177	6.047659
1.5161078421516088	36.29314	6.024379
1.5336361410187505	35.33755	5.9445395
1.5511644757717598	35.26241	5.938216
1.5686928468209842	35.903816	5.991979
1.58622125457678	36.282867	6.023526
1.6037496994495108	37.88129	6.154778
1.621278181849548	37.64096	6.135223
1.6388067021872719	38.247086	6.184423
1.6563352608730693	37.48941	6.1228595
1.673863858317336	36.38843	6.0322824
1.6913924949304753	35.85587	5.987977
1.7089211711228998	34.754086	5.8952594
1.7264498873050296	34.138016	5.842775
1.7439786438872935	33.5267	5.7902246
1.7615074412801288	32.406986	5.6927133
1.779036279893981	31.65922	5.6266527
1.796565160139305	30.617987	5.5333524
1.814094082426564	29.888739	5.4670596
1.8316230471662298	29.153215	5.3993716
1.849152054768784	28.250294	5.3151007
1.8666811056447168	27.959026	5.2876296
1.8842102002045273	27.298409	5.2247877
1.901739338858724	26.732224	5.1703215
1.9192685220178245	25.801207	5.0794888
1.9367977500923557	25.052174	5.0052147
1.9543270234928547	24.568624	4.9566746
1.971856342629867	24.055864	4.904678
1.9893857079139496	23.710623	4.8693557
2.006915119755667	23.45462	4.842997
2.0244445785655945	23.015234	4.7974195
2.0419740847543175	22.549978	4.7486815
2.0595036387324317	21.630568	4.6508675
2.0770332409105414	21.057083	4.5888
2.094562891699263	20.394615	4.51604
2.1120925915092217	19.930134	4.464318
2.129622340751053	19.888496	4.459652
2.1471521398354043	188.03757	13.712679
2.1646819891729323	444.47092	21.08248
2.182211889174303	440.43127	20.986454
2.1997418402501974	452.69342	21.276594
2.2172718428113023	432.68283	20.80103
2.234801897268317	320.74252	17.909286
2.2523320040319548	17.346884	4.164959
2.269862163512935	17.07385	4.1320515
2.287392376121992	16.728214	4.090014
2.304922642269869	16.484156	4.0600686
2.322452962367322	16.260162	4.032389
2.3399833368251164	15.88069	3.9850583
2.357513766054032	15.453515	3.9310958
2.3750442504648586	14.930387	3.8639858
2.3925747904683963	14.653628	3.8280058
2.410105386475459	14.529233	3.811723
2.4276360388968707	14.404021	3.795263
2.445166748143469	14.34659	3.7876892
2.4626975146261025	14.071225	3.7511632
2.4802283387556323	13.864115	3.7234547
2.4977592209429305	13.504467	3.6748424
2.5152901615988825	13.324854	3.6503224
2.5328211611343865	13.255062	3.6407502
2.5503522199603523	12.920107	3.594455
2.5678833384877024	12.516934	3.5379279
2.5854145171273712	12.216713	3.4952414
2.6029457562903064	11.967393	3.459392
2.620477056387469	11.976247	3.4606714
2.6380084178298326	11.914162	3.4516897
2.655539841028383	11.715029	3.4227223
2.673071326394119	11.482409	3.3885703
2.6906028743380523	11.199869	3.3466206
2.708134485271211	10.894827	3.3007312
2.7256661596046325	10.733549	3.2762096
2.743197897749369	10.530427	3.2450619
2.760729700116486	10.4494	3.2325532
2.778261567117063	10.284007	3.2068686
2.795793499162193	10.196961	3.193268
2.8133254966629817	10.155945	3.1868393
2.830857560030551	9.874904	3.142436
2.8483896896760337	9.712391	3.1164708
2.865921886010578	9.352627	3.0582066
2.883454149445347	9.232953	3.0385776
2.9009864803915177	9.1278105	3.0212266
2.91851887926028	9.178938	3.0296762
2.9360513464628384	9.1613035	3.0267646
2.953583882410413	9.098973	3.0164504
2.9711164875142373	9.032688	3.005443
2.9886491621855606	8.951557	2.9919152
3.0061819068356455	8.860142	2.976599
3.023714721875769	8.772086	2.9617708
3.041247607717225	8.553536	2.924643
3.0587805647713213	8.370358	2.8931572
3.0763135934493806	8.310966	2.8828745
3.0938466941627407	8.210562	2.8654077
3.1113798673227544	8.176814	2.8595128
3.1289131133407904	7.9532166	2.820145
3.1464464326282315	7.905189	2.811617
3.1639798255964786	7.883011	2.80767
3.1815132926569443	7.8406186	2.8001106
3.1990468342210603	7.694269	2.7738545
3.216580450700272	7.5009394	2.7387843
3.2341141425060416	7.4027233	2.7207947
3.251647910049847	7.3603444	2.7129955
3.2691817537431813	7.267577	2.6958444
3.286715673997555	7.198464	2.6829953
3.3042496712244938	7.118148	2.6679857
3.32178374583554	7.0028996	2.6462991
3.339317898242251	6.964568	2.639047
3.3568521288562034	6.898263	2.6264544
3.3743864380889876	6.791576	2.6060653
3.3919208263522127	6.6504817	2.578853
3.4094552940575023	6.5095515	2.5513823
3.4269898416164972	6.572905	2.5637677
3.444524469440858	6.6099243	2.5709772
3.4620591779422587	6.615208	2.5720048
3.479593967532391	6.5990686	2.5688653
3.4971288386229658	6.4841113	2.5463917
3.5146637916257086	6.387812	2.5274122
3.5321988269523628	6.4445863	2.538619
3.5497339450146903	6.3921666	2.5282733
3.5672691462244708	6.4781146	2.5452142
3.5848044309934988	6.4118037	2.532154
3.60233979973359	6.317989	2.513561
3.619875252856575	6.271395	2.5042753
3.6374107907743034	6.2920704	2.5084
3.6549464138986427	6.345722	2.5190716
3.6724821226414788	6.3785467	2.5255785
3.690017917414714	6.331602	2.5162675
3.7075537986302702	6.456566	2.5409772
3.7250897667000857	6.523108	2.5540376
3.7426258220361235	6.7191257	2.5921276
3.7601619650503553	7.0131187	2.6482294
3.777698196154779	7.511305	2.740676
3.7952345157614067	8.589219	2.930737
3.8127709242822716	9.359528	3.0593345
3.830307422129425	11.575205	3.4022353
3.847844009714936	30.37299	5.5111694
3.8653806874508954	97.92475	9.895694
3.882917455749409	97.18579	9.858285
3.900454315022606	96.98469	9.848081
3.917991265682631	41.350773	6.4304566
3.9355283081416506	11.021322	3.3198376
3.9530654428118495	8.818876	2.9696593
3.970602670105433	7.4606385	2.731417
3.9881399904346244	6.5028195	2.5500627
4.005677404211669	6.3420463	2.518342
4.023214911848827	6.3071914	2.5114121
4.0407525137583855	6.4129457	2.5323794
4.058290210352644	6.490155	2.5475783
4.075828002043927	6.4723577	2.5440829
4.0933658892445814	6.539652	2.5572743
4.110903872366966	6.492767	2.548091
4.128441951823468	6.3642907	2.5227547
4.145980128026488	6.2586727	2.501734
4.163518401388452	6.2001185	2.4900038
4.181056772321807	6.169778	2.4839036
4.1985952412390155	6.2036386	2.4907105
4.216133808552567	6.257518	2.5015032
4.233672474674966	6.330072	2.5159633
4.251211240018741	6.53922	2.55719
4.268750104996445	6.775364	2.602953
4.286289070020643	7.6350045	2.7631512
4.303828135503928	9.180367	3.0299122
4.3213673018589125	29.479572	5.429509
4.3389065694982305	90.59605	9.518195
4.356445938834537	165.87598	12.879285
4.3739854102805085	171.38066	13.091244
4.391524984248844	172.31624	13.126928
4.409064661152262	136.38571	11.67843
4.426604441403504	96.78265	9.837817
4.444144325415337	75.76482	8.704299
4.461684313600543	21.92926	4.682869
4.47922440637193	22.489933	4.7423553
4.496764604142329	20.831854	4.564193
4.5143049073245916	19.01504	4.360624
4.531845316331589	16.808681	4.099839
4.5493858315762195	13.828653	3.7186897
4.566926453471405	11.483508	3.3887324
4.584467182430081	9.360368	3.0594718
4.602008018865218	8.274048	2.8764644
4.619548963189798	7.523436	2.7428882
4.637090015816834	6.988038	2.6434898
4.654631177159353	6.7454033	2.5971913
4.672172447630417	6.531024	2.5555868
4.689713827643102	6.374028	2.5246837
4.7072553176105085	6.1010513	2.4700305
4.724796917945764	5.978452	2.4450874
4.742338629062015	5.8697996	2.422767
4.759880451372434	5.8142204	2.4112694
4.777422385290215	5.6889105	2.3851438
4.794964431228581	5.6775293	2.3827567
4.812506589600768	5.693857	2.3861804
4.830048860820047	5.78397	2.4049885
4.847591245299709	5.7489004	2.3976865
4.8651337434530655	5.7424855	2.3963485
4.882676355693457	5.713573	2.3903081
4.900219082434242	5.6974387	2.3869307
4.917761924088813	5.596691	2.3657327
4.935304881070575	5.5274773	2.3510587
4.952847953792969	5.4566483	2.335947
4.970391142669449	5.4733667	2.3395228
4.9879344481135055	5.484181	2.3418329
5.005477870538642	5.52224	2.3499448
5.023021410358394	5.494628	2.3440623
5.040565067986324	5.520834	2.3496456
5.05810884383601	5.423012	2.328736
5.075652738321066	5.455913	2.3357897
5.09319675185512	5.3636675	2.3159592
5.110740884851836	5.3305283	2.3087938
5.128285137724894	5.3783555	2.3191283
5.145829510888007	5.363642	2.3159537
5.163374004754908	5.399068	2.3235893
5.1809186197393595	5.3050475	2.303269
5.198463356255145	5.2896075	2.2999146
5.216008214716077	5.336743	2.3101392
5.233553195535998	5.3141212	2.3052378
5.251098299128764	5.331186	2.308936
5.268643525908272	5.2662683	2.294835
5.286188876288432	5.292213	2.300481
5.3037343506831895	5.353834	2.3138354
5.32127994950651	5.341108	2.3110838
5.3388256731723915	5.329729	2.3086207
5.356371522094851	5.234768	2.2879615
5.373917496687938	5.2719536	2.2960734
5.391463597365729	5.3173156	2.3059306
5.40900982454232	5.361435	2.3154774
5.426556178631843	5.3251953	2.3076384
5.444102660048449	5.2909594	2.3002086
5.4616492692063225	5.2391105	2.2889104
5.479196006519669	5.2916875	2.3003669
5.496742872402727	5.3060017	2.303476
5.514289867269756	5.3050017	2.303259
5.531836991535049	5.2185893	2.284423
5.549384245612924	5.139854	2.2671247
5.566931629917724	5.0707355	2.2518294
5.584479144863822	5.128045	2.2645187
5.6020267908656205	5.212932	2.2831845
5.619574568337545	5.211346	2.2828374
5.637122477694054	5.1994376	2.2802274
5.654670519349629	5.1489954	2.2691398
5.672218693718784	5.15975	2.2715082
5.689767001216059	5.222224	2.2852187
5.707315442256021	5.21476	2.2835848
5.724864017253266	5.2095942	2.2824535
5.7424127266224225	5.2264395	2.2861407
5.75996157077814	5.211502	2.2828715
5.777510550135105	5.192476	2.2787004
5.795059665108022	5.2329745	2.2875695
5.812608916111639	5.3177295	2.3060203
5.830158303560715	5.4106774	2.3260863
5.847707827870055	5.3596325	2.315088
5.86525748945448	5.267431	2.2950883
5.8828072887288485	5.3477583	2.3125222
5.900357226108044	5.4133005	2.3266501
5.917907302006979	5.5399137	2.353702
5.9354575168406	6.1929317	2.4885602
5.9530078710238765	6.8427167	2.6158588
5.970558364971812	7.43031	2.7258594
5.988108999099438	7.8419657	2.800351
6.005659773821818	8.427981	2.9030986
6.023210689554039	8.124453	2.8503425
6.040761746711227	8.579309	2.929046
6.058312945708531	7.804409	2.7936373
6.075864286961132	7.3306975	2.7075262
6.093415770884244	6.6354923	2.575945
6.1109673978931065	6.1888967	2.4877493
6.128519168402993	5.7177763	2.3911872
6.146071082829204	5.6047115	2.367427
6.163623141587075	5.4972887	2.3446298
6.181175345091969	5.4381685	2.331988
6.198727693759281	5.333426	2.309421
6.216280188004435	5.238544	2.2887866
6.233832828242885	5.189636	2.2780774
6.251385614890126	5.196837	2.2796571
6.268938548361669	5.201724	2.2807288
6.286491629073067	5.12288	2.263378
6.304044857439898	5.142766	2.2677667
6.321598233877777	5.057193	2.2488203
6.339151758802344	5.036127	2.2441318
6.356705432629277	5.0712457	2.2519426
6.37425925577428	5.0353494	2.2439585
6.391813228653095	4.9588	2.2268362
6.409367351681486	4.899919	2.213576
6.426921625275259	4.910645	2.2159975
6.44447604985025	4.9595904	2.2270138
6.46203062582232	5.067644	2.2511427
6.47958535360737	5.0635357	2.25023
6.497140233621328	5.0757084	2.2529333
6.514695266280161	5.0744987	2.2526648
6.532250451999859	5.1388927	2.2669127
6.549805791196454	5.1623845	2.272088
6.567361284286002	5.0783796	2.253526
6.584916931684597	5.039725	2.2449331
6.602472733808367	4.979698	2.2315238
6.6200286910734665	5.031641	2.2431319
6.637584803896092	5.125311	2.263915
6.655141072692462	5.1890373	2.2779458
6.672697497878842	5.22705	2.2862742
6.690254079871514	5.165612	2.2727983
6.707810819086808	5.086623	2.2553544
6.725367715941078	4.983087	2.2322829
6.742924770850719	4.9714284	2.22967
6.760481984232151	5.035421	2.2439744
6.778039356501836	4.98051	2.2317057
6.795596888076266	4.974098	2.2302687
6.813154579371963	4.928167	2.2199476
6.830712430805492	5.058702	2.2491558
6.84827044279344	5.12979	2.264904
6.865828615752445	5.0791874	2.2537053
6.883386950099159	5.1024575	2.258862
6.900945446250287	5.0847125	2.2549307
6.918504104622553	5.1786	2.2756536
6.936062925632727	5.1597013	2.2714975
6.953621909697607	5.0988317	2.2580593
6.971181057234028	5.0336356	2.2435765
6.988740368658859	5.094427	2.2570837
7.006299844389007	5.20136	2.2806492
7.023859484841407	5.205221	2.2814953
7.041419290433036	5.2378263	2.2886298
7.058979261580902	5.387312	2.3210583
7.0765393987020495	5.6932616	2.3860557
7.094099702213559	6.078102	2.4653807
7.111660172532549	6.415504	2.5328846
7.129220810076164	6.7353873	2.5952625
7.146781615261595	7.331829	2.707735
7.16434258850606	7.618519	2.7601664
7.181903730226821	8.073349	2.841364
7.1994650408411704	8.244484	2.871321
7.217026520766437	8.336508	2.8873012
7.234588170419983	8.552465	2.92446
7.252149990219215	8.466563	2.909736
7.269711980581568	8.274338	2.876515
7.2872741419245175	8.038714	2.8352628
7.304836474665574	7.6841903	2.7720373
7.322398979222286	7.491243	2.7370136
7.339961656012233	7.323325	2.7061644
7.357524505453039	7.076733	2.660213
7.375087527962357	6.844192	2.6161406
7.392650723957886	6.5511093	2.5595136
7.410214093857353	6.1558166	2.4810917
7.427777638078528	5.8643765	2.4216475
7.445341357039213	5.601031	2.3666496
7.4629052511572525	5.443894	2.3332155
7.480469320850524	5.313344	2.3050692
7.498033566536948	5.258599	2.2931635
7.5155979886344735	5.226955	2.2862535
7.5331625875610975	5.165704	2.2728186
7.550727363734844	5.160319	2.2716336
7.568292317573788	5.1402187	2.267205
7.585857449496025	5.1527505	2.269967
7.603422759919705	5.142183	2.2676382
7.620988249263007	5.1622367	2.2720556
7.638553917944147	5.215012	2.2836401
7.656119766381391	5.259943	2.2934566
7.673685794993023	5.34739	2.3124425
7.691252004197388	5.3698196	2.3172872
7.70881839441285	5.4309883	2.3304482
7.726384966057826	5.4331155	2.3309045
7.743951719550762	5.375964	2.3186126
7.761518655310149	5.315108	2.3054519
7.779085773754511	5.2654343	2.2946534
7.796653075302419	5.272678	2.2962313
7.814220560372475	5.3312054	2.3089404
7.831788229383323	5.3409095	2.3110409
7.8493560827536495	5.319304	2.3063617
7.866924120902174	5.340962	2.311052
7.884492344247663	5.312286	2.3048396
7.9020607532089135	5.3358593	2.309948
7.919629348204771	5.3004465	2.30227
7.937198129654115	5.273551	2.2964213
7.954767097975865	5.278488	2.297496
7.972336253588986	5.2927914	2.3006067
7.989905596912472	5.338346	2.310486
8.007475128365371	5.3921533	2.322101
8.025044848366756	5.5310845	2.3518257
8.042614757335754	5.6054792	2.3675892
8.060184855691523	5.640205	2.3749115
8.07775514385327	5.759213	2.399836
8.095325622240228	5.8444448	2.4175286
8.112896291271687	5.923802	2.4338863
8.130467151366968	5.996135	2.4487007
8.148038202945436	5.9712505	2.4436142
8.165609446426497	5.9558315	2.4404573
8.183180882229594	5.9867826	2.4467902
8.200752510774217	6.000358	2.4495628
8.218324332479893	6.03203	2.4560192
8.235896347766193	5.9782777	2.4450517
8.253468557052724	5.993475	2.4481575
8.27104096075914	5.9593134	2.4411705
8.288613559305137	6.0409603	2.4578366
8.306186353110448	6.1454644	2.4790046
8.32375934259485	6.180688	2.486099
8.341332528178162	6.1904807	2.4880676
8.358905910280246	6.2379303	2.4975848
8.376479489321003	6.26466	2.5029302
8.394053265720377	6.300096	2.5099993
8.411627239898356	6.2820673	2.5064054
8.42920141227497	6.2778735	2.5055685
8.44677578327029	6.3013997	2.510259
8.464350353304427	6.2905865	2.508104
8.48192512279754	6.2553577	2.5010712
8.499500092169827	6.184479	2.4868612
8.51707526184153	6.1689534	2.4837377
8.534650632232934	6.1675034	2.483446
8.552226203764365	6.180929	2.4861474
8.569801976856192	6.1692095	2.4837894
8.587377951928834	6.205643	2.491113
8.60495412940274	6.2224903	2.494492
8.622530509698416	6.248489	2.4996977
8.6401070932364	6.347566	2.5194376
8.657683880437283	6.481436	2.5458665
8.675260871721695	6.6766267	2.583917
8.692838067510303	6.864076	2.6199381
8.710415468223834	6.992065	2.6442513
8.727993074283043	7.104581	2.665442
8.745570886108737	7.1438737	2.6728027
8.763148904121765	7.258896	2.694234
8.78072712874302	7.263049	2.6950045
8.798305560393441	7.416601	2.7233438
8.815884199494006	7.5775585	2.7527366
8.833463046465745	7.796552	2.7922306
8.851042101729728	7.9534464	2.8201854
8.86862136570707	8.209266	2.8651817
8.886200838818924	8.393214	2.8971045
8.903780521486505	8.47061	2.9104311
8.921360414131055	8.607679	2.9338846
8.938940517173874	8.768825	2.96122
8.956520831036297	8.872784	2.9787219
8.97410135613971	9.155092	3.0257382
8.99168209290554	9.268731	3.044459
9.009263041755265	9.513338	3.08437
9.026844203110405	9.770796	3.1258273
9.044425577392525	10.057303	3.1713252
9.062007165023239	10.137952	3.184015
9.079588966424197	10.356613	3.2181692
9.097170982017108	10.375529	3.2211068
9.11475321222372	11.475254	3.3875144
9.132335657465825	12.38414	3.5191107
9.149918318165264	12.483783	3.5332396
9.167501194743924	13.202036	3.6334605
9.18508428762374	12.819746	3.5804672
9.202667597226693	12.88409	3.5894415
9.220251123974803	12.414868	3.523474
9.237834868290143	11.997517	3.4637432
9.255418830594836	11.798054	3.4348295
9.273003011311046	11.166713	3.3416631
9.290587410860985	11.03552	3.3219752
9.308172029666911	10.420108	3.2280192
9.32575686815113	10.2313595	3.1986496
9.343341926735997	9.040001	3.0066595
9.360927205843916	8.7266245	2.954086
9.378512705897327	8.416271	2.901081
9.396098427318728	8.152763	2.8553045
9.413684370530664	8.044767	2.83633
9.431270535955722	7.9833	2.8254735
9.448856924016539	7.890528	2.8090084
9.466443535135806	7.7450604	2.782995
9.484030369736251	7.7948003	2.7919168
9.501617428240658	7.8512483	2.802008
9.519204711071852	7.9308767	2.8161812
9.536792218652714	7.915972	2.8135338
9.55437995140617	7.839666	2.7999403
9.571967909755191	7.8388395	2.7997928
9.589556094122802	7.8992386	2.8105583
9.60714450493207	7.946623	2.8189754
9.624733142606116	7.9813943	2.8251362
9.642322007568108	8.020438	2.832038
9.659911100241267	8.034631	2.8345425
9.677500421048851	8.087199	2.8438
9.695089970414175	8.145347	2.8540053
9.712679748760609	8.167013	2.8577986
9.730269756511557	8.171508	2.858585
9.747859994090492	8.1356735	2.8523102
9.765450461920915	8.092619	2.8447528
9.78304116042639	8.166663	2.8577373
9.800632090030527	8.230512	2.868887
9.81822325115699	8.37273	2.893567
9.835814644229481	8.418121	2.9013999
9.853406269671762	8.43788	2.9048028
9.870998127907646	8.419658	2.9016647
9.888590219360985	8.394568	2.8973382
9.906182544455698	8.367211	2.8926132
9.923775103615734	8.412403	2.9004142
9.941367897265108	8.353586	2.8902571
9.958960925827878	8.390259	2.8965943
9.97655418972816	8.367412	2.8926477
9.994147689390106	8.39546	2.897492
10.011741425237934	8.384265	2.8955595
10.029335397695904	8.333517	2.8867831
10.04692960718833	8.358065	2.8910317
10.06452405413958	8.366344	2.8924634
10.082118738974064	8.413624	2.9006248
10.099713662116246	8.412403	2.9004142
10.117308823990651	8.44249	2.9055963
10.134904225021844	8.381773	2.8951292
10.152499865634445	8.349228	2.889503
10.170095746253125	8.263449	2.8746214
10.18769186730261	8.236497	2.8699298
10.205288229207675	8.188429	2.8615432
10.222884832393145	8.267531	2.8753316
10.2404816772839	8.247594	2.8718624
10.258078764304868	8.268135	2.8754365
10.275676093881035	8.173331	2.858904
10.293273666437438	8.153069	2.855358
10.310871482399158	8.198974	2.863385
10.32846954219134	8.170757	2.8584538
10.346067846239173	8.178216	2.8597581
10.363666394967908	8.209058	2.8651454
10.38126518880283	8.258561	2.8737712
10.398864228169298	8.25524	2.8731935
10.416463513492713	8.2863245	2.8785977
10.434063045198531	8.183603	2.8607
10.451662823712262	8.17634	2.85943
10.469262849459467	8.199926	2.8635514
10.486863122865758	8.196053	2.862875
10.504463644356806	8.245157	2.8714383
10.522064414358338	8.157684	2.8561661
10.539665433296118	8.0172	2.8314662
10.557266701595987	7.918217	2.8139327
10.574868219683818	7.7571187	2.7851605
10.592469987985552	7.708812	2.7764747
10.610072006927185	7.6116214	2.7589166
10.627674276934751	7.606031	2.7579033
10.64527679843435	7.4553795	2.730454
10.662879571852143	7.3285737	2.7071338
10.680482597614331	7.1807127	2.679685
10.698085876147173	7.134503	2.671049
10.715689407876988	7.053721	2.6558843
10.733293193230146	6.9381475	2.6340363
10.750897232633072	6.811997	2.6099803
10.76850152651225	6.6282873	2.574546
10.786106075294207	6.498457	2.5492072
10.803710879405534	6.421465	2.534061
10.821315939272877	6.448894	2.5394673
10.83892125532294	6.4572806	2.541118
10.856526827982472	6.419127	2.5335996
10.874132657678285	6.352353	2.5203874
10.891738744837243	6.3085747	2.5116875
10.909345089886271	6.2905593	2.5080988
10.926951693252343	6.2341065	2.4968193
10.944558555362494	6.182058	2.4863744
10.96216567664381	6.047576	2.459182
10.979773057523436	5.9649353	2.4423218
10.997380698428573	5.8865485	2.4262211
11.014988599786477	5.777357	2.4036133
11.032596762024461	5.655034	2.3780315
11.050205185569892	5.6245494	2.3716133
11.067813870850198	5.5963798	2.3656669
11.085422818292859	5.597741	2.3659546
11.10303202832541	5.507843	2.3468795
11.120641501375454	5.448586	2.3342206
11.138251237870636	5.4025283	2.324334
11.155861238238671	5.378338	2.3191245
11.173471502907317	5.3247414	2.3075402
11.191082032304402	5.2164493	2.2839549
11.208692826857805	5.1029377	2.2589684
11.226303886995465	5.0201855	2.240577
11.243915213145371	4.9987264	2.235783
11.261526805735578	4.9929967	2.2345014
11.279138665194196	4.9475327	2.224305
11.296750791949393	4.859702	2.2044733
11.314363186429393	4.7965603	2.1901052
11.331975849062479	4.670482	2.16113
11.34958878027699	4.6167026	2.1486514
11.36720198050133	4.602928	2.1454437
11.384815450163948	4.617587	2.148857
11.402429189693366	4.658132	2.1582706
11.420043199518153	4.571017	2.1379936
11.437657480066942	63.507114	7.9691353
11.455272031768422	85.159195	9.228174
11.472886855051353	107.54097	10.370196
11.490501950344528	99.11841	9.955823
11.508117318076819	84.49543	9.19214
11.52573295867715	45.885284	6.7738676
11.543348872574514	4.201013	2.0496373
11.560965060197946	4.178187	2.0440614
11.57858152197655	4.1477985	2.0366144
11.59619825833949	4.133381	2.0330718
11.613815269715985	4.0774965	2.0192811
11.631432556535323	38.540703	6.208116
11.649050119226837	83.05672	9.113545
11.666667958219929	93.46622	9.667792
11.68428607394406	107.745865	10.380071
11.701904466828756	82.60853	9.088923
11.719523137303586	65.46189	8.090853
11.737142085798196	4.6956716	2.1669497
11.754761312742286	3.8097844	1.9518669
11.772380818565619	3.7465763	1.9356074
11.790000603698015	3.6782134	1.9178668
11.80762066856935	3.61327	1.9008603
11.825241013609572	3.622978	1.9034122
11.842861639248683	3.5765274	1.8911709
11.860482545916748	3.549526	1.8840185
11.878103734043883	3.507072	1.8727179
11.895725204060282	3.4616637	1.8605547
11.91334695639619	3.4058597	1.8454971
11.930968991481919	3.326109	1.8237623
11.948591309747824	3.3080997	1.8188182
11.966213911624347	3.3122416	1.8199564
11.98383679754198	3.315901	1.8209616
12.001459967931268	3.3193676	1.8219132
12.019083423222835	3.2734208	1.8092598
12.036707163847352	3.228381	1.7967696
12.05433119023556	3.2096221	1.7915418
12.071955502818259	3.1895034	1.7859181
12.089580102026313	3.179882	1.7832224
12.107204988290643	3.1520517	1.7754018
12.12483016204224	3.1286733	1.7688056
12.142455623712152	3.1421208	1.7726028
12.16008137373149	3.1681454	1.7799284
12.177707412531431	3.1489794	1.7745364
12.19533374054321	3.0948033	1.7592053
12.212960358198126	3.0182147	1.737301
12.230587265927545	2.9813716	1.7266649
12.248214464162889	2.9846509	1.7276142
12.265841953335649	2.9766397	1.7252941
12.283469733877375	2.9890842	1.7288969
12.301097806219685	2.9841006	1.7274549
12.31872617079425	2.9311142	1.7120497
12.336354828032825	2.9500525	1.7175717
12.353983778367205	2.944698	1.7160122
12.371613022229262	2.9431696	1.7155669
12.389242560050928	2.9706228	1.7235495
12.406872392264201	2.949607	1.7174419
12.424502519301143	2.9196193	1.7086893
12.442132941593874	2.8937428	1.7011005
12.459763659574586	2.8565774	1.6901412
12.477394673675532	2.8753405	1.6956829
12.49502598432903	2.8535092	1.6892333
12.51265759196746	2.7937045	1.6714379
12.530289497023267	2.746254	1.6571826
12.547921699928967	2.7564747	1.6602634
12.565554201117134	2.767918	1.6637062
12.583187001020404	2.803487	1.6743617
12.600820100071486	2.8549697	1.6896656
12.618453498703152	2.889202	1.6997653
12.636087197348235	2.875892	1.6958455
12.65372119643964	2.8247256	1.680692
12.671355496410326	2.8139825	1.677493
12.68899009769333	2.895695	1.7016742
12.706625000721749	2.9409642	1.714924
12.724260205928752	3.000466	1.7321854
12.741895713747551	3.0197754	1.73775
12.759531524611454	3.0547383	1.7477809
12.777167638953818	3.0281518	1.7401586
12.794804057208072	3.0332608	1.7416259
12.812440779807702	3.0342097	1.7418983
12.830077807186271	3.1492143	1.7746025
12.847715139777405	3.1885796	1.7856594
12.865352778014795	3.4377186	1.8541086
12.882990722332197	3.625239	1.904006
12.90062897316344	3.6833608	1.9192084
12.918267530942412	3.7314117	1.9316863
12.935906396103071	3.6115732	1.900414
12.953545569079449	3.794337	1.9479058
12.971185050305628	3.6595223	1.9129878
12.988824840215775	3.6736536	1.9166777
13.006464939244115	3.6630497	1.9139096
13.024105347824943	3.4623582	1.8607413
13.041746066392617	3.5504475	1.8842632
13.05938709538157	3.376788	1.8376038
13.077028435226296	3.429471	1.851883
13.094670086361363	3.3218417	1.822592
13.112312049221401	3.227619	1.7965575
13.129954324241112	3.1265202	1.7681968
13.147596911855258	2.9351175	1.7132185
13.165239812498685	2.910346	1.7059736
13.182883026606293	2.8008382	1.6735705
13.200526554613058	2.7515635	1.6587838
13.218170396954017	2.7536116	1.6594009
13.235814554064284	2.7648475	1.662783
13.253459026379034	2.7678957	1.6636994
13.271103814333523	2.7442453	1.6565764
13.288748918363058	2.7325342	1.6530379
13.306394338903031	2.718616	1.6488227
13.32404007638889	2.694719	1.64156
13.341686131256164	2.725764	1.6509888
13.359332503940449	2.7285318	1.6518269
13.376979194877402	2.713569	1.6472914
13.394626204502751	2.7432	1.6562608
13.412273533252307	2.7380302	1.6546994
13.429921181561937	2.751422	1.6587411
13.447569149867581	2.7541223	1.6595548
13.465217438605247	2.765965	1.6631191
13.482866048211022	2.7390664	1.6550125
13.500514979121052	2.721652	1.649743
13.518164231771568	2.660337	1.6310539
13.535813806598844	2.644666	1.6262429
13.553463704039254	2.637297	1.6239756
13.571113924529229	2.673279	1.6350166
13.588764468505275	2.6854508	1.6387345
13.606415336403956	2.7176719	1.6485363
13.624066528661917	2.7207282	1.6494629
13.641718045715882	2.757587	1.6605984
13.659369888002635	2.8170078	1.6783944
13.67702205595903	2.9298468	1.7116795
13.694674550021993	3.048637	1.7460346
13.712327370628532	3.119488	1.7662072
13.729980518215713	3.172206	1.7810688
13.747633993220681	3.2265258	1.7962532
13.765287796080647	3.2597919	1.8054894
13.7829419272329	3.2930887	1.8146869
13.800596387114801	3.2700477	1.8083273
13.818251176163775	3.3076634	1.8186983
13.835906294817324	3.3944004	1.8423898
13.853561743513023	3.497179	1.8700746
13.871217522688525	3.5440946	1.8825766
13.888873632781538	3.5233605	1.8770616
13.906530074229858	3.5086577	1.8731412
13.92418684747135	3.5238824	1.8772007
13.941843952943948	3.5537298	1.8851339
13.959501391085665	3.573833	1.8904585
13.977159162334578	3.4794157	1.8653191
13.994817267128846	3.3573282	1.8323014
14.012475705906693	3.232709	1.7979735
14.030134479106424	3.1544077	1.7760652
14.047793587166414	3.1205332	1.7665031
14.065453030525108	3.0662062	1.7510586
14.083112809621026	2.9839127	1.7274005
14.100772924892766	2.8850694	1.6985492
14.118433376778997	2.8639963	1.6923345
14.136094165718458	2.8184812	1.6788332
14.153755292149969	2.7831416	1.668275
14.171416756512416	2.6761246	1.6358864
14.189078559244768	2.618592	1.6182064
14.20674070078606	2.618203	1.6180862
14.224403181575408	2.6038299	1.6136388
14.242066002051999	2.5626612	1.6008314
14.259729162655093	2.497701	1.5804117
14.277392663824022	2.4677813	1.5709174
14.295056505998208	2.4584904	1.5679574
14.312720689617128	2.4748964	1.5731803
14.330385215120348	2.4497342	1.5651627
14.348050082947497	2.4570339	1.5674928
14.3657152935383	2.4307957	1.5591009
14.383380847332528	2.4289794	1.5585183
14.401046744770051	2.4331162	1.559845
14.418712986290798	2.3845253	1.5441908
14.436379572334793	2.3530362	1.5339609
14.454046503342123	2.3491287	1.5326867
14.471713779752946	2.3804545	1.5428722
14.489381402007504	2.3925407	1.546784
14.507049370546113	2.3951144	1.5476158
14.524717685809168	2.3727381	1.5403695
14.542386348237134	2.3771694	1.5418072
14.560055358270553	2.3827279	1.5436087
14.577724716350051	2.443912	1.5633017
14.595394422916325	2.4751496	1.5732608
14.61306447841015	2.496836	1.580138
14.63073488327237	2.476873	1.5738084
14.648405637943917	2.4516454	1.5657731
14.6660767428658	2.4194155	1.555447
14.683748198479094	2.4574487	1.5676252
14.701420005224954	2.5274715	1.5898024
14.719092163544628	2.5988293	1.6120884
14.73676467387942	2.6243758	1.6199925
14.754437536670727	2.6156285	1.6172905
14.772110752360014	2.6414716	1.6252605
14.78978432138882	2.6565452	1.6298912
14.807458244198777	2.690898	1.6403956
14.82513252123159	2.6636019	1.6320544
14.842807152929028	2.6673453	1.6332009
14.860482139732962	2.6698668	1.6339728
14.87815748208531	2.678869	1.6367251
14.8958331804281	2.6936946	1.6412479
14.91350923520342	2.6513193	1.6282872
14.931185646853438	2.660632	1.6311444
14.948862415820408	2.6201415	1.6186851
14.966539542546656	2.6696584	1.633909
14.98421702747459	2.660185	1.6310074
15.001894871046696	2.6842222	1.6383597
15.019573073705542	2.6563957	1.6298453
15.037251635893766	2.6401954	1.6248678
15.054930558054092	2.7040448	1.644398
15.072609840629323	2.7398136	1.6552383
15.090289484062351	2.8924885	1.7007318
15.107969488796124	3.1220064	1.7669201
15.125649855273691	3.4883924	1.8677238
15.14333058393817	3.9626026	1.9906287
15.161011675232768	4.9047503	2.214667
15.17869312960076	6.327332	2.5154188
15.196374947485506	8.293405	2.8798273
15.214057129330447	11.472184	3.3870614
15.231739675579114	16.310282	4.038599
15.249422586675102	21.48654	4.6353574
15.267105863062092	24.58081	4.957904
15.284789505183847	24.795837	4.979542
15.302473513484218	22.621395	4.7561955
15.320157888407127	19.07063	4.366993
15.337842630396578	14.772921	3.8435557
15.355527739896656	11.419349	3.3792527
15.37321321735153	8.758332	2.9594479
15.39089906320545	6.372994	2.524479
15.408585277902748	4.7829194	2.1869886
15.42627186188783	3.7330656	1.9321142
15.443958815605198	3.230065	1.7972382
15.461646139499424	2.9066472	1.7048892
15.479333834015168	2.7457037	1.6570165
15.497021899597165	2.6796913	1.6369762
15.514710336690234	2.6333382	1.6227564
15.53239914573928	2.6055708	1.6141781
15.550088327189297	2.5549128	1.5984094
15.567777881485336	2.5217164	1.5879912
15.58546780907256	2.475551	1.5733883
15.6031581103962	2.4627104	1.5693026
15.620848785901568	2.457126	1.5675222
15.638539836034063	2.4293606	1.5586406
15.656231261239173	2.4111571	1.5527902
15.673923061962451	2.4191062	1.5553477
15.691615238649552	2.4409835	1.5623647
15.709307791746202	2.4565825	1.5673488
15.727000721698221	2.4279404	1.558185
15.744694028951498	2.3870816	1.5450183
15.76238771395202	2.3607213	1.5364639
15.780081777145844	2.3746314	1.5409839
15.797776218979125	2.4219792	1.556271
15.815471039898094	2.4437878	1.5632619
15.833166240349064	2.4118235	1.5530046
15.850861820778437	2.3822782	1.5434631
15.868557781632699	2.3841803	1.5440791
15.886254123358412	2.3662906	1.5382752
15.903950846402232	2.3647828	1.537785
15.921647951210897	2.3575814	1.5354418
15.939345438231225	2.363093	1.5372355
15.957043307910133	2.3517804	1.5335516
15.974741560694602	2.346669	1.5318841
15.992440197031714	2.3562894	1.535021
16.01013921736862	2.3838139	1.5439605
16.02783862215259	2.4071877	1.5515114
16.045538411830933	2.4446294	1.563531
16.06323858685107	2.435476	1.5606012
16.080939147660512	2.4242747	1.5570083
16.09864009470684	2.4007676	1.5494411
16.11634142843774	2.4087303	1.5520085
16.134043149300954	2.4446306	1.5635315
16.15174525774433	2.45111	1.5656021
16.169447754215817	2.4453382	1.5637578
16.18715063916342	2.439659	1.5619408
16.204853913035244	2.4802144	1.5748696
16.222557576279478	2.4960232	1.5798807
16.240261629344403	22.474543	4.740732
16.257966072678386	42.989162	6.556612
16.275670906729868	38.07963	6.17087
16.293376131947387	2.5336716	1.5917511
16.31108174877957	2.5536647	1.598019
16.328787757675133	2.5620697	1.6006466
16.34649415908287	2.555224	1.5985068
16.364200953451657	2.5898397	1.6092979
16.38190814123048	2.626951	1.6207871
16.39961572286839	2.644524	1.6261992
16.41732369881455	2.7387574	1.6549191
16.43503206951817	2.8013847	1.6737337
16.45274083542859	2.8579807	1.6905563
16.47044999699522	2.8524213	1.6889113
16.488159554667558	2.8479674	1.6875921
16.505869508895184	2.8847594	1.698458
16.523579860127786	2.9260023	1.7105561
16.541290608815117	3.0253453	1.739352
16.559001755407035	3.0376694	1.7428911
16.57671330035348	3.053229	1.7473491
16.59442524410448	3.0763795	1.7539611
16.61213758711015	3.1733446	1.7813884
16.629850329820705	3.234672	1.7985194
16.647563472686436	3.2789023	1.810774
16.665277016157724	3.3403058	1.8276503
16.682990960685053	3.427493	1.851349
16.70070530671898	3.4945154	1.8693624
16.718420054710155	3.5215175	1.8765707
16.736135205109335	3.571056	1.8897238
16.753850758367335	3.6222005	1.9032079
16.771566714935087	3.6510944	1.9107838
16.789283075263597	3.671307	1.9160656
16.80699983980398	3.704931	1.9248197
16.82471700900741	3.7871852	1.9460691
16.84243458332518	3.9245048	1.9810363
16.860152563208665	3.9831583	1.9957851
16.87787094910932	4.0337157	2.0084112
16.89558974147871	4.074954	2.0186515
16.913308940768466	4.1887546	2.0466447
16.931028547430333	4.302839	2.0743284
16.94874856191613	4.346251	2.0847664
16.966468984677785	4.380801	2.0930364
16.98418981616729	4.3495145	2.0855489
17.00191105683676	4.392999	2.0959482
17.019632707138374	4.5003877	2.1214118
17.03735476752442	4.607269	2.146455
17.05507723844728	4.6080136	2.1466284
17.072800120359403	4.5657496	2.1367614
17.090523413713353	4.6341586	2.1527095
17.108247118961785	4.6640882	2.15965
17.125971236557437	4.702117	2.1684365
17.143695766953133	4.7322335	2.1753697
17.161420710601806	4.7524595	2.1800137
17.179146067956477	4.6879106	2.1651583
17.19687183947025	4.7098913	2.1702285
17.21459802559634	4.7210364	2.1727946
17.232324626788028	4.70678	2.1695116
17.25005164349871	4.6519523	2.1568384
17.267779076181863	4.6387773	2.1537821
17.285506925291074	4.599034	2.1445358
17.30323519127999	4.5692024	2.1375692
17.320963874602384	4.540473	2.1308386
17.33869297571211	4.553075	2.1337936
17.356422495063114	4.582296	2.1406298
17.37415243310944	4.5949287	2.1435785
17.391882790305218	4.5806727	2.1402507
17.40961356710468	4.5541973	2.1340566
17.42734476396215	4.5215993	2.1264052
17.445076381332044	4.4975457	2.1207418
17.462808419668868	4.557605	2.1348548
17.48054087942723	4.711535	2.170607
17.498273761061835	5.0255656	2.2417774
17.51600706502747	5.497936	2.3447678
17.533740791779024	6.216883	2.493368
17.551474941771485	7.673707	2.7701457
17.56920951545993	8.827055	2.971036
17.586944513299528	11.040056	3.322658
17.60467993574556	12.711328	3.565295
17.622415783253373	14.556546	3.8153043
17.64015205627843	16.097599	4.0121813
17.657888755276293	17.2291	4.150795
17.675625880702604	17.621304	4.1977735
17.69336343301311	17.30317	4.159708
17.71110141266366	16.489092	4.060676
17.728839820110178	15.524834	3.9401565
17.746578655808705	14.637015	3.8258352
17.764317920215372	13.13791	3.6246254
17.7820576137864	11.498918	3.3910053
17.79979773697811	9.38242	3.0630736
17.81753829024692	7.465108	2.732235
17.835279274049356	5.8160067	2.41164
17.85302068884201	4.8410745	2.2002442
17.870762535081607	4.245321	2.0604177
17.888504813224934	3.934278	1.9835014
17.90624752372891	3.682936	1.9190977
17.923990667050536	3.5081613	1.8730086
17.941734243646895	3.4724557	1.8634527
17.959478253975185	3.5216951	1.876618
17.9772226984927	3.4982145	1.8703514
17.994967577656833	3.395628	1.842723
18.01271289192506	3.3441253	1.8286949
18.030458641754965	3.344338	1.8287531
18.04820482760425	3.3540227	1.8313991
18.06595144993067	3.3353431	1.8262922
18.083698509192125	3.3053882	1.8180727
18.101446005846576	3.3280866	1.8243045
18.119193940352105	3.3130696	1.820184
18.136942313166887	3.2660582	1.8072239
18.1546911247492	3.2307482	1.7974283
18.1724403755574	3.2111495	1.791968
18.19019006604997	3.1640413	1.7787752
18.207940196685467	3.1576753	1.7769849
18.225690767922575	3.1710796	1.7807525
18.243441780220046	3.1963983	1.7878474
18.261193234036764	3.1505947	1.7749915
18.278945129831676	3.0871682	1.757034
18.29669746806386	3.0538692	1.7475324
18.314450249192483	3.0700684	1.752161
18.3322034736768	3.0766115	1.7540272
18.349957141976184	3.1060815	1.7624079
18.3677112545501	3.074571	1.7534454
18.385465811858108	3.0703065	1.752229
18.403220814359884	3.0552952	1.7479403
18.420976262515172	3.092743	1.7586195
18.43873215678387	3.0973191	1.7599202
18.456488497625923	3.123019	1.7672065
18.474245285501407	3.2006874	1.7890465
18.492002520870486	3.3035018	1.8175538
18.50976020419343	3.3986714	1.8435485
18.527518335930615	3.7227008	1.9294301
18.545276916542516	4.2941437	2.0722315
18.563035946489688	4.463018	2.1125855
18.580795426232832	4.8590336	2.2043216
18.598555356232698	4.7082376	2.1698475
18.616315736950185	5.0425873	2.2455707
18.63407656884626	4.6991262	2.1677468
18.65183785238201	4.9431095	2.2233105
18.669599588018617	4.6794553	2.163205
18.68736177621737	4.626442	2.1509166
18.705124417439652	4.6310997	2.151999
18.72288751214696	4.4778085	2.1160834
18.740651060800886	4.641502	2.1544144
18.758415063863115	4.3052406	2.0749073
18.77617952179546	4.524727	2.1271405
18.793944435059814	4.30438	2.0746999
18.811709804118184	4.322927	2.079165
18.829475629432675	4.2370844	2.058418
18.8472419114655	4.041887	2.0104444
18.86500865067897	4.1128006	2.0280042
18.88277584753551	3.786826	1.9459769
18.90054350249763	3.8251703	1.9558042
18.918311616027957	3.5243037	1.8773129
18.936080188589226	3.4119422	1.8471444
18.953849220644265	3.1003444	1.7607795
18.971618712656007	2.8865864	1.6989957
18.9893886650875	2.824644	1.6806678
19.007159078401887	7.9815693	2.8251672
19.024929953062408	32.869476	5.7331905
19.042701289532435	32.827625	5.72954
19.060473088275405	25.440441	5.043852
19.07824534975489	2.765911	1.6631029
19.096018074434568	2.739053	1.6550084
19.113791262778197	2.7244697	1.6505967
19.13156491524966	2.6409507	1.6251003
19.149339032312945	2.614278	1.6168729
19.167113614432136	2.5373487	1.5929058
19.184888662071433	2.5247858	1.5889574
19.202664175695123	2.492547	1.5787803
19.220440155767623	2.5337172	1.5917654
19.238216602753447	2.543373	1.5947956
19.2559935171172	2.5586066	1.5995646
19.27377089932361	2.5803163	1.6063364
19.291548749837514	2.5940344	1.6106006
19.309327069123835	2.5801709	1.606291
19.32710585764763	2.5066874	1.5832522
19.344885115874032	2.4738734	1.5728551
19.362664844268313	2.4932623	1.5790068
19.380445043295822	2.5145595	1.5857363
19.39822571342203	2.4721184	1.5722972
19.41600685511252	2.479235	1.5745586
19.43378846883297	2.476763	1.5737735
19.451570555049173	2.504551	1.5825773
19.469353114227037	2.4728644	1.5725344
19.48713614683254	2.478762	1.5744084
19.50491965333182	2.4921248	1.5786465
19.52270363419109	2.4819548	1.575422
19.540488089876686	2.505878	1.5829965
19.55827302085503	2.510181	1.5843551
19.576058427592674	2.4862862	1.5767962
19.593844310556282	2.462439	1.569216
19.611630670212598	2.4454584	1.5637962
19.629417507028506	2.4584131	1.5679327
19.64720482147098	2.4616523	1.5689653
19.6649926140071	2.4731474	1.5726243
19.682780885104084	2.4908342	1.5782377
19.70056963522921	2.5164974	1.5863472
19.718358864849908	2.5172994	1.5866
19.7361485744337	2.5194168	1.587267
19.753938764448215	2.5256155	1.5892185
19.771729435361202	2.5318205	1.5911696
19.789520587640506	2.491231	1.5783634
19.807312221754092	2.484081	1.5760968
19.825104338170043	2.4741418	1.5729405
19.842896937356517	2.5447059	1.5952134
19.860690019781824	2.5817416	1.6067799
19.87848358591436	2.5613897	1.6004342
19.896277636222635	2.545133	1.5953473
19.914072171175278	2.561662	1.6005193
19.931867191241015	2.5654397	1.601699
19.94966269688869	2.5166862	1.5864067
19.967458688587264	2.439335	1.5618371
19.985255166805807	2.4096775	1.5523136
20.00305213201348	2.399766	1.5491178
20.020849584679578	2.3965664	1.5480847
20.038647525273507	2.4065125	1.5512938
20.05644595426477	2.462816	1.5693362
20.07424487212299	2.4970891	1.5802181
20.092044279317903	2.4989827	1.5808171
20.109844176319353	2.4841893	1.5761311
20.127644563597304	2.4525545	1.5660634
20.145445441621817	2.434823	1.5603919
20.16324681086307	2.4295888	1.5587138
20.181048671791373	2.449224	1.5649997
20.198851024877122	2.4478102	1.5645479
20.216653870590836	2.410558	1.5525972
20.234457209403146	2.3926494	1.5468191
20.252261041784802	2.3824136	1.543507
20.270065368206662	2.3773115	1.5418533
20.287870189139685	2.3641062	1.537565
20.305675505054968	2.3688576	1.5391093
20.323481316423702	2.3792822	1.5424923
20.341287623717207	2.3477166	1.532226
20.359094427406884	2.3243816	1.5245923
20.376901727964288	2.3158948	1.5218065
20.39470952586107	2.368928	1.5391322
20.41251782156899	2.3805678	1.5429089
20.430326615559935	2.4040785	1.5505091
20.448135908305886	2.40421	1.5505515
20.465945700278965	2.4073424	1.5515612
20.483755991951384	2.370427	1.5396191
20.50156678379548	2.340893	1.5299977
20.519378076283708	2.3223112	1.5239131
20.537189869888635	2.3167284	1.5220803
20.55500216508294	2.3218973	1.5237772
20.572814962339415	2.3197243	1.5230641
20.59062826213098	2.3134308	1.5209967
20.60844206493066	2.3200707	1.5231779
20.626256371211593	2.3103507	1.5199838
20.644071181447032	2.3155825	1.5217038
20.66188649611036	2.3199484	1.5231377
20.67970231567506	2.3029423	1.5175449
20.697518640614742	2.3329027	1.5273843
20.715335471403122	2.355006	1.5346029
20.73315280851404	2.3825796	1.5435606
20.750970652421447	2.3425322	1.5305333
20.768789003599412	2.3018796	1.5171946
20.786607862522136	2.2944963	1.5147595
20.8044272296639	2.2959905	1.5152526
20.82224710549913	2.3010533	1.5169224
20.84006749050237	2.2822602	1.5107151
20.857888385148268	3.8363223	1.9586532
20.8757097899116	45.921272	6.7765236
20.893531705267254	64.78573	8.048958
20.911354131690224	83.83036	9.155892
20.92917706965566	69.09769	8.312502
20.94700051963877	50.161755	7.082496
20.96482448211493	29.440624	5.4259214
20.982648957559622	4.1752687	2.0433474
21.00047394644843	2.273818	1.5079185
21.01829944925707	2.2434602	1.4978185
21.036125466461375	2.2170854	1.488988
21.053951998537297	2.2090743	1.4862955
21.071779045960906	2.198153	1.4826169
21.089606609208378	2.2153172	1.4883941
21.10743468875603	2.2212088	1.4903721
21.12526328508028	2.2266848	1.492208
21.143092398657675	2.2328649	1.4942774
21.16092202996488	2.2405622	1.4968507
21.17875217947867	2.2146454	1.4881685
21.19658284767596	2.2228122	1.4909098
21.21441403503377	2.216045	1.4886386
21.232245742029225	2.2021453	1.4839627
21.2500779691396	2.206147	1.4853104
21.26791071684227	2.1898122	1.4798014
21.28574398561475	2.138165	1.4622465
21.30357777593465	2.141497	1.4633855
21.321412088279704	2.154377	1.4677796
21.339246923127792	2.1570473	1.468689
21.357082280956888	2.1273143	1.4585316
21.3749181622451	2.1431801	1.4639604
21.392754567470647	2.1484582	1.465762
21.41059149711187	2.1355133	1.4613396
21.42842895164726	2.126402	1.4582187
21.446266931555378	2.126697	1.4583199
21.464105437314945	2.1405098	1.4630481
21.481944469404798	2.1300917	1.4594834
21.49978402830388	2.1438224	1.4641798
21.51762411449127	2.1426058	1.4637643
21.53546472844617	2.1375766	1.4620453
21.553305870647876	2.111317	1.4530371
21.571147541575865	2.10742	1.4516956
21.58898974170967	2.0959783	1.4477494
21.60683247152899	2.075135	1.4405329
21.62467573151363	2.0531628	1.4328861
21.642519522143523	2.065804	1.4372905
21.660363843898722	2.081932	1.4428902
21.6782086972594	2.0853693	1.4440808
21.696054082705864	2.1023455	1.4499468
21.713900000718535	2.1137571	1.4538766
21.73174645177795	2.1087122	1.4521406
21.749593436364794	2.0951295	1.4474562
21.767440954959845	2.0502825	1.4318807
21.785289008044032	2.0254848	1.4231952
21.803137596098388	2.014772	1.4194267
21.820986719604086	2.0119693	1.418439
21.838836379042412	2.0348895	1.4264956
21.85668657489478	2.0566227	1.434093
21.87453730764273	2.08806	1.4450121
21.892388577767914	2.075355	1.4406092
21.91024038575213	2.0305154	1.4249616
21.928092732077285	2.0092478	1.4174794
21.945945617225426	1.9962647	1.4128923
21.963799041678694	1.9936436	1.4119644
21.981653005919398	31.310297	5.5955606
21.999507510429943	78.1245	8.838806
22.01736255569286	73.084526	8.548949
22.035218142190818	4.222123	2.0547805
22.05307427040661	2.0471456	1.430785
22.07093094082315	2.0169775	1.4202033
22.088788153923474	1.9699917	1.403564
22.106645910190746	1.9709827	1.403917
22.12450421010827	2.0060065	1.4163356
22.142363054159464	1.9884726	1.4101322
22.16022244282787	2.003562	1.4154724
22.178082376597164	2.0162668	1.4199531
22.195942855951145	2.0343752	1.4263153
22.213803881373742	2.015745	1.4197693
22.231665453349002	1.9789705	1.4067589
22.24952757236111	1.9810292	1.4074904
22.26739023889438	2.003218	1.4153508
22.28525345343323	2.0099623	1.4177314
22.30311721646225	1.9788871	1.4067292
22.320981528466113	1.9673235	1.4026132
22.33884638992964	2.0027716	1.4151931
22.356711801337788	2.0397534	1.4281994
22.37457776317561	2.0070486	1.4167035
22.392444275928337	1.9720807	1.404308
22.410311340081282	1.9500942	1.3964578
22.428178956119904	1.9334595	1.390489
22.446047124529805	1.9257873	1.3877274
22.46391584579669	1.9390109	1.3924837
22.481785120406414	1.9494331	1.396221
22.49965494884496	1.990695	1.4109199
22.51752533159841	1.9541302	1.397902
22.53539626915302	1.936125	1.3914471
22.553267761995137	1.9432398	1.3940014
22.571139810611264	1.9429672	1.3939036
22.589012415488025	1.9334646	1.3904908
22.60688557711216	1.944721	1.3945326
22.624759295970566	1.9541084	1.3978943
22.642633572550263	1.9470323	1.395361
22.660508407338362	1.9057811	1.3805003
22.67838380082217	1.909188	1.3817337
22.696259753489077	1.9416555	1.393433
22.714136265826614	1.9613646	1.4004873
22.73201333832246	1.9453508	1.3947583
22.74989097146439	1.9151311	1.3838826
22.76776916574035	1.9237503	1.3869933
22.785647921638393	1.9658997	1.4021055
22.803527239646712	1.9820131	1.4078399
22.82140712025363	1.9745232	1.4051772
22.839287563947593	1.9518741	1.3970948
22.85716857121719	1.9498019	1.3963531
22.875050142551135	1.955006	1.3982153
22.892932278438277	1.938708	1.3923749
22.910814979367604	1.9195129	1.3854649
22.928698245828222	1.9246463	1.3873162
22.946582078309387	1.9220375	1.3863757
22.96446647730047	1.8871878	1.3737496
22.98235144329098	1.8438239	1.3578748
23.000236976770562	1.8658708	1.3659688
23.018123078229	1.8747394	1.3692112
23.03600974815619	1.8544858	1.3617951
23.053896987042194	1.8716006	1.3680645
23.071784795377173	1.8850796	1.372982
23.08967317365145	1.9134779	1.3832852
23.10756212235546	1.9072516	1.3810328
23.125451641979787	1.9150546	1.383855
23.143341733015134	1.893135	1.3759124
23.161232395952357	1.9110401	1.3824037
23.179123631282426	1.9368417	1.3917046
23.197015439496468	1.9448631	1.3945835
23.214907821085717	1.9450765	1.39466
23.23280077654157	1.9543995	1.3979983
23.250694306355538	1.9854175	1.4090484
23.268588411019277	1.9706912	1.4038131
23.28648309102458	1.945993	1.3949885
23.304378346863356	1.959859	1.3999497
23.322274179027676	1.980483	1.4072964
23.340170588009723	1.9936124	1.4119534
23.358067574301852	1.9976089	1.413368
23.37596513839651	1.9799321	1.4071006
23.39386328078629	1.9296267	1.3891101
23.411762001963947	1.8931674	1.3759242
23.429661302422353	1.9159269	1.3841702
23.4475611826545	1.9417839	1.3934791
23.46546164315356	1.9321991	1.3900356
23.48336268441279	1.929975	1.3892354
23.501264306925638	1.9178913	1.3848795
23.51916651118564	1.9526243	1.3973633
23.537069297686497	1.9654388	1.4019411
23.554972666922037	2.0041835	1.4156919
23.57287661938623	1.9908677	1.4109812
23.59078115557318	1.9704292	1.4037198
23.608686275977128	1.9349881	1.3910385
23.62659198109246	1.9316294	1.3898307
23.6444982714137	1.9141136	1.383515
23.66240514743549	1.9160948	1.3842307
23.68031260965263	1.9022815	1.3792322
23.698220658560068	1.9297644	1.3891596
23.716129294652845	1.9198279	1.3855785
23.7340385184262	1.9154221	1.3839878
23.75194833037546	1.8884072	1.3741933
23.769858730996123	1.9376024	1.3919779
23.78776972078382	1.9649476	1.4017658
23.80568130023431	1.9077606	1.3812171
23.823593469843495	1.8888663	1.3743603
23.841506230107424	1.8856289	1.373182
23.859419581522275	1.9359813	1.3913954
23.87733352458438	1.96852	1.4030396
23.89524805979019	1.9600989	1.4000353
23.913163187636318	1.9282315	1.3886077
23.931078908619508	1.9363985	1.3915454
23.948995223236633	1.9468595	1.3952991
23.966912131984735	1.97355	1.4048309
23.98482963536096	2.0472522	1.4308223
24.002747733862616	2.079249	1.4419601
24.020666427987155	2.0689354	1.4383794
24.038585718232156	2.0202608	1.4213588
24.056505605095353	1.9893601	1.4104468
24.074426089074617	1.9850614	1.4089221
24.092347170667946	2.0002117	1.4142884
24.110268850373515	2.0271528	1.4237812
24.128191128689586	2.055336	1.4336443
24.146114006114626	2.03426	1.4262749
24.164037483147187	2.0281065	1.424116
24.181961560286005	2.0101516	1.4177982
24.199886238029926	2.0197403	1.4211757
24.21781151687797	2.0218146	1.4219053
24.235737397329274	2.0240607	1.4226949
24.253663879883135	2.0620694	1.4359907
24.271590965038975	2.0777571	1.4414427
24.289518653296376	2.0717096	1.4393435
24.30744694515505	2.0875998	1.4448528
24.32537584111486	2.0775084	1.4413564
24.34330534167581	2.072813	1.4397267
24.361235447338046	2.0628965	1.4362787
24.379166158601876	2.0521657	1.4325383
24.39709747596772	2.0756276	1.4407039
24.41502939993615	2.102346	1.4499469
24.432961931007917	2.0529134	1.4327991
24.450895069683856	2.0320787	1.42551
24.468828816465	2.0060968	1.4163675
24.4867631718525	1.9696938	1.4034578
24.504698136347656	1.993213	1.411812
24.52263371045192	1.9958361	1.4127407
24.540569894666874	1.9703655	1.4036971
24.558506689494266	1.9499918	1.3964211
24.57644409543597	1.981886	1.4077947
24.594382112994012	2.0027645	1.4151906
24.61232074267057	1.9735085	1.4048162
24.630259984967953	1.9986794	1.4137466
24.64819984038863	2.013114	1.4188424
24.66614030943522	2.0185792	1.4207672
24.684081392610462	1.9894112	1.4104649
24.702023090417274	1.9650033	1.4017857
24.7199654033587	1.9589412	1.3996218
24.737908331937927	2.0102892	1.4178467
24.755851876658305	2.0185227	1.4207473
24.773796038023324	2.022027	1.4219799
24.79174081653661	2.0243387	1.4227926
24.809686212701962	2.0554087	1.4336697
24.827632227023294	2.0839837	1.4436009
24.8455788600047	2.108351	1.4520162
24.8635261121504	2.1158438	1.454594
24.88147398396475	2.086514	1.4444771
24.899422475952303	2.0773115	1.4412881
24.917371588617698	2.0808525	1.4425161
24.935321322465768	2.1318285	1.4600782
24.953271678001478	2.287639	1.5124942
24.97122265572994	2.5547469	1.5983576
24.989174256156414	2.8967328	1.701979
25.00712647978632	3.3003044	1.816674
25.02507932712521	3.8209784	1.9547323
25.043032798678798	4.376419	2.0919893
25.060986894952933	5.0522637	2.247724
25.078941616453637	5.819165	2.4122946
25.096896963687055	6.817849	2.6111012
25.114852937159508	7.9475446	2.819139
25.132809537377444	8.353419	2.8902283
25.150766764847468	8.29098	2.8794062
25.168724620076347	7.695666	2.7741063
25.186683103570985	6.6976748	2.5879867
25.204642215838426	5.5397944	2.3536768
25.222601957385894	4.143565	2.035575
25.24056232872074	3.113654	1.7645549
25.25852333035048	2.5617516	1.6005473
25.276484962782778	2.2600708	1.5033532
25.294447226525435	2.1389258	1.4625067
25.312410122086423	2.101393	1.4496182
25.330373649973843	2.0463123	1.4304937
25.348337810695988	1.9917296	1.4112865
25.366302604761245	1.9205244	1.3858298
25.384268032678207	1.8978386	1.3776206
25.40223409495558	1.8781502	1.3704562
25.420200792102257	1.8410946	1.3568695
25.438168124627246	1.8352534	1.3547152
25.45613609303974	1.8470747	1.3590713
25.474104697849057	1.8902365	1.3748587
25.492073939564698	1.8849134	1.3729215
25.510043818696285	1.8325953	1.3537339
25.528014335753614	1.8006139	1.3418696
25.54598549124664	1.8165505	1.3477947
25.56395728568544	1.8708594	1.3677936
25.58192971958028	1.8586302	1.3633158
25.59990279344156	1.8626935	1.3648053
25.617876507779833	1.8626884	1.3648034
25.635850863105826	1.8630912	1.364951
25.653825859930386	1.899675	1.378287
25.671801498764548	1.9063121	1.3806926
25.68977778011949	1.912788	1.3830358
25.707754704506524	1.8884976	1.3742262
25.725732272437153	1.8687578	1.3670251
25.743710484423012	1.8935887	1.3760773
25.761689340975888	1.9339664	1.3906713
25.77966884260774	1.9019742	1.3791208
25.797648989830662	1.8488256	1.3597152
25.815629783156922	1.8717775	1.3681293
25.83361122309895	1.913488	1.3832889
25.85159331016929	1.9269437	1.388144
25.869576044880695	1.9232417	1.38681
25.887559427746034	1.9533641	1.3976281
25.90554345927836	1.9299318	1.3892199
25.92352813999086	1.8627844	1.3648386
25.94151347039689	1.8233442	1.3503126
25.959499451009965	1.8433318	1.3576936
25.97748608234374	1.8260763	1.3513238
25.995473364912062	1.7863045	1.336527
26.013461299228904	1.813413	1.3466302
26.03144988580839	1.8501449	1.3602003
26.04943912516483	1.8945353	1.3764212
26.067429017812675	1.9239552	1.3870671
26.085419564266537	1.8949298	1.3765645
26.103410765041186	1.8380959	1.3557639
26.12140262065155	1.7928535	1.3389748
26.139395131612723	1.7549318	1.3247384
26.157388298439948	1.7755449	1.3324957
26.17538212164861	1.8585994	1.3633046
26.193376601754295	1.9353732	1.3911769
26.211371739272714	1.9568406	1.3988712
26.229367534719746	1.9034667	1.3796618
26.247363988611433	1.8246752	1.3508054
26.26536110146397	1.7946874	1.3396595
26.283358873793727	1.8220645	1.3498387
26.301357306117204	1.8418571	1.3571503
26.319356398951104	1.8096362	1.3452272
26.33735615281224	1.8206074	1.3492988
26.35535656821762	1.8093636	1.3451259
26.373357645684404	1.8156551	1.3474624
26.39135938572991	1.8558055	1.3622795
26.409361788871614	1.8327277	1.3537828
26.427364855627165	1.8182986	1.348443
26.445368586514352	1.8406818	1.3567172
26.46337298205115	1.8629469	1.3648981
26.48137804275568	1.8445569	1.3581446
26.499383769146217	1.8457949	1.3586004
26.517390161741215	1.867247	1.3664725
26.53539722105928	1.8967092	1.3772106
26.553404947619182	1.9106953	1.382279
26.571413341939856	1.8778754	1.370356
26.589422404540397	1.8783085	1.3705139
26.60743213594006	1.8604754	1.3639925
26.62544253665827	1.8511403	1.3605661
26.64345360721459	1.8410974	1.3568704
26.66146534812879	1.8423165	1.3573196
26.679477759920758	1.8057743	1.343791
26.69749084311057	1.7836936	1.33555
26.71550459821847	1.8109063	1.3456992
26.733519025764842	1.8395114	1.3562859
26.751534126270258	1.7961756	1.3402147
26.769549900255434	1.7627579	1.3276889
26.787566348241267	1.82622	1.3513771
26.80558347074881	1.8899645	1.3747598
26.823601268299267	1.8842727	1.3726882
26.841619741414036	1.8778344	1.370341
26.85963889061465	1.8593805	1.3635911
26.877658716422832	1.8372998	1.3554703
26.89567921936045	1.8021183	1.34243
26.913700399949544	1.784091	1.3356987
26.93172225871233	1.7941711	1.3394667
26.949744796171174	1.8003659	1.3417772
26.967768012848605	1.8096882	1.3452466
26.98579190926733	1.8188679	1.3486542
27.003816485950225	1.791906	1.3386209
27.021841743420318	1.7618016	1.3273288
27.039867682200814	1.7976667	1.340771
27.057894302815072	1.8517051	1.3607737
27.07592160578664	1.8181566	1.3483903
27.0939495916392	1.7897489	1.3378149
27.111978260896635	1.8047687	1.3434168
27.13000761408296	1.8385149	1.3559185
27.148037651722397	1.8525164	1.3610718
27.166068374339304	1.8208343	1.3493829
27.184099782458215	1.7932013	1.3391047
27.20213187660384	1.8271359	1.3517159
27.22016465730105	1.8984586	1.3778456
27.23819812507487	1.8896937	1.3746613
27.256232280450533	1.8802296	1.3712146
27.274267123953383	1.8373016	1.355471
27.292302656108987	1.8194461	1.3488685
27.31033887744306	1.78513	1.3360876
27.32837578848146	1.7610658	1.3270515
27.34641338975026	1.8002204	1.341723
27.364451681775673	1.832143	1.3535668
27.382490665084074	1.8505936	1.3603653
27.400530340202046	1.789654	1.3377795
27.41857070765629	1.7803156	1.3342847
27.436611767973726	1.8340088	1.3542558
27.454653521681404	1.90079	1.3786914
27.472695969306564	1.8881514	1.3741002
27.490739111376627	1.8728756	1.3685304
27.508782948419153	1.8664932	1.3661966
27.526827480961902	1.8721384	1.3682611
27.54487270953279	1.8733094	1.368689
27.562918634659898	1.8668958	1.366344
27.580965256871508	1.8123853	1.3462486
27.599012576696026	1.821312	1.3495599
27.617060594662068	1.8354331	1.3547816
27.63510931129842	1.8342997	1.3543632
27.65315872713401	1.820461	1.3492446
27.67120884269797	1.820306	1.3491871
27.68925965851958	1.8036659	1.3430063
27.707311175128307	1.7900088	1.3379121
27.725363393053787	1.8006113	1.3418685
27.74341631282583	1.8617799	1.3644706
27.7614699349744	1.9525976	1.3973538
27.77952426002968	2.1331472	1.4605298
27.797579288521973	2.187094	1.4788827
27.815635020981784	2.5405543	1.5939116
27.83369145793979	2.5764632	1.6051365
27.85174859992682	2.4219375	1.5562575
27.869806447473923	2.276688	1.5088698
27.887865001112267	2.0154402	1.419662
27.905924261373233	1.9128726	1.3830664
27.92398422878836	1.8824778	1.3720342
27.94204490388936	1.8950229	1.3765982
27.96010628720813	1.9320494	1.3899817
27.978168379276728	1.905817	1.3805133
27.9962311806274	1.8731886	1.3686448
28.014294691792568	1.8827584	1.3721365
28.0323589133048	1.8985252	1.3778698
28.050423845696887	1.8962307	1.3770369
28.068489489501758	1.8814328	1.3716533
28.086555845252523	1.8740757	1.3689688
28.104622913482487	1.8579001	1.3630481
28.122690694725115	1.8587207	1.3633491
28.14075918951405	1.8828651	1.3721753
28.15882839838312	1.8536179	1.3614764
28.176898321866304	1.9180729	1.3849452
28.1949689604978	1.977336	1.4061778
28.213040314811945	1.9526279	1.3973646
28.23111238534327	1.924737	1.3873489
28.249185172626493	1.9372184	1.39184
28.267258677196473	1.944831	1.394572
28.285332899588294	1.951713	1.3970373
28.303407840337172	1.9153244	1.3839525
28.321483499978545	1.8986819	1.3779267
28.33955987904799	1.8883134	1.3741592
28.357636978081285	1.9305131	1.3894291
28.37571479761439	1.9346693	1.3909239
28.393793338183425	1.8831705	1.3722866
28.41187260032469	1.9284111	1.3886725
28.429952584574686	2.0192378	1.4209988
28.448033291470065	2.0005813	1.414419
28.46611472154769	1.9446468	1.394506
28.484196875344566	1.9100689	1.3820524
28.502279753397914	1.8786316	1.3706318
28.52036335624511	1.8964964	1.3771334
28.538447684423716	1.9130324	1.3831241
28.556532738471482	1.9001098	1.3784447
28.574618518926325	1.8938518	1.3761729
28.59270502632635	1.9639112	1.4013962
28.61079226120985	2.0238733	1.422629
28.628880224115274	2.097286	1.448201
28.646968915581287	2.1086776	1.4521286
28.66505833614671	2.0841773	1.443668
28.68314848635055	2.0606005	1.4354792
28.701239366732004	2.0255153	1.423206
28.71933097783044	2.0500066	1.4317844
28.737423320185403	2.1033456	1.4502915
28.75551639433665	2.1339288	1.4607973
28.773610200824074	2.161565	1.4702262
28.791704740187793	2.1297097	1.4593525
28.80980001296809	2.1251144	1.4577773
28.827896019705413	2.179377	1.4762714
28.845992760940433	2.2650614	1.505012
28.86409023721397	2.2612696	1.5037519
28.88218844906704	2.2604825	1.5034901
28.900287397040845	2.2685773	1.5061797
28.918387081676755	2.2663858	1.505452
28.936487503516343	2.2809372	1.5102772
28.954588663101365	2.2880187	1.5126199
28.97269056097374	2.3077736	1.5191358
28.990793197675597	2.3211267	1.5235244
29.00889657374923	2.4022918	1.5499328
29.027000689737125	2.387415	1.5451262
29.04510554618196	2.3545003	1.5344381
29.06321114362659	2.4089315	1.5520732
29.08131748261405	2.4755843	1.573399
29.099424563687567	2.5037148	1.5823131
29.11753238739057	2.5318742	1.5911864
29.13564095426663	2.5599675	1.5999899
29.15375026485954	2.5688982	1.6027783
29.171860319713275	2.6094031	1.6153647
29.18997111937199	2.655041	1.6294297
29.20808266438002	2.723514	1.6503073
29.226194955281898	2.7935584	1.6713941
29.244307992622335	2.9037354	1.704035
29.26242177694624	2.9458983	1.7163619
29.2805363087987	2.974951	1.7248046
29.29865158872498	2.9566283	1.7194849
29.316767617270557	2.9544356	1.7188472
29.334884394981064	2.9608517	1.7207125
29.353001922402367	3.015128	1.7364124
29.37112020008047	3.0960228	1.7595519
29.389239228561596	3.1958942	1.7877064
29.407359008392152	3.4172401	1.8485779
29.42547954011872	3.812283	1.9525069
29.44360082428809	4.525558	2.1273358
29.46172286144722	5.6159515	2.3697999
29.479845652143283	7.158242	2.6754892
29.497969196923606	9.450491	3.074165
29.516093496335728	12.249117	3.4998739
29.5342185509274	15.195383	3.8981256
29.55234436124651	17.202362	4.147573
29.570470927841175	18.302969	4.278197
29.588598251259686	17.95862	4.237761
29.60672633205055	16.465343	4.057751
29.624855170762405	14.027545	3.7453365
29.642984767944146	11.34477	3.3681998
29.66111512414481	8.745743	2.9573202
29.67924623991366	6.536432	2.5566447
29.697378115800138	5.0198483	2.2405019
29.71551075235387	4.1110125	2.027563
29.733644150124675	3.6413288	1.9082266
29.751778309662576	3.4387202	1.8543787
29.769913231517766	3.42325	1.8502027
29.78804891624066	3.4482715	1.8569522
29.806185364381818	3.4759276	1.8643839
29.82432257649206	3.421136	1.8496313
29.842460553122333	3.3207748	1.8222994
29.86059929482382	3.272484	1.8090008
29.878738802147872	3.259364	1.8053708
29.896879075646048	3.259071	1.8052897
29.915020115870114	3.268687	1.8079511
29.933161923371976	3.2370944	1.7991927
29.951304498703777	3.1787374	1.7829014
29.969447842417857	3.1721773	1.7810607
29.987591955066733	3.1906097	1.7862278
30.005736837203123	3.1730251	1.7812988
30.023882489379943	3.0751028	1.7535971
30.04202891215028	3.0951831	1.7593132
30.060176106067455	3.1878722	1.7854613
30.078324071684946	3.2127085	1.792403
30.09647280955646	3.2084022	1.7912014
30.114622320235863	3.167926	1.7798668
30.132772604277257	3.164487	1.7789005
30.1509236622349	3.1421628	1.7726147
30.16907549466328	3.0863948	1.7568138
30.18722810211705	3.1204064	1.7664672
30.205381485151097	3.1449516	1.7734011
30.22353564432045	3.1659076	1.7792997
30.241690580180403	3.1451876	1.7734677
30.25984629328638	3.088149	1.757313
30.278002784194037	3.0880144	1.7572747
30.296160053459246	3.0730639	1.7530156
30.314318101638033	3.0548913	1.7478248
30.332476929286646	2.9871328	1.7283324
30.35063653696153	2.9336996	1.7128046
30.368796925219307	2.892324	1.7006834
30.386958094616844	2.8772771	1.6962539
30.40512004571115	2.8846626	1.6984295
30.423282779059463	2.9310799	1.7120397
30.441446295219233	2.9870243	1.7283009
30.459610594748067	2.9736128	1.7244166
30.47777567820382	2.9117982	1.7063992
30.495941546144504	2.773296	1.6653216
30.51410819912835	2.73131	1.6526675
30.532275637713795	2.7982452	1.6727957
30.55044386245946	2.8536065	1.6892622
30.56861287392416	2.8674164	1.6933447
30.586782672666956	2.8545914	1.6895536
30.604953259247047	2.9058352	1.704651
30.623124634223885	2.9037957	1.7040527
30.641296798157075	2.8757515	1.6958041
30.659469751606462	2.8583903	1.6906775
30.677643495132074	2.7762473	1.6662074
30.695818029294152	2.6925964	1.6409132
30.713993354653116	2.7338974	1.6534501
30.73216947176962	2.721164	1.6495951
30.75034638120448	2.6938202	1.6412861
30.768524083518756	2.7330391	1.6531906
30.786702579273673	2.7693727	1.6641432
30.80488186903069	2.823301	1.6802682
30.82306195335144	2.9881737	1.7286335
30.841242832797782	3.217517	1.7937438
30.85942450793176	3.5463016	1.8831626
30.877606979315637	3.8618062	1.9651479
30.895790247511883	4.220254	2.0543256
30.913974313083134	4.595406	2.1436899
30.932159176592283	4.922827	2.2187445
30.95034483860237	4.9877462	2.2333262
30.968531299676698	4.6868296	2.1649086
30.98671856037873	4.3662114	2.089548
31.00490662127215	4.0019245	2.0004811
31.023095482920848	3.4401307	1.854759
31.04128514588892	3.00296	1.732905
31.059475610740662	2.7411284	1.6556354
31.07766687804056	2.596784	1.611454
31.09585894835335	2.495713	1.5797826
31.11405182224393	2.4739082	1.5728662
31.132245500277417	2.4698827	1.571586
31.15043998301914	2.4942148	1.5793083
31.168635271034628	2.4563658	1.5672797
31.18683136488964	2.4436429	1.5632155
31.20502826515008	2.491179	1.578347
31.223225972382135	2.4837196	1.5759821
31.241424487152155	2.4751613	1.5732646
31.259623810026692	2.4518423	1.565836
31.27782394157253	2.4522004	1.5659503
31.296024882356644	2.4828112	1.5756938
31.314226632946237	2.5032368	1.582162
31.332429193908684	2.4608147	1.5686984
31.350632565811598	2.423634	1.5568025
31.368836749222787	2.4016697	1.5497322
31.387041744710295	2.3582613	1.5356631
31.40524755284232	2.4310687	1.5591885
31.423454174187317	2.4924324	1.5787439
31.441661609313922	2.5185597	1.586997
31.459869858791002	2.4973357	1.580296
31.478078923187628	2.3956482	1.5477881
31.496288803073064	2.3823075	1.5434725
31.514499499016807	2.431795	1.5594213
31.532711011588546	2.3946846	1.5474769
31.550923341358178	2.3305123	1.5266016
31.56913648889584	2.3644857	1.5376885
31.587350454771844	2.4074452	1.5515944
31.605565239556732	2.3905702	1.5461469
31.62378084382127	2.3183706	1.5226196
31.641997268136382	2.226561	1.4921665
31.660214513073274	2.2149837	1.4882821
31.67843257920331	2.2471347	1.4990445
31.6966514670981	2.3205686	1.5233413
31.71487117732944	2.3864899	1.5448269
31.733091710469346	2.381883	1.543335
31.751313067090052	2.3884366	1.5454568
31.769535247764008	2.4047875	1.5507377
31.787758253063878	2.4213822	1.5560791
31.805982083562526	2.3664303	1.5383207
31.824206739833024	2.2882068	1.512682
31.84243222244869	2.2944715	1.5147513
31.860658531983013	2.2989233	1.5162201
31.878885669009737	2.2843006	1.5113903
31.897113634102784	2.2805922	1.510163
31.91534242783632	2.262501	1.5041612
31.933572050784694	2.2512293	1.5004097
31.951802503522508	2.2073867	1.4857277
31.970033786624548	2.2345252	1.4948329
31.988265900665834	2.2410095	1.4970002
32.006498846221575	2.2376988	1.495894
32.02473262386724	2.181779	1.4770846
32.04296723417845	2.177426	1.4756104
32.0612026777311	2.1160452	1.4546633
32.07943895510129	2.0977209	1.448351
32.097676066865304	2.1230388	1.4570651
32.115914013599685	2.218793	1.4895613
32.13415279588115	2.3039563	1.5178789
32.152392414286666	2.2247415	1.4915568
32.1706328693934	2.160865	1.4699881
32.18887416177875	2.1290028	1.4591103
32.20711629202032	2.1327062	1.4603788
32.225359260695924	2.1631782	1.4707747
32.243603068383614	2.2487247	1.4995748
32.26184771566166	2.250009	1.500003
32.28009320310852	2.234281	1.4947512
32.2983395313029	2.1226	1.4569145
32.31658670082372	2.1545799	1.4678488
32.33483471225012	2.1950665	1.4815756
32.35308356616143	2.2338934	1.4946215
32.371333263137245	2.3027487	1.5174811
32.38958380375734	2.2714925	1.5071471
32.407835188601744	2.114076	1.4539862
32.42608741825067	2.050776	1.4320531
32.444340493284585	2.122636	1.456927
32.46259441428416	2.162155	1.4704268
32.48084918183028	2.1016753	1.4497156
32.49910479650405	2.079377	1.4420044
32.51736125888683	2.0912743	1.4461238
32.53561856956014	2.060632	1.4354901
32.5538767291058	1.9689583	1.4031957
32.572135738105764	2.0048532	1.4159284
32.59039559714228	2.033626	1.4260526
32.608656306797776	2.0532591	1.4329197
32.62691786765491	2.064179	1.436725
32.645180280296586	2.0903823	1.4458154
32.663443545305896	2.0498614	1.4317337
32.68170766326619	1.9768287	1.4059974
32.69997263476099	1.9455705	1.394837
32.7182384603741	1.949258	1.3961583
32.7365051406895	1.9671094	1.4025367
32.75477267629144	1.9944139	1.4122372
32.77304106776434	2.0661397	1.4374073
32.79131031569289	2.0390186	1.427942
32.809580420661966	1.9394466	1.3926401
32.827851383256714	1.9290805	1.3889134
32.84612320406245	1.9768071	1.4059898
32.86439588366476	2.037024	1.4272435
32.88266942264945	2.0475917	1.4309409
32.9009438216025	2.022061	1.421992
32.9192190811102	2.0316029	1.425343
32.937495201758985	2.0268726	1.4236828
32.95577218413556	1.974173	1.4050527
32.974050028826866	1.910678	1.3822727
32.992328736420035	1.8681052	1.3667865
33.010608307502444	1.900662	1.378645
33.02888874266169	1.9636128	1.4012897
33.047170042485604	1.9998559	1.4141626
33.06545220756225	2.0356112	1.4267485
33.083735238479896	2.0967107	1.4480023
33.10201913582707	2.0857413	1.4442096
33.12030390019248	2.0226676	1.4222052
33.138589532165135	1.9173883	1.3846979
33.15687603233419	1.9356849	1.391289
33.17516340128909	1.940443	1.3929979
33.19345163961947	1.8287716	1.3523208
33.211740747915215	1.7958162	1.3400806
33.23003072676643	1.8559916	1.3623478
33.248321576763466	1.9434854	1.3940895
33.266613298496885	1.9711471	1.4039755
33.28490589255747	1.9547646	1.398129
33.30319935953626	1.9661622	1.402199
33.32149370002451	2.0376558	1.4274648
33.339788914613706	2.0004485	1.4143721
33.358085003895575	1.9498762	1.3963797
33.376381968462034	1.9636942	1.4013188
33.39467980890529	1.9275488	1.3883619
33.41297852581774	1.9159389	1.3841745
33.43127811979204	1.9914244	1.4111784
33.44957859142105	2.0398402	1.4282298
33.467879941297866	1.9810326	1.4074916
33.486182170015844	1.961867	1.4006666
33.50448527816853	1.8694328	1.367272
33.522789266349754	1.8752449	1.3693959
33.541094135153514	1.9170352	1.3845704
33.55939988517411	2.041065	1.4286585
33.57770651700602	2.0325887	1.4256889
33.59601403124398	1.9420966	1.3935913
33.61432242848296	1.8738275	1.3688781
33.632631709318154	1.8967897	1.3772398
33.650941874344994	1.9232705	1.3868203
33.66925292415916	1.8953112	1.376703
33.68756485935654	1.8801868	1.371199
33.70587768053328	1.9549218	1.3981853
33.724191388285746	1.9613364	1.4004772
33.74250598321054	1.9255381	1.3876376
33.760821465904506	1.9375275	1.391951
33.77913783696474	1.9648585	1.4017341
33.79745509698852	1.9893333	1.4104372
33.815773246573414	1.9497228	1.3963248
33.8340922863172	1.9924725	1.4115497
33.852412216817896	1.977287	1.4061604
33.87073303867377	2.0171447	1.4202622
33.889054752483304	2.0743976	1.4402769
33.907377358845245	2.0049365	1.4159578
33.92570085835853	1.9211458	1.386054
33.94402525162239	1.939563	1.392682
33.96235053923627	2.0084295	1.4171907
33.980676721799824	1.9494596	1.3962305
33.999003799912984	1.9924523	1.4115425
34.01733177417592	1.8736762	1.3688229
34.03566064518901	1.8167742	1.3478777
34.0539904135529	1.8731134	1.3686173
34.07232107986846	1.9212456	1.38609
34.090652644736785	1.8825711	1.3720682
34.108985108759235	1.8561108	1.3623916
34.12731847253742	1.8160299	1.3476015
34.14565273667313	1.9046582	1.3800936
34.16398790176847	1.9636891	1.4013169
34.18232396842574	1.8677846	1.3666692
34.20066093724749	1.7667255	1.3291823
34.21899880883651	1.8396266	1.3563284
34.23733758379583	1.8869455	1.3736614
34.25567726272874	1.9244206	1.3872349
34.27401784623872	1.8737489	1.3688495
34.29235933492957	1.847849	1.359356
34.31070172940526	1.9460757	1.3950182
34.32904503027003	2.0318952	1.4254456
34.347389238128386	1.9657036	1.4020355
34.36573435358502	1.8740107	1.3689451
34.38408037724492	1.976724	1.4059602
34.402427309713296	2.1346579	1.4610468
34.42077515159559	2.2233908	1.4911039
34.43912390349752	2.225852	1.4919289
34.45747356602499	2.0898972	1.4456477
34.47582413978423	1.8518032	1.3608098
34.49417562538163	1.9639629	1.4014146
34.51252802342388	2.0706851	1.4389875
34.53088133451789	2.0274987	1.4239026
34.54923555927084	2.0730252	1.4398004
34.567590698290104	2.1131375	1.4536635
34.58594675218336	2.065073	1.4370362
34.6043037215585	2.1545322	1.4678324
34.62266160702365	2.155592	1.4681934
34.641020409187234	1.9655789	1.401991
34.65938012865785	2.007565	1.4168857
34.677740766044394	2.0198307	1.4212074
34.69610232195598	1.8988051	1.3779714
34.714464797002016	1.7363391	1.3177022
34.73282819179208	1.7253119	1.3135113
34.751192506936064	1.8863972	1.3734617
34.76955774304408	1.875579	1.3695178
34.7879239007265	1.7494185	1.3226558
34.80629098059391	1.7080747	1.3069333
34.824658983257194	1.7911186	1.3383268
34.843027909327446	1.7870373	1.3368012
34.86139775941603	1.7771144	1.3330846
34.879768534134534	1.8228644	1.350135
34.89814023409483	1.8751931	1.3693769
34.91651285990901	1.9243671	1.3872156
34.93488641218944	2.0314708	1.4252968
34.95326089154871	2.0935764	1.4469197
34.97163629859967	2.1118615	1.4532245
34.99001263395542	1.9319282	1.3899382
35.00838989822934	1.9462043	1.3950642
35.02676809203499	2.1281183	1.4588071
35.04514721598624	2.1621277	1.4704175
35.063527270697215	2.0153115	1.4196167
35.081908256782256	2.033222	1.425911
35.10029017485597	2.1313448	1.4599127
35.11867302553321	2.0274982	1.4239025
35.137056809429104	1.9486299	1.3959333
35.155441527159006	1.8921173	1.3755425
35.173827179338524	1.9592714	1.3997397
35.19221376658354	2.0015657	1.414767
35.21060128951017	2.1065514	1.4513963
35.2289897487348	2.351505	1.5334618
35.24737914487405	2.3124413	1.5206714
35.26576947854479	2.0998914	1.4491003
35.28416075036418	2.1493146	1.4660541
35.30255296094958	2.268743	1.5062348
35.32094611091867	2.3724277	1.5402687
35.33934020088932	2.126521	1.4582596
35.35773523147969	2.1076329	1.4517689
35.3761312033082	2.2386613	1.4962157
35.394528116993506	2.4060738	1.5511525
35.41292597315452	2.2993164	1.5163497
35.431324772410434	2.3506675	1.5331887
35.449724515380666	2.4608803	1.5687193
35.46812520268491	2.327532	1.5256251
35.486526834943106	2.0374436	1.4273905
35.504929412775454	1.7121506	1.3084917
35.52333293680242	1.6121991	1.269724
35.54173740764471	1.8686754	1.366995
35.560142825923286	2.4033475	1.5502734
35.5785491922594	2.1428986	1.4638642
35.59695650727454	1.5701236	1.2530457
35.61536477159042	1.4327071	1.1969575
