0.008763373481513119	0.56609195	0.7523908
0.026290120649546365	0.18888974	0.43461448
0.043816868432600686	0.15100962	0.38859957
0.06134361724069026	0.08291717	0.2879534
0.07887036748382949	0.06477313	0.25450566
0.0963971195720331	0.08242481	0.28709722
0.11392387391531617	0.13431063	0.36648417
0.1314506309236943	0.17080587	0.41328666
0.1489773910071836	0.2092944	0.45748705
0.16650415457580078	0.16006066	0.40007582
0.18403092203956356	0.23047884	0.48008212
0.20155769380849	0.24137013	0.49129432
0.2190844702925996	0.23878792	0.48865932
0.2366112519019124	0.21999793	0.46903938
0.2541380390464497	0.14275838	0.3778338
0.27166483213623416	0.124691844	0.35311732
0.28919163158128947	0.12099162	0.3478385
0.3067184377916406	0.16069126	0.40086314
0.324245251177314	0.18725841	0.43273365
0.34177207214833777	0.23239443	0.48207304
0.3592989011147415	0.23407407	0.48381203
0.37682573848655654	0.17486818	0.41817242
0.39435258467381573	0.14677915	0.38311768
0.41187944008655414	0.12018384	0.3466754
0.42940630513480854	0.11823205	0.34384888
0.446933180228618	0.12048873	0.34711486
0.4644600657780234	0.12622723	0.35528472
0.48198696219306775	0.13401467	0.36608014
0.49951386988379676	0.20679028	0.45474198
0.5170407892602581	0.18044502	0.4247882
0.5345677207325025	0.18515536	0.43029684
0.5520946647105822	0.15399604	0.39242327
0.5696216216045534	0.14315757	0.3783617
0.5871485918244737	0.15958758	0.39948413
0.6046755757804043	0.1578438	0.3972956
0.6222025738824094	0.20799045	0.4560597
0.6397295865405557	0.21535441	0.46406293
0.6572566141649129	0.20460439	0.45233217
0.6747836571655547	0.16969286	0.41193792
0.6923107159525568	0.15363844	0.3919674
0.7098377909359992	0.16750687	0.40927604
0.7273648825259653	0.1530511	0.39121744
0.7448919911325411	0.15679362	0.39597175
0.762419117165817	0.14020966	0.3744458
0.7799462610358868	0.14849725	0.38535342
0.7974734231528482	0.1510484	0.38864946
0.8150006039268024	0.13948438	0.37347606
0.8325278037678551	0.15151277	0.3892464
0.8500550230861152	0.1989905	0.44608352
0.8675822622916969	0.20386367	0.45151263
0.8851095217947171	0.21147537	0.45986453
0.9026368020052984	0.1859968	0.43127346
0.9201641033335665	0.16791184	0.4097705
0.9376914261896523	0.17861079	0.4226237
0.9552187709836915	0.21051626	0.45882052
0.9727461381258234	0.24235354	0.49229416
0.990273528026193	0.2920463	0.5404131
1.0078009410949496	0.29523298	0.54335344
1.0253283777422473	0.29497617	0.5431171
1.0428558383782454	0.31414813	0.5604892
1.0603833234131086	0.33845854	0.5817719
1.0779108332570058	0.39038524	0.6248082
1.0954383683201119	0.3887116	0.6234674
1.112965929012607	0.42052242	0.648477
1.1304935157446763	0.48017496	0.69294655
1.1480211289265108	0.5107105	0.7146401
1.1655487689683062	1.3148408	1.1466651
1.1830764362802655	1.654611	1.2863169
1.200604131272596	2.051784	1.432405
1.2181318543555117	2.29198	1.5139287
1.235659605939232	2.2659357	1.5053025
1.253187386433982	3.914989	1.9786332
1.270715196249994	6.369308	2.5237489
1.2882430357975057	11.928525	3.4537697
1.3057709054867608	16.771273	4.0952744
1.3232988057280106	22.348997	4.727473
1.3408267369315112	27.12113	5.207795
1.358354699507526	30.623585	5.533858
1.3758826938663256	34.78889	5.898211
1.3934107204181858	36.94403	6.0781603
1.410938779573391	37.351986	6.111627
1.4284668717422309	37.57206	6.1296053
1.4459949973350033	36.793636	6.065776
1.4635231567620117	36.636856	6.052839
1.4810513504335687	36.275276	6.022896
1.4985795787599925	36.097576	6.008126
1.5161078421516088	35.65893	5.97151
1.5336361410187505	34.95465	5.9122458
1.5511644757717598	34.622944	5.8841267
1.5686928468209842	35.160263	5.929609
1.58622125457678	35.436592	5.952864
1.6037496994495108	36.459538	6.038173
1.621278181849548	36.423054	6.0351515
1.6388067021872719	37.313282	6.10846
1.6563352608730693	36.914974	6.0757694
1.673863858317336	36.360752	6.029988
1.6913924949304753	35.908325	5.9923553
1.7089211711228998	34.763294	5.8960404
1.7264498873050296	33.623703	5.798595
1.7439786438872935	32.76787	5.724323
1.7615074412801288	31.825407	5.6414013
1.779036279893981	31.345417	5.5986977
1.796565160139305	30.293938	5.503993
1.814094082426564	30.01369	5.478475
1.8316230471662298	29.241499	5.407541
1.849152054768784	28.377403	5.3270445
1.8666811056447168	27.579435	5.2516127
1.8842102002045273	26.433283	5.1413307
1.901739338858724	25.91133	5.0903172
1.9192685220178245	25.117285	5.011715
1.9367977500923557	24.53966	4.953752
1.9543270234928547	24.11558	4.910762
1.971856342629867	23.512075	4.848925
1.9893857079139496	23.14219	4.810633
2.006915119755667	22.65037	4.7592406
2.0244445785655945	22.07919	4.6988497
2.0419740847543175	21.656467	4.6536508
2.0595036387324317	21.210993	4.6055393
2.0770332409105414	20.939417	4.5759606
2.094562891699263	20.380959	4.5145273
2.1120925915092217	19.871714	4.45777
2.129622340751053	19.277544	4.39062
2.1471521398354043	187.45895	13.6915655
2.1646819891729323	443.8784	21.068422
2.182211889174303	440.00143	20.976212
2.1997418402501974	452.41174	21.269974
2.2172718428113023	432.5341	20.797455
2.234801897268317	320.54935	17.903893
2.2523320040319548	17.082083	4.1330476
2.269862163512935	16.940409	4.115873
2.287392376121992	16.445122	4.0552588
2.304922642269869	16.295206	4.036732
2.322452962367322	16.067022	4.008369
2.3399833368251164	15.729474	3.9660401
2.357513766054032	15.371262	3.92062
2.3750442504648586	14.750825	3.8406804
2.3925747904683963	14.264541	3.7768426
2.410105386475459	14.139495	3.760252
2.4276360388968707	14.04164	3.7472177
2.445166748143469	13.867489	3.7239077
2.4626975146261025	13.672387	3.6976192
2.4802283387556323	13.295731	3.646331
2.4977592209429305	13.070431	3.6153052
2.5152901615988825	13.016472	3.6078348
2.5328211611343865	12.914738	3.593708
2.5503522199603523	12.808202	3.5788548
2.5678833384877024	12.511119	3.537106
2.5854145171273712	12.279421	3.5042005
2.6029457562903064	12.004299	3.4647222
2.620477056387469	11.761454	3.4294975
2.6380084178298326	11.765948	3.430153
2.655539841028383	11.534293	3.3962176
2.673071326394119	11.340256	3.3675296
2.6906028743380523	11.066691	3.3266637
2.708134485271211	10.8763485	3.297931
2.7256661596046325	10.605002	3.2565322
2.743197897749369	10.265339	3.2039568
2.760729700116486	10.220816	3.197001
2.778261567117063	10.079236	3.1747813
2.795793499162193	10.122726	3.1816232
2.8133254966629817	9.977836	3.1587713
2.830857560030551	9.858817	3.1398754
2.8483896896760337	9.696945	3.1139917
2.865921886010578	9.413391	3.068125
2.883454149445347	9.192455	3.0319061
2.9009864803915177	9.13621	3.0226164
2.91851887926028	9.209428	3.034704
2.9360513464628384	9.080381	3.0133672
2.953583882410413	8.987707	2.9979506
2.9711164875142373	8.734643	2.955443
2.9886491621855606	8.504457	2.9162402
3.0061819068356455	8.328114	2.885847
3.023714721875769	8.287653	2.8788283
3.041247607717225	8.090335	2.8443513
3.0587805647713213	8.020799	2.8321013
3.0763135934493806	7.91899	2.81407
3.0938466941627407	7.8096585	2.7945766
3.1113798673227544	7.8319263	2.798558
3.1289131133407904	7.747892	2.7835035
3.1464464326282315	7.7530813	2.7844355
3.1639798255964786	7.6553774	2.7668352
3.1815132926569443	7.55472	2.748585
3.1990468342210603	7.479665	2.7348976
3.216580450700272	7.4084873	2.7218537
3.2341141425060416	7.3276916	2.706971
3.251647910049847	7.3778834	2.7162259
3.2691817537431813	7.321626	2.7058504
3.286715673997555	7.173926	2.6784186
3.3042496712244938	7.066492	2.6582875
3.32178374583554	6.917436	2.630102
3.339317898242251	6.88459	2.6238503
3.3568521288562034	6.9111066	2.6288984
3.3743864380889876	6.9057655	2.6278822
3.3919208263522127	6.849497	2.6171544
3.4094552940575023	6.7271905	2.5936828
3.4269898416164972	6.5859337	2.5663073
3.444524469440858	6.427615	2.5352743
3.4620591779422587	6.3466716	2.5192602
3.479593967532391	6.3232045	2.5145984
3.4971288386229658	6.271876	2.5043714
3.5146637916257086	6.2129517	2.4925792
3.5321988269523628	6.185226	2.4870114
3.5497339450146903	6.198127	2.4896038
3.5672691462244708	6.1936073	2.4886959
3.5848044309934988	6.2087984	2.491746
3.60233979973359	6.2591853	2.5018363
3.619875252856575	6.2033877	2.4906602
3.6374107907743034	6.211245	2.4922369
3.6549464138986427	6.1805506	2.4860713
3.6724821226414788	6.1847157	2.486909
3.690017917414714	6.151626	2.4802473
3.7075537986302702	6.207548	2.4914951
3.7250897667000857	6.2092013	2.491827
3.7426258220361235	6.4904556	2.5476372
3.7601619650503553	6.763388	2.6006515
3.777698196154779	7.2704363	2.6963747
3.7952345157614067	8.14238	2.8534856
3.8127709242822716	8.952685	2.9921038
3.830307422129425	11.043187	3.3231292
3.847844009714936	29.869024	5.465256
3.8653806874508954	97.35692	9.866961
3.882917455749409	96.61527	9.829307
3.900454315022606	96.434616	9.820113
3.917991265682631	41.05236	6.407212
3.9355283081416506	10.753465	3.2792475
3.9530654428118495	8.595339	2.9317808
3.970602670105433	7.4277315	2.7253864
3.9881399904346244	6.442536	2.5382152
4.005677404211669	6.393447	2.5285265
4.023214911848827	6.376026	2.5250795
4.0407525137583855	6.4804587	2.5456746
4.058290210352644	6.5748124	2.5641396
4.075828002043927	6.5104437	2.551557
4.0933658892445814	6.401531	2.5301247
4.110903872366966	6.225945	2.4951844
4.128441951823468	6.076628	2.4650817
4.145980128026488	6.065608	2.4628456
4.163518401388452	5.9092007	2.4308848
4.181056772321807	5.831439	2.4148374
4.1985952412390155	5.886641	2.4262402
4.216133808552567	6.0707254	2.463884
4.233672474674966	6.2408247	2.4981642
4.251211240018741	6.548469	2.5589976
4.268750104996445	6.755233	2.5990832
4.286289070020643	7.6250277	2.7613451
4.303828135503928	9.202791	3.0336103
4.3213673018589125	29.392157	5.4214535
4.3389065694982305	90.49044	9.512647
4.356445938834537	165.5435	12.866371
4.3739854102805085	171.38708	13.091489
4.391524984248844	172.33994	13.1278305
4.409064661152262	136.58472	11.686947
4.426604441403504	96.88618	9.843078
4.444144325415337	75.47945	8.687891
4.461684313600543	21.455748	4.632035
4.47922440637193	21.473337	4.633933
4.496764604142329	19.744572	4.443486
4.5143049073245916	18.146952	4.259924
4.531845316331589	16.221886	4.0276403
4.5493858315762195	13.661484	3.6961443
4.566926453471405	11.203756	3.3472013
4.584467182430081	9.308484	3.0509808
4.602008018865218	8.137617	2.852651
4.619548963189798	7.409916	2.722116
4.637090015816834	6.8791127	2.6228063
4.654631177159353	6.564068	2.5620437
4.672172447630417	6.366605	2.5232131
4.689713827643102	6.2467146	2.499343
4.7072553176105085	6.018057	2.453173
4.724796917945764	5.923376	2.4337988
4.742338629062015	5.8540444	2.4195132
4.759880451372434	5.8755836	2.4239602
4.777422385290215	5.862039	2.4211648
4.794964431228581	5.775196	2.4031637
4.812506589600768	5.7516418	2.398258
4.830048860820047	5.7756896	2.4032664
4.847591245299709	5.7871733	2.4056544
4.8651337434530655	5.7157707	2.3907678
4.882676355693457	5.551628	2.3561893
4.900219082434242	5.4678116	2.3383353
4.917761924088813	5.461389	2.3369615
4.935304881070575	5.529534	2.351496
4.952847953792969	5.5451455	2.3548133
4.970391142669449	5.5431986	2.3544
4.9879344481135055	5.624528	2.3716087
5.005477870538642	5.5086794	2.3470576
5.023021410358394	5.414086	2.326819
5.040565067986324	5.300506	2.3022828
5.05810884383601	5.2644367	2.294436
5.075652738321066	5.2788568	2.2975762
5.09319675185512	5.240256	2.2891605
5.110740884851836	5.25619	2.292638
5.128285137724894	5.2637453	2.2942853
5.145829510888007	5.2653756	2.2946405
5.163374004754908	5.2809076	2.2980225
5.1809186197393595	5.2857013	2.2990654
5.198463356255145	5.3043923	2.3031266
5.216008214716077	5.305671	2.3034043
5.233553195535998	5.294056	2.3008816
5.251098299128764	5.346962	2.3123498
5.268643525908272	5.3181357	2.3061082
5.286188876288432	5.32335	2.3072386
5.3037343506831895	5.279038	2.2976158
5.32127994950651	5.2638693	2.2943125
5.3388256731723915	5.2220364	2.2851775
5.356371522094851	5.190158	2.2781918
5.373917496687938	5.1966615	2.2796187
5.391463597365729	5.253591	2.2920713
5.40900982454232	5.282442	2.2983563
5.426556178631843	5.248431	2.2909455
5.444102660048449	5.1949162	2.2792358
5.4616492692063225	5.110411	2.2606218
5.479196006519669	5.095561	2.257335
5.496742872402727	5.0640593	2.2503464
5.514289867269756	5.0389104	2.2447517
5.531836991535049	5.0087447	2.2380226
5.549384245612924	5.088779	2.2558322
5.566931629917724	5.219181	2.2845528
5.584479144863822	5.2939796	2.300865
5.6020267908656205	5.2677646	2.295161
5.619574568337545	5.0838623	2.2547421
5.637122477694054	4.9823036	2.2321074
5.654670519349629	4.950168	2.2248974
5.672218693718784	4.9498086	2.2248166
5.689767001216059	4.9214506	2.2184343
5.707315442256021	4.9103227	2.2159247
5.724864017253266	4.912915	2.2165096
5.7424127266224225	4.9190893	2.217902
5.75996157077814	4.941008	2.222838
5.777510550135105	4.924962	2.2192256
5.795059665108022	5.0119686	2.2387426
5.812608916111639	5.06734	2.2510753
5.830158303560715	5.154618	2.2703784
5.847707827870055	5.0961027	2.2574549
5.86525748945448	5.1760645	2.2750967
5.8828072887288485	5.305608	2.3033905
5.900357226108044	5.3821206	2.3199399
5.917907302006979	5.5096884	2.3472726
5.9354575168406	6.040694	2.4577823
5.9530078710238765	6.644542	2.5777009
5.970558364971812	7.1604853	2.6759083
5.988108999099438	7.448984	2.7292826
6.005659773821818	7.888886	2.808716
6.023210689554039	7.7060366	2.775975
6.040761746711227	8.014391	2.83097
6.058312945708531	7.4265447	2.7251687
6.075864286961132	6.9404964	2.6344821
6.093415770884244	6.3913436	2.5281107
6.1109673978931065	5.939195	2.4370463
6.128519168402993	5.445143	2.333483
6.146071082829204	5.296023	2.3013089
6.163623141587075	5.168938	2.27353
6.181175345091969	5.095963	2.2574239
6.198727693759281	5.075269	2.2528358
6.216280188004435	5.011354	2.2386053
6.233832828242885	4.983532	2.2323825
6.251385614890126	5.036262	2.2441618
6.268938548361669	5.0285726	2.2424479
6.286491629073067	5.0015044	2.2364044
6.304044857439898	4.931814	2.220769
6.321598233877777	4.954952	2.2259722
6.339151758802344	4.9482756	2.224472
6.356705432629277	4.947617	2.224324
6.37425925577428	4.926626	2.2196004
6.391813228653095	4.9066997	2.2151072
6.409367351681486	4.895843	2.2126553
6.426921625275259	4.9129825	2.2165248
6.44447604985025	4.9274406	2.219784
6.46203062582232	4.902384	2.2141328
6.47958535360737	4.851436	2.2025976
6.497140233621328	4.8862534	2.2104871
6.514695266280161	4.9593687	2.226964
6.532250451999859	5.0429635	2.2456543
6.549805791196454	5.0784	2.2535305
6.567361284286002	5.088254	2.2557158
6.584916931684597	5.0626054	2.2500234
6.602472733808367	4.9994516	2.2359455
6.6200286910734665	4.921899	2.2185352
6.637584803896092	4.83542	2.1989589
6.655141072692462	4.843317	2.2007537
6.672697497878842	4.8479924	2.2018156
6.690254079871514	4.929628	2.2202766
6.707810819086808	4.989187	2.2336488
6.725367715941078	5.0008216	2.2362516
6.742924770850719	5.0175505	2.239989
6.760481984232151	5.013437	2.2390704
6.778039356501836	4.953189	2.2255762
6.795596888076266	4.939231	2.222438
6.813154579371963	4.925202	2.2192795
6.830712430805492	4.9121404	2.2163348
6.84827044279344	4.9159346	2.2171907
6.865828615752445	4.912102	2.2163262
6.883386950099159	4.8981028	2.2131658
6.900945446250287	4.9106793	2.2160053
6.918504104622553	4.9072204	2.2152247
6.936062925632727	4.92621	2.2195067
6.953621909697607	4.9245872	2.219141
6.971181057234028	5.025224	2.2417011
6.988740368658859	5.1470056	2.2687013
7.006299844389007	5.2577267	2.2929733
7.023859484841407	5.2867227	2.2992873
7.041419290433036	5.307966	2.3039024
7.058979261580902	5.4081335	2.3255394
7.0765393987020495	5.5953135	2.3654416
7.094099702213559	6.001763	2.4498496
7.111660172532549	6.3495197	2.5198252
7.129220810076164	6.7218175	2.5926468
7.146781615261595	7.345769	2.7103078
7.16434258850606	7.544434	2.7467134
7.181903730226821	8.026417	2.8330932
7.1994650408411704	8.079683	2.8424783
7.217026520766437	8.198322	2.8632712
7.234588170419983	8.471808	2.9106371
7.252149990219215	8.451668	2.9071753
7.269711980581568	8.353471	2.890237
7.2872741419245175	8.11472	2.8486347
7.304836474665574	7.633059	2.762799
7.322398979222286	7.3295383	2.707312
7.339961656012233	7.04795	2.6547976
7.357524505453039	6.6999846	2.5884328
7.375087527962357	6.476538	2.5449045
7.392650723957886	6.186628	2.4872932
7.410214093857353	5.818334	2.4121222
7.427777638078528	5.6651177	2.3801508
7.445341357039213	5.487532	2.3425481
7.4629052511572525	5.407723	2.3254511
7.480469320850524	5.3049974	2.303258
7.498033566536948	5.271639	2.296005
7.5155979886344735	5.186501	2.277389
7.5331625875610975	5.1454997	2.2683694
7.550727363734844	5.1749034	2.2748413
7.568292317573788	5.1365876	2.2664042
7.585857449496025	5.106365	2.2597268
7.603422759919705	5.0973606	2.2577336
7.620988249263007	5.1039925	2.2592018
7.638553917944147	5.0924892	2.2566545
7.656119766381391	5.0762687	2.2530577
7.673685794993023	5.071163	2.2519243
7.691252004197388	5.1468863	2.268675
7.70881839441285	5.163564	2.2723477
7.726384966057826	5.1523056	2.269869
7.743951719550762	5.1708417	2.2739484
7.761518655310149	5.19149	2.278484
7.779085773754511	5.232786	2.2875285
7.796653075302419	5.251581	2.291633
7.814220560372475	5.3037653	2.3029904
7.831788229383323	5.297752	2.3016846
7.8493560827536495	5.276822	2.2971334
7.866924120902174	5.264441	2.294437
7.884492344247663	5.21104	2.2827702
7.9020607532089135	5.228682	2.286631
7.919629348204771	5.196763	2.279641
7.937198129654115	5.2014484	2.2806685
7.954767097975865	5.2475243	2.2907476
7.972336253588986	5.3342013	2.309589
7.989905596912472	5.3630567	2.3158274
8.007475128365371	5.395779	2.3228817
8.025044848366756	5.3712354	2.3175926
8.042614757335754	5.5003257	2.3452773
8.060184855691523	5.6062164	2.367745
8.07775514385327	5.8000917	2.408338
8.095325622240228	5.8783455	2.42453
8.112896291271687	5.9844756	2.4463189
8.130467151366968	6.0068717	2.450892
8.148038202945436	5.9969993	2.448877
8.165609446426497	5.9753046	2.4444437
8.183180882229594	6.002412	2.449982
8.200752510774217	6.0496006	2.4595935
8.218324332479893	5.9929757	2.4480555
8.235896347766193	5.9797597	2.4453547
8.253468557052724	5.951623	2.4395947
8.27104096075914	5.9316454	2.435497
8.288613559305137	5.9845114	2.446326
8.306186353110448	6.0413966	2.4579253
8.32375934259485	6.0958123	2.4689698
8.341332528178162	6.0825233	2.4662771
8.358905910280246	6.0489707	2.4594655
8.376479489321003	6.076467	2.465049
8.394053265720377	6.1180964	2.4734786
8.411627239898356	6.0978026	2.469373
8.42920141227497	6.052925	2.4602692
8.44677578327029	6.079903	2.465746
8.464350353304427	6.1116242	2.4721699
8.48192512279754	6.13759	2.477416
8.499500092169827	6.143229	2.4785538
8.51707526184153	6.134664	2.4768255
8.534650632232934	6.1102786	2.4718978
8.552226203764365	6.0906663	2.4679275
8.569801976856192	6.1275845	2.475396
8.587377951928834	6.170706	2.4840906
8.60495412940274	6.210237	2.4920347
8.622530509698416	6.168267	2.4835997
8.6401070932364	6.2887607	2.5077403
8.657683880437283	6.41029	2.531855
8.675260871721695	6.5871863	2.5665514
8.692838067510303	6.7781925	2.6034963
8.710415468223834	6.9280868	2.6321259
8.727993074283043	7.0441747	2.6540864
8.745570886108737	7.1008306	2.6647384
8.763148904121765	7.1676564	2.677248
8.78072712874302	7.1162324	2.6676266
8.798305560393441	7.35837	2.7126315
8.815884199494006	7.5097184	2.7403865
8.833463046465745	7.721236	2.7787113
8.851042101729728	7.8854113	2.8080974
8.86862136570707	8.09666	2.845463
8.886200838818924	8.16822	2.8580098
8.903780521486505	8.206004	2.8646123
8.921360414131055	8.397893	2.8979118
8.938940517173874	8.610954	2.9344428
8.956520831036297	8.699928	2.949564
8.97410135613971	8.878901	2.9797485
8.99168209290554	9.0461855	3.0076878
9.009263041755265	9.343678	3.0567431
9.026844203110405	9.6143055	3.1006944
9.044425577392525	9.695667	3.1137867
9.062007165023239	9.785167	3.1281252
9.079588966424197	10.062464	3.1721387
9.097170982017108	10.200018	3.1937468
9.11475321222372	11.111123	3.3333352
9.132335657465825	11.885777	3.4475756
9.149918318165264	11.90786	3.4507766
9.167501194743924	12.342925	3.5132499
9.18508428762374	12.135986	3.4836743
9.202667597226693	12.141012	3.4843955
9.220251123974803	11.818692	3.4378326
9.237834868290143	11.552932	3.3989604
9.255418830594836	11.362694	3.3708594
9.273003011311046	10.940082	3.3075795
9.290587410860985	10.733391	3.2761855
9.308172029666911	10.162049	3.1877968
9.32575686815113	9.818028	3.1333733
9.343341926735997	8.544852	2.923158
9.360927205843916	8.267689	2.8753588
9.378512705897327	8.063279	2.8395913
9.396098427318728	7.9422903	2.818207
9.413684370530664	7.90789	2.812097
9.431270535955722	7.8345547	2.7990274
9.448856924016539	7.7719307	2.7878182
9.466443535135806	7.698816	2.774674
9.484030369736251	7.734419	2.7810824
9.501617428240658	7.7824607	2.7897062
9.519204711071852	7.7508583	2.7840364
9.536792218652714	7.7258058	2.7795334
9.55437995140617	7.7217855	2.77881
9.571967909755191	7.666314	2.768811
9.589556094122802	7.674481	2.7702854
9.60714450493207	7.711191	2.7769032
9.624733142606116	7.7797394	2.7892184
9.642322007568108	7.934031	2.8167412
9.659911100241267	8.02856	2.8334713
9.677500421048851	8.009422	2.8300922
9.695089970414175	8.012915	2.8307092
9.712679748760609	7.9319544	2.8163726
9.730269756511557	7.993701	2.8273134
9.747859994090492	7.9570208	2.8208191
9.765450461920915	8.027704	2.8333204
9.78304116042639	8.084884	2.843393
9.800632090030527	8.115904	2.8488426
9.81822325115699	8.161544	2.8568416
9.835814644229481	8.130509	2.851405
9.853406269671762	8.199207	2.8634257
9.870998127907646	8.196971	2.8630352
9.888590219360985	8.131842	2.8516383
9.906182544455698	8.058864	2.8388138
9.923775103615734	8.0232115	2.8325274
9.941367897265108	8.0704775	2.8408587
9.958960925827878	8.030779	2.8338628
9.97655418972816	8.092467	2.8447263
9.994147689390106	8.127124	2.850811
10.011741425237934	8.22569	2.8680463
10.029335397695904	8.265064	2.8749025
10.04692960718833	8.25233	2.8726869
10.06452405413958	8.185467	2.8610256
10.082118738974064	8.120867	2.8497136
10.099713662116246	8.093251	2.844864
10.117308823990651	8.108837	2.847602
10.134904225021844	8.117076	2.8490481
10.152499865634445	8.1689	2.8581288
10.170095746253125	8.201083	2.8637533
10.18769186730261	8.148647	2.8545835
10.205288229207675	8.146867	2.8542717
10.222884832393145	8.080578	2.8426356
10.2404816772839	8.080987	2.8427076
10.258078764304868	7.988509	2.826395
10.275676093881035	7.9129205	2.8129914
10.293273666437438	7.894002	2.8096266
10.310871482399158	7.9451714	2.818718
10.32846954219134	8.020545	2.8320568
10.346067846239173	8.041912	2.8358266
10.363666394967908	8.005828	2.8294573
10.38126518880283	7.95686	2.8207908
10.398864228169298	8.04349	2.8361049
10.416463513492713	8.081646	2.8428235
10.434063045198531	8.081182	2.842742
10.451662823712262	8.045119	2.836392
10.469262849459467	8.024055	2.8326762
10.486863122865758	7.9424934	2.818243
10.504463644356806	7.9383087	2.8175004
10.522064414358338	7.9125957	2.8129337
10.539665433296118	7.8715525	2.8056288
10.557266701595987	7.781378	2.7895122
10.574868219683818	7.7182946	2.7781818
10.592469987985552	7.6123495	2.7590487
10.610072006927185	7.500711	2.7387426
10.627674276934751	7.423777	2.7246609
10.64527679843435	7.273505	2.6969438
10.662879571852143	7.1808653	2.6797137
10.680482597614331	7.052173	2.655593
10.698085876147173	6.9867992	2.6432555
10.715689407876988	6.885054	2.6239386
10.733293193230146	6.752166	2.598493
10.750897232633072	6.718002	2.5919108
10.76850152651225	6.654895	2.5797083
10.786106075294207	6.6258764	2.5740778
10.803710879405534	6.544023	2.5581288
10.821315939272877	6.4179807	2.5333734
10.83892125532294	6.332331	2.5164123
10.856526827982472	6.263106	2.5026197
10.874132657678285	6.284807	2.5069518
10.891738744837243	6.1757574	2.4851072
10.909345089886271	6.0163264	2.45282
10.926951693252343	5.9337707	2.435933
10.944558555362494	5.9394064	2.4370897
10.96216567664381	5.949816	2.4392245
10.979773057523436	5.8949566	2.4279532
10.997380698428573	5.8311024	2.4147675
11.014988599786477	5.7499175	2.3978987
11.032596762024461	5.687227	2.3847907
11.050205185569892	5.587378	2.3637636
11.067813870850198	5.5193696	2.3493338
11.085422818292859	5.489866	2.3430462
11.10303202832541	5.4557815	2.3357615
11.120641501375454	5.391064	2.3218665
11.138251237870636	5.3603578	2.3152447
11.155861238238671	5.318487	2.3061845
11.173471502907317	5.2319646	2.2873487
11.191082032304402	5.0767136	2.2531564
11.208692826857805	4.9861774	2.232975
11.226303886995465	4.8945494	2.2123628
11.243915213145371	4.892855	2.2119799
11.261526805735578	4.7939973	2.18952
11.279138665194196	4.786327	2.1877675
11.296750791949393	4.796242	2.1900325
11.314363186429393	4.744514	2.1781905
11.331975849062479	4.6561017	2.1578002
11.34958878027699	4.5474	2.1324635
11.36720198050133	4.547635	2.1325185
11.384815450163948	4.5250874	2.1272252
11.402429189693366	4.50491	2.1224773
11.420043199518153	4.458606	2.111541
11.437657480066942	63.405136	7.962734
11.455272031768422	85.12521	9.226333
11.472886855051353	107.51931	10.369152
11.490501950344528	99.12521	9.956164
11.508117318076819	84.56399	9.195868
11.52573295867715	45.900753	6.7750096
11.543348872574514	4.1327963	2.032928
11.560965060197946	4.0301685	2.007528
11.57858152197655	4.015714	2.0039246
11.59619825833949	4.0101132	2.0025268
11.613815269715985	3.9784245	1.9945989
11.631432556535323	38.472878	6.202651
11.649050119226837	82.979744	9.109322
11.666667958219929	93.34961	9.66176
11.68428607394406	107.649376	10.375422
11.701904466828756	82.46199	9.080858
11.719523137303586	65.32164	8.08218
11.737142085798196	4.5396595	2.1306477
11.754761312742286	3.6872303	1.9202162
11.772380818565619	3.6385791	1.907506
11.790000603698015	3.5982597	1.8969079
11.80762066856935	3.5287106	1.8784863
11.825241013609572	3.5203514	1.8762599
11.842861639248683	3.4969087	1.8700023
11.860482545916748	3.4562109	1.8590887
11.878103734043883	3.416316	1.8483279
11.895725204060282	3.3445935	1.828823
11.91334695639619	3.3316574	1.8252828
11.930968991481919	3.3267593	1.8239406
11.948591309747824	3.311379	1.8197194
11.966213911624347	3.293549	1.8148137
11.98383679754198	3.2733848	1.8092498
12.001459967931268	3.243571	1.8009917
12.019083423222835	3.223377	1.7953765
12.036707163847352	3.171546	1.7808834
12.05433119023556	3.1452134	1.7734749
12.071955502818259	3.1414409	1.772411
12.089580102026313	3.1502283	1.7748883
12.107204988290643	3.1444912	1.7732713
12.12483016204224	3.128989	1.7688948
12.142455623712152	3.120577	1.7665155
12.16008137373149	3.1077046	1.7628683
12.177707412531431	3.0882745	1.7573487
12.19533374054321	3.0354347	1.7422498
12.212960358198126	3.047366	1.7456707
12.230587265927545	3.040694	1.7437586
12.248214464162889	3.0321293	1.7413011
12.265841953335649	2.9904094	1.72928
12.283469733877375	2.9919276	1.7297189
12.301097806219685	2.9637592	1.7215571
12.31872617079425	2.9538462	1.7186757
12.336354828032825	2.9269865	1.7108438
12.353983778367205	2.938911	1.7143252
12.371613022229262	2.8821702	1.6976956
12.389242560050928	2.8738818	1.6952528
12.406872392264201	2.8399167	1.6852052
12.424502519301143	2.8427315	1.6860402
12.442132941593874	2.8123705	1.6770124
12.459763659574586	2.7794738	1.6671754
12.477394673675532	2.784619	1.6687177
12.49502598432903	2.7920144	1.6709322
12.51265759196746	2.81075	1.6765292
12.530289497023267	2.7762258	1.666201
12.547921699928967	2.7990713	1.6730425
12.565554201117134	2.7982576	1.6727993
12.583187001020404	2.7843387	1.6686338
12.600820100071486	2.7458055	1.6570473
12.618453498703152	2.728235	1.651737
12.636087197348235	2.723277	1.6502354
12.65372119643964	2.701314	1.6435674
12.671355496410326	2.662037	1.631575
12.68899009769333	2.6856363	1.6387911
12.706625000721749	2.735245	1.6538576
12.724260205928752	2.8484862	1.6877459
12.741895713747551	2.8860512	1.6988382
12.759531524611454	2.904348	1.7042147
12.777167638953818	2.9183652	1.7083224
12.794804057208072	2.912615	1.7066386
12.812440779807702	2.9339468	1.7128768
12.830077807186271	3.0781426	1.7544637
12.847715139777405	3.1414783	1.7724216
12.865352778014795	3.342325	1.8282026
12.882990722332197	3.4486525	1.8570548
12.90062897316344	3.566302	1.8884655
12.918267530942412	3.6929321	1.9217004
12.935906396103071	3.6358485	1.9067901
12.953545569079449	3.7747068	1.9428605
12.971185050305628	3.590731	1.8949224
12.988824840215775	3.5847821	1.893352
13.006464939244115	3.5630994	1.8876173
13.024105347824943	3.4411654	1.8550378
13.041746066392617	3.5151205	1.8748654
13.05938709538157	3.3678417	1.835168
13.077028435226296	3.3652682	1.8344667
13.094670086361363	3.2619853	1.8060967
13.112312049221401	3.1429875	1.7728473
13.129954324241112	3.027458	1.7399592
13.147596911855258	2.818977	1.678981
13.165239812498685	2.8396442	1.6851244
13.182883026606293	2.7988236	1.6729685
13.200526554613058	2.7782612	1.6668117
13.218170396954017	2.7369692	1.6543788
13.235814554064284	2.7094264	1.6460335
13.253459026379034	2.7057672	1.6449217
13.271103814333523	2.6748693	1.6355028
13.288748918363058	2.6893592	1.6399266
13.306394338903031	2.6935399	1.6412008
13.32404007638889	2.6721084	1.6346585
13.341686131256164	2.6638715	1.6321371
13.359332503940449	2.6436145	1.6259196
13.376979194877402	2.6290877	1.6214461
13.394626204502751	2.6377718	1.6241219
13.412273533252307	2.614288	1.616876
13.429921181561937	2.6298418	1.6216787
13.447569149867581	2.6267228	1.6207168
13.465217438605247	2.6244025	1.6200007
13.482866048211022	2.6299849	1.6217228
13.500514979121052	2.6481903	1.6273261
13.518164231771568	2.6573143	1.6301271
13.535813806598844	2.6392338	1.6245719
13.553463704039254	2.5749228	1.6046566
13.571113924529229	2.556686	1.598964
13.588764468505275	2.561463	1.6004572
13.606415336403956	2.5985327	1.6119965
13.624066528661917	2.650626	1.6280743
13.641718045715882	2.7398698	1.6552552
13.659369888002635	2.8152041	1.677857
13.67702205595903	2.8885286	1.6995672
13.694674550021993	2.9706738	1.7235643
13.712327370628532	2.995622	1.7307866
13.729980518215713	3.041233	1.7439132
13.747633993220681	3.0510662	1.7467301
13.765287796080647	3.107249	1.7627391
13.7829419272329	3.1579814	1.777071
13.800596387114801	3.1813443	1.7836323
13.818251176163775	3.2220156	1.7949973
13.835906294817324	3.2940357	1.8149478
13.853561743513023	3.3255036	1.8235964
13.871217522688525	3.3575928	1.8323735
13.888873632781538	3.41916	1.849097
13.906530074229858	3.5059657	1.8724225
13.92418684747135	3.5731473	1.890277
13.941843952943948	3.5412164	1.881812
13.959501391085665	3.4730835	1.8636211
13.977159162334578	3.3849566	1.8398252
13.994817267128846	3.3789544	1.8381933
14.012475705906693	3.2733314	1.809235
14.030134479106424	3.1790648	1.7829932
14.047793587166414	3.0538683	1.747532
14.065453030525108	2.998682	1.7316703
14.083112809621026	2.9501605	1.7176031
14.100772924892766	2.9128153	1.7066972
14.118433376778997	2.872508	1.6948475
14.136094165718458	2.8194592	1.6791245
14.153755292149969	2.7491093	1.6580439
14.171416756512416	2.703932	1.6443638
14.189078559244768	2.654646	1.6293085
14.20674070078606	2.593711	1.6105002
14.224403181575408	2.5092802	1.5840708
14.242066002051999	2.4758394	1.57348
14.259729162655093	2.4478767	1.5645691
14.277392663824022	2.4110675	1.5527612
14.295056505998208	2.3532236	1.534022
14.312720689617128	2.3387325	1.5292915
14.330385215120348	2.3465195	1.5318353
14.348050082947497	2.3630357	1.5372169
14.3657152935383	2.39231	1.5467094
14.383380847332528	2.375239	1.541181
14.401046744770051	2.352118	1.5336616
14.418712986290798	2.3110292	1.5202069
14.436379572334793	2.3247142	1.5247014
14.454046503342123	2.3399334	1.5296841
14.471713779752946	2.368328	1.5389373
14.489381402007504	2.3505437	1.5331483
14.507049370546113	2.342525	1.5305309
14.524717685809168	2.285541	1.5118006
14.542386348237134	2.313149	1.520904
14.560055358270553	2.3305085	1.5266002
14.577724716350051	2.3849542	1.5443296
14.595394422916325	2.4344103	1.5602597
14.61306447841015	2.5060709	1.5830574
14.63073488327237	2.4864497	1.576848
14.648405637943917	2.486698	1.5769267
14.6660767428658	2.4461966	1.5640322
14.683748198479094	2.4689474	1.5712885
14.701420005224954	2.5219526	1.5880657
14.719092163544628	2.6012912	1.6128519
14.73676467387942	2.6344674	1.6231042
14.754437536670727	2.6566422	1.629921
14.772110752360014	2.6781604	1.6365086
14.78978432138882	2.678435	1.6365925
14.807458244198777	2.6846545	1.6384915
14.82513252123159	2.66522	1.6325501
14.842807152929028	2.7019153	1.6437503
14.860482139732962	2.6578023	1.6302768
14.87815748208531	2.6344295	1.6230925
14.8958331804281	2.6182916	1.6181136
14.91350923520342	2.608824	1.6151855
14.931185646853438	2.6449318	1.6263247
14.948862415820408	2.6226807	1.6194693
14.966539542546656	2.5944006	1.6107143
14.98421702747459	2.5661469	1.6019198
15.001894871046696	2.6103873	1.6156694
15.019573073705542	2.6828237	1.6379328
15.037251635893766	2.6899543	1.640108
15.054930558054092	2.6644692	1.6323202
15.072609840629323	2.6819563	1.6376679
15.090289484062351	2.846362	1.6871165
15.107969488796124	3.1728163	1.7812401
15.125649855273691	3.601482	1.897757
15.14333058393817	4.082911	2.0206215
15.161011675232768	5.0221467	2.2410147
15.17869312960076	6.3982606	2.5294783
15.196374947485506	8.175509	2.8592849
15.214057129330447	11.309982	3.3630316
15.231739675579114	15.825834	3.9781697
15.249422586675102	20.564308	4.5347886
15.267105863062092	23.302094	4.8272243
15.284789505183847	23.370583	4.834313
15.302473513484218	21.158247	4.5998096
15.320157888407127	17.681599	4.2049494
15.337842630396578	13.7061205	3.7021778
15.355527739896656	10.673942	3.2670999
15.37321321735153	8.350379	2.8897023
15.39089906320545	6.201682	2.4903176
15.408585277902748	4.738653	2.1768448
15.42627186188783	3.6857462	1.9198297
15.443958815605198	3.1838353	1.7843305
15.461646139499424	2.9293368	1.7115306
15.479333834015168	2.8096004	1.6761862
15.497021899597165	2.712672	1.6470191
15.514710336690234	2.6719441	1.6346083
15.53239914573928	2.6395218	1.6246605
15.550088327189297	2.5874767	1.6085635
15.567777881485336	2.5488257	1.5965042
15.58546780907256	2.5014	1.5815815
15.6031581103962	2.4749224	1.5731887
15.620848785901568	2.4154742	1.5541795
15.638539836034063	2.3907464	1.5462039
15.656231261239173	2.3844974	1.5441818
15.673923061962451	2.3663328	1.538289
15.691615238649552	2.3353019	1.5281694
15.709307791746202	2.3567553	1.5351727
15.727000721698221	2.3719435	1.5401115
15.744694028951498	2.3685215	1.5390002
15.76238771395202	2.3507025	1.5332001
15.780081777145844	2.361318	1.536658
15.797776218979125	2.3673794	1.538629
15.815471039898094	2.3662028	1.5382466
15.833166240349064	2.3282266	1.5258527
15.850861820778437	2.3181605	1.5225507
15.868557781632699	2.3473744	1.5321144
15.886254123358412	2.3478177	1.532259
15.903950846402232	2.3107312	1.5201089
15.921647951210897	2.300909	1.5168748
15.939345438231225	2.3090892	1.5195688
15.957043307910133	2.3615406	1.5367305
15.974741560694602	2.3956249	1.5477806
15.992440197031714	2.3823366	1.543482
16.01013921736862	2.3702672	1.5395672
16.02783862215259	2.38082	1.5429906
16.045538411830933	2.4026847	1.5500596
16.06323858685107	2.3828936	1.5436624
16.080939147660512	2.3565183	1.5350956
16.09864009470684	2.3372152	1.5287954
16.11634142843774	2.3006196	1.5167793
16.134043149300954	2.296437	1.5153999
16.15174525774433	2.3098161	1.5198079
16.169447754215817	2.3512402	1.5333754
16.18715063916342	2.4382854	1.561501
16.204853913035244	2.4767785	1.5737784
16.222557576279478	2.4468472	1.5642401
16.240261629344403	22.384186	4.731193
16.257966072678386	42.905334	6.550216
16.275670906729868	38.011105	6.1653147
16.293376131947387	2.4308531	1.5591193
16.31108174877957	2.4515083	1.5657293
16.328787757675133	2.4639313	1.5696914
16.34649415908287	2.507135	1.5833935
16.364200953451657	2.5488856	1.5965229
16.38190814123048	2.6402435	1.6248826
16.39961572286839	2.6723552	1.634734
16.41732369881455	2.6669476	1.6330792
16.43503206951817	2.6506565	1.6280837
16.45274083542859	2.6309884	1.6220322
16.47044999699522	2.6562982	1.6298153
16.488159554667558	2.709969	1.6461984
16.505869508895184	2.7721155	1.6649671
16.523579860127786	2.795721	1.6720409
16.541290608815117	2.8473203	1.6874005
16.559001755407035	2.9233944	1.7097937
16.57671330035348	3.0004578	1.732183
16.59442524410448	3.0623102	1.7499458
16.61213758711015	3.122237	1.7669853
16.629850329820705	3.1826181	1.7839894
16.647563472686436	3.2724597	1.8089942
16.665277016157724	3.360423	1.8331457
16.682990960685053	3.3909714	1.841459
16.70070530671898	3.4407282	1.85492
16.718420054710155	3.5008624	1.8710592
16.736135205109335	3.5549753	1.8854642
16.753850758367335	3.6066039	1.899106
16.771566714935087	3.6465232	1.9095871
16.789283075263597	3.6512833	1.9108331
16.80699983980398	3.6910145	1.9212013
16.82471700900741	3.7333138	1.9321785
16.84243458332518	3.8365932	1.9587224
16.860152563208665	3.9246883	1.9810826
16.87787094910932	3.9330945	1.983203
16.89558974147871	3.9479802	1.9869524
16.913308940768466	3.9976013	1.9994003
16.931028547430333	4.084507	2.0210164
16.94874856191613	4.204927	2.050592
16.966468984677785	4.301766	2.07407
16.98418981616729	4.362215	2.0885916
17.00191105683676	4.3901343	2.0952647
17.019632707138374	4.430786	2.1049433
17.03735476752442	4.442679	2.1077664
17.05507723844728	4.473311	2.1150203
17.072800120359403	4.5142827	2.124684
17.090523413713353	4.513033	2.1243901
17.108247118961785	4.5529943	2.1337748
17.125971236557437	4.5827484	2.1407354
17.143695766953133	4.5505004	2.1331902
17.161420710601806	4.5375414	2.1301506
17.179146067956477	4.552043	2.1335518
17.19687183947025	4.613541	2.1479156
17.21459802559634	4.5791984	2.1399062
17.232324626788028	4.585068	2.1412773
17.25005164349871	4.553948	2.1339982
17.267779076181863	4.52592	2.127421
17.285506925291074	4.4794006	2.1164594
17.30323519127999	4.4491754	2.1093068
17.320963874602384	4.4322405	2.1052887
17.33869297571211	4.4282813	2.1043482
17.356422495063114	4.476505	2.115775
17.37415243310944	4.4679713	2.1137576
17.391882790305218	4.467739	2.1137028
17.40961356710468	4.4111485	2.1002734
17.42734476396215	4.422492	2.1029723
17.445076381332044	4.39618	2.0967069
17.462808419668868	4.4729185	2.1149275
17.48054087942723	4.612494	2.1476717
17.498273761061835	4.9785905	2.2312756
17.51600706502747	5.504124	2.346087
17.533740791779024	6.21944	2.4938805
17.551474941771485	7.6084685	2.7583454
17.56920951545993	8.653786	2.9417317
17.586944513299528	10.619715	3.2587905
17.60467993574556	12.11193	3.4802198
17.622415783253373	13.627797	3.6915846
17.64015205627843	14.749997	3.8405726
17.657888755276293	15.6261215	3.9529889
17.675625880702604	15.89721	3.9871306
17.69336343301311	15.708831	3.9634368
17.71110141266366	15.137635	3.8907113
17.728839820110178	14.477203	3.804892
17.746578655808705	13.812301	3.7164903
17.764317920215372	12.592857	3.5486417
17.7820576137864	11.269484	3.3570051
17.79979773697811	9.378061	3.062362
17.81753829024692	7.5327435	2.7445843
17.835279274049356	5.793244	2.406916
17.85302068884201	4.8039193	2.1917846
17.870762535081607	4.2271295	2.0559983
17.888504813224934	3.9130118	1.9781334
17.90624752372891	3.685032	1.9196436
17.923990667050536	3.556799	1.8859477
17.941734243646895	3.4758463	1.8643621
17.959478253975185	3.4666746	1.8619008
17.9772226984927	3.4166756	1.8484251
17.994967577656833	3.3697643	1.8356918
18.01271289192506	3.3547838	1.8316069
18.030458641754965	3.3309922	1.8251007
18.04820482760425	3.2816982	1.8115458
18.06595144993067	3.2144437	1.792887
18.083698509192125	3.1845684	1.7845359
18.101446005846576	3.2064993	1.79067
18.119193940352105	3.200983	1.7891291
18.136942313166887	3.1506763	1.7750144
18.1546911247492	3.1254923	1.7679062
18.1724403755574	3.1395707	1.7718834
18.19019006604997	3.1668005	1.7795507
18.207940196685467	3.1610103	1.777923
18.225690767922575	3.1127048	1.7642859
18.243441780220046	3.0320563	1.7412801
18.261193234036764	3.0000627	1.7320689
18.278945129831676	2.98528	1.7277963
18.29669746806386	2.9794	1.7260939
18.314450249192483	2.937286	1.7138512
18.3322034736768	2.9257646	1.7104867
18.349957141976184	2.9124942	1.7066032
18.3677112545501	2.9490232	1.717272
18.385465811858108	2.9577374	1.7198074
18.403220814359884	2.9910471	1.7294644
18.420976262515172	3.0559359	1.7481235
18.43873215678387	3.0855494	1.7565732
18.456488497625923	3.0815933	1.7554468
18.474245285501407	3.1695483	1.7803226
18.492002520870486	3.2803783	1.8111814
18.50976020419343	3.3754797	1.8372478
18.527518335930615	3.6581962	1.9126412
18.545276916542516	4.174657	2.0431976
18.563035946489688	4.346524	2.0848317
18.580795426232832	4.859093	2.204335
18.598555356232698	4.7834935	2.18712
18.616315736950185	5.139492	2.2670448
18.63407656884626	4.8058176	2.1922176
18.65183785238201	5.0030966	2.2367604
18.669599588018617	4.7280536	2.1744087
18.68736177621737	4.65905	2.1584833
18.705124417439652	4.5918627	2.1428633
18.72288751214696	4.392921	2.0959296
18.740651060800886	4.5691905	2.1375666
18.758415063863115	4.2398677	2.059094
18.77617952179546	4.4016705	2.0980158
18.793944435059814	4.2025514	2.0500126
18.811709804118184	4.233357	2.0575123
18.829475629432675	4.195631	2.0483239
18.8472419114655	3.9847813	1.9961917
18.86500865067897	4.147553	2.036554
18.88277584753551	3.8496485	1.9620521
18.90054350249763	3.8386643	1.9592509
18.918311616027957	3.482525	1.8661525
18.936080188589226	3.314256	1.8205098
18.953849220644265	3.0094047	1.7347636
18.971618712656007	2.8207366	1.6795049
18.9893886650875	2.7599883	1.6613213
19.007159078401887	7.9354095	2.8169858
19.024929953062408	32.814537	5.7283974
19.042701289532435	32.78439	5.725765
19.060473088275405	25.336378	5.0335255
19.07824534975489	2.6076179	1.614812
19.096018074434568	2.5801468	1.6062835
19.113791262778197	2.5769386	1.6052846
19.13156491524966	2.588415	1.6088551
19.149339032312945	2.601244	1.6128372
19.167113614432136	2.5652554	1.6016414
19.184888662071433	2.5312667	1.5909956
19.202664175695123	2.4989543	1.5808082
19.220440155767623	2.5067239	1.5832636
19.238216602753447	2.5167027	1.5864118
19.2559935171172	2.5287666	1.5902096
19.27377089932361	2.5206907	1.5876683
19.291548749837514	2.5156076	1.5860667
19.309327069123835	2.485011	1.5763918
19.32710585764763	2.4691634	1.5713571
19.344885115874032	2.4709718	1.5719326
19.362664844268313	2.4937956	1.5791756
19.380445043295822	2.5007696	1.5813822
19.39822571342203	2.465208	1.5700982
19.41600685511252	2.4547012	1.5667486
19.43378846883297	2.4507318	1.5654813
19.451570555049173	2.4675088	1.5708306
19.469353114227037	2.4525836	1.5660727
19.48713614683254	2.4075465	1.551627
19.50491965333182	2.364629	1.537735
19.52270363419109	2.4138615	1.5536606
19.540488089876686	2.444593	1.5635194
19.55827302085503	2.4743392	1.5730033
19.576058427592674	2.4394743	1.5618817
19.593844310556282	2.435826	1.5607133
19.611630670212598	2.454033	1.5665354
19.629417507028506	2.4653943	1.5701574
19.64720482147098	2.46969	1.5715247
19.6649926140071	2.4677494	1.5709072
19.682780885104084	2.4683104	1.5710857
19.70056963522921	2.4390252	1.5617379
19.718358864849908	2.412182	1.5531201
19.7361485744337	2.4292269	1.5585977
19.753938764448215	2.4376397	1.5612942
19.771729435361202	2.4620142	1.5690807
19.789520587640506	2.4405594	1.562229
19.807312221754092	2.43665	1.5609772
19.825104338170043	2.4277115	1.5581115
19.842896937356517	2.4466987	1.5641927
19.860690019781824	2.4900599	1.5779923
19.87848358591436	2.484103	1.5761037
19.896277636222635	2.4498594	1.5652027
19.914072171175278	2.4326591	1.5596985
19.931867191241015	2.4607663	1.568683
19.94966269688869	2.4644477	1.5698559
19.967458688587264	2.4681604	1.571038
19.985255166805807	2.4684193	1.5711204
20.00305213201348	2.464746	1.5699509
20.020849584679578	2.4362729	1.5608565
20.038647525273507	2.4205096	1.5557986
20.05644595426477	2.4211333	1.5559992
20.07424487212299	2.4418433	1.5626398
20.092044279317903	2.419411	1.5554456
20.109844176319353	2.3707395	1.5397205
20.127644563597304	2.3653562	1.5379715
20.145445441621817	2.3757308	1.5413406
20.16324681086307	2.352909	1.5339196
20.181048671791373	2.3206975	1.5233836
20.198851024877122	2.3259442	1.5251046
20.216653870590836	2.3211758	1.5235405
20.234457209403146	2.3049731	1.5182137
20.252261041784802	2.3224256	1.5239507
20.270065368206662	2.3010132	1.5169091
20.287870189139685	2.3134604	1.5210063
20.305675505054968	2.278942	1.5096165
20.323481316423702	2.2673361	1.5057676
20.341287623717207	2.2804663	1.5101213
20.359094427406884	2.317346	1.5222832
20.376901727964288	2.3169575	1.5221555
20.39470952586107	2.2890625	1.5129648
20.41251782156899	2.2613864	1.5037906
20.430326615559935	2.2874253	1.5124236
20.448135908305886	2.3095336	1.519715
20.465945700278965	2.2758718	1.5085993
20.483755991951384	2.252567	1.5008554
20.50156678379548	2.2430887	1.4976945
20.519378076283708	2.2461717	1.4987234
20.537189869888635	2.2554915	1.5018294
20.55500216508294	2.2846007	1.5114896
20.572814962339415	2.3028936	1.5175288
20.59062826213098	2.2852507	1.5117046
20.60844206493066	2.27594	1.5086218
20.626256371211593	2.2780938	1.5093355
20.644071181447032	2.2492344	1.4997448
20.66188649611036	2.2577987	1.5025973
20.67970231567506	2.2398303	1.4966062
20.697518640614742	2.21264	1.4874946
20.715335471403122	2.2519202	1.5006399
20.73315280851404	2.2608876	1.5036248
20.750970652421447	2.248383	1.4994609
20.768789003599412	2.2190547	1.4896492
20.786607862522136	2.2452507	1.4984161
20.8044272296639	2.2191927	1.4896955
20.82224710549913	2.2200725	1.4899908
20.84006749050237	2.2123208	1.4873873
20.857888385148268	3.8126578	1.9526029
20.8757097899116	45.95335	6.77889
20.893531705267254	64.84364	8.052555
20.911354131690224	83.84286	9.156574
20.92917706965566	69.058075	8.310119
20.94700051963877	50.0891	7.0773654
20.96482448211493	29.374456	5.419821
20.982648957559622	4.0931315	2.023149
21.00047394644843	2.1607053	1.4699337
21.01829944925707	2.1497219	1.466193
21.036125466461375	2.147191	1.4653296
21.053951998537297	2.1508877	1.4665905
21.071779045960906	2.1789143	1.4761146
21.089606609208378	2.200891	1.48354
21.10743468875603	2.2071817	1.4856586
21.12526328508028	2.1687772	1.4726769
21.143092398657675	2.1709688	1.4734207
21.16092202996488	2.1774535	1.4756197
21.17875217947867	2.1728373	1.4740547
21.19658284767596	2.1857004	1.4784114
21.21441403503377	2.175179	1.4748489
21.232245742029225	2.1551619	1.4680469
21.2500779691396	2.1413922	1.4633497
21.26791071684227	2.1943555	1.4813358
21.28574398561475	2.193716	1.4811199
21.30357777593465	2.1549404	1.4679716
21.321412088279704	2.1461105	1.4649609
21.339246923127792	2.154706	1.4678917
21.357082280956888	2.1238956	1.4573591
21.3749181622451	2.1185856	1.4555361
21.392754567470647	2.125239	1.4578199
21.41059149711187	2.1199956	1.4560205
21.42842895164726	2.0687938	1.4383302
21.446266931555378	2.0769722	1.4411705
21.464105437314945	2.0903928	1.4458191
21.481944469404798	2.0719275	1.4394192
21.49978402830388	2.0267584	1.4236426
21.51762411449127	1.9987811	1.4137826
21.53546472844617	2.0325565	1.4256775
21.553305870647876	2.0718079	1.4393775
21.571147541575865	2.0831785	1.4433221
21.58898974170967	2.058924	1.4348952
21.60683247152899	2.019327	1.4210303
21.62467573151363	2.0121944	1.4185184
21.642519522143523	2.0197284	1.4211715
21.660363843898722	2.050721	1.4320339
21.6782086972594	2.0297039	1.4246768
21.696054082705864	2.025402	1.4231662
21.713900000718535	1.9779187	1.406385
21.73174645177795	1.9813508	1.4076046
21.749593436364794	2.005647	1.4162086
21.767440954959845	2.0470822	1.4307628
21.785289008044032	2.0647736	1.436932
21.803137596098388	2.0508406	1.4320756
21.820986719604086	2.0198805	1.4212251
21.838836379042412	1.9915208	1.4112126
21.85668657489478	1.9815894	1.4076895
21.87453730764273	1.9462534	1.3950819
21.892388577767914	1.9274234	1.3883168
21.91024038575213	1.9517298	1.3970432
21.928092732077285	1.9958563	1.4127477
21.945945617225426	1.9890131	1.4103237
21.963799041678694	1.9743606	1.4051194
21.981653005919398	31.29533	5.594223
21.999507510429943	78.08987	8.836847
22.01736255569286	73.022964	8.545347
22.035218142190818	4.117092	2.0290618
22.05307427040661	1.9520152	1.3971454
22.07093094082315	1.9698611	1.4035174
22.088788153923474	1.9810027	1.407481
22.106645910190746	1.9682996	1.402961
22.12450421010827	1.9674911	1.4026729
22.142363054159464	1.9714769	1.4040929
22.16022244282787	2.00052	1.4143974
22.178082376597164	2.0196862	1.4211566
22.195942855951145	1.9960897	1.4128304
22.213803881373742	1.9672788	1.4025972
22.231665453349002	1.9660736	1.4021674
22.24952757236111	1.9415959	1.3934116
22.26739023889438	1.9175133	1.384743
22.28525345343323	1.9067192	1.3808401
22.30311721646225	1.8779147	1.3703703
22.320981528466113	1.8926288	1.3757285
22.33884638992964	1.9197531	1.3855516
22.356711801337788	1.9567052	1.3988228
22.37457776317561	1.9548694	1.3981664
22.392444275928337	1.9433398	1.3940372
22.410311340081282	1.8838441	1.372532
22.428178956119904	1.8237624	1.3504674
22.446047124529805	1.8415397	1.3570335
22.46391584579669	1.8738799	1.3688973
22.481785120406414	1.9128293	1.3830507
22.49965494884496	1.9261032	1.3878412
22.51752533159841	1.9619017	1.400679
22.53539626915302	1.9504927	1.3966004
22.553267761995137	1.9438518	1.3942208
22.571139810611264	1.9101832	1.3820938
22.589012415488025	1.9105073	1.382211
22.60688557711216	1.8968244	1.3772525
22.624759295970566	1.9264	1.3879482
22.642633572550263	1.916706	1.3844515
22.660508407338362	1.9070796	1.3809705
22.67838380082217	1.888261	1.37414
22.696259753489077	1.849291	1.3598864
22.714136265826614	1.8094677	1.3451645
22.73201333832246	1.8312066	1.3532208
22.74989097146439	1.8546126	1.3618416
22.76776916574035	1.8587345	1.3633541
22.785647921638393	1.8723724	1.3683466
22.803527239646712	1.8625826	1.3647647
22.82140712025363	1.8815125	1.3716824
22.839287563947593	1.8761115	1.3697122
22.85716857121719	1.8847601	1.3728657
22.875050142551135	1.8500566	1.3601679
22.892932278438277	1.8386772	1.3559783
22.910814979367604	1.8693371	1.367237
22.928698245828222	1.9031155	1.3795345
22.946582078309387	1.9092705	1.3817636
22.96446647730047	1.888429	1.3742013
22.98235144329098	1.827573	1.3518776
23.000236976770562	1.8318124	1.3534446
23.018123078229	1.8550754	1.3620116
23.03600974815619	1.8721169	1.3682532
23.053896987042194	1.8847283	1.3728541
23.071784795377173	1.8763909	1.3698142
23.08967317365145	1.8889736	1.3743993
23.10756212235546	1.8784522	1.3705664
23.125451641979787	1.8599298	1.3637924
23.143341733015134	1.8629552	1.3649012
23.161232395952357	1.8522393	1.36097
23.179123631282426	1.8892976	1.3745172
23.197015439496468	1.9256082	1.3876629
23.214907821085717	1.9490659	1.3960896
23.23280077654157	1.9382113	1.3921965
23.250694306355538	1.9414636	1.3933641
23.268588411019277	1.9406644	1.3930774
23.28648309102458	1.9413699	1.3933305
23.304378346863356	1.884525	1.37278
23.322274179027676	1.8703736	1.367616
23.340170588009723	1.8617092	1.3644446
23.358067574301852	1.8803219	1.3712482
23.37596513839651	1.9023097	1.3792424
23.39386328078629	1.9062564	1.3806725
23.411762001963947	1.90851	1.3814883
23.429661302422353	1.8959252	1.376926
23.4475611826545	1.8934336	1.3760209
23.46546164315356	1.8929776	1.3758552
23.48336268441279	1.900767	1.3786831
23.501264306925638	1.8983449	1.3778044
23.51916651118564	1.9416504	1.3934312
23.537069297686497	1.9206061	1.3858594
23.554972666922037	1.9078858	1.3812624
23.57287661938623	1.8877865	1.3739674
23.59078115557318	1.8975686	1.3775226
23.608686275977128	1.8731827	1.3686427
23.62659198109246	1.855241	1.3620723
23.6444982714137	1.847935	1.3593878
23.66240514743549	1.8773535	1.3701655
23.68031260965263	1.8985397	1.3778751
23.698220658560068	1.9223174	1.3864766
23.716129294652845	1.877729	1.3703026
23.7340385184262	1.8409559	1.3568183
23.75194833037546	1.8306681	1.3530219
23.769858730996123	1.8540549	1.3616369
23.78776972078382	1.8584545	1.3632514
23.80568130023431	1.8512976	1.360624
23.823593469843495	1.8564496	1.3625159
23.841506230107424	1.841442	1.3569974
23.859419581522275	1.850335	1.3602701
23.87733352458438	1.8572665	1.3628156
23.89524805979019	1.8820775	1.3718883
23.913163187636318	1.8899405	1.3747511
23.931078908619508	1.9029143	1.3794616
23.948995223236633	1.9024673	1.3792995
23.966912131984735	1.9430399	1.3939296
23.98482963536096	1.993898	1.4120545
24.002747733862616	2.0191598	1.4209714
24.020666427987155	2.0149693	1.4194962
24.038585718232156	2.0289292	1.4244049
24.056505605095353	1.9901524	1.4107276
24.074426089074617	1.9487695	1.3959833
24.092347170667946	1.9458296	1.39493
24.110268850373515	1.9696556	1.4034442
24.128191128689586	1.9774216	1.4062083
24.146114006114626	1.9921944	1.4114512
24.164037483147187	2.0042856	1.415728
24.181961560286005	2.0251858	1.4230902
24.199886238029926	2.010379	1.4178784
24.21781151687797	2.0113225	1.418211
24.235737397329274	2.0224464	1.4221274
24.253663879883135	2.008323	1.4171531
24.271590965038975	2.0117705	1.4183689
24.289518653296376	2.0172415	1.4202963
24.30744694515505	2.0509174	1.4321024
24.32537584111486	2.0443149	1.4297954
24.34330534167581	2.0177467	1.420474
24.361235447338046	1.982999	1.40819
24.379166158601876	1.9755864	1.4055556
24.39709747596772	1.9443108	1.3943855
24.41502939993615	1.9236165	1.386945
24.432961931007917	1.9229722	1.3867128
24.450895069683856	1.8925848	1.3757125
24.468828816465	1.8710868	1.3678768
24.4867631718525	1.8825414	1.3720573
24.504698136347656	1.8868659	1.3736323
24.52263371045192	1.899623	1.3782681
24.540569894666874	1.9010729	1.378794
24.558506689494266	1.8921474	1.3755535
24.57644409543597	1.8894517	1.3745733
24.594382112994012	1.898748	1.3779507
24.61232074267057	1.9185202	1.3851066
24.630259984967953	1.9069306	1.3809166
24.64819984038863	1.8940059	1.3762288
24.66614030943522	1.9111629	1.3824482
24.684081392610462	1.9262353	1.3878888
24.702023090417274	1.9264419	1.3879632
24.7199654033587	1.9321892	1.390032
24.737908331937927	1.9606256	1.4002234
24.755851876658305	1.9621794	1.4007782
24.773796038023324	1.9617857	1.4006376
24.79174081653661	2.0004025	1.4143559
24.809686212701962	2.0301757	1.4248424
24.827632227023294	2.0578837	1.4345326
24.8455788600047	2.044894	1.4299979
24.8635261121504	2.039297	1.4280396
24.88147398396475	2.030999	1.4251312
24.899422475952303	2.0844586	1.4437654
24.917371588617698	2.0747108	1.4403857
24.935321322465768	2.1300693	1.4594756
24.953271678001478	2.208893	1.4862345
24.97122265572994	2.404429	1.5506221
24.989174256156414	2.6725981	1.6348083
25.00712647978632	3.1125154	1.7642323
25.02507932712521	3.6275437	1.9046111
25.043032798678798	4.1061077	2.0263534
25.060986894952933	4.7291746	2.1746666
25.078941616453637	5.38335	2.3202047
25.096896963687055	6.1767945	2.4853158
25.114852937159508	7.186246	2.6807175
25.132809537377444	7.7206903	2.778613
25.150766764847468	7.83783	2.7996125
25.168724620076347	7.3871593	2.717933
25.186683103570985	6.448382	2.5393665
25.204642215838426	5.3917794	2.3220205
25.222601957385894	4.1321654	2.0327728
25.24056232872074	3.1644897	1.7789012
25.25852333035048	2.605524	1.6141636
25.276484962782778	2.2933476	1.5143802
25.294447226525435	2.12201	1.456712
25.312410122086423	2.0285687	1.4242784
25.330373649973843	1.9619937	1.4007119
25.348337810695988	1.9256334	1.387672
25.366302604761245	1.9173148	1.3846713
25.384268032678207	1.9197551	1.3855523
25.40223409495558	1.8850168	1.3729591
25.420200792102257	1.8982967	1.3777869
25.438168124627246	1.8875493	1.3738811
25.45613609303974	1.8952272	1.3766725
25.474104697849057	1.856453	1.3625171
25.492073939564698	1.8368787	1.355315
25.510043818696285	1.8267044	1.3515563
25.528014335753614	1.841657	1.3570766
25.54598549124664	1.8773755	1.3701736
25.56395728568544	1.8754379	1.3694663
25.58192971958028	1.8257143	1.35119
25.59990279344156	1.8163583	1.3477234
25.617876507779833	1.8322062	1.3535901
25.635850863105826	1.7991134	1.3413104
25.653825859930386	1.7614422	1.3271934
25.671801498764548	1.7872369	1.3368758
25.68977778011949	1.8427051	1.3574628
25.707754704506524	1.8560604	1.3623731
25.725732272437153	1.8061179	1.3439188
25.743710484423012	1.7890687	1.3375608
25.761689340975888	1.840454	1.3566333
25.77966884260774	1.843538	1.3577695
25.797648989830662	1.818047	1.3483497
25.815629783156922	1.8388988	1.35606
25.83361122309895	1.8463478	1.3588039
25.85159331016929	1.8055972	1.3437251
25.869576044880695	1.7800394	1.3341812
25.887559427746034	1.7770298	1.3330528
25.90554345927836	1.8300807	1.3528048
25.92352813999086	1.8137734	1.3467641
25.94151347039689	1.7515178	1.3234493
25.959499451009965	1.7028956	1.3049505
25.97748608234374	1.7618201	1.3273357
25.995473364912062	1.7943672	1.3395399
26.013461299228904	1.7805054	1.3343558
26.03144988580839	1.7680739	1.3296894
26.04943912516483	1.7581171	1.3259401
26.067429017812675	1.8045806	1.3433468
26.085419564266537	1.8388448	1.3560401
26.103410765041186	1.8846161	1.3728132
26.12140262065155	1.8515096	1.3607019
26.139395131612723	1.8027006	1.3426468
26.157388298439948	1.7861476	1.3364683
26.17538212164861	1.793458	1.3392005
26.193376601754295	1.7959352	1.3401251
26.211371739272714	1.7781146	1.3334596
26.229367534719746	1.7825674	1.3351282
26.247363988611433	1.7850236	1.3360478
26.26536110146397	1.8238888	1.3505143
26.283358873793727	1.8177358	1.3482343
26.301357306117204	1.7691022	1.330076
26.319356398951104	1.7592539	1.3263687
26.33735615281224	1.7560347	1.3251547
26.35535656821762	1.7608482	1.3269695
26.373357645684404	1.7385211	1.3185298
26.39135938572991	1.7355539	1.3174043
26.409361788871614	1.7518886	1.3235893
26.427364855627165	1.7770606	1.3330643
26.445368586514352	1.7829146	1.3352582
26.46337298205115	1.7927402	1.3389325
26.48137804275568	1.8117702	1.3460201
26.499383769146217	1.7841084	1.3357052
26.517390161741215	1.7570477	1.3255367
26.53539722105928	1.7436633	1.3204784
26.553404947619182	1.7395195	1.3189085
26.571413341939856	1.7407475	1.3193738
26.589422404540397	1.7978795	1.3408502
26.60743213594006	1.818658	1.3485763
26.62544253665827	1.7915039	1.3384707
26.64345360721459	1.7436382	1.3204689
26.66146534812879	1.7254919	1.3135798
26.679477759920758	1.7607946	1.3269494
26.69749084311057	1.806979	1.3442391
26.71550459821847	1.7694662	1.3302128
26.733519025764842	1.7787343	1.333692
26.751534126270258	1.8030996	1.3427955
26.769549900255434	1.7830993	1.3353274
26.787566348241267	1.7630899	1.327814
26.80558347074881	1.791569	1.338495
26.823601268299267	1.8054081	1.3436548
26.841619741414036	1.819572	1.3489151
26.85963889061465	1.8379766	1.3557199
26.877658716422832	1.8471379	1.3590945
26.89567921936045	1.8129834	1.3464707
26.913700399949544	1.7692941	1.3301482
26.93172225871233	1.7628734	1.3277324
26.949744796171174	1.7508429	1.3231943
26.967768012848605	1.78356	1.3354999
26.98579190926733	1.7928225	1.3389633
27.003816485950225	1.7948788	1.3397309
27.021841743420318	1.7775178	1.3332359
27.039867682200814	1.7780464	1.3334341
27.057894302815072	1.7158751	1.3099142
27.07592160578664	1.7111316	1.3081023
27.0939495916392	1.7697779	1.33033
27.111978260896635	1.7972056	1.340599
27.13000761408296	1.7740846	1.3319477
27.148037651722397	1.7583134	1.3260142
27.166068374339304	1.778847	1.3337343
27.184099782458215	1.75446	1.3245603
27.20213187660384	1.7929671	1.3390172
27.22016465730105	1.8036574	1.3430032
27.23819812507487	1.7891294	1.3375834
27.256232280450533	1.7699057	1.330378
27.274267123953383	1.7523258	1.3237544
27.292302656108987	1.7500504	1.3228947
27.31033887744306	1.7492923	1.3226081
27.32837578848146	1.7540653	1.3244113
27.34641338975026	1.7029476	1.3049704
27.364451681775673	1.7284696	1.3147128
27.382490665084074	1.749119	1.3225427
27.400530340202046	1.769679	1.3302928
27.41857070765629	1.7560512	1.3251609
27.436611767973726	1.7448757	1.3209374
27.454653521681404	1.7634646	1.327955
27.472695969306564	1.804594	1.3433518
27.490739111376627	1.830224	1.3528577
27.508782948419153	1.818622	1.348563
27.526827480961902	1.7993865	1.3414122
27.54487270953279	1.8097509	1.3452698
27.562918634659898	1.7583435	1.3260255
27.580965256871508	1.7575928	1.3257424
27.599012576696026	1.7604163	1.3268068
27.617060594662068	1.7783914	1.3335634
27.63510931129842	1.73287	1.3163851
27.65315872713401	1.7477522	1.3220258
27.67120884269797	1.7612902	1.327136
27.68925965851958	1.8063815	1.3440169
27.707311175128307	1.8387954	1.3560219
27.725363393053787	1.8364015	1.3551389
27.74341631282583	1.8579195	1.3630552
27.7614699349744	1.8111022	1.3457719
27.77952426002968	1.998064	1.4135289
27.797579288521973	2.1071613	1.4516064
27.815635020981784	2.5559196	1.5987244
27.83369145793979	2.638484	1.6243411
27.85174859992682	2.5082266	1.5837382
27.869806447473923	2.2904108	1.5134103
27.887865001112267	1.9047548	1.3801285
27.905924261373233	1.8423227	1.3573219
27.92398422878836	1.8358134	1.3549219
27.94204490388936	1.8473747	1.3591816
27.96010628720813	1.8316995	1.353403
27.978168379276728	1.798342	1.3410227
27.9962311806274	1.7859921	1.3364102
28.014294691792568	1.8075179	1.3444396
28.0323589133048	1.8167489	1.3478683
28.050423845696887	1.7865977	1.3366368
28.068489489501758	1.8153734	1.347358
28.086555845252523	1.8131751	1.3465419
28.104622913482487	1.7675885	1.3295069
28.122690694725115	1.7442712	1.3207086
28.14075918951405	1.8536507	1.3614885
28.15882839838312	1.8917025	1.3753917
28.176898321866304	1.8866951	1.3735702
28.1949689604978	1.8934375	1.3760223
28.213040314811945	1.8930402	1.375878
28.23111238534327	1.9059024	1.3805442
28.249185172626493	1.9364965	1.3915806
28.267258677196473	1.8863432	1.3734422
28.285332899588294	1.8511364	1.3605647
28.303407840337172	1.878133	1.3704499
28.321483499978545	1.9096371	1.3818961
28.33955987904799	1.9110872	1.3824208
28.357636978081285	1.9009434	1.378747
28.37571479761439	1.9158338	1.3841364
28.393793338183425	1.9654951	1.4019612
28.41187260032469	2.0089731	1.4173825
28.429952584574686	1.976163	1.4057606
28.448033291470065	1.885685	1.3732024
28.46611472154769	1.8633542	1.3650473
28.484196875344566	1.9100449	1.3820437
28.502279753397914	1.9117341	1.3826548
28.52036335624511	1.9202635	1.3857358
28.538447684423716	1.9116106	1.3826101
28.556532738471482	1.9283857	1.3886633
28.574618518926325	1.9341112	1.3907232
28.59270502632635	1.9923068	1.411491
28.61079226120985	2.014448	1.4193125
28.628880224115274	2.0271266	1.423772
28.646968915581287	1.9752904	1.4054502
28.66505833614671	1.9414033	1.3933425
28.68314848635055	1.943408	1.3940617
28.701239366732004	1.9547586	1.3981268
28.71933097783044	2.0068138	1.4166205
28.737423320185403	2.0615156	1.4357979
28.75551639433665	2.1252875	1.4578366
28.773610200824074	2.1651623	1.471449
28.791704740187793	2.1406133	1.4630835
28.80980001296809	2.1472151	1.4653379
28.827896019705413	2.1493206	1.4660561
28.845992760940433	2.1739464	1.4744309
28.86409023721397	2.1935155	1.4810522
28.88218844906704	2.151365	1.4667532
28.900287397040845	2.167063	1.4720948
28.918387081676755	2.207833	1.4858779
28.936487503516343	2.2479253	1.4993082
28.954588663101365	2.2792585	1.5097213
28.97269056097374	2.3163261	1.5219481
28.990793197675597	2.3137147	1.52109
29.00889657374923	2.3024564	1.5173848
29.027000689737125	2.3163655	1.5219611
29.04510554618196	2.3471284	1.532034
29.06321114362659	2.3989422	1.548852
29.08131748261405	2.3947997	1.5475141
29.099424563687567	2.3593113	1.536005
29.11753238739057	2.3988278	1.548815
29.13564095426663	2.4751003	1.5732452
29.15375026485954	2.5432498	1.594757
29.171860319713275	2.5869353	1.6083952
29.18997111937199	2.6013527	1.6128709
29.20808266438002	2.671739	1.6345456
29.226194955281898	2.771955	1.6649189
29.244307992622335	2.8304863	1.6824049
29.26242177694624	2.8531156	1.6891168
29.2805363087987	2.8403113	1.6853223
29.29865158872498	2.8367486	1.684265
29.316767617270557	2.846588	1.6871834
29.334884394981064	2.8650079	1.6926334
29.353001922402367	2.931909	1.7122818
29.37112020008047	2.9575226	1.7197449
29.389239228561596	3.079692	1.7549051
29.407359008392152	3.2676394	1.8076613
29.42547954011872	3.585339	1.8934991
29.44360082428809	4.1531086	2.0379176
29.46172286144722	5.173039	2.2744315
29.479845652143283	6.6763234	2.5838583
29.497969196923606	8.591312	2.9310942
29.516093496335728	10.900049	3.3015223
29.5342185509274	13.403006	3.6610115
29.55234436124651	15.421052	3.9269648
29.570470927841175	16.560888	4.069507
29.588598251259686	16.243887	4.0303707
29.60672633205055	15.061082	3.880861
29.624855170762405	13.05616	3.6133308
29.642984767944146	10.689672	3.2695065
29.66111512414481	8.250686	2.8724008
29.67924623991366	6.335496	2.5170412
29.697378115800138	4.9813075	2.2318842
29.71551075235387	4.1388807	2.0344238
29.733644150124675	3.7050226	1.9248435
29.751778309662576	3.5271022	1.8780581
29.769913231517766	3.424786	1.8506178
29.78804891624066	3.3169687	1.8212547
29.806185364381818	3.223948	1.7955356
29.82432257649206	3.1770754	1.7824353
29.842460553122333	3.1527324	1.7755935
29.86059929482382	3.0900693	1.7578593
29.878738802147872	3.137209	1.7712168
29.896879075646048	3.2177086	1.7937973
29.915020115870114	3.2774749	1.8103797
29.933161923371976	3.2069874	1.7908063
29.951304498703777	3.1393094	1.7718097
29.969447842417857	3.1048448	1.762057
29.987591955066733	3.162341	1.7782973
30.005736837203123	3.192757	1.7868288
30.023882489379943	3.1389492	1.771708
30.04202891215028	3.1476338	1.7741572
30.060176106067455	3.1568713	1.7767587
30.078324071684946	3.188725	1.7857001
30.09647280955646	3.1229403	1.7671843
30.114622320235863	3.0515587	1.7468711
30.132772604277257	3.0561297	1.748179
30.1509236622349	3.0976331	1.7600094
30.16907549466328	3.1001816	1.7607332
30.18722810211705	3.080452	1.7551216
30.205381485151097	3.0633693	1.7502483
30.22353564432045	3.0773351	1.7542335
30.241690580180403	2.9897099	1.7290777
30.25984629328638	2.9569314	1.719573
30.278002784194037	2.9687076	1.7229937
30.296160053459246	2.9309127	1.7119908
30.314318101638033	2.9020708	1.7035465
30.332476929286646	2.8958607	1.7017229
30.35063653696153	2.8633707	1.6921498
30.368796925219307	2.8345277	1.6836056
30.386958094616844	2.8338463	1.6834033
30.40512004571115	2.8745484	1.6954494
30.423282779059463	2.8639133	1.6923101
30.441446295219233	2.8620198	1.6917505
30.459610594748067	2.8487241	1.6878164
30.47777567820382	2.8466873	1.6872128
30.495941546144504	2.8953242	1.7015653
30.51410819912835	2.8412719	1.6856073
30.532275637713795	2.8159347	1.6780747
30.55044386245946	2.8229659	1.6801684
30.56861287392416	2.753911	1.6594912
30.586782672666956	2.748237	1.6577808
30.604953259247047	2.754447	1.6596527
30.623124634223885	2.7526183	1.6591016
30.641296798157075	2.737095	1.6544168
30.659469751606462	2.7263107	1.6511544
30.677643495132074	2.7053483	1.6447943
30.695818029294152	2.6642218	1.6322443
30.713993354653116	2.6578116	1.6302797
30.73216947176962	2.6503885	1.6280013
30.75034638120448	2.6263485	1.6206013
30.768524083518756	2.658011	1.6303407
30.786702579273673	2.7025328	1.6439382
30.80488186903069	2.710267	1.6462889
30.82306195335144	2.8437917	1.6863545
30.841242832797782	3.0406108	1.7437347
30.85942450793176	3.2771425	1.810288
30.877606979315637	3.5813067	1.8924341
30.895790247511883	3.8600934	1.964712
30.913974313083134	4.178931	2.0442433
30.932159176592283	4.497773	2.1207955
30.95034483860237	4.5473223	2.132445
30.968531299676698	4.3982325	2.0971963
30.98671856037873	4.1778545	2.0439801
31.00490662127215	3.7903554	1.9468836
31.023095482920848	3.4009328	1.8441619
31.04128514588892	3.0536346	1.7474653
31.059475610740662	2.6956177	1.6418337
31.07766687804056	2.4735758	1.5727606
31.09585894835335	2.3883395	1.5454253
31.11405182224393	2.441764	1.5626146
31.132245500277417	2.5266042	1.5895295
31.15043998301914	2.6021268	1.6131109
31.168635271034628	2.5152779	1.5859628
31.18683136488964	2.399925	1.5491692
31.20502826515008	2.3613653	1.5366734
31.223225972382135	2.330159	1.5264858
31.241424487152155	2.3305743	1.5266218
31.259623810026692	2.3529117	1.5339204
31.27782394157253	2.3667548	1.538426
31.296024882356644	2.3596265	1.5361075
31.314226632946237	2.3870883	1.5450205
31.332429193908684	2.4172935	1.5547647
31.350632565811598	2.3977604	1.5484704
31.368836749222787	2.3705425	1.5396566
31.387041744710295	2.3934224	1.547069
31.40524755284232	2.4377813	1.5613396
31.423454174187317	2.4823394	1.5755441
31.441661609313922	2.472635	1.5724615
31.459869858791002	2.453589	1.5663936
31.478078923187628	2.361069	1.536577
31.496288803073064	2.2836926	1.5111891
31.514499499016807	2.306913	1.5188525
31.532711011588546	2.2636065	1.5045286
31.550923341358178	2.226286	1.4920744
31.56913648889584	2.2099063	1.4865754
31.587350454771844	2.2164273	1.488767
31.605565239556732	2.2379107	1.4959648
31.62378084382127	2.3536751	1.5341692
31.641997268136382	2.3894525	1.5457854
31.660214513073274	2.3056622	1.5184407
31.67843257920331	2.2607121	1.5035665
31.6966514670981	2.2788062	1.5095716
31.71487117732944	2.318495	1.5226605
31.733091710469346	2.2971163	1.515624
31.751313067090052	2.267045	1.5056709
31.769535247764008	2.2268915	1.4922773
31.787758253063878	2.2344575	1.4948102
31.805982083562526	2.2534246	1.5011411
31.824206739833024	2.2345593	1.4948442
31.84243222244869	2.1867583	1.4787692
31.860658531983013	2.1490204	1.4659537
31.878885669009737	2.1367135	1.4617501
31.897113634102784	2.1253624	1.4578623
31.91534242783632	2.1661003	1.4717678
31.933572050784694	2.179461	1.4762998
31.951802503522508	2.1150448	1.4543194
31.970033786624548	2.1033094	1.4502791
31.988265900665834	2.1451602	1.4646366
32.006498846221575	2.1468	1.4651963
32.02473262386724	2.1495833	1.4661458
32.04296723417845	2.1965775	1.4820856
32.0612026777311	2.1897047	1.479765
32.07943895510129	2.0857675	1.4442186
32.097676066865304	2.1008828	1.4494423
32.115914013599685	2.1125822	1.4534725
32.13415279588115	2.1845696	1.478029
32.152392414286666	2.1894913	1.4796929
32.1706328693934	2.1753428	1.4749043
32.18887416177875	2.1944141	1.4813555
32.20711629202032	2.1535265	1.4674898
32.225359260695924	2.1210163	1.456371
32.243603068383614	2.0080855	1.4170693
32.26184771566166	1.9594007	1.3997859
32.28009320310852	1.993567	1.4119374
32.2983395313029	2.0174263	1.4203613
32.31658670082372	2.0534039	1.4329703
32.33483471225012	2.1433897	1.464032
32.35308356616143	2.1967404	1.4821404
32.371333263137245	2.1668336	1.4720168
32.38958380375734	2.1563134	1.4684391
32.407835188601744	2.0912876	1.4461285
32.42608741825067	2.042971	1.4293253
32.444340493284585	2.0120287	1.41846
32.46259441428416	1.9292982	1.3889918
32.48084918183028	1.9212302	1.3860844
32.49910479650405	2.0456882	1.4302756
32.51736125888683	2.136545	1.4616925
32.53561856956014	2.0828764	1.4432174
32.5538767291058	2.041557	1.4288306
32.572135738105764	2.056927	1.4341991
32.59039559714228	2.089333	1.4454526
32.608656306797776	2.0248723	1.4229801
32.62691786765491	1.9288279	1.3888224
32.645180280296586	1.9424611	1.393722
32.663443545305896	1.9528397	1.3974404
32.68170766326619	1.8654572	1.3658174
32.69997263476099	1.8791432	1.3708185
32.7182384603741	1.9641572	1.4014839
32.7365051406895	2.005584	1.4161865
32.75477267629144	2.1057067	1.4511054
32.77304106776434	2.1785696	1.4759978
32.79131031569289	2.1396215	1.4627445
32.809580420661966	2.0300634	1.4248029
32.827851383256714	1.9683037	1.4029624
32.84612320406245	1.9116093	1.3826096
32.86439588366476	1.9178243	1.3848553
32.88266942264945	1.933713	1.39058
32.9009438216025	1.9710187	1.4039297
32.9192190811102	1.9766167	1.405922
32.937495201758985	1.9257152	1.3877014
32.95577218413556	1.9040971	1.3798902
32.974050028826866	1.988961	1.4103053
32.992328736420035	2.0144856	1.4193257
33.010608307502444	2.011478	1.4182658
33.02888874266169	1.9983706	1.4136374
33.047170042485604	1.9984415	1.4136624
33.06545220756225	1.9528106	1.3974301
33.083735238479896	1.9744816	1.4051625
33.10201913582707	1.8932036	1.3759373
33.12030390019248	1.9022491	1.3792205
33.138589532165135	1.8981726	1.3777418
33.15687603233419	1.8631921	1.364988
33.17516340128909	1.9103544	1.3821557
33.19345163961947	1.9155324	1.3840276
33.211740747915215	1.8588681	1.3634031
33.23003072676643	1.8467834	1.3589641
33.248321576763466	1.9066263	1.3808064
33.266613298496885	1.9206083	1.3858601
33.28490589255747	1.8707665	1.3677597
33.30319935953626	1.9031948	1.3795632
33.32149370002451	1.9737746	1.4049109
33.339788914613706	1.9564914	1.3987464
33.358085003895575	1.8449887	1.3583037
33.376381968462034	1.7577627	1.3258064
33.39467980890529	1.8273587	1.3517983
33.41297852581774	1.8371692	1.3554221
33.43127811979204	1.850474	1.3603213
33.44957859142105	1.8120321	1.3461174
33.467879941297866	1.7121818	1.3085036
33.486182170015844	1.8141973	1.3469214
33.50448527816853	1.907421	1.3810941
33.522789266349754	1.8653933	1.3657941
33.541094135153514	1.8375883	1.3555768
33.55939988517411	1.8447559	1.358218
33.57770651700602	1.8120606	1.346128
33.59601403124398	1.862763	1.3648307
33.61432242848296	1.9563711	1.3987033
33.632631709318154	1.9551222	1.3982569
33.650941874344994	1.8389177	1.3560671
33.66925292415916	1.827848	1.3519793
33.68756485935654	1.8552412	1.3620723
33.70587768053328	1.9876962	1.4098568
33.724191388285746	1.9649378	1.4017624
33.74250598321054	1.8549048	1.3619488
33.760821465904506	1.8342824	1.3543568
33.77913783696474	1.9333004	1.3904318
33.79745509698852	2.0493217	1.4315451
33.815773246573414	2.091462	1.4461888
33.8340922863172	2.055623	1.4337444
33.852412216817896	1.9794297	1.4069221
33.87073303867377	1.9674767	1.4026678
33.889054752483304	1.9464121	1.3951387
33.907377358845245	1.8610958	1.3642199
33.92570085835853	1.8959407	1.3769317
33.94402525162239	1.8742752	1.3690417
33.96235053923627	1.8935415	1.3760601
33.980676721799824	1.9222095	1.3864377
33.999003799912984	1.9454352	1.3947886
34.01733177417592	1.9626068	1.4009306
34.03566064518901	1.9040556	1.3798752
34.0539904135529	1.8706772	1.367727
34.07232107986846	1.8672984	1.3664913
34.090652644736785	1.9197439	1.3855482
34.108985108759235	1.8685157	1.3669366
34.12731847253742	1.8420888	1.3572357
34.14565273667313	1.84425	1.3580316
34.16398790176847	1.8813179	1.3716114
34.18232396842574	1.9110591	1.3824106
34.20066093724749	2.0299308	1.4247564
34.21899880883651	2.0166736	1.4200963
34.23733758379583	2.0718799	1.4394026
34.25567726272874	2.0130033	1.4188035
34.27401784623872	1.8276464	1.3519047
34.29235933492957	1.7389709	1.3187004
34.31070172940526	1.8996152	1.3782653
34.32904503027003	1.9722245	1.4043591
34.347389238128386	1.965576	1.40199
34.36573435358502	2.0156696	1.4197428
34.38408037724492	1.9690876	1.4032419
34.402427309713296	2.061097	1.4356521
34.42077515159559	1.9220216	1.38637
34.43912390349752	1.7693057	1.3301525
34.45747356602499	1.8584114	1.3632356
34.47582413978423	1.910895	1.3823513
34.49417562538163	2.0613716	1.4357477
34.51252802342388	2.1372569	1.461936
34.53088133451789	1.9764307	1.4058559
34.54923555927084	1.8938397	1.3761685
34.567590698290104	1.9781926	1.4064823
34.58594675218336	2.0799944	1.4422185
34.6043037215585	2.2483552	1.4994516
34.62266160702365	2.0661824	1.4374222
34.641020409187234	1.8178986	1.3482947
34.65938012865785	1.7374018	1.3181053
34.677740766044394	1.6100541	1.268879
34.69610232195598	1.5746919	1.2548673
34.714464797002016	1.7571956	1.3255925
34.73282819179208	1.8796091	1.3709884
34.751192506936064	1.8700457	1.3674961
34.76955774304408	1.833564	1.3540916
34.7879239007265	1.710283	1.3077779
34.80629098059391	1.6075879	1.2679069
34.824658983257194	1.6986341	1.3033166
34.843027909327446	1.9307867	1.3895276
34.86139775941603	2.0506597	1.4320124
34.879768534134534	1.9336537	1.3905587
34.89814023409483	1.9029038	1.3794578
34.91651285990901	2.0254931	1.4231982
34.93488641218944	1.9809631	1.4074669
34.95326089154871	1.974232	1.4050736
34.97163629859967	1.9448059	1.394563
34.99001263395542	1.973041	1.4046499
35.00838989822934	1.889968	1.3747611
35.02676809203499	1.822918	1.3501549
35.04514721598624	1.6899078	1.2999645
35.063527270697215	1.7343029	1.3169293
35.081908256782256	1.846139	1.358727
35.10029017485597	1.8336368	1.3541185
35.11867302553321	1.9293967	1.3890272
35.137056809429104	2.2422454	1.4974129
35.155441527159006	2.3223636	1.5239303
35.173827179338524	1.899654	1.3782793
35.19221376658354	1.9207813	1.3859226
35.21060128951017	2.0375466	1.4274266
35.2289897487348	1.7741388	1.3319681
35.24737914487405	1.6711576	1.2927326
35.26576947854479	1.9504067	1.3965696
35.28416075036418	2.2888575	1.512897
35.30255296094958	2.130253	1.4595387
35.32094611091867	2.0471747	1.4307951
35.33934020088932	2.303732	1.517805
35.35773523147969	2.2552643	1.5017537
35.3761312033082	2.1609173	1.4700059
35.394528116993506	2.2115874	1.4871407
35.41292597315452	2.1485116	1.4657803
35.431324772410434	2.1080477	1.4519118
35.449724515380666	1.9336213	1.3905472
35.46812520268491	1.9455373	1.3948252
35.486526834943106	1.8289124	1.3523729
35.504929412775454	1.642663	1.2816641
35.52333293680242	1.7382125	1.3184129
35.54173740764471	1.9355135	1.3912274
35.560142825923286	1.8683344	1.3668703
35.5785491922594	1.4616418	1.2089838
35.59695650727454	0.7937113	0.8909048
35.61536477159042	0.0	0.0
