0.008763373481513119	0.0	0.0
0.026290120649546365	0.0	0.0
0.043816868432600686	0.0	0.0
0.06134361724069026	0.0	0.0
0.07887036748382949	0.00063309097	0.0251613
0.0963971195720331	0.055701267	0.23601116
0.11392387391531617	0.068752475	0.26220694
0.1314506309236943	0.10299252	0.3209245
0.1489773910071836	0.115810335	0.34030917
0.16650415457580078	0.094682634	0.30770543
0.18403092203956356	0.094953485	0.30814523
0.20155769380849	0.12679958	0.3560893
0.2190844702925996	0.18912393	0.4348838
0.2366112519019124	0.20195878	0.44939825
0.2541380390464497	0.18676649	0.43216488
0.27166483213623416	0.1739211	0.41703847
0.28919163158128947	0.14033659	0.37461525
0.3067184377916406	0.11339393	0.33674017
0.324245251177314	0.15066499	0.38815588
0.34177207214833777	0.15309124	0.39126876
0.3592989011147415	0.17140733	0.41401368
0.37682573848655654	0.21070524	0.4590264
0.39435258467381573	0.23476012	0.4845205
0.41187944008655414	0.21311374	0.46164244
0.42940630513480854	0.17198437	0.41471
0.446933180228618	0.14325327	0.37848812
0.4644600657780234	0.17556213	0.41900134
0.48198696219306775	0.1490609	0.38608405
0.49951386988379676	0.14501135	0.38080356
0.5170407892602581	0.10018859	0.31652582
0.5345677207325025	0.1519577	0.38981754
0.5520946647105822	0.17177147	0.4144532
0.5696216216045534	0.19265465	0.43892443
0.5871485918244737	0.14893736	0.38592404
0.6046755757804043	0.1519348	0.38978815
0.6222025738824094	0.1723348	0.41513228
0.6397295865405557	0.181384	0.425892
0.6572566141649129	0.17946085	0.4236282
0.6747836571655547	0.1658575	0.40725607
0.6923107159525568	0.16630581	0.4078061
0.7098377909359992	0.1682449	0.41017666
0.7273648825259653	0.17472646	0.41800293
0.7448919911325411	0.16428341	0.4053189
0.762419117165817	0.14822848	0.38500452
0.7799462610358868	0.16245207	0.40305343
0.7974734231528482	0.17113067	0.41367942
0.8150006039268024	0.20751177	0.4555346
0.8325278037678551	0.20876665	0.4569099
0.8500550230861152	0.18128508	0.42577586
0.8675822622916969	0.17314748	0.41610995
0.8851095217947171	0.17707194	0.42079917
0.9026368020052984	0.18840767	0.43405953
0.9201641033335665	0.23018162	0.47977248
0.9376914261896523	0.23984346	0.48973817
0.9552187709836915	0.25551054	0.5054805
0.9727461381258234	0.2239879	0.4732736
0.990273528026193	0.20577581	0.4536252
1.0078009410949496	0.24132276	0.49124613
1.0253283777422473	0.2657221	0.51548237
1.0428558383782454	0.28917524	0.5377502
1.0603833234131086	0.26687643	0.51660085
1.0779108332570058	0.32200485	0.5674547
1.0954383683201119	0.35110417	0.59254044
1.112965929012607	0.41603622	0.6450087
1.1304935157446763	0.57379156	0.7574903
1.1480211289265108	0.62996316	0.7937022
1.1655487689683062	1.4084798	1.1867939
1.1830764362802655	1.6604666	1.2885909
1.200604131272596	2.0024998	1.4150971
1.2181318543555117	2.3269055	1.5254198
1.235659605939232	2.3951402	1.547624
1.253187386433982	4.060394	2.0150418
1.270715196249994	6.5235	2.5541143
1.2882430357975057	12.027807	3.468113
1.3057709054867608	16.719988	4.0890083
1.3232988057280106	22.626816	4.7567654
1.3408267369315112	27.685688	5.261719
1.358354699507526	31.256739	5.5907726
1.3758826938663256	35.2999	5.941372
1.3934107204181858	37.598076	6.131727
1.410938779573391	38.289215	6.187828
1.4284668717422309	38.736076	6.223831
1.4459949973350033	38.418602	6.198274
1.4635231567620117	38.26095	6.1855435
1.4810513504335687	37.60447	6.1322484
1.4985795787599925	36.84519	6.0700235
1.5161078421516088	36.31268	6.0260005
1.5336361410187505	35.393677	5.9492583
1.5511644757717598	35.321617	5.943199
1.5686928468209842	35.944225	5.9953504
1.58622125457678	36.549866	6.0456486
1.6037496994495108	37.49827	6.123583
1.621278181849548	37.229336	6.101585
1.6388067021872719	38.00285	6.164645
1.6563352608730693	37.70009	6.14004
1.673863858317336	36.79114	6.0655704
1.6913924949304753	35.95094	5.99591
1.7089211711228998	34.88668	5.9064946
1.7264498873050296	34.462917	5.8705125
1.7439786438872935	33.570107	5.7939715
1.7615074412801288	32.393215	5.691504
1.779036279893981	31.332115	5.59751
1.796565160139305	30.078255	5.4843645
1.814094082426564	29.326574	5.4154015
1.8316230471662298	28.99847	5.3850226
1.849152054768784	28.353813	5.32483
1.8666811056447168	27.97077	5.2887397
1.8842102002045273	27.36741	5.231387
1.901739338858724	26.782646	5.175195
1.9192685220178245	26.100538	5.1088686
1.9367977500923557	25.347542	5.034634
1.9543270234928547	24.705486	4.9704614
1.971856342629867	24.118664	4.9110756
1.9893857079139496	23.578636	4.855784
2.006915119755667	23.226223	4.8193593
2.0244445785655945	22.787115	4.7735853
2.0419740847543175	22.277224	4.7198753
2.0595036387324317	21.748358	4.6635137
2.0770332409105414	21.216387	4.606125
2.094562891699263	20.888527	4.570397
2.1120925915092217	20.321156	4.5078993
2.129622340751053	19.832794	4.4534025
2.1471521398354043	188.11816	13.715617
2.1646819891729323	444.74045	21.088871
2.182211889174303	441.0035	21.000084
2.1997418402501974	453.39514	21.293077
2.2172718428113023	433.17548	20.812868
2.234801897268317	321.06412	17.918262
2.2523320040319548	17.578356	4.192655
2.269862163512935	17.19615	4.146824
2.287392376121992	16.721375	4.0891776
2.304922642269869	16.266691	4.033199
2.322452962367322	16.034296	4.004285
2.3399833368251164	15.8914795	3.9864118
2.357513766054032	15.711465	3.963769
2.3750442504648586	15.474902	3.9338152
2.3925747904683963	15.057328	3.8803773
2.410105386475459	14.662356	3.8291457
2.4276360388968707	14.476586	3.804811
2.445166748143469	14.34687	3.7877264
2.4626975146261025	14.226918	3.7718587
2.4802283387556323	14.010647	3.74308
2.4977592209429305	13.814542	3.7167919
2.5152901615988825	13.441234	3.6662288
2.5328211611343865	13.198688	3.633
2.5503522199603523	12.952752	3.5989933
2.5678833384877024	12.763691	3.572631
2.5854145171273712	12.41574	3.5235975
2.6029457562903064	12.121932	3.4816566
2.620477056387469	11.819429	3.4379396
2.6380084178298326	11.633867	3.4108455
2.655539841028383	11.416896	3.3788898
2.673071326394119	11.410603	3.3779583
2.6906028743380523	11.222702	3.3500302
2.708134485271211	11.131084	3.336328
2.7256661596046325	10.947162	3.3086495
2.743197897749369	10.741155	3.27737
2.760729700116486	10.526456	3.24445
2.778261567117063	10.3701105	3.2202656
2.795793499162193	10.181556	3.190855
2.8133254966629817	10.139825	3.1843092
2.830857560030551	9.961168	3.1561317
2.8483896896760337	10.00869	3.1636515
2.865921886010578	9.785078	3.128111
2.883454149445347	9.683844	3.1118875
2.9009864803915177	9.507153	3.083367
2.91851887926028	9.364084	3.060079
2.9360513464628384	9.237495	3.0393248
2.953583882410413	9.122071	3.0202768
2.9711164875142373	9.042515	3.0070775
2.9886491621855606	9.013484	3.0022464
3.0061819068356455	8.939293	2.989865
3.023714721875769	8.799843	2.9664528
3.041247607717225	8.6100645	2.9342911
3.0587805647713213	8.485551	2.912997
3.0763135934493806	8.298234	2.8806655
3.0938466941627407	8.188782	2.8616047
3.1113798673227544	8.102925	2.8465638
3.1289131133407904	7.9602	2.8213825
3.1464464326282315	7.7751946	2.7884035
3.1639798255964786	7.694575	2.7739096
3.1815132926569443	7.6052074	2.757754
3.1990468342210603	7.6019197	2.7571578
3.216580450700272	7.425047	2.724894
3.2341141425060416	7.485798	2.7360187
3.251647910049847	7.4100375	2.7221384
3.2691817537431813	7.312398	2.7041445
3.286715673997555	7.3238716	2.7062652
3.3042496712244938	7.288115	2.699651
3.32178374583554	7.216621	2.6863768
3.339317898242251	6.9601865	2.6382165
3.3568521288562034	6.8090477	2.6094153
3.3743864380889876	6.810135	2.6096234
3.3919208263522127	6.817469	2.6110284
3.4094552940575023	6.7753687	2.602954
3.4269898416164972	6.5782356	2.5648072
3.444524469440858	6.5212297	2.55367
3.4620591779422587	6.426432	2.5350409
3.479593967532391	6.4588556	2.5414279
3.4971288386229658	6.4227033	2.5343053
3.5146637916257086	6.443788	2.5384617
3.5321988269523628	6.2899528	2.5079777
3.5497339450146903	6.19353	2.4886804
3.5672691462244708	6.153896	2.4807048
3.5848044309934988	6.210501	2.4920876
3.60233979973359	6.196477	2.4892724
3.619875252856575	6.2214646	2.4942863
3.6374107907743034	6.2247972	2.4949543
3.6549464138986427	6.23659	2.4973166
3.6724821226414788	6.300909	2.5101612
3.690017917414714	6.3041706	2.5108109
3.7075537986302702	6.347381	2.5194008
3.7250897667000857	6.4182143	2.5334196
3.7426258220361235	6.5893993	2.5669825
3.7601619650503553	6.840137	2.6153655
3.777698196154779	7.346399	2.7104242
3.7952345157614067	8.37164	2.8933787
3.8127709242822716	9.141758	3.023534
3.830307422129425	11.248526	3.353882
3.847844009714936	30.00496	5.4776783
3.8653806874508954	97.53763	9.876114
3.882917455749409	96.90804	9.844189
3.900454315022606	96.73959	9.8356285
3.917991265682631	41.29528	6.4261403
3.9355283081416506	10.972657	3.3125002
3.9530654428118495	8.806692	2.967607
3.970602670105433	7.5305552	2.7441857
3.9881399904346244	6.607109	2.5704298
4.005677404211669	6.5551763	2.5603077
4.023214911848827	6.583605	2.5658536
4.0407525137583855	6.691295	2.5867538
4.058290210352644	6.602963	2.5696232
4.075828002043927	6.5173173	2.5529037
4.0933658892445814	6.264768	2.5029519
4.110903872366966	6.1786184	2.4856827
4.128441951823468	6.1623545	2.482409
4.145980128026488	6.239216	2.4978423
4.163518401388452	6.3025103	2.5104802
4.181056772321807	6.2881165	2.5076118
4.1985952412390155	6.2977552	2.509533
4.216133808552567	6.252992	2.5005984
4.233672474674966	6.2493215	2.4998643
4.251211240018741	6.439444	2.537606
4.268750104996445	6.69526	2.5875201
4.286289070020643	7.652079	2.7662392
4.303828135503928	9.259096	3.0428762
4.3213673018589125	29.474182	5.429013
4.3389065694982305	90.70605	9.5239725
4.356445938834537	166.01074	12.884516
4.3739854102805085	171.82764	13.108304
4.391524984248844	172.58499	13.13716
4.409064661152262	136.57994	11.686742
4.426604441403504	96.99584	9.848647
4.444144325415337	75.86308	8.709942
4.461684313600543	21.80868	4.669976
4.47922440637193	21.860155	4.6754847
4.496764604142329	20.123785	4.4859543
4.5143049073245916	18.462936	4.296852
4.531845316331589	16.550549	4.0682364
4.5493858315762195	13.742939	3.7071471
4.566926453471405	11.410927	3.3780062
4.584467182430081	9.259993	3.0430236
4.602008018865218	8.151012	2.8549979
4.619548963189798	7.381139	2.7168252
4.637090015816834	6.942541	2.6348703
4.654631177159353	6.7350073	2.5951893
4.672172447630417	6.509091	2.551292
4.689713827643102	6.2982397	2.5096295
4.7072553176105085	6.036574	2.456944
4.724796917945764	5.938742	2.4369535
4.742338629062015	5.86537	2.4218526
4.759880451372434	5.819744	2.4124146
4.777422385290215	5.72563	2.392829
4.794964431228581	5.717581	2.3911464
4.812506589600768	5.7199445	2.3916404
4.830048860820047	5.769309	2.4019387
4.847591245299709	5.7714877	2.4023921
4.8651337434530655	5.684425	2.3842032
4.882676355693457	5.6079946	2.3681204
4.900219082434242	5.521002	2.3496811
4.917761924088813	5.492034	2.343509
4.935304881070575	5.496376	2.3444352
4.952847953792969	5.506829	2.3466632
4.970391142669449	5.5139723	2.3481848
4.9879344481135055	5.550825	2.356019
5.005477870538642	5.577239	2.3616178
5.023021410358394	5.5158825	2.3485916
5.040565067986324	5.5087442	2.3470714
5.05810884383601	5.4477077	2.3340325
5.075652738321066	5.456485	2.335912
5.09319675185512	5.4663053	2.3380132
5.110740884851836	5.468757	2.3385375
5.128285137724894	5.342191	2.3113182
5.145829510888007	5.3082924	2.3039732
5.163374004754908	5.3216515	2.3068705
5.1809186197393595	5.3838425	2.3203108
5.198463356255145	5.398576	2.3234835
5.216008214716077	5.3380766	2.310428
5.233553195535998	5.242001	2.2895417
5.251098299128764	5.227623	2.2863996
5.268643525908272	5.1738734	2.274615
5.286188876288432	5.1931086	2.2788393
5.3037343506831895	5.1938004	2.2789912
5.32127994950651	5.2309995	2.2871377
5.3388256731723915	5.275328	2.2968082
5.356371522094851	5.293238	2.3007038
5.373917496687938	5.288759	2.2997303
5.391463597365729	5.23638	2.2883139
5.40900982454232	5.1835423	2.2767394
5.426556178631843	5.243145	2.2897916
5.444102660048449	5.2554603	2.292479
5.4616492692063225	5.1717854	2.2741559
5.479196006519669	5.122795	2.2633593
5.496742872402727	5.142378	2.2676811
5.514289867269756	5.2134266	2.283293
5.531836991535049	5.173641	2.274564
5.549384245612924	5.155368	2.2705436
5.566931629917724	5.1520433	2.2698114
5.584479144863822	5.2186584	2.2844384
5.6020267908656205	5.239736	2.289047
5.619574568337545	5.20167	2.2807171
5.637122477694054	5.1373925	2.2665818
5.654670519349629	5.10973	2.260471
5.672218693718784	5.180924	2.2761643
5.689767001216059	5.28171	2.2981973
5.707315442256021	5.2446227	2.2901142
5.724864017253266	5.183737	2.276782
5.7424127266224225	5.1603284	2.2716355
5.75996157077814	5.1659966	2.272883
5.777510550135105	5.2404923	2.2892122
5.795059665108022	5.2321234	2.2873836
5.812608916111639	5.2549133	2.2923598
5.830158303560715	5.3278775	2.3082197
5.847707827870055	5.3793745	2.3193479
5.86525748945448	5.4685307	2.338489
5.8828072887288485	5.516982	2.3488257
5.900357226108044	5.566372	2.3593159
5.917907302006979	5.687972	2.384947
5.9354575168406	6.2782555	2.5056448
5.9530078710238765	6.831016	2.6136212
5.970558364971812	7.2369905	2.6901655
5.988108999099438	7.5338583	2.7447875
6.005659773821818	8.170592	2.858425
6.023210689554039	7.9176006	2.8138232
6.040761746711227	8.3348255	2.8870099
6.058312945708531	7.64111	2.7642558
6.075864286961132	7.239116	2.6905606
6.093415770884244	6.673453	2.5833027
6.1109673978931065	6.1713977	2.4842298
6.128519168402993	5.5592375	2.3578036
6.146071082829204	5.425936	2.3293638
6.163623141587075	5.3148074	2.3053865
6.181175345091969	5.2610865	2.293706
6.198727693759281	5.206502	2.281776
6.216280188004435	5.2403736	2.2891862
6.233832828242885	5.251917	2.291706
6.251385614890126	5.360546	2.3152852
6.268938548361669	5.33595	2.3099675
6.286491629073067	5.2714415	2.295962
6.304044857439898	5.2126613	2.2831254
6.321598233877777	5.086315	2.255286
6.339151758802344	5.0321503	2.2432454
6.356705432629277	5.0212307	2.2408104
6.37425925577428	4.985413	2.2328038
6.391813228653095	5.038921	2.244754
6.409367351681486	4.9772134	2.2309668
6.426921625275259	4.9913626	2.2341359
6.44447604985025	5.0113235	2.2385986
6.46203062582232	5.104691	2.2593563
6.47958535360737	5.1415095	2.2674897
6.497140233621328	5.1584463	2.2712214
6.514695266280161	5.196455	2.2795734
6.532250451999859	5.0945487	2.2571106
6.549805791196454	5.085341	2.25507
6.567361284286002	5.0421395	2.245471
6.584916931684597	5.084182	2.254813
6.602472733808367	5.038204	2.2445943
6.6200286910734665	5.017686	2.240019
6.637584803896092	5.014367	2.2392783
6.655141072692462	5.0839224	2.2547555
6.672697497878842	5.088954	2.255871
6.690254079871514	5.078256	2.2534986
6.707810819086808	4.99948	2.2359517
6.725367715941078	4.9652877	2.2282925
6.742924770850719	4.932875	2.2210076
6.760481984232151	4.9322557	2.2208683
6.778039356501836	4.922218	2.2186072
6.795596888076266	4.9314218	2.2206805
6.813154579371963	4.9510236	2.2250896
6.830712430805492	5.006774	2.2375822
6.84827044279344	4.995824	2.235134
6.865828615752445	4.9322414	2.220865
6.883386950099159	4.9271874	2.2197268
6.900945446250287	4.9823236	2.232112
6.918504104622553	5.0854554	2.2550955
6.936062925632727	5.1099296	2.2605152
6.953621909697607	5.131304	2.265238
6.971181057234028	5.186702	2.2774332
6.988740368658859	5.242842	2.2897253
7.006299844389007	5.3434787	2.3115966
7.023859484841407	5.330485	2.3087842
7.041419290433036	5.3988934	2.323552
7.058979261580902	5.437917	2.3319342
7.0765393987020495	5.6784906	2.3829584
7.094099702213559	6.089325	2.4676557
7.111660172532549	6.527973	2.5549898
7.129220810076164	6.8616457	2.6194744
7.146781615261595	7.4604664	2.7313855
7.16434258850606	7.671665	2.769777
7.181903730226821	8.167725	2.857923
7.1994650408411704	8.271281	2.8759835
7.217026520766437	8.370907	2.893252
7.234588170419983	8.576458	2.928559
7.252149990219215	8.524439	2.9196641
7.269711980581568	8.459426	2.9085093
7.2872741419245175	8.192717	2.8622923
7.304836474665574	7.779993	2.789264
7.322398979222286	7.503977	2.7393389
7.339961656012233	7.300224	2.7018926
7.357524505453039	6.972174	2.6404874
7.375087527962357	6.6845546	2.5854506
7.392650723957886	6.3177643	2.5135164
7.410214093857353	5.9160028	2.4322834
7.427777638078528	5.688849	2.385131
7.445341357039213	5.5530667	2.3564947
7.4629052511572525	5.4469047	2.3338604
7.480469320850524	5.3960233	2.3229342
7.498033566536948	5.312262	2.3048346
7.5155979886344735	5.2231016	2.2854106
7.5331625875610975	5.149196	2.269184
7.550727363734844	5.078688	2.2535944
7.568292317573788	5.1193194	2.2625914
7.585857449496025	5.1484065	2.26901
7.603422759919705	5.218242	2.2843473
7.620988249263007	5.241144	2.2893546
7.638553917944147	5.253808	2.2921188
7.656119766381391	5.2771063	2.2971952
7.673685794993023	5.3106084	2.3044758
7.691252004197388	5.2898583	2.2999692
7.70881839441285	5.3093348	2.3041995
7.726384966057826	5.2932124	2.3006983
7.743951719550762	5.2396445	2.289027
7.761518655310149	5.2492113	2.2911158
7.779085773754511	5.2226524	2.2853124
7.796653075302419	5.3080163	2.3039134
7.814220560372475	5.3447604	2.3118737
7.831788229383323	5.3672466	2.316732
7.8493560827536495	5.3923445	2.3221421
7.866924120902174	5.424263	2.3290048
7.884492344247663	5.3789625	2.319259
7.9020607532089135	5.3623157	2.3156674
7.919629348204771	5.340051	2.3108552
7.937198129654115	5.367332	2.3167503
7.954767097975865	5.406348	2.3251555
7.972336253588986	5.3936796	2.3224297
7.989905596912472	5.4011927	2.3240466
8.007475128365371	5.4673595	2.3382385
8.025044848366756	5.493925	2.3439124
8.042614757335754	5.6258955	2.371897
8.060184855691523	5.6929827	2.3859973
8.07775514385327	5.8537607	2.4194546
8.095325622240228	5.9377193	2.4367435
8.112896291271687	5.9655347	2.4424443
8.130467151366968	6.0295105	2.455506
8.148038202945436	6.0342417	2.4564693
8.165609446426497	6.0694714	2.4636297
8.183180882229594	6.123293	2.4745288
8.200752510774217	6.1235	2.4745708
8.218324332479893	6.104036	2.4706347
8.235896347766193	6.0781636	2.4653933
8.253468557052724	6.077546	2.465268
8.27104096075914	6.103954	2.470618
8.288613559305137	6.141248	2.4781542
8.306186353110448	6.2038474	2.4907525
8.32375934259485	6.229005	2.4957974
8.341332528178162	6.242559	2.4985113
8.358905910280246	6.2323165	2.4964607
8.376479489321003	6.2661433	2.5032265
8.394053265720377	6.371656	2.524214
8.411627239898356	6.4230566	2.534375
8.42920141227497	6.426535	2.5350611
8.44677578327029	6.4084425	2.53149
8.464350353304427	6.329825	2.5159144
8.48192512279754	6.3595495	2.5218148
8.499500092169827	6.2706723	2.504131
8.51707526184153	6.2309294	2.496183
8.534650632232934	6.18163	2.4862883
8.552226203764365	6.1967254	2.4893222
8.569801976856192	6.2389755	2.4977942
8.587377951928834	6.2759004	2.5051746
8.60495412940274	6.342197	2.5183718
8.622530509698416	6.350144	2.5199492
8.6401070932364	6.4611235	2.541874
8.657683880437283	6.6031322	2.5696561
8.675260871721695	6.805936	2.6088188
8.692838067510303	6.9272084	2.631959
8.710415468223834	7.011831	2.6479862
8.727993074283043	7.1341677	2.6709862
8.745570886108737	7.1915793	2.681712
8.763148904121765	7.294569	2.700846
8.78072712874302	7.364512	2.7137635
8.798305560393441	7.5714226	2.7516217
8.815884199494006	7.677227	2.770781
8.833463046465745	7.786062	2.7903516
8.851042101729728	7.857053	2.8030436
8.86862136570707	8.199615	2.863497
8.886200838818924	8.389566	2.8964748
8.903780521486505	8.490319	2.9138153
8.921360414131055	8.571452	2.9277043
8.938940517173874	8.7349415	2.9554935
8.956520831036297	8.861918	2.9768975
8.97410135613971	9.103976	3.0172796
8.99168209290554	9.240585	3.039833
9.009263041755265	9.464403	3.076427
9.026844203110405	9.715734	3.1170073
9.044425577392525	9.908087	3.1477113
9.062007165023239	9.988377	3.1604393
9.079588966424197	10.242328	3.2003636
9.097170982017108	10.351784	3.217419
9.11475321222372	11.300975	3.3616922
9.132335657465825	12.190295	3.4914603
9.149918318165264	12.191291	3.491603
9.167501194743924	12.630647	3.5539622
9.18508428762374	12.328337	3.511173
9.202667597226693	12.352609	3.514628
9.220251123974803	12.039425	3.4697874
9.237834868290143	11.837934	3.4406297
9.255418830594836	11.703432	3.421028
9.273003011311046	11.298349	3.3613017
9.290587410860985	11.066857	3.3266885
9.308172029666911	10.431059	3.2297149
9.32575686815113	10.161149	3.1876557
9.343341926735997	8.883539	2.9805267
9.360927205843916	8.623649	2.936605
9.378512705897327	8.408834	2.899799
9.396098427318728	8.262365	2.874433
9.413684370530664	8.180641	2.860182
9.431270535955722	8.075684	2.8417747
9.448856924016539	7.9098425	2.8124442
9.466443535135806	7.7275066	2.7798393
9.484030369736251	7.7420044	2.7824457
9.501617428240658	7.842002	2.8003576
9.519204711071852	7.91267	2.8129468
9.536792218652714	7.9091096	2.812314
9.55437995140617	7.831014	2.798395
9.571967909755191	7.8458185	2.8010387
9.589556094122802	7.918623	2.814005
9.60714450493207	8.012325	2.830605
9.624733142606116	8.087214	2.843803
9.642322007568108	8.093949	2.8449867
9.659911100241267	8.056382	2.8383768
9.677500421048851	8.119286	2.849436
9.695089970414175	8.138723	2.8528447
9.712679748760609	8.17674	2.8595
9.730269756511557	8.131103	2.8515089
9.747859994090492	8.133487	2.8519268
9.765450461920915	8.101306	2.8462794
9.78304116042639	8.206173	2.864642
9.800632090030527	8.255644	2.8732636
9.81822325115699	8.294801	2.8800695
9.835814644229481	8.265278	2.8749397
9.853406269671762	8.258002	2.873674
9.870998127907646	8.355683	2.89062
9.888590219360985	8.432332	2.9038477
9.906182544455698	8.47124	2.9105394
9.923775103615734	8.422204	2.9021034
9.941367897265108	8.339916	2.8878913
9.958960925827878	8.327363	2.8857172
9.97655418972816	8.304753	2.8817968
9.994147689390106	8.35331	2.8902092
10.011741425237934	8.406751	2.8994398
10.029335397695904	8.422954	2.9022324
10.04692960718833	8.418968	2.9015458
10.06452405413958	8.342944	2.8884156
10.082118738974064	8.2846155	2.878301
10.099713662116246	8.289232	2.8791027
10.117308823990651	8.276927	2.8769648
10.134904225021844	8.274801	2.8765955
10.152499865634445	8.226818	2.868243
10.170095746253125	8.261994	2.8743684
10.18769186730261	8.222661	2.8675182
10.205288229207675	8.152347	2.8552315
10.222884832393145	8.161026	2.856751
10.2404816772839	8.215094	2.8661985
10.258078764304868	8.260184	2.8740537
10.275676093881035	8.199918	2.86355
10.293273666437438	8.210076	2.865323
10.310871482399158	8.25946	2.8739276
10.32846954219134	8.276761	2.876936
10.346067846239173	8.245295	2.871462
10.363666394967908	8.167137	2.8578203
10.38126518880283	8.189131	2.8616657
10.398864228169298	8.168513	2.858061
10.416463513492713	8.105814	2.8470712
10.434063045198531	8.08136	2.8427732
10.451662823712262	8.149679	2.8547642
10.469262849459467	8.277755	2.8771088
10.486863122865758	8.210769	2.865444
10.504463644356806	8.171093	2.8585124
10.522064414358338	8.120965	2.8497307
10.539665433296118	8.052263	2.837651
10.557266701595987	8.028387	2.8334408
10.574868219683818	7.9308524	2.816177
10.592469987985552	7.7645407	2.7864926
10.610072006927185	7.6181126	2.7600927
10.627674276934751	7.5627484	2.750045
10.64527679843435	7.427318	2.7253106
10.662879571852143	7.3562894	2.712248
10.680482597614331	7.2558484	2.6936681
10.698085876147173	7.2043524	2.6840925
10.715689407876988	7.09617	2.6638637
10.733293193230146	6.9935646	2.6445348
10.750897232633072	6.8754873	2.6221151
10.76850152651225	6.766946	2.6013353
10.786106075294207	6.642837	2.5773702
10.803710879405534	6.5063186	2.5507486
10.821315939272877	6.387575	2.5273652
10.83892125532294	6.3315926	2.5162656
10.856526827982472	6.326398	2.5152333
10.874132657678285	6.33553	2.517048
10.891738744837243	6.316631	2.513291
10.909345089886271	6.2276506	2.495526
10.926951693252343	6.156469	2.4812233
10.944558555362494	6.0767555	2.4651077
10.96216567664381	6.011259	2.451787
10.979773057523436	5.977138	2.4448185
10.997380698428573	5.9755883	2.4445016
11.014988599786477	5.9181128	2.432717
11.032596762024461	5.824237	2.4133456
11.050205185569892	5.6488757	2.3767364
11.067813870850198	5.5799074	2.3621829
11.085422818292859	5.5600166	2.3579688
11.10303202832541	5.524608	2.3504486
11.120641501375454	5.469467	2.338689
11.138251237870636	5.3728666	2.3179445
11.155861238238671	5.292341	2.300509
11.173471502907317	5.1976104	2.2798269
11.191082032304402	5.1586094	2.2712572
11.208692826857805	5.141679	2.267527
11.226303886995465	5.0967865	2.2576063
11.243915213145371	5.0652843	2.2506187
11.261526805735578	5.0075974	2.2377663
11.279138665194196	4.9460397	2.2239695
11.296750791949393	4.873112	2.2075126
11.314363186429393	4.8261633	2.1968532
11.331975849062479	4.777509	2.1857514
11.34958878027699	4.696359	2.1671085
11.36720198050133	4.600607	2.1449025
11.384815450163948	4.56655	2.1369488
11.402429189693366	4.5902348	2.1424832
11.420043199518153	4.5990467	2.1445389
11.437657480066942	63.502697	7.968858
11.455272031768422	85.18766	9.229716
11.472886855051353	107.59476	10.372789
11.490501950344528	99.22614	9.961232
11.508117318076819	84.59383	9.197491
11.52573295867715	45.948887	6.7785606
11.543348872574514	4.268627	2.0660655
11.560965060197946	4.223848	2.0552
11.57858152197655	4.1496983	2.0370808
11.59619825833949	4.0797663	2.019843
11.613815269715985	4.008009	2.0020013
11.631432556535323	38.513283	6.205907
11.649050119226837	83.05188	9.11328
11.666667958219929	93.453575	9.667139
11.68428607394406	107.67693	10.37675
11.701904466828756	82.45284	9.080355
11.719523137303586	65.28143	8.079693
11.737142085798196	4.5677466	2.1372287
11.754761312742286	3.714229	1.9272336
11.772380818565619	3.7231264	1.9295405
11.790000603698015	3.7232416	1.9295703
11.80762066856935	3.7059736	1.9250906
11.825241013609572	3.6896617	1.9208492
11.842861639248683	3.6649954	1.9144177
11.860482545916748	3.5711124	1.8897387
11.878103734043883	3.473582	1.8637549
11.895725204060282	3.4341965	1.8531585
11.91334695639619	3.471199	1.8631154
11.930968991481919	3.4953313	1.8695805
11.948591309747824	3.4840064	1.8665494
11.966213911624347	3.412196	1.847213
11.98383679754198	3.3443606	1.8287593
12.001459967931268	3.2768843	1.8102167
12.019083423222835	3.2908313	1.8140649
12.036707163847352	3.292059	1.8144032
12.05433119023556	3.2698774	1.8082802
12.071955502818259	3.2642798	1.8067318
12.089580102026313	3.231965	1.7977667
12.107204988290643	3.2247498	1.7957588
12.12483016204224	3.2254941	1.795966
12.142455623712152	3.1851223	1.7846911
12.16008137373149	3.1661646	1.779372
12.177707412531431	3.144924	1.7733934
12.19533374054321	3.129069	1.7689174
12.212960358198126	3.1217685	1.7668527
12.230587265927545	3.0871775	1.7570366
12.248214464162889	3.0621357	1.7498959
12.265841953335649	3.040031	1.7435684
12.283469733877375	3.0277102	1.7400317
12.301097806219685	2.9686642	1.7229812
12.31872617079425	2.9263935	1.7106705
12.336354828032825	2.9352043	1.7132438
12.353983778367205	2.958621	1.7200643
12.371613022229262	2.9698217	1.723317
12.389242560050928	2.9790435	1.7259905
12.406872392264201	2.9403436	1.714743
12.424502519301143	2.9102411	1.7059429
12.442132941593874	2.8558385	1.6899227
12.459763659574586	2.8328192	1.6830981
12.477394673675532	2.8292189	1.6820282
12.49502598432903	2.8847444	1.6984535
12.51265759196746	2.868112	1.6935501
12.530289497023267	2.8587744	1.690791
12.547921699928967	2.8054526	1.6749486
12.565554201117134	2.7878103	1.6696737
12.583187001020404	2.7831643	1.6682818
12.600820100071486	2.7907639	1.670558
12.618453498703152	2.801066	1.6736386
12.636087197348235	2.8095148	1.6761607
12.65372119643964	2.8127685	1.677131
12.671355496410326	2.8580816	1.6905862
12.68899009769333	2.8828619	1.6978992
12.706625000721749	2.8826575	1.697839
12.724260205928752	2.8970966	1.702086
12.741895713747551	2.8860078	1.6988254
12.759531524611454	2.9415066	1.715082
12.777167638953818	2.9998808	1.7320164
12.794804057208072	3.0119517	1.7354975
12.812440779807702	3.0528665	1.7472454
12.830077807186271	3.174877	1.7818184
12.847715139777405	3.2164161	1.793437
12.865352778014795	3.3904274	1.8413113
12.882990722332197	3.546126	1.883116
12.90062897316344	3.6651728	1.9144641
12.918267530942412	3.7473125	1.9357977
12.935906396103071	3.6370568	1.9071069
12.953545569079449	3.796575	1.9484802
12.971185050305628	3.623739	1.9036121
12.988824840215775	3.6167574	1.9017774
13.006464939244115	3.6298828	1.9052252
13.024105347824943	3.4395852	1.8546119
13.041746066392617	3.5478659	1.883578
13.05938709538157	3.3473816	1.8295851
13.077028435226296	3.3892357	1.8409877
13.094670086361363	3.2574246	1.8048337
13.112312049221401	3.1719778	1.7810047
13.129954324241112	3.056679	1.7483361
13.147596911855258	2.8946674	1.7013723
13.165239812498685	2.8730106	1.6949958
13.182883026606293	2.8006015	1.6734998
13.200526554613058	2.7539582	1.6595054
13.218170396954017	2.7072933	1.6453855
13.235814554064284	2.7006602	1.6433686
13.253459026379034	2.7138429	1.6473745
13.271103814333523	2.6966329	1.6421428
13.288748918363058	2.7171106	1.6483661
13.306394338903031	2.7150202	1.6477318
13.32404007638889	2.6968193	1.6421995
13.341686131256164	2.6985795	1.6427354
13.359332503940449	2.6650543	1.6324995
13.376979194877402	2.657512	1.6301877
13.394626204502751	2.678389	1.6365784
13.412273533252307	2.7120335	1.6468253
13.429921181561937	2.7102067	1.6462705
13.447569149867581	2.737767	1.6546199
13.465217438605247	2.7793221	1.6671299
13.482866048211022	2.799982	1.6733147
13.500514979121052	2.7995472	1.6731848
13.518164231771568	2.7730844	1.665258
13.535813806598844	2.719708	1.6491537
13.553463704039254	2.7103922	1.6463269
13.571113924529229	2.712269	1.6468968
13.588764468505275	2.701204	1.6435341
13.606415336403956	2.7131786	1.6471729
13.624066528661917	2.7158546	1.647985
13.641718045715882	2.8053818	1.6749274
13.659369888002635	2.8461514	1.687054
13.67702205595903	2.9216602	1.7092865
13.694674550021993	2.9713788	1.7237688
13.712327370628532	3.0187168	1.7374455
13.729980518215713	3.0733385	1.753094
13.747633993220681	3.1179314	1.7657665
13.765287796080647	3.1794183	1.7830924
13.7829419272329	3.262612	1.8062702
13.800596387114801	3.3375087	1.826885
13.818251176163775	3.3589077	1.8327323
13.835906294817324	3.3864775	1.8402385
13.853561743513023	3.393201	1.8420644
13.871217522688525	3.4313984	1.8524034
13.888873632781538	3.4721186	1.8633622
13.906530074229858	3.5321796	1.8794094
13.92418684747135	3.5642602	1.8879249
13.941843952943948	3.540513	1.881625
13.959501391085665	3.4936714	1.8691366
13.977159162334578	3.4054449	1.8453847
13.994817267128846	3.3717127	1.8362224
14.012475705906693	3.3014266	1.8169829
14.030134479106424	3.24135	1.800375
14.047793587166414	3.173845	1.7815288
14.065453030525108	3.0995777	1.7605617
14.083112809621026	3.0119293	1.735491
14.100772924892766	2.9335556	1.7127626
14.118433376778997	2.8851676	1.6985781
14.136094165718458	2.8585835	1.6907346
14.153755292149969	2.8234897	1.6803243
14.171416756512416	2.7840877	1.6685586
14.189078559244768	2.6992555	1.6429411
14.20674070078606	2.628225	1.6211802
14.224403181575408	2.5684655	1.6026433
14.242066002051999	2.5319328	1.5912049
14.259729162655093	2.5062723	1.5831211
14.277392663824022	2.4547436	1.5667621
14.295056505998208	2.462581	1.5692613
14.312720689617128	2.438623	1.5616091
14.330385215120348	2.424358	1.557035
14.348050082947497	2.4188201	1.5552557
14.3657152935383	2.4059088	1.5510992
14.383380847332528	2.4098787	1.5523784
14.401046744770051	2.3969133	1.5481968
14.418712986290798	2.3860424	1.5446819
14.436379572334793	2.3651123	1.5378922
14.454046503342123	2.3579094	1.5355486
14.471713779752946	2.3981013	1.5485804
14.489381402007504	2.3993917	1.5489969
14.507049370546113	2.3910003	1.546286
14.524717685809168	2.4051585	1.5508573
14.542386348237134	2.4176788	1.5548887
14.560055358270553	2.4109867	1.5527352
14.577724716350051	2.4665995	1.5705411
14.595394422916325	2.4706526	1.571831
14.61306447841015	2.50292	1.5820619
14.63073488327237	2.4667597	1.5705922
14.648405637943917	2.4986918	1.5807251
14.6660767428658	2.5294952	1.5904387
14.683748198479094	2.5728197	1.6040012
14.701420005224954	2.5999897	1.6124483
14.719092163544628	2.6571445	1.630075
14.73676467387942	2.6874247	1.6393367
14.754437536670727	2.69288	1.6409997
14.772110752360014	2.7085035	1.6457531
14.78978432138882	2.6860242	1.6389095
14.807458244198777	2.7130697	1.6471399
14.82513252123159	2.7289503	1.6519535
14.842807152929028	2.75345	1.6593523
14.860482139732962	2.7291377	1.6520102
14.87815748208531	2.6615438	1.6314238
14.8958331804281	2.6753874	1.6356611
14.91350923520342	2.6209548	1.6189363
14.931185646853438	2.6590059	1.6306459
14.948862415820408	2.6512651	1.6282706
14.966539542546656	2.6706157	1.6342019
14.98421702747459	2.6332297	1.622723
15.001894871046696	2.6229422	1.61955
15.019573073705542	2.6586447	1.6305351
15.037251635893766	2.6611621	1.6313069
15.054930558054092	2.705055	1.6447052
15.072609840629323	2.739666	1.6551937
15.090289484062351	2.892565	1.7007543
15.107969488796124	3.2013512	1.789232
15.125649855273691	3.5952482	1.896114
15.14333058393817	4.078167	2.019447
15.161011675232768	5.080616	2.2540221
15.17869312960076	6.44572	2.5388422
15.196374947485506	8.315781	2.8837094
15.214057129330447	11.318063	3.3642328
15.231739675579114	16.037483	4.0046825
15.249422586675102	20.97401	4.579739
15.267105863062092	24.085413	4.907689
15.284789505183847	24.240013	4.9234147
15.302473513484218	22.081804	4.699128
15.320157888407127	18.51139	4.3024864
15.337842630396578	14.364705	3.7900798
15.355527739896656	11.121356	3.3348696
15.37321321735153	8.62355	2.9365883
15.39089906320545	6.3722563	2.5243328
15.408585277902748	4.845733	2.2013025
15.42627186188783	3.815727	1.9533886
15.443958815605198	3.2794442	1.8109236
15.461646139499424	3.0074387	1.7341968
15.479333834015168	2.8936548	1.7010746
15.497021899597165	2.8282409	1.6817374
15.514710336690234	2.7480023	1.65771
15.53239914573928	2.6302276	1.6217977
15.550088327189297	2.5249622	1.589013
15.567777881485336	2.4991124	1.5808581
15.58546780907256	2.493286	1.5790142
15.6031581103962	2.4879222	1.5773149
15.620848785901568	2.4892066	1.577722
15.638539836034063	2.4514918	1.565724
15.656231261239173	2.442956	1.5629958
15.673923061962451	2.4192188	1.5553838
15.691615238649552	2.446913	1.5642612
15.709307791746202	2.4477255	1.5645208
15.727000721698221	2.4473991	1.5644165
15.744694028951498	2.438809	1.5616686
15.76238771395202	2.415215	1.5540962
15.780081777145844	2.4015574	1.549696
15.797776218979125	2.3563051	1.5350261
15.815471039898094	2.3373332	1.528834
15.833166240349064	2.3332598	1.5275012
15.850861820778437	2.3377454	1.5289687
15.868557781632699	2.3854477	1.5444895
15.886254123358412	2.39918	1.5489286
15.903950846402232	2.391485	1.5464426
15.921647951210897	2.370571	1.5396658
15.939345438231225	2.4035988	1.5503544
15.957043307910133	2.413557	1.5535626
15.974741560694602	2.426978	1.5578761
15.992440197031714	2.4222555	1.5563596
16.01013921736862	2.4178805	1.5549536
16.02783862215259	2.4111001	1.5527718
16.045538411830933	2.394926	1.5475549
16.06323858685107	2.4169607	1.5546577
16.080939147660512	2.4371269	1.56113
16.09864009470684	2.4043834	1.5506074
16.11634142843774	2.3748426	1.5410525
16.134043149300954	2.3681936	1.5388936
16.15174525774433	2.3949652	1.5475675
16.169447754215817	2.4392104	1.5617971
16.18715063916342	2.4727407	1.572495
16.204853913035244	2.466682	1.5705674
16.222557576279478	2.4583988	1.5679282
16.240261629344403	22.454983	4.738669
16.257966072678386	43.016003	6.5586586
16.275670906729868	38.13036	6.1749787
16.293376131947387	2.545561	1.5954815
16.31108174877957	2.520202	1.5875144
16.328787757675133	2.5448513	1.595259
16.34649415908287	2.5458274	1.595565
16.364200953451657	2.5697918	1.603057
16.38190814123048	2.5758393	1.6049421
16.39961572286839	2.6143026	1.6168805
16.41732369881455	2.6370428	1.6238974
16.43503206951817	2.6695945	1.6338894
16.45274083542859	2.7204344	1.649374
16.47044999699522	2.7882707	1.6698116
16.488159554667558	2.8431509	1.6861645
16.505869508895184	2.876774	1.6961056
16.523579860127786	2.8933783	1.7009933
16.541290608815117	2.924736	1.710186
16.559001755407035	2.9592834	1.7202568
16.57671330035348	3.012132	1.7355494
16.59442524410448	3.078905	1.7546809
16.61213758711015	3.0847301	1.75634
16.629850329820705	3.177379	1.7825204
16.647563472686436	3.2722235	1.8089288
16.665277016157724	3.4033592	1.8448195
16.682990960685053	3.4558215	1.858984
16.70070530671898	3.4982846	1.8703701
16.718420054710155	3.5356529	1.8803332
16.736135205109335	3.5803573	1.8921832
16.753850758367335	3.6042786	1.8984938
16.771566714935087	3.6207018	1.9028141
16.789283075263597	3.672331	1.9163327
16.80699983980398	3.7917747	1.947248
16.82471700900741	3.9117656	1.9778184
16.84243458332518	3.9940488	1.9985117
16.860152563208665	4.0524907	2.01308
16.87787094910932	4.098951	2.0245867
16.89558974147871	4.132712	2.0329072
16.913308940768466	4.1854506	2.0458374
16.931028547430333	4.2013617	2.0497224
16.94874856191613	4.28937	2.0710795
16.966468984677785	4.380076	2.092863
16.98418981616729	4.430369	2.104844
17.00191105683676	4.447895	2.1090033
17.019632707138374	4.5164223	2.1251876
17.03735476752442	4.5606613	2.1355705
17.05507723844728	4.5939107	2.143341
17.072800120359403	4.572201	2.1382706
17.090523413713353	4.6277575	2.1512222
17.108247118961785	4.6870375	2.1649568
17.125971236557437	4.722816	2.1732042
17.143695766953133	4.707434	2.1696622
17.161420710601806	4.7289968	2.1746256
17.179146067956477	4.749725	2.1793864
17.19687183947025	4.719565	2.172456
17.21459802559634	4.695218	2.166845
17.232324626788028	4.6701365	2.1610498
17.25005164349871	4.6733065	2.1617832
17.267779076181863	4.6143637	2.148107
17.285506925291074	4.58601	2.1414971
17.30323519127999	4.5973964	2.144154
17.320963874602384	4.57773	2.139563
17.33869297571211	4.6052876	2.1459935
17.356422495063114	4.6179905	2.148951
17.37415243310944	4.591808	2.1428504
17.391882790305218	4.5531836	2.133819
17.40961356710468	4.507901	2.1231818
17.42734476396215	4.526899	2.127651
17.445076381332044	4.525089	2.1272256
17.462808419668868	4.618497	2.1490688
17.48054087942723	4.736137	2.1762667
17.498273761061835	5.0219927	2.2409804
17.51600706502747	5.5072107	2.3467448
17.533740791779024	6.22637	2.4952695
17.551474941771485	7.626295	2.7615747
17.56920951545993	8.683898	2.9468455
17.586944513299528	10.815756	3.2887316
17.60467993574556	12.418385	3.5239727
17.622415783253373	14.011704	3.743221
17.64015205627843	15.320361	3.9141233
17.657888755276293	16.311384	4.0387354
17.675625880702604	16.833225	4.1028314
17.69336343301311	16.699507	4.086503
17.71110141266366	15.957231	3.9946501
17.728839820110178	15.003019	3.873373
17.746578655808705	14.099647	3.7549496
17.764317920215372	12.695901	3.5631309
17.7820576137864	11.299484	3.3614705
17.79979773697811	9.339637	3.056082
17.81753829024692	7.568255	2.7510462
17.835279274049356	5.8968043	2.4283338
17.85302068884201	4.8916097	2.2116983
17.870762535081607	4.2526774	2.062202
17.888504813224934	3.9617128	1.9904052
17.90624752372891	3.755887	1.938011
17.923990667050536	3.6434188	1.9087741
17.941734243646895	3.5206308	1.8763344
17.959478253975185	3.4838808	1.8665156
17.9772226984927	3.4884024	1.8677266
17.994967577656833	3.4796832	1.8653909
18.01271289192506	3.4543622	1.8585914
18.030458641754965	3.3507771	1.8305128
18.04820482760425	3.3124068	1.8200018
18.06595144993067	3.3218367	1.8225907
18.083698509192125	3.3164692	1.8211175
18.101446005846576	3.2486472	1.8024004
18.119193940352105	3.2325487	1.797929
18.136942313166887	3.215053	1.793057
18.1546911247492	3.2130783	1.7925061
18.1724403755574	3.1929996	1.7868966
18.19019006604997	3.150844	1.7750617
18.207940196685467	3.1709638	1.78072
18.225690767922575	3.14681	1.7739251
18.243441780220046	3.1255627	1.7679261
18.261193234036764	3.0565798	1.7483077
18.278945129831676	3.0263393	1.7396377
18.29669746806386	3.0502534	1.7464975
18.314450249192483	3.0707793	1.7523639
18.3322034736768	3.067759	1.7515019
18.349957141976184	3.0191216	1.737562
18.3677112545501	3.0288553	1.7403607
18.385465811858108	3.0435193	1.7445685
18.403220814359884	3.0564184	1.7482616
18.420976262515172	3.0438225	1.7446554
18.43873215678387	3.0937586	1.7589084
18.456488497625923	3.1441913	1.7731868
18.474245285501407	3.2758877	1.8099414
18.492002520870486	3.3350558	1.8262135
18.50976020419343	3.3762906	1.8374685
18.527518335930615	3.6608691	1.9133397
18.545276916542516	4.2684097	2.066013
18.563035946489688	4.4398594	2.1070974
18.580795426232832	4.84331	2.200752
18.598555356232698	4.6962366	2.1670802
18.616315736950185	5.001402	2.2363815
18.63407656884626	4.671594	2.1613872
18.65183785238201	4.9133763	2.2166138
18.669599588018617	4.721177	2.172827
18.68736177621737	4.758895	2.1814892
18.705124417439652	4.749497	2.1793342
18.72288751214696	4.516116	2.1251156
18.740651060800886	4.6856174	2.1646287
18.758415063863115	4.382365	2.09341
18.77617952179546	4.5447474	2.1318414
18.793944435059814	4.2296076	2.056601
18.811709804118184	4.281608	2.0692048
18.829475629432675	4.252051	2.06205
18.8472419114655	4.0695844	2.017321
18.86500865067897	4.127325	2.0315819
18.88277584753551	3.7901902	1.9468411
18.90054350249763	3.8015575	1.9497583
18.918311616027957	3.5096815	1.8734144
18.936080188589226	3.382197	1.839075
18.953849220644265	3.0521588	1.7470429
18.971618712656007	2.8680522	1.6935325
18.9893886650875	2.824523	1.6806318
19.007159078401887	8.040949	2.8356566
19.024929953062408	32.927925	5.738286
19.042701289532435	32.847515	5.731275
19.060473088275405	25.37971	5.037828
19.07824534975489	2.6511147	1.6282244
19.096018074434568	2.6245966	1.6200607
19.113791262778197	2.6255329	1.6203496
19.13156491524966	2.6442468	1.626114
19.149339032312945	2.6408844	1.6250799
19.167113614432136	2.6356034	1.6234542
19.184888662071433	2.6168635	1.6176722
19.202664175695123	2.5935564	1.6104523
19.220440155767623	2.5677226	1.6024115
19.238216602753447	2.553087	1.5978383
19.2559935171172	2.5046844	1.5826195
19.27377089932361	2.4868295	1.5769684
19.291548749837514	2.4894714	1.5778059
19.309327069123835	2.5320349	1.591237
19.32710585764763	2.5530496	1.5978265
19.344885115874032	2.5931182	1.6103162
19.362664844268313	2.5857341	1.6080219
19.380445043295822	2.56494	1.601543
19.39822571342203	2.5379162	1.5930839
19.41600685511252	2.486018	1.576711
19.43378846883297	2.4463978	1.5640965
19.451570555049173	2.45407	1.5665472
19.469353114227037	2.4712765	1.5720295
19.48713614683254	2.4739704	1.572886
19.50491965333182	2.4527516	1.5661263
19.52270363419109	2.4753718	1.5733315
19.540488089876686	2.4936717	1.5791364
19.55827302085503	2.495359	1.5796705
19.576058427592674	2.4481459	1.5646552
19.593844310556282	2.4284568	1.5583507
19.611630670212598	2.4494836	1.5650827
19.629417507028506	2.5177069	1.5867283
19.64720482147098	2.535858	1.5924377
19.6649926140071	2.550476	1.597021
19.682780885104084	2.5423715	1.5944816
19.70056963522921	2.502817	1.5820293
19.718358864849908	2.4797564	1.5747242
19.7361485744337	2.4720793	1.5722847
19.753938764448215	2.501411	1.5815849
19.771729435361202	2.5249922	1.5890224
19.789520587640506	2.5566711	1.5989594
19.807312221754092	2.566736	1.6021036
19.825104338170043	2.5419097	1.5943367
19.842896937356517	2.5336292	1.5917377
19.860690019781824	2.521742	1.5879995
19.87848358591436	2.538095	1.59314
19.896277636222635	2.5512855	1.5972744
19.914072171175278	2.5550354	1.5984478
19.931867191241015	2.5722358	1.6038191
19.94966269688869	2.5702565	1.603202
19.967458688587264	2.534197	1.5919162
19.985255166805807	2.4530592	1.5662245
20.00305213201348	2.4055183	1.5509733
20.020849584679578	2.4408565	1.562324
20.038647525273507	2.5100064	1.5842999
20.05644595426477	2.536139	1.592526
20.07424487212299	2.5270648	1.5896745
20.092044279317903	2.490542	1.5781451
20.109844176319353	2.4589376	1.5681
20.127644563597304	2.4280562	1.5582222
20.145445441621817	2.4420424	1.5627035
20.16324681086307	2.4536414	1.5664103
20.181048671791373	2.4486232	1.5648078
20.198851024877122	2.4296825	1.5587438
20.216653870590836	2.4074266	1.5515884
20.234457209403146	2.3832936	1.543792
20.252261041784802	2.3771482	1.5418003
20.270065368206662	2.3881755	1.5453722
20.287870189139685	2.409013	1.5520996
20.305675505054968	2.3944507	1.5474013
20.323481316423702	2.3749819	1.5410976
20.341287623717207	2.3434544	1.5308346
20.359094427406884	2.3444703	1.5311663
20.376901727964288	2.3462005	1.5317312
20.39470952586107	2.34963	1.5328503
20.41251782156899	2.3370266	1.5287336
20.430326615559935	2.3019373	1.5172137
20.448135908305886	2.3053424	1.5183355
20.465945700278965	2.338901	1.5293466
20.483755991951384	2.3480043	1.5323199
20.50156678379548	2.3455274	1.5315114
20.519378076283708	2.3749473	1.5410864
20.537189869888635	2.35427	1.534363
20.55500216508294	2.331529	1.5269345
20.572814962339415	2.3121545	1.5205771
20.59062826213098	2.3289719	1.5260969
20.60844206493066	2.335935	1.5283766
20.626256371211593	2.3033822	1.5176897
20.644071181447032	2.3174517	1.5223179
20.66188649611036	2.320791	1.5234143
20.67970231567506	2.3535845	1.5341396
20.697518640614742	2.3326986	1.5273174
20.715335471403122	2.337955	1.5290372
20.73315280851404	2.3169258	1.5221452
20.750970652421447	2.2977931	1.5158473
20.768789003599412	2.2803004	1.5100664
20.786607862522136	2.2946103	1.5147971
20.8044272296639	2.3475392	1.5321681
20.82224710549913	2.3414986	1.5301956
20.84006749050237	2.2891057	1.512979
20.857888385148268	3.8375893	1.9589766
20.8757097899116	45.963017	6.779603
20.893531705267254	64.824936	8.0513935
20.911354131690224	83.803535	9.154428
20.92917706965566	69.04491	8.309326
20.94700051963877	50.113102	7.079061
20.96482448211493	29.43271	5.4251924
20.982648957559622	4.1934686	2.047796
21.00047394644843	2.3208523	1.5234344
21.01829944925707	2.2946086	1.5147965
21.036125466461375	2.2560513	1.5020157
21.053951998537297	2.2454848	1.4984941
21.071779045960906	2.26005	1.5033463
21.089606609208378	2.2706978	1.5068835
21.10743468875603	2.2484586	1.4994861
21.12526328508028	2.2410603	1.4970171
21.143092398657675	2.2149997	1.4882874
21.16092202996488	2.1950154	1.4815584
21.17875217947867	2.2278874	1.4926109
21.19658284767596	2.2587621	1.5029179
21.21441403503377	2.2266562	1.4921985
21.232245742029225	2.1839468	1.4778183
21.2500779691396	2.147824	1.4655457
21.26791071684227	2.1494133	1.4660878
21.28574398561475	2.1533506	1.4674299
21.30357777593465	2.1618004	1.4703063
21.321412088279704	2.1505446	1.4664736
21.339246923127792	2.1638074	1.4709886
21.357082280956888	2.1791255	1.4761862
21.3749181622451	2.1701794	1.4731529
21.392754567470647	2.130957	1.4597797
21.41059149711187	2.0874572	1.4448035
21.42842895164726	2.0879502	1.4449742
21.446266931555378	2.1394196	1.4626755
21.464105437314945	2.1356056	1.4613712
21.481944469404798	2.1388752	1.4624894
21.49978402830388	2.1176643	1.4552197
21.51762411449127	2.106827	1.4514914
21.53546472844617	2.100909	1.4494513
21.553305870647876	2.112799	1.453547
21.571147541575865	2.1253421	1.4578553
21.58898974170967	2.0993526	1.4489143
21.60683247152899	2.0540187	1.4331849
21.62467573151363	2.0657976	1.4372883
21.642519522143523	2.103937	1.4504954
21.660363843898722	2.1069708	1.4515408
21.6782086972594	2.1069593	1.4515369
21.696054082705864	2.1107905	1.452856
21.713900000718535	2.0968418	1.4480476
21.73174645177795	2.0833335	1.4433757
21.749593436364794	2.0777774	1.4414498
21.767440954959845	2.0593247	1.4350348
21.785289008044032	2.0491238	1.4314761
21.803137596098388	2.0365396	1.4270737
21.820986719604086	2.0233922	1.42246
21.838836379042412	1.977328	1.4061749
21.85668657489478	1.9911752	1.41109
21.87453730764273	2.0112076	1.4181705
21.892388577767914	2.01267	1.418686
21.91024038575213	2.043687	1.4295758
21.928092732077285	2.0711248	1.4391403
21.945945617225426	2.0597465	1.4351817
21.963799041678694	2.0479105	1.4310522
21.981653005919398	31.35742	5.5997696
21.999507510429943	78.147385	8.840101
22.01736255569286	73.043625	8.546556
22.035218142190818	4.124077	2.0307822
22.05307427040661	1.9322792	1.3900645
22.07093094082315	1.9607366	1.4002631
22.088788153923474	1.994418	1.4122386
22.106645910190746	1.9759296	1.4056777
22.12450421010827	1.9655055	1.4019649
22.142363054159464	1.9434452	1.394075
22.16022244282787	1.9905013	1.4108512
22.178082376597164	1.987444	1.4097674
22.195942855951145	1.9823047	1.4079434
22.213803881373742	1.9428045	1.3938452
22.231665453349002	1.9683557	1.402981
22.24952757236111	1.9716781	1.4041646
22.26739023889438	1.9502589	1.3965167
22.28525345343323	1.9202929	1.3857464
22.30311721646225	1.9095685	1.3818713
22.320981528466113	1.9434543	1.3940783
22.33884638992964	1.9865941	1.4094659
22.356711801337788	2.0025713	1.4151224
22.37457776317561	1.9852372	1.4089844
22.392444275928337	1.9887426	1.4102279
22.410311340081282	2.0049613	1.4159665
22.428178956119904	2.0017757	1.4148413
22.446047124529805	1.9981009	1.4135419
22.46391584579669	1.9854798	1.4090706
22.481785120406414	1.9608732	1.4003118
22.49965494884496	1.9332416	1.3904105
22.51752533159841	1.9399973	1.3928379
22.53539626915302	1.9653881	1.401923
22.553267761995137	1.9798212	1.4070612
22.571139810611264	1.9518703	1.3970935
22.589012415488025	1.9364134	1.3915508
22.60688557711216	1.9350269	1.3910525
22.624759295970566	1.9204735	1.3858114
22.642633572550263	1.9299833	1.3892384
22.660508407338362	1.9201412	1.3856916
22.67838380082217	1.94267	1.3937969
22.696259753489077	1.9769286	1.4060329
22.714136265826614	1.9702126	1.4036427
22.73201333832246	1.987408	1.4097546
22.74989097146439	1.9387797	1.3924007
22.76776916574035	1.9095712	1.3818723
22.785647921638393	1.8681408	1.3667995
22.803527239646712	1.9096848	1.3819134
22.82140712025363	1.9006027	1.3786235
22.839287563947593	1.8755412	1.369504
22.85716857121719	1.8545861	1.3618319
22.875050142551135	1.9050338	1.3802296
22.892932278438277	1.9482512	1.3957977
22.910814979367604	1.9762561	1.4057938
22.928698245828222	1.963246	1.4011588
22.946582078309387	1.9203991	1.3857846
22.96446647730047	1.9201776	1.3857048
22.98235144329098	1.9581578	1.399342
23.000236976770562	1.9732717	1.4047319
23.018123078229	1.9584502	1.3994464
23.03600974815619	1.9528497	1.397444
23.053896987042194	1.9396882	1.3927269
23.071784795377173	1.9473275	1.3954668
23.08967317365145	1.9180064	1.3849211
23.10756212235546	1.9038764	1.3798103
23.125451641979787	1.8930013	1.3758638
23.143341733015134	1.9051784	1.380282
23.161232395952357	1.8917242	1.3753997
23.179123631282426	1.9060553	1.3805996
23.197015439496468	1.9159043	1.384162
23.214907821085717	1.9093765	1.381802
23.23280077654157	1.936325	1.391519
23.250694306355538	1.9273449	1.3882885
23.268588411019277	1.9536616	1.3977344
23.28648309102458	1.9560381	1.3985844
23.304378346863356	1.9584095	1.3994318
23.322274179027676	1.9291881	1.3889521
23.340170588009723	1.9260269	1.3878137
23.358067574301852	1.926956	1.3881484
23.37596513839651	1.9634868	1.4012448
23.39386328078629	1.9872656	1.4097041
23.411762001963947	1.9731662	1.4046943
23.429661302422353	1.9468247	1.3952866
23.4475611826545	1.926558	1.388005
23.46546164315356	1.908924	1.3816382
23.48336268441279	1.8960366	1.3769665
23.501264306925638	1.8630153	1.3649232
23.51916651118564	1.895522	1.3767796
23.537069297686497	1.8980726	1.3777056
23.554972666922037	1.899837	1.3783457
23.57287661938623	1.8865087	1.3735024
23.59078115557318	1.9193599	1.3854097
23.608686275977128	1.9292774	1.3889843
23.62659198109246	1.9150764	1.3838629
23.6444982714137	1.9117283	1.3826526
23.66240514743549	1.9115891	1.3826023
23.68031260965263	1.9120795	1.3827796
23.698220658560068	1.8672912	1.3664887
23.716129294652845	1.8686916	1.3670009
23.7340385184262	1.8879813	1.3740383
23.75194833037546	1.9439908	1.3942707
23.769858730996123	1.9578545	1.3992336
23.78776972078382	1.9750266	1.4053564
23.80568130023431	1.9341999	1.3907552
23.823593469843495	1.958506	1.3994663
23.841506230107424	1.9437833	1.3941963
23.859419581522275	1.954703	1.3981069
23.87733352458438	1.9485954	1.395921
23.89524805979019	1.9314797	1.3897768
23.913163187636318	1.9188551	1.3852274
23.931078908619508	1.9576814	1.3991717
23.948995223236633	2.0021732	1.4149817
23.966912131984735	2.039172	1.4279958
23.98482963536096	2.046705	1.430631
24.002747733862616	2.0334432	1.4259886
24.020666427987155	2.0065176	1.4165161
24.038585718232156	2.0004869	1.4143857
24.056505605095353	2.0074627	1.4168496
24.074426089074617	2.0715158	1.4392761
24.092347170667946	2.0495722	1.4316328
24.110268850373515	2.0611138	1.435658
24.128191128689586	2.0635881	1.4365195
24.146114006114626	2.0715036	1.4392719
24.164037483147187	2.0253694	1.4231547
24.181961560286005	2.007802	1.4169693
24.199886238029926	2.0109627	1.4180841
24.21781151687797	2.0615385	1.4358058
24.235737397329274	2.0998726	1.4490937
24.253663879883135	2.080831	1.4425086
24.271590965038975	2.0687475	1.4383141
24.289518653296376	2.0477402	1.4309927
24.30744694515505	2.024363	1.4228011
24.32537584111486	2.0123541	1.4185747
24.34330534167581	2.0344155	1.4263294
24.361235447338046	2.090701	1.4459257
24.379166158601876	2.056359	1.4340011
24.39709747596772	2.0244443	1.4228297
24.41502939993615	2.0019526	1.4149038
24.432961931007917	2.013655	1.419033
24.450895069683856	2.0301065	1.424818
24.468828816465	1.9925263	1.4115688
24.4867631718525	1.9638789	1.4013846
24.504698136347656	1.9696045	1.4034259
24.52263371045192	1.9895136	1.4105012
24.540569894666874	1.9844495	1.4087049
24.558506689494266	1.9731253	1.4046798
24.57644409543597	1.9665053	1.4023213
24.594382112994012	1.9273497	1.3882902
24.61232074267057	1.9323945	1.390106
24.630259984967953	1.9669513	1.4024804
24.64819984038863	1.9443638	1.3944045
24.66614030943522	1.9656456	1.4020149
24.684081392610462	1.9494282	1.3962193
24.702023090417274	1.9896679	1.4105558
24.7199654033587	1.9920689	1.4114068
24.737908331937927	2.0227342	1.4222286
24.755851876658305	2.0223255	1.4220849
24.773796038023324	2.0382538	1.4276743
24.79174081653661	2.0340595	1.4262046
24.809686212701962	2.0656188	1.437226
24.827632227023294	2.1074336	1.4517002
24.8455788600047	2.1209888	1.4563615
24.8635261121504	2.1404936	1.4630426
24.88147398396475	2.1064334	1.4513557
24.899422475952303	2.1189423	1.4556587
24.917371588617698	2.1217763	1.4566319
24.935321322465768	2.175933	1.4751043
24.953271678001478	2.2467835	1.4989275
24.97122265572994	2.4281268	1.5582448
24.989174256156414	2.7223318	1.6499491
25.00712647978632	3.143376	1.7729568
25.02507932712521	3.64927	1.9103062
25.043032798678798	4.201543	2.0497665
25.060986894952933	4.873264	2.207547
25.078941616453637	5.6597714	2.3790274
25.096896963687055	6.5975513	2.56857
25.114852937159508	7.633802	2.7629335
25.132809537377444	8.077073	2.842019
25.150766764847468	8.081688	2.842831
25.168724620076347	7.5465627	2.7471008
25.186683103570985	6.5748525	2.5641475
25.204642215838426	5.4526243	2.3350854
25.222601957385894	4.139305	2.0345283
25.24056232872074	3.1661394	1.7793648
25.25852333035048	2.6217241	1.6191739
25.276484962782778	2.282127	1.510671
25.294447226525435	2.0860162	1.4443047
25.312410122086423	2.010166	1.4178032
25.330373649973843	2.0062058	1.4164059
25.348337810695988	1.9817889	1.4077603
25.366302604761245	1.8899636	1.3747594
25.384268032678207	1.8497171	1.360043
25.40223409495558	1.8870649	1.3737048
25.420200792102257	1.9289267	1.3888581
25.438168124627246	1.9096503	1.381901
25.45613609303974	1.8778516	1.3703473
25.474104697849057	1.8528227	1.3611842
25.492073939564698	1.8690594	1.3671355
25.510043818696285	1.9107999	1.3823168
25.528014335753614	1.8898153	1.3747056
25.54598549124664	1.8702368	1.367566
25.56395728568544	1.8593032	1.3635627
25.58192971958028	1.9049205	1.3801886
25.59990279344156	1.8640138	1.3652889
25.617876507779833	1.8358457	1.3549339
25.635850863105826	1.7983851	1.3410388
25.653825859930386	1.803428	1.3429177
25.671801498764548	1.8105015	1.3455487
25.68977778011949	1.8409892	1.3568306
25.707754704506524	1.9004298	1.3785608
25.725732272437153	1.8962702	1.3770512
25.743710484423012	1.8664807	1.3661921
25.761689340975888	1.8340303	1.3542638
25.77966884260774	1.8205835	1.34929
25.797648989830662	1.8325615	1.3537214
25.815629783156922	1.8214569	1.3496137
25.83361122309895	1.8260946	1.3513306
25.85159331016929	1.8286817	1.3522875
25.869576044880695	1.8541324	1.3616654
25.887559427746034	1.8674306	1.3665396
25.90554345927836	1.8880756	1.3740727
25.92352813999086	1.8529264	1.3612224
25.94151347039689	1.8299567	1.3527589
25.959499451009965	1.8163522	1.3477211
25.97748608234374	1.827364	1.3518003
25.995473364912062	1.8510727	1.3605413
26.013461299228904	1.8600259	1.3638277
26.03144988580839	1.8586377	1.3633187
26.04943912516483	1.8629824	1.3649111
26.067429017812675	1.8286189	1.3522644
26.085419564266537	1.8216424	1.3496823
26.103410765041186	1.8250183	1.3509324
26.12140262065155	1.8535062	1.3614353
26.139395131612723	1.8425242	1.3573961
26.157388298439948	1.830828	1.3530809
26.17538212164861	1.8205552	1.3492795
26.193376601754295	1.8009541	1.3419963
26.211371739272714	1.7969217	1.3404931
26.229367534719746	1.799733	1.3415413
26.247363988611433	1.8277448	1.3519411
26.26536110146397	1.8322377	1.3536018
26.283358873793727	1.851738	1.3607858
26.301357306117204	1.8084108	1.3447716
26.319356398951104	1.8236345	1.3504201
26.33735615281224	1.8413937	1.3569796
26.35535656821762	1.873359	1.3687071
26.373357645684404	1.8209919	1.3494413
26.39135938572991	1.8137114	1.3467411
26.409361788871614	1.8047305	1.3434026
26.427364855627165	1.8147215	1.347116
26.445368586514352	1.8077517	1.3445265
26.46337298205115	1.845396	1.3584535
26.48137804275568	1.8572143	1.3627965
26.499383769146217	1.8418231	1.3571378
26.517390161741215	1.8044312	1.3432912
26.53539722105928	1.8195379	1.3489025
26.553404947619182	1.8290385	1.3524195
26.571413341939856	1.8476279	1.3592747
26.589422404540397	1.7942873	1.3395101
26.60743213594006	1.7404289	1.3192532
26.62544253665827	1.7222512	1.3123456
26.64345360721459	1.7530004	1.3240092
26.66146534812879	1.7574273	1.3256799
26.679477759920758	1.7712078	1.3308673
26.69749084311057	1.7986033	1.3411201
26.71550459821847	1.8180567	1.3483534
26.733519025764842	1.8383459	1.3558562
26.751534126270258	1.8317091	1.3534065
26.769549900255434	1.8439536	1.3579226
26.787566348241267	1.8526214	1.3611103
26.80558347074881	1.8766347	1.3699032
26.823601268299267	1.8524303	1.3610401
26.841619741414036	1.8315481	1.353347
26.85963889061465	1.8087565	1.3449001
26.877658716422832	1.8085703	1.344831
26.89567921936045	1.8219544	1.3497978
26.913700399949544	1.7826004	1.3351406
26.93172225871233	1.7221456	1.3123055
26.949744796171174	1.7344766	1.3169953
26.967768012848605	1.8178515	1.3482772
26.98579190926733	1.8277102	1.3519284
27.003816485950225	1.825548	1.3511285
27.021841743420318	1.822142	1.3498673
27.039867682200814	1.8383162	1.3558452
27.057894302815072	1.8038379	1.3430703
27.07592160578664	1.8008524	1.3419584
27.0939495916392	1.7913176	1.3384011
27.111978260896635	1.7756019	1.3325171
27.13000761408296	1.7833003	1.3354026
27.148037651722397	1.8065616	1.3440839
27.166068374339304	1.7720578	1.3311867
27.184099782458215	1.7680005	1.3296618
27.20213187660384	1.8202376	1.3491619
27.22016465730105	1.8278123	1.3519661
27.23819812507487	1.8008912	1.3419728
27.256232280450533	1.7934977	1.3392153
27.274267123953383	1.7980936	1.3409301
27.292302656108987	1.8247241	1.3508235
27.31033887744306	1.8258322	1.3512336
27.32837578848146	1.8100792	1.3453919
27.34641338975026	1.7797091	1.3340573
27.364451681775673	1.7606119	1.3268805
27.382490665084074	1.8162462	1.3476818
27.400530340202046	1.870649	1.3677167
27.41857070765629	1.828948	1.352386
27.436611767973726	1.7957368	1.340051
27.454653521681404	1.8208398	1.3493849
27.472695969306564	1.8811272	1.371542
27.490739111376627	1.8853064	1.3730646
27.508782948419153	1.8710971	1.3678805
27.526827480961902	1.8000238	1.3416497
27.54487270953279	1.7620702	1.3274299
27.562918634659898	1.772864	1.3314894
27.580965256871508	1.8073182	1.3443654
27.599012576696026	1.7968848	1.3404793
27.617060594662068	1.7842289	1.3357503
27.63510931129842	1.8088703	1.3449425
27.65315872713401	1.812176	1.3461709
27.67120884269797	1.823643	1.3504232
27.68925965851958	1.8642757	1.3653848
27.707311175128307	1.9203188	1.3857557
27.725363393053787	1.9145129	1.3836592
27.74341631282583	1.8791722	1.370829
27.7614699349744	1.8650908	1.3656833
27.77952426002968	2.091427	1.4461768
27.797579288521973	2.1941245	1.4812577
27.815635020981784	2.6218345	1.619208
27.83369145793979	2.6187303	1.6182492
27.85174859992682	2.501677	1.5816691
27.869806447473923	2.3733053	1.5405536
27.887865001112267	2.0572479	1.4343109
27.905924261373233	1.972335	1.4043984
27.92398422878836	1.9303517	1.389371
27.94204490388936	1.8882351	1.3741307
27.96010628720813	1.8630742	1.3649447
27.978168379276728	1.8805935	1.3713473
27.9962311806274	1.8869457	1.3736614
28.014294691792568	1.8973964	1.3774601
28.0323589133048	1.905468	1.380387
28.050423845696887	1.9089447	1.3816457
28.068489489501758	1.9546387	1.3980839
28.086555845252523	1.9017755	1.3790487
28.104622913482487	1.8590132	1.3634564
28.122690694725115	1.831939	1.3534914
28.14075918951405	1.8815272	1.3716878
28.15882839838312	1.9485079	1.3958896
28.176898321866304	1.9564468	1.3987304
28.1949689604978	1.8911886	1.3752049
28.213040314811945	1.8756654	1.3695494
28.23111238534327	1.9366229	1.391626
28.249185172626493	1.9196354	1.3855091
28.267258677196473	1.854039	1.361631
28.285332899588294	1.9112128	1.3824662
28.303407840337172	1.9834113	1.4083364
28.321483499978545	1.94758	1.3955573
28.33955987904799	1.9319568	1.3899485
28.357636978081285	1.8760704	1.3696972
28.37571479761439	1.8807924	1.3714198
28.393793338183425	1.9701468	1.4036192
28.41187260032469	2.0371182	1.4272765
28.429952584574686	2.02692	1.4236994
28.448033291470065	2.0100996	1.4177798
28.46611472154769	2.0023446	1.4150423
28.484196875344566	2.011971	1.4184396
28.502279753397914	1.9596351	1.3998697
28.52036335624511	1.9809604	1.4074659
28.538447684423716	1.999964	1.4142008
28.556532738471482	1.9829872	1.4081857
28.574618518926325	1.9836873	1.4084344
28.59270502632635	2.02635	1.4234992
28.61079226120985	2.0921602	1.4464302
28.628880224115274	2.097911	1.4484167
28.646968915581287	2.030278	1.4248782
28.66505833614671	2.0255477	1.4232174
28.68314848635055	2.0672705	1.4378005
28.701239366732004	2.1196413	1.4558988
28.71933097783044	2.1286087	1.4589752
28.737423320185403	2.117794	1.4552642
28.75551639433665	2.1204371	1.4561721
28.773610200824074	2.1031194	1.4502136
28.791704740187793	2.0752735	1.440581
28.80980001296809	2.1297102	1.4593526
28.827896019705413	2.212371	1.4874041
28.845992760940433	2.188981	1.4795206
28.86409023721397	2.1730616	1.4741307
28.88218844906704	2.1828144	1.4774351
28.900287397040845	2.233372	1.494447
28.918387081676755	2.2691553	1.5063715
28.936487503516343	2.3087034	1.5194418
28.954588663101365	2.318014	1.5225025
28.97269056097374	2.3410904	1.5300622
28.990793197675597	2.3997905	1.5491257
29.00889657374923	2.4321434	1.5595331
29.027000689737125	2.3853664	1.5444632
29.04510554618196	2.396559	1.5480824
29.06321114362659	2.4051068	1.5508406
29.08131748261405	2.4903889	1.5780966
29.099424563687567	2.5283792	1.5900878
29.11753238739057	2.5245233	1.5888748
29.13564095426663	2.5275826	1.5898373
29.15375026485954	2.575059	1.604699
29.171860319713275	2.6565433	1.6298906
29.18997111937199	2.7601972	1.6613841
29.20808266438002	2.7809837	1.6676282
29.226194955281898	2.7277217	1.6515815
29.244307992622335	2.7266307	1.6512512
29.26242177694624	2.7685127	1.6638849
29.2805363087987	2.8977811	1.7022871
29.29865158872498	2.955606	1.7191876
29.316767617270557	2.909268	1.7056576
29.334884394981064	2.947864	1.7169344
29.353001922402367	3.0266285	1.7397208
29.37112020008047	3.0823627	1.7556659
29.389239228561596	3.201449	1.7892593
29.407359008392152	3.4243693	1.8505051
29.42547954011872	3.7772977	1.9435271
29.44360082428809	4.363047	2.088791
29.46172286144722	5.345983	2.312138
29.479845652143283	6.7516174	2.5983875
29.497969196923606	8.676216	2.9455416
29.516093496335728	11.166875	3.3416874
29.5342185509274	13.773289	3.7112381
29.55234436124651	15.940017	3.992495
29.570470927841175	17.141575	4.1402383
29.588598251259686	17.033955	4.127221
29.60672633205055	16.024565	4.0030694
29.624855170762405	14.145437	3.761042
29.642984767944146	11.525725	3.3949559
29.66111512414481	8.866063	2.9775934
29.67924623991366	6.6173873	2.5724282
29.697378115800138	5.0904512	2.256203
29.71551075235387	4.1208234	2.0299811
29.733644150124675	3.70503	1.9248455
29.751778309662576	3.5002098	1.8708848
29.769913231517766	3.4158673	1.8482065
29.78804891624066	3.3924236	1.8418533
29.806185364381818	3.3669822	1.8349339
29.82432257649206	3.2806733	1.8112628
29.842460553122333	3.2380946	1.7994707
29.86059929482382	3.2602167	1.805607
29.878738802147872	3.3172677	1.8213367
29.896879075646048	3.3105807	1.8195001
29.915020115870114	3.2867465	1.8129387
29.933161923371976	3.2602382	1.8056129
29.951304498703777	3.2074585	1.7909379
29.969447842417857	3.2233405	1.7953664
29.987591955066733	3.2208269	1.7946662
30.005736837203123	3.2205572	1.7945911
30.023882489379943	3.2650445	1.8069434
30.04202891215028	3.260863	1.805786
30.060176106067455	3.2240355	1.7955599
30.078324071684946	3.21288	1.7924508
30.09647280955646	3.1452994	1.7734993
30.114622320235863	3.1498275	1.7747754
30.132772604277257	3.2218716	1.7949573
30.1509236622349	3.2344534	1.7984586
30.16907549466328	3.1926296	1.7867931
30.18722810211705	3.159636	1.7775365
30.205381485151097	3.0512834	1.7467923
30.22353564432045	2.926527	1.7107095
30.241690580180403	2.9771457	1.7254407
30.25984629328638	2.9878309	1.7285343
30.278002784194037	2.9705083	1.7235162
30.296160053459246	3.028042	1.7401271
30.314318101638033	3.085642	1.7565995
30.332476929286646	3.0756128	1.7537425
30.35063653696153	3.0714757	1.7525626
30.368796925219307	3.0583363	1.7488099
30.386958094616844	3.070769	1.7523609
30.40512004571115	3.0201852	1.7378681
30.423282779059463	2.9201398	1.7088417
30.441446295219233	2.7576034	1.6606033
30.459610594748067	2.800607	1.6735014
30.47777567820382	2.8797762	1.6969904
30.495941546144504	2.8814719	1.6974899
30.51410819912835	2.8017414	1.6738403
30.532275637713795	2.815219	1.6778615
30.55044386245946	2.8190963	1.6790165
30.56861287392416	2.8282375	1.6817365
30.586782672666956	2.8386958	1.684843
30.604953259247047	2.8354425	1.6838772
30.623124634223885	2.8062518	1.6751871
30.641296798157075	2.7879088	1.6697032
30.659469751606462	2.775486	1.665979
30.677643495132074	2.7676558	1.6636273
30.695818029294152	2.7555668	1.65999
30.713993354653116	2.767174	1.6634825
30.73216947176962	2.7409863	1.6555924
30.75034638120448	2.7426062	1.6560816
30.768524083518756	2.7592137	1.6610881
30.786702579273673	2.7642984	1.6626179
30.80488186903069	2.8071063	1.6754421
30.82306195335144	2.883744	1.698159
30.841242832797782	3.0462072	1.7453387
30.85942450793176	3.3314798	1.8252342
30.877606979315637	3.6413348	1.9082282
30.895790247511883	3.944258	1.9860156
30.913974313083134	4.360191	2.088107
30.932159176592283	4.5939956	2.1433609
30.95034483860237	4.6528435	2.1570451
30.968531299676698	4.5547514	2.1341863
30.98671856037873	4.3988247	2.0973375
31.00490662127215	4.109505	2.0271914
31.023095482920848	3.5855317	1.89355
31.04128514588892	3.130989	1.7694601
31.059475610740662	2.7618976	1.6618958
31.07766687804056	2.5159316	1.5861689
31.09585894835335	2.4705656	1.5718033
31.11405182224393	2.4953978	1.5796828
31.132245500277417	2.5123816	1.5850494
31.15043998301914	2.5010962	1.5814855
31.168635271034628	2.5725777	1.6039257
31.18683136488964	2.5499089	1.5968434
31.20502826515008	2.4406064	1.562244
31.223225972382135	2.3168101	1.5221071
31.241424487152155	2.3307192	1.5266694
31.259623810026692	2.3587873	1.5358344
31.27782394157253	2.3770146	1.541757
31.296024882356644	2.476171	1.5735854
31.314226632946237	2.4585276	1.5679692
31.332429193908684	2.4941661	1.5792929
31.350632565811598	2.4916928	1.5785097
31.368836749222787	2.460211	1.568506
31.387041744710295	2.4570835	1.5675087
31.40524755284232	2.5675614	1.6023612
31.423454174187317	2.6250231	1.6201923
31.441661609313922	2.5671594	1.6022358
31.459869858791002	2.4759307	1.573509
31.478078923187628	2.4018636	1.5497947
31.496288803073064	2.3775523	1.5419314
31.514499499016807	2.349037	1.5326568
31.532711011588546	2.2878256	1.512556
31.550923341358178	2.3660016	1.5381813
31.56913648889584	2.4385443	1.5615839
31.587350454771844	2.4574063	1.5676117
31.605565239556732	2.4697692	1.5715499
31.62378084382127	2.4642398	1.5697898
31.641997268136382	2.4220438	1.5562917
31.660214513073274	2.3899353	1.5459416
31.67843257920331	2.358323	1.5356833
31.6966514670981	2.3644197	1.5376669
31.71487117732944	2.3273299	1.5255588
31.733091710469346	2.347304	1.5320914
31.751313067090052	2.3615565	1.5367357
31.769535247764008	2.3045945	1.518089
31.787758253063878	2.2578297	1.5026076
31.805982083562526	2.2318993	1.4939542
31.824206739833024	2.2597919	1.5032604
31.84243222244869	2.305193	1.5182862
31.860658531983013	2.332828	1.5273598
31.878885669009737	2.340669	1.5299245
31.897113634102784	2.3011017	1.5169382
31.91534242783632	2.246828	1.4989424
31.933572050784694	2.2536616	1.5012201
31.951802503522508	2.2984967	1.5160794
31.970033786624548	2.3238986	1.5244339
31.988265900665834	2.3350167	1.5280762
32.006498846221575	2.2392492	1.4964122
32.02473262386724	2.1611333	1.4700793
32.04296723417845	2.1567276	1.4685801
32.0612026777311	2.2013052	1.4836797
32.07943895510129	2.2384613	1.4961488
32.097676066865304	2.2437344	1.49791
32.115914013599685	2.2150984	1.4883207
32.13415279588115	2.1841938	1.4779018
32.152392414286666	2.1520123	1.4669739
32.1706328693934	2.1956081	1.4817585
32.18887416177875	2.250476	1.5001587
32.20711629202032	2.1977618	1.482485
32.225359260695924	2.11195	1.4532549
32.243603068383614	2.1056497	1.4510857
32.26184771566166	2.12273	1.4569591
32.28009320310852	2.1186073	1.4555436
32.2983395313029	2.1394029	1.4626697
32.31658670082372	2.138736	1.4624418
32.33483471225012	2.210459	1.4867612
32.35308356616143	2.2269526	1.4922978
32.371333263137245	2.2089598	1.486257
32.38958380375734	2.1825392	1.4773419
32.407835188601744	2.14334	1.464015
32.42608741825067	2.151227	1.4667062
32.444340493284585	2.0629034	1.4362811
32.46259441428416	1.9833058	1.4082989
32.48084918183028	2.0099733	1.4177352
32.49910479650405	2.0086286	1.417261
32.51736125888683	1.9667342	1.402403
32.53561856956014	1.9477386	1.395614
32.5538767291058	1.8786913	1.3706536
32.572135738105764	1.9555608	1.3984137
32.59039559714228	2.0491056	1.4314698
32.608656306797776	2.054457	1.4333377
32.62691786765491	2.0343115	1.4262929
32.645180280296586	2.0691435	1.4384518
32.663443545305896	2.0187943	1.4208428
32.68170766326619	1.9517936	1.397066
32.69997263476099	1.9015672	1.3789732
32.7182384603741	1.9808193	1.4074159
32.7365051406895	2.0764234	1.44098
32.75477267629144	2.013492	1.4189757
32.77304106776434	1.9143378	1.383596
32.79131031569289	1.8917994	1.375427
32.809580420661966	1.9648364	1.4017262
32.827851383256714	2.0315294	1.4253173
32.84612320406245	2.003127	1.4153187
32.86439588366476	1.9468129	1.3952824
32.88266942264945	1.9026419	1.3793628
32.9009438216025	1.9901224	1.410717
32.9192190811102	2.0547576	1.4334426
32.937495201758985	2.1102128	1.4526571
32.95577218413556	2.1080399	1.4519091
32.974050028826866	2.092424	1.4465213
32.992328736420035	2.060879	1.4355762
33.010608307502444	2.036166	1.4269428
33.02888874266169	1.9329556	1.3903078
33.047170042485604	1.9271052	1.3882022
33.06545220756225	2.009888	1.4177052
33.083735238479896	2.01885	1.4208624
33.10201913582707	1.9204035	1.3857862
33.12030390019248	1.9283681	1.388657
33.138589532165135	1.8973868	1.3774567
33.15687603233419	1.8273389	1.351791
33.17516340128909	1.8913743	1.3752725
33.19345163961947	1.9536318	1.3977238
33.211740747915215	1.9716684	1.4041611
33.23003072676643	2.049979	1.4317747
33.248321576763466	1.9976226	1.4133728
33.266613298496885	1.8781533	1.3704573
33.28490589255747	1.8940878	1.3762586
33.30319935953626	1.9552486	1.3983021
33.32149370002451	1.9695152	1.4033942
33.339788914613706	1.9748117	1.4052799
33.358085003895575	2.055944	1.4338564
33.376381968462034	2.053897	1.4331423
33.39467980890529	1.9866701	1.4094929
33.41297852581774	2.0191803	1.4209787
33.43127811979204	2.0649366	1.4369887
33.44957859142105	1.9923447	1.4115044
33.467879941297866	1.9897226	1.4105753
33.486182170015844	1.9957572	1.4127127
33.50448527816853	2.0104039	1.4178871
33.522789266349754	1.9504056	1.3965693
33.541094135153514	1.9500084	1.396427
33.55939988517411	1.9615521	1.4005542
33.57770651700602	1.9188669	1.3852317
33.59601403124398	1.8639133	1.3652521
33.61432242848296	1.8683091	1.3668611
33.632631709318154	1.8375615	1.3555669
33.650941874344994	1.7990986	1.3413048
33.66925292415916	1.9209912	1.3859982
33.68756485935654	1.8649989	1.3656496
33.70587768053328	1.8574948	1.3628994
33.724191388285746	1.9340785	1.3907115
33.74250598321054	1.93414	1.3907336
33.760821465904506	1.8708762	1.3677998
33.77913783696474	1.8785087	1.370587
33.79745509698852	1.7999822	1.3416342
33.815773246573414	1.824205	1.3506314
33.8340922863172	1.8246032	1.3507787
33.852412216817896	1.819495	1.3488866
33.87073303867377	1.946927	1.3953233
33.889054752483304	1.9412205	1.3932769
33.907377358845245	1.8366764	1.3552403
33.92570085835853	1.812037	1.3461193
33.94402525162239	1.8169827	1.347955
33.96235053923627	1.7452264	1.3210702
33.980676721799824	1.7423058	1.3199643
33.999003799912984	1.9070487	1.3809594
34.01733177417592	2.0006783	1.4144534
34.03566064518901	2.0003917	1.414352
34.0539904135529	1.9899606	1.4106597
34.07232107986846	1.9932407	1.4118217
34.090652644736785	2.0589814	1.4349152
34.108985108759235	2.0583186	1.4346842
34.12731847253742	1.9925709	1.4115845
34.14565273667313	1.8984277	1.3778344
34.16398790176847	1.9411978	1.3932687
34.18232396842574	2.0499983	1.4317815
34.20066093724749	2.011908	1.4184175
34.21899880883651	1.9019954	1.3791285
34.23733758379583	1.8429672	1.3575592
34.25567726272874	1.8400897	1.3564991
34.27401784623872	1.8445332	1.3581359
34.29235933492957	1.9537572	1.3977686
34.31070172940526	1.9369571	1.391746
34.32904503027003	1.8823819	1.3719993
34.347389238128386	1.8598902	1.3637779
34.36573435358502	1.864992	1.3656471
34.38408037724492	1.9178433	1.3848622
34.402427309713296	1.8362123	1.3550692
34.42077515159559	1.8694121	1.3672644
34.43912390349752	1.8565516	1.3625534
34.45747356602499	1.8879787	1.3740374
34.47582413978423	2.0463896	1.4305208
34.49417562538163	2.1047997	1.4507928
34.51252802342388	1.9947976	1.4123731
34.53088133451789	1.8625525	1.3647536
34.54923555927084	1.8650209	1.3656577
34.567590698290104	2.0140412	1.4191692
34.58594675218336	1.9756501	1.4055783
34.6043037215585	1.9523889	1.3972791
34.62266160702365	2.1897113	1.4797673
34.641020409187234	2.2731304	1.5076904
34.65938012865785	2.2152653	1.4883767
34.677740766044394	2.0859098	1.4442679
34.69610232195598	1.9543622	1.397985
34.714464797002016	1.8793857	1.370907
34.73282819179208	1.9058151	1.3805126
34.751192506936064	1.9320487	1.3899815
34.76955774304408	1.8818663	1.3718114
34.7879239007265	1.8873854	1.3738215
34.80629098059391	1.812833	1.3464148
34.824658983257194	1.8961236	1.3769981
34.843027909327446	2.009513	1.4175729
34.86139775941603	1.8561425	1.3624033
34.879768534134534	1.8374212	1.3555151
34.89814023409483	1.9671279	1.4025434
34.91651285990901	2.0513723	1.4322612
34.93488641218944	1.9914619	1.4111917
34.95326089154871	2.07919	1.4419397
34.97163629859967	2.140155	1.4629269
34.99001263395542	2.0098145	1.4176793
35.00838989822934	1.9233215	1.3868387
35.02676809203499	1.9650322	1.4017961
35.04514721598624	2.021362	1.4217461
35.063527270697215	1.9181374	1.3849684
35.081908256782256	1.728682	1.3147936
35.10029017485597	1.9093275	1.3817842
35.11867302553321	2.0942254	1.4471439
35.137056809429104	2.0967743	1.4480243
35.155441527159006	2.0971541	1.4481554
35.173827179338524	1.9833972	1.4083314
35.19221376658354	1.8480146	1.359417
35.21060128951017	1.9478599	1.3956575
35.2289897487348	2.1257563	1.4579973
35.24737914487405	2.2657216	1.5052314
35.26576947854479	2.2043061	1.4846905
35.28416075036418	2.105923	1.4511799
35.30255296094958	2.214395	1.4880843
35.32094611091867	2.13275	1.4603938
35.33934020088932	1.9262109	1.38788
35.35773523147969	2.0199676	1.4212556
35.3761312033082	2.1316936	1.4600321
35.394528116993506	2.1106339	1.4528021
35.41292597315452	2.1422157	1.463631
35.431324772410434	2.1498837	1.4662482
35.449724515380666	2.1068723	1.451507
35.46812520268491	2.0405757	1.4284872
35.486526834943106	2.170551	1.473279
35.504929412775454	2.3531091	1.5339847
35.52333293680242	2.236388	1.4954557
35.54173740764471	1.709234	1.3073767
35.560142825923286	1.5209337	1.2332615
35.5785491922594	1.7192891	1.3112166
35.59695650727454	1.7512002	1.3233292
35.61536477159042	1.7820303	1.3349271
