0.008763373481513119	0.9483193	0.9738169
0.026290120649546365	0.38522455	0.6206646
0.043816868432600686	0.47460473	0.6889156
0.06134361724069026	0.28034627	0.52947736
0.07887036748382949	0.20703253	0.45500827
0.0963971195720331	0.1107252	0.33275396
0.11392387391531617	0.004902856	0.0700204
0.1314506309236943	0.0	0.0
0.1489773910071836	0.0	0.0
0.16650415457580078	0.0	0.0
0.18403092203956356	0.0	0.0
0.20155769380849	0.01238784	0.11130068
0.2190844702925996	0.075850666	0.27541
0.2366112519019124	0.09306505	0.30506566
0.2541380390464497	0.09014224	0.30023697
0.27166483213623416	0.08894966	0.2982443
0.28919163158128947	0.07518153	0.2741925
0.3067184377916406	0.131283	0.36232996
0.324245251177314	0.16557053	0.4069036
0.34177207214833777	0.13140789	0.36250225
0.3592989011147415	0.1207636	0.34751058
0.37682573848655654	0.107196964	0.32740948
0.39435258467381573	0.13533068	0.3678732
0.41187944008655414	0.13544923	0.36803427
0.42940630513480854	0.11482223	0.33885428
0.446933180228618	0.09219691	0.30363944
0.4644600657780234	0.104051985	0.3225709
0.48198696219306775	0.12456916	0.35294357
0.49951386988379676	0.12894009	0.35908228
0.5170407892602581	0.13719408	0.37039718
0.5345677207325025	0.12679513	0.35608304
0.5520946647105822	0.15805249	0.39755815
0.5696216216045534	0.1328917	0.36454314
0.5871485918244737	0.13430668	0.36647877
0.6046755757804043	0.13826364	0.37183818
0.6222025738824094	0.13945603	0.37343812
0.6397295865405557	0.1285682	0.35856408
0.6572566141649129	0.093427405	0.30565897
0.6747836571655547	0.085522115	0.29244164
0.6923107159525568	0.12928565	0.35956314
0.7098377909359992	0.18324652	0.42807305
0.7273648825259653	0.22325522	0.4724989
0.7448919911325411	0.20045578	0.44772288
0.762419117165817	0.21098492	0.45933095
0.7799462610358868	0.1802197	0.4245229
0.7974734231528482	0.19020069	0.43612003
0.8150006039268024	0.14351201	0.37882978
0.8325278037678551	0.13589515	0.3686396
0.8500550230861152	0.18804975	0.43364704
0.8675822622916969	0.19200252	0.43818092
0.8851095217947171	0.2042192	0.4519062
0.9026368020052984	0.20333609	0.45092803
0.9201641033335665	0.21356125	0.46212688
0.9376914261896523	0.2147391	0.4633995
0.9552187709836915	0.20705917	0.45503756
0.9727461381258234	0.23525392	0.48502982
0.990273528026193	0.24371815	0.49367818
1.0078009410949496	0.26942685	0.5190634
1.0253283777422473	0.26218143	0.51203656
1.0428558383782454	0.26213008	0.51198643
1.0603833234131086	0.25890455	0.5088266
1.0779108332570058	0.2877948	0.5364651
1.0954383683201119	0.33053055	0.57491785
1.112965929012607	0.416197	0.6451333
1.1304935157446763	0.5586621	0.74743706
1.1480211289265108	0.61719155	0.7856154
1.1655487689683062	1.4523337	1.2051281
1.1830764362802655	1.745405	1.3211378
1.200604131272596	2.1385348	1.462373
1.2181318543555117	2.4017909	1.5497712
1.235659605939232	2.4549828	1.5668385
1.253187386433982	4.2123322	2.0523968
1.270715196249994	6.6257606	2.5740552
1.2882430357975057	12.152948	3.4861078
1.3057709054867608	16.775038	4.095734
1.3232988057280106	22.487972	4.7421484
1.3408267369315112	27.336649	5.228446
1.358354699507526	31.095324	5.5763183
1.3758826938663256	35.715424	5.9762383
1.3934107204181858	37.62965	6.134301
1.410938779573391	38.20228	6.180799
1.4284668717422309	38.347347	6.1925235
1.4459949973350033	37.910244	6.1571293
1.4635231567620117	37.915226	6.157534
1.4810513504335687	37.139782	6.0942416
1.4985795787599925	36.455658	6.0378523
1.5161078421516088	35.937206	5.994765
1.5336361410187505	35.47649	5.9562144
1.5511644757717598	35.509556	5.9589896
1.5686928468209842	35.85145	5.987608
1.58622125457678	36.0929	6.0077367
1.6037496994495108	37.384434	6.114281
1.621278181849548	37.391197	6.1148343
1.6388067021872719	38.604298	6.213236
1.6563352608730693	37.992268	6.163787
1.673863858317336	37.050938	6.086948
1.6913924949304753	36.071346	6.0059423
1.7089211711228998	35.003674	5.9163904
1.7264498873050296	34.116608	5.8409424
1.7439786438872935	33.40183	5.7794313
1.7615074412801288	32.27839	5.6814075
1.779036279893981	31.405716	5.60408
1.796565160139305	30.473465	5.5202775
1.814094082426564	29.842537	5.4628325
1.8316230471662298	29.143232	5.398447
1.849152054768784	28.222208	5.312458
1.8666811056447168	27.728434	5.2657795
1.8842102002045273	27.11077	5.2068005
1.901739338858724	26.69791	5.167002
1.9192685220178245	26.185472	5.117174
1.9367977500923557	25.371925	5.037055
1.9543270234928547	25.01769	5.0017686
1.971856342629867	24.170767	4.9163775
1.9893857079139496	23.664267	4.864593
2.006915119755667	22.73123	4.767728
2.0244445785655945	21.98105	4.6883955
2.0419740847543175	21.64721	4.652656
2.0595036387324317	21.448627	4.631266
2.0770332409105414	21.110062	4.5945687
2.094562891699263	20.624098	4.541376
2.1120925915092217	19.855167	4.4559135
2.129622340751053	19.716919	4.440374
2.1471521398354043	188.05536	13.713327
2.1646819891729323	444.48666	21.082853
2.182211889174303	440.90793	20.997808
2.1997418402501974	453.34863	21.291985
2.2172718428113023	433.36282	20.817368
2.234801897268317	321.1452	17.920525
2.2523320040319548	17.31037	4.160573
2.269862163512935	16.787748	4.0972853
2.287392376121992	16.572807	4.0709715
2.304922642269869	16.214811	4.026762
2.322452962367322	16.042532	4.005313
2.3399833368251164	15.656625	3.9568453
2.357513766054032	15.543131	3.9424777
2.3750442504648586	15.155613	3.893021
2.3925747904683963	14.76953	3.8431146
2.410105386475459	14.597185	3.8206263
2.4276360388968707	14.198879	3.76814
2.445166748143469	14.112519	3.7566633
2.4626975146261025	13.931696	3.7325187
2.4802283387556323	13.658438	3.6957324
2.4977592209429305	13.305544	3.6476765
2.5152901615988825	13.046535	3.6119988
2.5328211611343865	12.822444	3.580844
2.5503522199603523	12.671012	3.5596366
2.5678833384877024	12.472726	3.5316746
2.5854145171273712	12.479585	3.5326455
2.6029457562903064	12.44776	3.5281382
2.620477056387469	12.204202	3.4934514
2.6380084178298326	11.737773	3.4260433
2.655539841028383	11.40272	3.3767915
2.673071326394119	11.269901	3.3570673
2.6906028743380523	11.18675	3.34466
2.708134485271211	11.064275	3.3263004
2.7256661596046325	10.845697	3.2932806
2.743197897749369	10.771993	3.2820714
2.760729700116486	10.573032	3.25162
2.778261567117063	10.425035	3.2287824
2.795793499162193	10.321861	3.2127655
2.8133254966629817	10.134894	3.1835349
2.830857560030551	9.818153	3.1333933
2.8483896896760337	9.530109	3.0870876
2.865921886010578	9.381999	3.063005
2.883454149445347	9.526523	3.0865066
2.9009864803915177	9.525689	3.0863714
2.91851887926028	9.3428955	3.056615
2.9360513464628384	9.148855	3.0247076
2.953583882410413	9.019235	3.003204
2.9711164875142373	8.854304	2.9756184
2.9886491621855606	8.719934	2.9529536
3.0061819068356455	8.498393	2.9152002
3.023714721875769	8.355779	2.8906364
3.041247607717225	8.251982	2.8726263
3.0587805647713213	8.060959	2.8391829
3.0763135934493806	7.9558682	2.8206148
3.0938466941627407	7.902769	2.8111863
3.1113798673227544	7.9054937	2.811671
3.1289131133407904	7.913616	2.8131151
3.1464464326282315	7.768312	2.7871692
3.1639798255964786	7.690631	2.7731986
3.1815132926569443	7.616059	2.7597208
3.1990468342210603	7.6493087	2.7657382
3.216580450700272	7.5473447	2.7472432
3.2341141425060416	7.3963156	2.719617
3.251647910049847	7.2386026	2.6904652
3.2691817537431813	7.0944424	2.6635394
3.286715673997555	7.0585513	2.6567934
3.3042496712244938	7.1444755	2.6729152
3.32178374583554	7.1051054	2.6655405
3.339317898242251	7.06445	2.6579032
3.3568521288562034	6.9232225	2.6312017
3.3743864380889876	6.809186	2.6094418
3.3919208263522127	6.8058424	2.608801
3.4094552940575023	6.7771044	2.6032872
3.4269898416164972	6.637694	2.5763721
3.444524469440858	6.489046	2.5473607
3.4620591779422587	6.4401	2.5377352
3.479593967532391	6.310524	2.5120757
3.4971288386229658	6.2802014	2.506033
3.5146637916257086	6.3400965	2.5179548
3.5321988269523628	6.367836	2.523457
3.5497339450146903	6.4321837	2.536175
3.5672691462244708	6.431934	2.5361257
3.5848044309934988	6.4312015	2.5359814
3.60233979973359	6.371551	2.524193
3.619875252856575	6.3440404	2.5187378
3.6374107907743034	6.3652406	2.5229428
3.6549464138986427	6.416093	2.5330007
3.6724821226414788	6.4256024	2.5348773
3.690017917414714	6.435927	2.536913
3.7075537986302702	6.4942956	2.5483909
3.7250897667000857	6.6314764	2.5751653
3.7426258220361235	6.743155	2.5967586
3.7601619650503553	6.986168	2.643136
3.777698196154779	7.563509	2.7501833
3.7952345157614067	8.526706	2.9200523
3.8127709242822716	9.276525	3.0457387
3.830307422129425	11.497103	3.3907378
3.847844009714936	30.404804	5.5140553
3.8653806874508954	97.96285	9.897618
3.882917455749409	97.22814	9.860434
3.900454315022606	96.930626	9.845335
3.917991265682631	41.417732	6.435661
3.9355283081416506	10.92978	3.3060217
3.9530654428118495	8.663721	2.94342
3.970602670105433	7.3443484	2.7100458
3.9881399904346244	6.4818754	2.5459528
4.005677404211669	6.4681635	2.5432584
4.023214911848827	6.4457	2.5388384
4.0407525137583855	6.4302497	2.5357938
4.058290210352644	6.4499273	2.5396707
4.075828002043927	6.4274497	2.5352416
4.0933658892445814	6.304887	2.5109534
4.110903872366966	6.234214	2.4968407
4.128441951823468	6.1751857	2.484992
4.145980128026488	6.273872	2.5047698
4.163518401388452	6.3427057	2.518473
4.181056772321807	6.2661037	2.5032187
4.1985952412390155	6.160363	2.482008
4.216133808552567	6.115459	2.4729455
4.233672474674966	6.125565	2.474988
4.251211240018741	6.338463	2.5176303
4.268750104996445	6.6694083	2.5825198
4.286289070020643	7.653827	2.766555
4.303828135503928	9.350826	3.057912
4.3213673018589125	29.53726	5.434819
4.3389065694982305	90.70274	9.523799
4.356445938834537	165.99683	12.883976
4.3739854102805085	171.40982	13.092358
4.391524984248844	172.3096	13.126676
4.409064661152262	136.30704	11.67506
4.426604441403504	96.61487	9.829287
4.444144325415337	75.471855	8.687454
4.461684313600543	21.543541	4.641502
4.47922440637193	21.941334	4.684158
4.496764604142329	20.487823	4.5263476
4.5143049073245916	18.745167	4.329569
4.531845316331589	16.629635	4.0779448
4.5493858315762195	13.693533	3.7004774
4.566926453471405	11.364286	3.3710957
4.584467182430081	9.278851	3.0461206
4.602008018865218	8.188594	2.861572
4.619548963189798	7.474286	2.7339141
4.637090015816834	6.9967966	2.645146
4.654631177159353	6.658291	2.5803664
4.672172447630417	6.3723207	2.5243456
4.689713827643102	6.1725984	2.4844716
4.7072553176105085	5.9280896	2.4347668
4.724796917945764	5.810492	2.4104962
4.742338629062015	5.7470226	2.3972948
4.759880451372434	5.725864	2.3928778
4.777422385290215	5.7110376	2.3897777
4.794964431228581	5.6893597	2.385238
4.812506589600768	5.641075	2.3750947
4.830048860820047	5.625867	2.371891
4.847591245299709	5.6808376	2.3834507
4.8651337434530655	5.7286468	2.393459
4.882676355693457	5.733976	2.3945723
4.900219082434242	5.692548	2.385906
4.917761924088813	5.588	2.363895
4.935304881070575	5.567923	2.3596447
4.952847953792969	5.5173244	2.3488986
4.970391142669449	5.5188785	2.3492293
4.9879344481135055	5.504238	2.3461113
5.005477870538642	5.4850764	2.342024
5.023021410358394	5.489043	2.3428707
5.040565067986324	5.445514	2.3335626
5.05810884383601	5.3620825	2.315617
5.075652738321066	5.258501	2.293142
5.09319675185512	5.3034854	2.3029296
5.110740884851836	5.3718605	2.3177273
5.128285137724894	5.4660206	2.3379521
5.145829510888007	5.4351683	2.3313448
5.163374004754908	5.45443	2.335472
5.1809186197393595	5.3824806	2.3200173
5.198463356255145	5.343547	2.3116114
5.216008214716077	5.330504	2.3087883
5.233553195535998	5.3374543	2.3102932
5.251098299128764	5.405092	2.3248854
5.268643525908272	5.3094745	2.3042297
5.286188876288432	5.24915	2.2911024
5.3037343506831895	5.19739	2.2797785
5.32127994950651	5.1848636	2.2770295
5.3388256731723915	5.2769027	2.297151
5.356371522094851	5.3317943	2.3090677
5.373917496687938	5.3560967	2.3143241
5.391463597365729	5.2942157	2.3009162
5.40900982454232	5.153206	2.2700675
5.426556178631843	5.0936327	2.2569077
5.444102660048449	5.0739403	2.2525408
5.4616492692063225	5.1721416	2.2742343
5.479196006519669	5.227724	2.2864218
5.496742872402727	5.239151	2.2889192
5.514289867269756	5.250612	2.2914214
5.531836991535049	5.184711	2.2769961
5.549384245612924	5.0829034	2.2545295
5.566931629917724	5.0279503	2.242309
5.584479144863822	5.0299177	2.2427478
5.6020267908656205	5.161491	2.2718916
5.619574568337545	5.203516	2.2811217
5.637122477694054	5.1889763	2.2779324
5.654670519349629	5.1588974	2.2713206
5.672218693718784	5.1582584	2.27118
5.689767001216059	5.1482606	2.2689779
5.707315442256021	5.1803427	2.2760365
5.724864017253266	5.22251	2.2852812
5.7424127266224225	5.27768	2.2973201
5.75996157077814	5.2476	2.290764
5.777510550135105	5.3099566	2.3043344
5.795059665108022	5.2955284	2.3012016
5.812608916111639	5.3276334	2.3081667
5.830158303560715	5.3347015	2.3096974
5.847707827870055	5.2395563	2.2890077
5.86525748945448	5.311047	2.304571
5.8828072887288485	5.4589295	2.3364353
5.900357226108044	5.5935626	2.3650713
5.917907302006979	5.662322	2.3795633
5.9354575168406	6.2274466	2.4954853
5.9530078710238765	6.800629	2.6078017
5.970558364971812	7.3013477	2.7021005
5.988108999099438	7.723766	2.7791665
6.005659773821818	8.253109	2.8728225
6.023210689554039	8.02973	2.8336778
6.040761746711227	8.45016	2.906916
6.058312945708531	7.866618	2.8047493
6.075864286961132	7.3336635	2.7080739
6.093415770884244	6.6757426	2.583746
6.1109673978931065	6.066942	2.4631164
6.128519168402993	5.488594	2.3427749
6.146071082829204	5.3246613	2.3075228
6.163623141587075	5.226246	2.2860985
6.181175345091969	5.206884	2.2818596
6.198727693759281	5.250924	2.2914896
6.216280188004435	5.3180246	2.3060842
6.233832828242885	5.2727556	2.2962482
6.251385614890126	5.2524014	2.2918117
6.268938548361669	5.1572533	2.2709587
6.286491629073067	5.1202865	2.262805
6.304044857439898	5.0883894	2.255746
6.321598233877777	5.076636	2.253139
6.339151758802344	5.06052	2.2495599
6.356705432629277	5.0574646	2.2488806
6.37425925577428	5.0559225	2.2485378
6.391813228653095	5.014682	2.2393484
6.409367351681486	5.0178757	2.2400615
6.426921625275259	5.014929	2.2394037
6.44447604985025	4.988886	2.2335813
6.46203062582232	4.991396	2.2341433
6.47958535360737	5.0388646	2.2447414
6.497140233621328	5.124383	2.26371
6.514695266280161	5.151865	2.269772
6.532250451999859	5.1662145	2.2729309
6.549805791196454	5.1832237	2.2766695
6.567361284286002	5.1639566	2.272434
6.584916931684597	5.1506777	2.2695105
6.602472733808367	5.1578627	2.271093
6.6200286910734665	5.1419325	2.267583
6.637584803896092	5.0694523	2.2515445
6.655141072692462	5.062111	2.2499135
6.672697497878842	5.0373154	2.2443964
6.690254079871514	5.055569	2.2484593
6.707810819086808	5.1336465	2.2657552
6.725367715941078	5.0551476	2.2483656
6.742924770850719	5.08002	2.25389
6.760481984232151	5.08743	2.2555332
6.778039356501836	5.0444827	2.2459927
6.795596888076266	5.0474296	2.2466486
6.813154579371963	5.0081687	2.2378938
6.830712430805492	5.0054936	2.237296
6.84827044279344	5.0350623	2.2438943
6.865828615752445	5.008817	2.2380388
6.883386950099159	5.020773	2.240708
6.900945446250287	5.0934215	2.256861
6.918504104622553	5.086631	2.255356
6.936062925632727	5.134733	2.265995
6.953621909697607	5.158497	2.2712324
6.971181057234028	5.2303667	2.2869995
6.988740368658859	5.2721777	2.2961223
7.006299844389007	5.2970996	2.3015428
7.023859484841407	5.3514366	2.3133173
7.041419290433036	5.4738665	2.3396297
7.058979261580902	5.5496373	2.3557668
7.0765393987020495	5.7669168	2.4014406
7.094099702213559	6.028425	2.455285
7.111660172532549	6.3656077	2.5230155
7.129220810076164	6.740777	2.5963006
7.146781615261595	7.3821716	2.7170153
7.16434258850606	7.633338	2.7628496
7.181903730226821	8.05822	2.8387003
7.1994650408411704	8.109306	2.8476844
7.217026520766437	8.289933	2.8792243
7.234588170419983	8.516812	2.9183578
7.252149990219215	8.501516	2.915736
7.269711980581568	8.342276	2.8882997
7.2872741419245175	8.043098	2.8360357
7.304836474665574	7.747021	2.7833471
7.322398979222286	7.527196	2.7435737
7.339961656012233	7.3084016	2.7034056
7.357524505453039	7.044766	2.6541977
7.375087527962357	6.657993	2.5803087
7.392650723957886	6.355628	2.521037
7.410214093857353	5.9117045	2.4313998
7.427777638078528	5.6885223	2.3850622
7.445341357039213	5.5258946	2.350722
7.4629052511572525	5.38125	2.3197522
7.480469320850524	5.2999864	2.30217
7.498033566536948	5.2651396	2.2945893
7.5155979886344735	5.241987	2.2895386
7.5331625875610975	5.250612	2.2914214
7.550727363734844	5.2227755	2.2853394
7.568292317573788	5.1953716	2.2793357
7.585857449496025	5.180854	2.2761488
7.603422759919705	5.1141324	2.2614448
7.620988249263007	5.153881	2.270216
7.638553917944147	5.1684346	2.2734191
7.656119766381391	5.187041	2.2775075
7.673685794993023	5.190397	2.2782443
7.691252004197388	5.1816125	2.2763155
7.70881839441285	5.2322803	2.287418
7.726384966057826	5.2186193	2.2844298
7.743951719550762	5.252324	2.291795
7.761518655310149	5.2099032	2.2825212
7.779085773754511	5.268339	2.2952862
7.796653075302419	5.272569	2.2962077
7.814220560372475	5.272358	2.2961617
7.831788229383323	5.2493954	2.2911558
7.8493560827536495	5.2727237	2.2962413
7.866924120902174	5.313861	2.3051813
7.884492344247663	5.3819995	2.3199136
7.9020607532089135	5.34046	2.3109436
7.919629348204771	5.3271456	2.308061
7.937198129654115	5.3312364	2.308947
7.954767097975865	5.3748817	2.3183792
7.972336253588986	5.5016546	2.3455606
7.989905596912472	5.5240746	2.350335
8.007475128365371	5.504007	2.346062
8.025044848366756	5.4983387	2.3448536
8.042614757335754	5.5335484	2.3523495
8.060184855691523	5.5768776	2.3615413
8.07775514385327	5.7205324	2.3917634
8.095325622240228	5.8348403	2.4155414
8.112896291271687	5.894768	2.4279144
8.130467151366968	5.9625564	2.4418347
8.148038202945436	5.968115	2.4429727
8.165609446426497	5.9666114	2.4426649
8.183180882229594	5.9623203	2.4417863
8.200752510774217	5.950191	2.4393013
8.218324332479893	6.064475	2.4626155
8.235896347766193	6.0608907	2.4618876
8.253468557052724	6.1428647	2.4784803
8.27104096075914	6.096245	2.4690576
8.288613559305137	6.0546527	2.4606204
8.306186353110448	6.095276	2.4688613
8.32375934259485	6.1864824	2.4872642
8.341332528178162	6.2058525	2.491155
8.358905910280246	6.3075104	2.5114758
8.376479489321003	6.3093715	2.5118463
8.394053265720377	6.4458923	2.5388763
8.411627239898356	6.403325	2.5304792
8.42920141227497	6.3712296	2.5241294
8.44677578327029	6.342846	2.5185008
8.464350353304427	6.2987103	2.5097232
8.48192512279754	6.274066	2.5048087
8.499500092169827	6.20004	2.4899879
8.51707526184153	6.187052	2.4873786
8.534650632232934	6.1870008	2.4873683
8.552226203764365	6.2446213	2.498924
8.569801976856192	6.3440485	2.5187395
8.587377951928834	6.3796744	2.5258017
8.60495412940274	6.3670077	2.523293
8.622530509698416	6.3374114	2.5174215
8.6401070932364	6.4679246	2.5432115
8.657683880437283	6.6036763	2.569762
8.675260871721695	6.802637	2.6081865
8.692838067510303	6.9223876	2.631043
8.710415468223834	7.0399117	2.653283
8.727993074283043	7.1677113	2.6772583
8.745570886108737	7.1987815	2.6830544
8.763148904121765	7.2387204	2.690487
8.78072712874302	7.184819	2.6804514
8.798305560393441	7.382721	2.7171164
8.815884199494006	7.5357437	2.745131
8.833463046465745	7.735917	2.7813516
8.851042101729728	7.9079947	2.8121157
8.86862136570707	8.122482	2.8499968
8.886200838818924	8.221096	2.8672454
8.903780521486505	8.318397	2.8841631
8.921360414131055	8.4063635	2.899373
8.938940517173874	8.549018	2.9238703
8.956520831036297	8.730783	2.9547899
8.97410135613971	9.000565	3.0000942
8.99168209290554	9.180907	3.0300012
9.009263041755265	9.498801	3.0820124
9.026844203110405	9.836874	3.1363792
9.044425577392525	10.0360365	3.1679704
9.062007165023239	10.082482	3.1752925
9.079588966424197	10.362082	3.2190187
9.097170982017108	10.47498	3.2365074
9.11475321222372	11.4408245	3.382429
9.132335657465825	12.317239	3.5095923
9.149918318165264	12.429309	3.5255225
9.167501194743924	13.072427	3.615581
9.18508428762374	12.692706	3.5626824
9.202667597226693	12.65607	3.557537
9.220251123974803	12.278186	3.5040243
9.237834868290143	11.989579	3.4625971
9.255418830594836	11.771169	3.4309137
9.273003011311046	11.246898	3.3536394
9.290587410860985	11.021769	3.3199048
9.308172029666911	10.418213	3.2277257
9.32575686815113	10.13054	3.1828508
9.343341926735997	8.850217	2.9749315
9.360927205843916	8.616786	2.9354362
9.378512705897327	8.354865	2.8904784
9.396098427318728	8.128076	2.850978
9.413684370530664	8.010006	2.8301954
9.431270535955722	7.955425	2.8205364
9.448856924016539	7.8843923	2.807916
9.466443535135806	7.818091	2.796085
9.484030369736251	7.764618	2.7865064
9.501617428240658	7.734937	2.7811756
9.519204711071852	7.7330093	2.780829
9.536792218652714	7.7005653	2.7749894
9.55437995140617	7.765857	2.7867289
9.571967909755191	7.7804985	2.7893546
9.589556094122802	7.8795347	2.807051
9.60714450493207	7.946804	2.8190076
9.624733142606116	8.032734	2.8342078
9.642322007568108	8.085803	2.8435547
9.659911100241267	8.011518	2.8304625
9.677500421048851	8.004512	2.8292246
9.695089970414175	8.01248	2.8306324
9.712679748760609	8.02739	2.8332648
9.730269756511557	8.069763	2.8407328
9.747859994090492	8.081293	2.8427615
9.765450461920915	8.11924	2.849428
9.78304116042639	8.115816	2.8488271
9.800632090030527	8.219672	2.866997
9.81822325115699	8.289094	2.8790786
9.835814644229481	8.396438	2.8976607
9.853406269671762	8.380212	2.8948596
9.870998127907646	8.426979	2.902926
9.888590219360985	8.38442	2.8955863
9.906182544455698	8.381749	2.8951252
9.923775103615734	8.367382	2.8926427
9.941367897265108	8.404775	2.8990989
9.958960925827878	8.460533	2.9086995
9.97655418972816	8.424522	2.9025028
9.994147689390106	8.429769	2.9034064
10.011741425237934	8.369724	2.8930476
10.029335397695904	8.315394	2.8836427
10.04692960718833	8.282343	2.877906
10.06452405413958	8.253507	2.8728917
10.082118738974064	8.249687	2.872227
10.099713662116246	8.235192	2.8697026
10.117308823990651	8.269546	2.8756816
10.134904225021844	8.239756	2.8704975
10.152499865634445	8.196325	2.8629224
10.170095746253125	8.156974	2.8560417
10.18769186730261	8.216453	2.8664355
10.205288229207675	8.276422	2.876877
10.222884832393145	8.319883	2.8844209
10.2404816772839	8.287613	2.8788214
10.258078764304868	8.218638	2.8668168
10.275676093881035	8.218428	2.86678
10.293273666437438	8.204947	2.864428
10.310871482399158	8.267743	2.8753684
10.32846954219134	8.250701	2.8724034
10.346067846239173	8.3173895	2.8839884
10.363666394967908	8.30267	2.8814354
10.38126518880283	8.263068	2.8745553
10.398864228169298	8.261135	2.874219
10.416463513492713	8.1872635	2.8613396
10.434063045198531	8.160139	2.8565958
10.451662823712262	8.182549	2.8605156
10.469262849459467	8.227622	2.8683832
10.486863122865758	8.220784	2.867191
10.504463644356806	8.222396	2.867472
10.522064414358338	8.144601	2.8538747
10.539665433296118	8.07014	2.840799
10.557266701595987	8.017421	2.831505
10.574868219683818	7.904329	2.8114638
10.592469987985552	7.8313975	2.7984633
10.610072006927185	7.754821	2.7847478
10.627674276934751	7.690288	2.7731369
10.64527679843435	7.549147	2.7475712
10.662879571852143	7.4136214	2.7227967
10.680482597614331	7.3451395	2.7101917
10.698085876147173	7.1688724	2.677475
10.715689407876988	7.029004	2.651227
10.733293193230146	6.945861	2.6355002
10.750897232633072	6.8656096	2.620231
10.76850152651225	6.778304	2.6035175
10.786106075294207	6.6986403	2.5881732
10.803710879405534	6.6015854	2.569355
10.821315939272877	6.4657345	2.5427809
10.83892125532294	6.391033	2.5280492
10.856526827982472	6.250432	2.5000863
10.874132657678285	6.1972833	2.4894342
10.891738744837243	6.181399	2.4862418
10.909345089886271	6.2418003	2.4983594
10.926951693252343	6.2610373	2.5022066
10.944558555362494	6.206474	2.4912796
10.96216567664381	5.9982095	2.4491243
10.979773057523436	5.892014	2.4273472
10.997380698428573	5.821509	2.4127803
11.014988599786477	5.7915792	2.40657
11.032596762024461	5.740575	2.3959496
11.050205185569892	5.6805296	2.3833861
11.067813870850198	5.667257	2.3806002
11.085422818292859	5.594541	2.3652782
11.10303202832541	5.4774218	2.3403893
11.120641501375454	5.353133	2.313684
11.138251237870636	5.243506	2.2898703
11.155861238238671	5.1830683	2.2766354
11.173471502907317	5.142508	2.26771
11.191082032304402	5.069139	2.2514749
11.208692826857805	5.030734	2.2429297
11.226303886995465	4.981378	2.2319002
11.243915213145371	4.960441	2.2272048
11.261526805735578	4.9850764	2.2327285
11.279138665194196	4.979269	2.2314277
11.296750791949393	4.899434	2.2134666
11.314363186429393	4.788211	2.188198
11.331975849062479	4.7181983	2.1721413
11.34958878027699	4.662793	2.1593502
11.36720198050133	4.634873	2.1528754
11.384815450163948	4.5853066	2.1413329
11.402429189693366	4.590198	2.1424747
11.420043199518153	4.4936113	2.119814
11.437657480066942	63.463688	7.96641
11.455272031768422	85.22361	9.231664
11.472886855051353	107.72321	10.37898
11.490501950344528	99.28506	9.964189
11.508117318076819	84.561104	9.195711
11.52573295867715	45.893715	6.77449
11.543348872574514	4.180382	2.044598
11.560965060197946	4.1430507	2.0354486
11.57858152197655	4.1161904	2.0288396
11.59619825833949	4.073058	2.0181818
11.613815269715985	4.023526	2.005873
11.631432556535323	38.543537	6.208344
11.649050119226837	83.06633	9.114073
11.666667958219929	93.51706	9.670422
11.68428607394406	107.791794	10.382282
11.701904466828756	82.58653	9.087713
11.719523137303586	65.410645	8.087685
11.737142085798196	4.579562	2.1399913
11.754761312742286	3.67808	1.9178321
11.772380818565619	3.6621149	1.9136653
11.790000603698015	3.6653583	1.9145125
11.80762066856935	3.6611571	1.9134151
11.825241013609572	3.6591403	1.9128879
11.842861639248683	3.6465967	1.9096065
11.860482545916748	3.5961506	1.8963519
11.878103734043883	3.5237546	1.8771666
11.895725204060282	3.4390574	1.8544695
11.91334695639619	3.4179437	1.8487681
11.930968991481919	3.4024863	1.8445829
11.948591309747824	3.4277933	1.85143
11.966213911624347	3.4371424	1.8539531
11.98383679754198	3.438927	1.8544344
12.001459967931268	3.3938293	1.8422348
12.019083423222835	3.3301427	1.8248678
12.036707163847352	3.2874	1.8131188
12.05433119023556	3.2832682	1.811979
12.071955502818259	3.233713	1.7982527
12.089580102026313	3.1995513	1.788729
12.107204988290643	3.1548245	1.7761825
12.12483016204224	3.1372046	1.7712156
12.142455623712152	3.1768599	1.7823747
12.16008137373149	3.1757038	1.7820505
12.177707412531431	3.1468728	1.7739427
12.19533374054321	3.0958776	1.7595106
12.212960358198126	3.043269	1.7444967
12.230587265927545	3.060846	1.7495273
12.248214464162889	3.0651822	1.7507662
12.265841953335649	3.0584993	1.7488565
12.283469733877375	3.0173526	1.7370528
12.301097806219685	2.9811318	1.7265954
12.31872617079425	2.9680471	1.7228022
12.336354828032825	2.9643693	1.7217344
12.353983778367205	2.9321399	1.7123492
12.371613022229262	2.9063263	1.7047951
12.389242560050928	2.8987494	1.7025714
12.406872392264201	2.8808527	1.6973075
12.424502519301143	2.8975763	1.7022269
12.442132941593874	2.8873734	1.6992273
12.459763659574586	2.899596	1.7028201
12.477394673675532	2.8993592	1.7027504
12.49502598432903	2.9177034	1.7081286
12.51265759196746	2.9065266	1.7048538
12.530289497023267	2.8890538	1.6997217
12.547921699928967	2.889392	1.6998211
12.565554201117134	2.8761213	1.6959131
12.583187001020404	2.8108861	1.6765697
12.600820100071486	2.782982	1.6682272
12.618453498703152	2.764929	1.6628076
12.636087197348235	2.7648058	1.6627705
12.65372119643964	2.7824152	1.6680573
12.671355496410326	2.8032937	1.6743039
12.68899009769333	2.8210151	1.6795878
12.706625000721749	2.8562963	1.6900581
12.724260205928752	2.863311	1.6921321
12.741895713747551	2.8980556	1.7023677
12.759531524611454	2.9785917	1.7258596
12.777167638953818	3.0138617	1.7360477
12.794804057208072	3.0420687	1.7441527
12.812440779807702	3.0776258	1.7543163
12.830077807186271	3.213231	1.7925488
12.847715139777405	3.2522538	1.8034006
12.865352778014795	3.4511616	1.8577303
12.882990722332197	3.5681539	1.8889557
12.90062897316344	3.6629274	1.9138776
12.918267530942412	3.774751	1.9428718
12.935906396103071	3.680908	1.9185692
12.953545569079449	3.823539	1.9553872
12.971185050305628	3.6426418	1.9085706
12.988824840215775	3.6241033	1.9037077
13.006464939244115	3.5916536	1.8951658
13.024105347824943	3.4740665	1.8638848
13.041746066392617	3.5931199	1.8955526
13.05938709538157	3.4182718	1.8488569
13.077028435226296	3.4713387	1.8631529
13.094670086361363	3.429794	1.8519703
13.112312049221401	3.3548832	1.831634
13.129954324241112	3.233843	1.798289
13.147596911855258	2.996609	1.7310716
13.165239812498685	2.9495912	1.7174374
13.182883026606293	2.8718019	1.6946392
13.200526554613058	2.801136	1.6736594
13.218170396954017	2.7254565	1.6508957
13.235814554064284	2.7050939	1.644717
13.253459026379034	2.7469268	1.6573855
13.271103814333523	2.7841964	1.6685911
13.288748918363058	2.7830439	1.6682458
13.306394338903031	2.7711604	1.6646802
13.32404007638889	2.736007	1.6540879
13.341686131256164	2.7631733	1.6622796
13.359332503940449	2.7035604	1.6442508
13.376979194877402	2.636116	1.623612
13.394626204502751	2.6318927	1.6223109
13.412273533252307	2.6784966	1.6366113
13.429921181561937	2.727389	1.6514809
13.447569149867581	2.7165244	1.6481882
13.465217438605247	2.6938431	1.6412932
13.482866048211022	2.6965656	1.6421223
13.500514979121052	2.718191	1.6486937
13.518164231771568	2.7080271	1.6456084
13.535813806598844	2.6909575	1.6404139
13.553463704039254	2.6991897	1.6429211
13.571113924529229	2.6870832	1.6392325
13.588764468505275	2.689159	1.6398655
13.606415336403956	2.7209692	1.649536
13.624066528661917	2.7593539	1.6611303
13.641718045715882	2.7981184	1.6727577
13.659369888002635	2.8493292	1.6879957
13.67702205595903	2.9242294	1.7100378
13.694674550021993	3.0062122	1.7338432
13.712327370628532	3.057856	1.7486726
13.729980518215713	3.1320357	1.7697558
13.747633993220681	3.1887736	1.7857138
13.765287796080647	3.1993458	1.7886715
13.7829419272329	3.2400155	1.8000044
13.800596387114801	3.289495	1.8136965
13.818251176163775	3.3452587	1.8290049
13.835906294817324	3.3698287	1.8357093
13.853561743513023	3.4206233	1.8494927
13.871217522688525	3.4752622	1.8642055
13.888873632781538	3.5196815	1.8760815
13.906530074229858	3.4958065	1.8697076
13.92418684747135	3.509755	1.873434
13.941843952943948	3.5242891	1.877309
13.959501391085665	3.5337641	1.8798308
13.977159162334578	3.4825304	1.8661538
13.994817267128846	3.4156716	1.8481536
14.012475705906693	3.3469553	1.8294686
14.030134479106424	3.2764802	1.810105
14.047793587166414	3.179981	1.7832501
14.065453030525108	3.1048875	1.7620691
14.083112809621026	3.034451	1.7419676
14.100772924892766	2.9891846	1.7289258
14.118433376778997	2.9388945	1.7143204
14.136094165718458	2.8642433	1.6924075
14.153755292149969	2.7471874	1.6574641
14.171416756512416	2.669166	1.6337583
14.189078559244768	2.6011503	1.6128082
14.20674070078606	2.55955	1.5998594
14.224403181575408	2.5429351	1.5946583
14.242066002051999	2.512119	1.5849665
14.259729162655093	2.473365	1.5726936
14.277392663824022	2.4282768	1.5582929
14.295056505998208	2.4100225	1.5524247
14.312720689617128	2.3949773	1.5475714
14.330385215120348	2.378475	1.5422305
14.348050082947497	2.3756912	1.5413277
14.3657152935383	2.362539	1.5370554
14.383380847332528	2.35869	1.5358027
14.401046744770051	2.3873382	1.5451013
14.418712986290798	2.436573	1.5609525
14.436379572334793	2.443189	1.5630703
14.454046503342123	2.4132748	1.5534718
14.471713779752946	2.3646667	1.5377473
14.489381402007504	2.365751	1.5380998
14.507049370546113	2.380038	1.5427371
14.524717685809168	2.3964384	1.5480434
14.542386348237134	2.405996	1.5511273
14.560055358270553	2.3941128	1.5472921
14.577724716350051	2.4090478	1.5521108
14.595394422916325	2.394134	1.5472989
14.61306447841015	2.450687	1.565467
14.63073488327237	2.4861932	1.5767667
14.648405637943917	2.508796	1.583918
14.6660767428658	2.4972477	1.5802683
14.683748198479094	2.518609	1.5870126
14.701420005224954	2.5894241	1.6091688
14.719092163544628	2.6926532	1.6409305
14.73676467387942	2.7346117	1.6536661
14.754437536670727	2.730988	1.6525701
14.772110752360014	2.6834626	1.6381278
14.78978432138882	2.6903994	1.6402436
14.807458244198777	2.6736948	1.6351436
14.82513252123159	2.649751	1.6278056
14.842807152929028	2.6647384	1.6324027
14.860482139732962	2.6621783	1.6316183
14.87815748208531	2.6754863	1.6356914
14.8958331804281	2.6905806	1.640299
14.91350923520342	2.6766	1.6360317
14.931185646853438	2.6813638	1.637487
14.948862415820408	2.694546	1.6415073
14.966539542546656	2.7025568	1.6439455
14.98421702747459	2.6954029	1.6417682
15.001894871046696	2.6780107	1.6364628
15.019573073705542	2.6770597	1.6361723
15.037251635893766	2.6833422	1.6380911
15.054930558054092	2.713569	1.6472914
15.072609840629323	2.7713451	1.6647358
15.090289484062351	2.8843374	1.6983337
15.107969488796124	3.1601608	1.7776841
15.125649855273691	3.5625577	1.887474
15.14333058393817	4.055473	2.0138204
15.161011675232768	4.9517775	2.225259
15.17869312960076	6.281733	2.5063386
15.196374947485506	8.223709	2.867701
15.214057129330447	11.379182	3.3733044
15.231739675579114	16.061882	4.0077276
15.249422586675102	21.24506	4.6092362
15.267105863062092	24.571508	4.9569654
15.284789505183847	25.12712	5.012696
15.302473513484218	23.125093	4.8088555
15.320157888407127	19.368385	4.400953
15.337842630396578	14.991066	3.8718297
15.355527739896656	11.538377	3.3968186
15.37321321735153	8.885694	2.9808881
15.39089906320545	6.475244	2.54465
15.408585277902748	4.9320188	2.220815
15.42627186188783	3.8733537	1.9680837
15.443958815605198	3.324279	1.8232605
15.461646139499424	2.947174	1.7167336
15.479333834015168	2.7593436	1.6611272
15.497021899597165	2.6760736	1.6358709
15.514710336690234	2.6103466	1.6156567
15.53239914573928	2.5584254	1.5995079
15.550088327189297	2.5460222	1.595626
15.567777881485336	2.5293186	1.5903832
15.58546780907256	2.5302022	1.5906609
15.6031581103962	2.542337	1.5944707
15.620848785901568	2.5316734	1.5911233
15.638539836034063	2.4974802	1.5803418
15.656231261239173	2.4806442	1.5750061
15.673923061962451	2.4446619	1.5635414
15.691615238649552	2.416526	1.554518
15.709307791746202	2.3569558	1.535238
15.727000721698221	2.3491778	1.5327028
15.744694028951498	2.3644392	1.5376734
15.76238771395202	2.4052968	1.5509019
15.780081777145844	2.4258676	1.5575197
15.797776218979125	2.3956845	1.5477998
15.815471039898094	2.3231819	1.5241988
15.833166240349064	2.2738671	1.5079347
15.850861820778437	2.3194692	1.5229803
15.868557781632699	2.3744352	1.5409203
15.886254123358412	2.4088242	1.5520387
15.903950846402232	2.4192443	1.555392
15.921647951210897	2.4528513	1.5661582
15.939345438231225	2.4745958	1.5730848
15.957043307910133	2.4759176	1.5735049
15.974741560694602	2.4271188	1.5579213
15.992440197031714	2.4339485	1.5601116
16.01013921736862	2.4584973	1.5679595
16.02783862215259	2.481025	1.575127
16.045538411830933	2.4568284	1.5674273
16.06323858685107	2.4163365	1.554457
16.080939147660512	2.3866909	1.5448918
16.09864009470684	2.369515	1.5393229
16.11634142843774	2.3640661	1.537552
16.134043149300954	2.3738964	1.5407454
16.15174525774433	2.40092	1.5494902
16.169447754215817	2.4255183	1.5574075
16.18715063916342	2.4288268	1.5584694
16.204853913035244	2.4314995	1.5593266
16.222557576279478	2.440824	1.5623137
16.240261629344403	22.427149	4.735731
16.257966072678386	42.982174	6.5560794
16.275670906729868	38.100086	6.172527
16.293376131947387	2.5287657	1.5902094
16.31108174877957	2.5520594	1.5975167
16.328787757675133	2.5420384	1.5943772
16.34649415908287	2.565126	1.601601
16.364200953451657	2.547084	1.5959587
16.38190814123048	2.6012952	1.6128532
16.39961572286839	2.6547916	1.6293532
16.41732369881455	2.7120366	1.6468263
16.43503206951817	2.7400334	1.6553047
16.45274083542859	2.7847724	1.6687638
16.47044999699522	2.8452532	1.6867878
16.488159554667558	2.8736553	1.6951859
16.505869508895184	2.9215732	1.709261
16.523579860127786	2.943647	1.715706
16.541290608815117	3.004376	1.7333136
16.559001755407035	3.0277693	1.7400486
16.57671330035348	3.0554574	1.7479867
16.59442524410448	3.0869708	1.7569778
16.61213758711015	3.173662	1.7814775
16.629850329820705	3.284045	1.8121934
16.647563472686436	3.406648	1.8457106
16.665277016157724	3.4830651	1.8662971
16.682990960685053	3.4678092	1.8622055
16.70070530671898	3.4787858	1.8651503
16.718420054710155	3.4903216	1.8682402
16.736135205109335	3.517595	1.8755252
16.753850758367335	3.5988846	1.8970727
16.771566714935087	3.653306	1.9113623
16.789283075263597	3.7767386	1.9433833
16.80699983980398	3.8596776	1.9646062
16.82471700900741	3.9345906	1.9835802
16.84243458332518	3.9688048	1.992186
16.860152563208665	4.0093765	2.0023427
16.87787094910932	4.070749	2.0176096
16.89558974147871	4.1138334	2.0282588
16.913308940768466	4.168177	2.0416114
16.931028547430333	4.2237744	2.0551822
16.94874856191613	4.2630796	2.0647225
16.966468984677785	4.3414702	2.0836196
16.98418981616729	4.355803	2.0870562
17.00191105683676	4.425339	2.1036491
17.019632707138374	4.4540896	2.1104715
17.03735476752442	4.5389047	2.1304705
17.05507723844728	4.5878425	2.1419249
17.072800120359403	4.6477666	2.155868
17.090523413713353	4.717291	2.1719325
17.108247118961785	4.772233	2.184544
17.125971236557437	4.7646117	2.182799
17.143695766953133	4.716315	2.1717079
17.161420710601806	4.693172	2.166373
17.179146067956477	4.6691003	2.16081
17.19687183947025	4.663228	2.1594508
17.21459802559634	4.7000785	2.1679664
17.232324626788028	4.689939	2.1656268
17.25005164349871	4.690135	2.165672
17.267779076181863	4.6610613	2.1589491
17.285506925291074	4.628212	2.1513278
17.30323519127999	4.627057	2.1510596
17.320963874602384	4.686402	2.16481
17.33869297571211	4.71078	2.1704333
17.356422495063114	4.6707683	2.161196
17.37415243310944	4.576253	2.1392179
17.391882790305218	4.4997473	2.121261
17.40961356710468	4.4718523	2.1146755
17.42734476396215	4.463647	2.1127346
17.445076381332044	4.457417	2.1112595
17.462808419668868	4.5090823	2.12346
17.48054087942723	4.7224793	2.1731267
17.498273761061835	5.068842	2.2514088
17.51600706502747	5.5368295	2.353047
17.533740791779024	6.1910067	2.4881732
17.551474941771485	7.56759	2.7509253
17.56920951545993	8.715721	2.95224
17.586944513299528	10.968302	3.3118427
17.60467993574556	12.684171	3.5614843
17.622415783253373	14.505642	3.8086274
17.64015205627843	15.969744	3.996216
17.657888755276293	17.175491	4.1443324
17.675625880702604	17.650702	4.201274
17.69336343301311	17.507895	4.1842437
17.71110141266366	16.691074	4.085471
17.728839820110178	15.625075	3.9528565
17.746578655808705	14.558177	3.815518
17.764317920215372	13.012348	3.6072633
17.7820576137864	11.417939	3.379044
17.79979773697811	9.434747	3.0716033
17.81753829024692	7.539279	2.7457747
17.835279274049356	5.845569	2.417761
17.85302068884201	4.779425	2.1861897
17.870762535081607	4.1427245	2.0353684
17.888504813224934	3.8742888	1.9683213
17.90624752372891	3.7395887	1.9338017
17.923990667050536	3.6297646	1.905194
17.941734243646895	3.5277557	1.8782321
17.959478253975185	3.4886596	1.8677953
17.9772226984927	3.4807222	1.8656694
17.994967577656833	3.4374316	1.8540312
18.01271289192506	3.4203725	1.849425
18.030458641754965	3.4002035	1.8439641
18.04820482760425	3.3449922	1.8289319
18.06595144993067	3.3285077	1.8244199
18.083698509192125	3.2810872	1.8113772
18.101446005846576	3.2724278	1.8089854
18.119193940352105	3.2333012	1.7981383
18.136942313166887	3.1884432	1.7856213
18.1546911247492	3.1888533	1.7857361
18.1724403755574	3.2061763	1.7905799
18.19019006604997	3.173598	1.7814596
18.207940196685467	3.1477296	1.7741842
18.225690767922575	3.144011	1.7731359
18.243441780220046	3.1646082	1.7789346
18.261193234036764	3.1430016	1.7728512
18.278945129831676	3.165416	1.7791616
18.29669746806386	3.158394	1.7771871
18.314450249192483	3.0767913	1.7540785
18.3322034736768	3.011842	1.7354659
18.349957141976184	3.0122929	1.7355958
18.3677112545501	3.0065148	1.7339305
18.385465811858108	3.0147183	1.7362944
18.403220814359884	3.016454	1.7367941
18.420976262515172	3.0630023	1.7501435
18.43873215678387	3.079651	1.7548934
18.456488497625923	3.1143734	1.7647587
18.474245285501407	3.220235	1.7945013
18.492002520870486	3.3106387	1.8195161
18.50976020419343	3.4096575	1.8465258
18.527518335930615	3.6979685	1.9230102
18.545276916542516	4.281868	2.0692675
18.563035946489688	4.4682817	2.113831
18.580795426232832	4.9429746	2.2232802
18.598555356232698	4.803906	2.1917815
18.616315736950185	5.0717964	2.252065
18.63407656884626	4.6991663	2.167756
18.65183785238201	4.8996964	2.2135258
18.669599588018617	4.6508346	2.1565793
18.68736177621737	4.6128407	2.1477525
18.705124417439652	4.539037	2.1305017
18.72288751214696	4.38003	2.092852
18.740651060800886	4.540329	2.1308048
18.758415063863115	4.2948265	2.0723963
18.77617952179546	4.5013638	2.1216419
18.793944435059814	4.2416043	2.0595155
18.811709804118184	4.2428746	2.059824
18.829475629432675	4.187756	2.0464008
18.8472419114655	3.9883058	1.9970744
18.86500865067897	4.027187	2.0067852
18.88277584753551	3.6710763	1.9160053
18.90054350249763	3.70721	1.9254117
18.918311616027957	3.466498	1.8618534
18.936080188589226	3.3675916	1.8350999
18.953849220644265	3.013451	1.7359295
18.971618712656007	2.836729	1.6842592
18.9893886650875	2.8184621	1.6788276
19.007159078401887	7.998186	2.8281064
19.024929953062408	32.865112	5.73281
19.042701289532435	32.81798	5.7286983
19.060473088275405	25.379723	5.037829
19.07824534975489	2.685152	1.6386434
19.096018074434568	2.7150977	1.6477554
19.113791262778197	2.7291276	1.6520071
19.13156491524966	2.6459496	1.6266375
19.149339032312945	2.5804167	1.6063676
19.167113614432136	2.5834157	1.6073008
19.184888662071433	2.5955393	1.6110678
19.202664175695123	2.541491	1.5942055
19.220440155767623	2.5047143	1.5826288
19.238216602753447	2.5074158	1.5834821
19.2559935171172	2.5197551	1.5873736
19.27377089932361	2.5413463	1.5941601
19.291548749837514	2.573749	1.6042908
19.309327069123835	2.5823877	1.6069809
19.32710585764763	2.507778	1.5835965
19.344885115874032	2.463901	1.5696819
19.362664844268313	2.3965635	1.5480838
19.380445043295822	2.3951867	1.547639
19.39822571342203	2.404478	1.550638
19.41600685511252	2.4379275	1.5613863
19.43378846883297	2.4681864	1.5710462
19.451570555049173	2.5170114	1.5865092
19.469353114227037	2.5456898	1.5955218
19.48713614683254	2.522814	1.5883368
19.50491965333182	2.4826703	1.5756491
19.52270363419109	2.4974945	1.5803463
19.540488089876686	2.507581	1.5835344
19.55827302085503	2.503586	1.5822724
19.576058427592674	2.4992504	1.5809017
19.593844310556282	2.532507	1.5913852
19.611630670212598	2.5164413	1.5863295
19.629417507028506	2.4801395	1.5748459
19.64720482147098	2.4575953	1.5676719
19.6649926140071	2.4530299	1.5662152
19.682780885104084	2.4928339	1.578871
19.70056963522921	2.500537	1.5813086
19.718358864849908	2.5487826	1.5964907
19.7361485744337	2.5565355	1.598917
19.753938764448215	2.5620995	1.6006559
19.771729435361202	2.5378144	1.5930519
19.789520587640506	2.5164676	1.5863378
19.807312221754092	2.5165792	1.586373
19.825104338170043	2.5307422	1.5908307
19.842896937356517	2.571512	1.6035935
19.860690019781824	2.5511842	1.5972427
19.87848358591436	2.5009556	1.5814409
19.896277636222635	2.440418	1.5621837
19.914072171175278	2.4752188	1.5732828
19.931867191241015	2.4947655	1.5794827
19.94966269688869	2.5431354	1.5947211
19.967458688587264	2.5153964	1.5860001
19.985255166805807	2.4905334	1.5781424
20.00305213201348	2.4475813	1.5644748
20.020849584679578	2.4495156	1.5650928
20.038647525273507	2.4958942	1.57984
20.05644595426477	2.4840288	1.5760802
20.07424487212299	2.4620507	1.5690923
20.092044279317903	2.4297223	1.5587567
20.109844176319353	2.4402924	1.5621436
20.127644563597304	2.4367146	1.560998
20.145445441621817	2.442976	1.5630022
20.16324681086307	2.4243326	1.5570269
20.181048671791373	2.4288766	1.5584854
20.198851024877122	2.4406042	1.5622433
20.216653870590836	2.4585376	1.5679724
20.234457209403146	2.433934	1.560107
20.252261041784802	2.4002135	1.5492623
20.270065368206662	2.3675687	1.5386906
20.287870189139685	2.3718033	1.540066
20.305675505054968	2.3750362	1.5411153
20.323481316423702	2.391924	1.5465846
20.341287623717207	2.434215	1.5601971
20.359094427406884	2.4055178	1.5509732
20.376901727964288	2.3606548	1.5364423
20.39470952586107	2.3581269	1.5356194
20.41251782156899	2.3908222	1.5462284
20.430326615559935	2.381582	1.5432376
20.448135908305886	2.3440106	1.5310162
20.465945700278965	2.3234355	1.524282
20.483755991951384	2.3257523	1.5250417
20.50156678379548	2.3258092	1.5250604
20.519378076283708	2.3592525	1.5359858
20.537189869888635	2.3956437	1.5477867
20.55500216508294	2.3704522	1.5396273
20.572814962339415	2.3520846	1.5336508
20.59062826213098	2.3287065	1.52601
20.60844206493066	2.3546774	1.5344958
20.626256371211593	2.3842592	1.5441047
20.644071181447032	2.3962605	1.5479859
20.66188649611036	2.381705	1.5432774
20.67970231567506	2.375799	1.5413626
20.697518640614742	2.3399932	1.5297036
20.715335471403122	2.3280323	1.525789
20.73315280851404	2.2895935	1.5131403
20.750970652421447	2.2728138	1.5075854
20.768789003599412	2.279379	1.5097612
20.786607862522136	2.3041472	1.5179418
20.8044272296639	2.3119164	1.5204988
20.82224710549913	2.2810647	1.5103195
20.84006749050237	2.2299757	1.4933103
20.857888385148268	3.8170507	1.9537274
20.8757097899116	45.936024	6.7776117
20.893531705267254	64.80358	8.050067
20.911354131690224	83.81141	9.154857
20.92917706965566	69.095024	8.312342
20.94700051963877	50.143257	7.0811906
20.96482448211493	29.38542	5.420832
20.982648957559622	4.120754	2.029964
21.00047394644843	2.2546778	1.5015584
21.01829944925707	2.2936049	1.5144652
21.036125466461375	2.2765052	1.5088092
21.053951998537297	2.2168462	1.4889077
21.071779045960906	2.1960018	1.4818913
21.089606609208378	2.2041857	1.48465
21.10743468875603	2.2537239	1.5012407
21.12526328508028	2.2366068	1.4955289
21.143092398657675	2.2503462	1.5001154
21.16092202996488	2.2201777	1.4900261
21.17875217947867	2.212528	1.4874569
21.19658284767596	2.2184503	1.4894463
21.21441403503377	2.2374923	1.4958249
21.232245742029225	2.223833	1.4912522
21.2500779691396	2.1812296	1.4768987
21.26791071684227	2.1926696	1.4807665
21.28574398561475	2.189131	1.4795712
21.30357777593465	2.1932533	1.4809636
21.321412088279704	2.1585786	1.4692103
21.339246923127792	2.1611333	1.4700793
21.357082280956888	2.1332126	1.4605521
21.3749181622451	2.152107	1.4670061
21.392754567470647	2.140243	1.4629569
21.41059149711187	2.1498284	1.4662293
21.42842895164726	2.1210015	1.4563658
21.446266931555378	2.1296232	1.4593228
21.464105437314945	2.138533	1.4623724
21.481944469404798	2.107598	1.4517568
21.49978402830388	2.0815864	1.4427704
21.51762411449127	2.0825808	1.443115
21.53546472844617	2.1196144	1.4558896
21.553305870647876	2.1209152	1.4563363
21.571147541575865	2.1124105	1.4534134
21.58898974170967	2.0896325	1.4455562
21.60683247152899	2.0781715	1.4415865
21.62467573151363	2.0524712	1.4326448
21.642519522143523	2.0416014	1.4288462
21.660363843898722	2.0408773	1.4285928
21.6782086972594	2.056416	1.4340209
21.696054082705864	2.0595489	1.4351128
21.713900000718535	2.0535412	1.4330182
21.73174645177795	2.0594325	1.4350723
21.749593436364794	2.0521078	1.432518
21.767440954959845	2.037053	1.4272537
21.785289008044032	2.0313754	1.4252633
21.803137596098388	2.0391061	1.4279728
21.820986719604086	2.0295715	1.4246303
21.838836379042412	2.017135	1.4202588
21.85668657489478	2.0440245	1.4296938
21.87453730764273	2.0664968	1.4375315
21.892388577767914	2.0289607	1.424416
21.91024038575213	2.005534	1.4161688
21.928092732077285	2.007898	1.4170032
21.945945617225426	2.0428312	1.4292765
21.963799041678694	2.0266016	1.4235876
21.981653005919398	31.335651	5.5978255
21.999507510429943	78.13188	8.839224
22.01736255569286	73.07301	8.548275
22.035218142190818	4.17523	2.043338
22.05307427040661	1.99075	1.4109393
22.07093094082315	1.9793854	1.4069064
22.088788153923474	1.9395986	1.3926947
22.106645910190746	1.9243865	1.3872225
22.12450421010827	1.9582396	1.3993711
22.142363054159464	1.969882	1.4035249
22.16022244282787	1.9818817	1.4077932
22.178082376597164	1.9947227	1.4123465
22.195942855951145	2.023646	1.4225491
22.213803881373742	1.99347	1.4119029
22.231665453349002	1.9789008	1.4067341
22.24952757236111	1.9815474	1.4076744
22.26739023889438	1.9844217	1.4086951
22.28525345343323	1.9408747	1.3931528
22.30311721646225	1.9271104	1.388204
22.320981528466113	1.9321275	1.3900099
22.33884638992964	1.9347281	1.3909451
22.356711801337788	1.9631832	1.4011364
22.37457776317561	1.9642926	1.4015323
22.392444275928337	1.9441899	1.3943421
22.410311340081282	1.919281	1.3853812
22.428178956119904	1.9046564	1.3800929
22.446047124529805	1.9333179	1.3904381
22.46391584579669	1.9650289	1.4017949
22.481785120406414	1.9727004	1.4045285
22.49965494884496	1.9694585	1.403374
22.51752533159841	1.9223797	1.386499
22.53539626915302	1.9133128	1.3832256
22.553267761995137	1.9278384	1.3884662
22.571139810611264	1.958487	1.3994596
22.589012415488025	1.959247	1.399731
22.60688557711216	1.9528643	1.3974493
22.624759295970566	1.9585102	1.3994678
22.642633572550263	1.9974422	1.413309
22.660508407338362	1.9696884	1.4034559
22.67838380082217	1.966683	1.4023848
22.696259753489077	1.9579723	1.3992757
22.714136265826614	1.9644483	1.4015878
22.73201333832246	1.9374288	1.3919156
22.74989097146439	1.9290878	1.388916
22.76776916574035	1.9623315	1.4008324
22.785647921638393	1.9634081	1.4012166
22.803527239646712	1.9583081	1.3993956
22.82140712025363	1.9355023	1.3912233
22.839287563947593	1.9148061	1.3837652
22.85716857121719	1.9206554	1.3858771
22.875050142551135	1.9074209	1.3810941
22.892932278438277	1.8704307	1.3676369
22.910814979367604	1.8306508	1.3530154
22.928698245828222	1.837312	1.3554748
22.946582078309387	1.8900884	1.3748049
22.96446647730047	1.911566	1.382594
22.98235144329098	1.9089681	1.3816541
23.000236976770562	1.8788133	1.3706981
23.018123078229	1.8722904	1.3683167
23.03600974815619	1.9107797	1.3823096
23.053896987042194	1.9367416	1.3916687
23.071784795377173	1.9191694	1.3853409
23.08967317365145	1.8813715	1.3716309
23.10756212235546	1.8955532	1.3767909
23.125451641979787	1.9308407	1.389547
23.143341733015134	1.936155	1.3914578
23.161232395952357	1.921939	1.3863401
23.179123631282426	1.8980427	1.3776947
23.197015439496468	1.8747896	1.3692296
23.214907821085717	1.8887323	1.3743116
23.23280077654157	1.9348003	1.390971
23.250694306355538	1.9681531	1.4029088
23.268588411019277	1.9412645	1.3932927
23.28648309102458	1.9355382	1.3912362
23.304378346863356	1.9429759	1.3939067
23.322274179027676	1.8987972	1.3779684
23.340170588009723	1.8773828	1.3701762
23.358067574301852	1.8793606	1.3708978
23.37596513839651	1.9460127	1.3949956
23.39386328078629	1.985389	1.4090383
23.411762001963947	2.0171745	1.4202727
23.429661302422353	2.0026243	1.4151411
23.4475611826545	1.9997216	1.4141152
23.46546164315356	1.9723936	1.4044193
23.48336268441279	1.932865	1.3902751
23.501264306925638	1.9234817	1.3868964
23.51916651118564	1.9079217	1.3812754
23.537069297686497	1.9055395	1.3804128
23.554972666922037	1.8901279	1.3748193
23.57287661938623	1.9127939	1.3830379
23.59078115557318	1.8988429	1.3779851
23.608686275977128	1.924204	1.3871568
23.62659198109246	1.8943548	1.3763556
23.6444982714137	1.871737	1.3681144
23.66240514743549	1.861497	1.3643669
23.68031260965263	1.8874815	1.3738564
23.698220658560068	1.9046427	1.380088
23.716129294652845	1.9131494	1.3831664
23.7340385184262	1.8938246	1.376163
23.75194833037546	1.8899676	1.3747609
23.769858730996123	1.9277456	1.3884327
23.78776972078382	1.9594953	1.3998197
23.80568130023431	1.9590818	1.399672
23.823593469843495	1.9269822	1.3881578
23.841506230107424	1.900737	1.3786722
23.859419581522275	1.8669696	1.3663709
23.87733352458438	1.869601	1.3673335
23.89524805979019	1.9175301	1.384749
23.913163187636318	1.9672185	1.4025757
23.931078908619508	2.0105157	1.4179265
23.948995223236633	1.9852407	1.4089857
23.966912131984735	2.005491	1.4161536
23.98482963536096	2.057532	1.43441
24.002747733862616	2.083394	1.4433967
24.020666427987155	2.0916393	1.4462501
24.038585718232156	2.0901592	1.4457383
24.056505605095353	2.0902126	1.4457568
24.074426089074617	2.1051826	1.4509248
24.092347170667946	2.0722625	1.4395355
24.110268850373515	2.043314	1.4294454
24.128191128689586	2.0049245	1.4159536
24.146114006114626	2.013586	1.4190089
24.164037483147187	2.05545	1.4336841
24.181961560286005	2.075153	1.4405391
24.199886238029926	2.0619464	1.4359479
24.21781151687797	2.071311	1.4392049
24.235737397329274	2.043144	1.4293859
24.253663879883135	2.0331793	1.4258959
24.271590965038975	2.0408428	1.4285806
24.289518653296376	2.0605226	1.435452
24.30744694515505	2.0815294	1.4427506
24.32537584111486	2.096243	1.4478408
24.34330534167581	2.111322	1.4530388
24.361235447338046	2.1415126	1.4633908
24.379166158601876	2.1174939	1.4551611
24.39709747596772	2.0716286	1.4393153
24.41502939993615	2.017399	1.4203517
24.432961931007917	1.9999089	1.4141814
24.450895069683856	2.0209956	1.4216173
24.468828816465	2.0394182	1.428082
24.4867631718525	2.0032313	1.4153556
24.504698136347656	1.9237794	1.3870038
24.52263371045192	1.883645	1.3724595
24.540569894666874	1.9370178	1.3917679
24.558506689494266	2.0008209	1.4145038
24.57644409543597	1.9758687	1.405656
24.594382112994012	1.9441522	1.3943286
24.61232074267057	1.938808	1.3924109
24.630259984967953	1.9982232	1.4135852
24.64819984038863	2.057046	1.4342406
24.66614030943522	2.0723443	1.4395639
24.684081392610462	2.0300775	1.4248079
24.702023090417274	2.007936	1.4170166
24.7199654033587	2.008608	1.4172537
24.737908331937927	1.9966172	1.413017
24.755851876658305	2.0035512	1.4154686
24.773796038023324	2.0182667	1.4206572
24.79174081653661	2.0736458	1.4400159
24.809686212701962	2.1029294	1.450148
24.827632227023294	2.117045	1.4550068
24.8455788600047	2.136861	1.4618006
24.8635261121504	2.1617024	1.4702729
24.88147398396475	2.162668	1.4706012
24.899422475952303	2.1569223	1.4686464
24.917371588617698	2.1567843	1.4685994
24.935321322465768	2.198529	1.4827437
24.953271678001478	2.22814	1.4926956
24.97122265572994	2.4189084	1.555284
24.989174256156414	2.779825	1.6672807
25.00712647978632	3.216892	1.7935697
25.02507932712521	3.794007	1.9478211
25.043032798678798	4.2923822	2.0718064
25.060986894952933	5.0248485	2.2416174
25.078941616453637	5.795316	2.4073462
25.096896963687055	6.797509	2.6072032
25.114852937159508	7.960322	2.8214042
25.132809537377444	8.384214	2.8955507
25.150766764847468	8.469852	2.9103012
25.168724620076347	7.84725	2.8012943
25.186683103570985	6.8196645	2.6114488
25.204642215838426	5.61542	2.3696878
25.222601957385894	4.23385	2.0576322
25.24056232872074	3.1764927	1.7822717
25.25852333035048	2.5759284	1.60497
25.276484962782778	2.2440429	1.498013
25.294447226525435	2.0663261	1.4374721
25.312410122086423	1.9985853	1.4137133
25.330373649973843	1.982413	1.4079819
25.348337810695988	1.9823412	1.4079564
25.366302604761245	1.933878	1.3906394
25.384268032678207	1.9331579	1.3903805
25.40223409495558	1.891063	1.3751593
25.420200792102257	1.903167	1.3795532
25.438168124627246	1.925195	1.387514
25.45613609303974	1.9302218	1.3893242
25.474104697849057	1.9423515	1.3936827
25.492073939564698	1.9104509	1.3821906
25.510043818696285	1.9264096	1.3879516
25.528014335753614	1.9626495	1.4009459
25.54598549124664	1.9217011	1.3862543
25.56395728568544	1.8824657	1.3720298
25.58192971958028	1.851266	1.3606124
25.59990279344156	1.839027	1.3561074
25.617876507779833	1.796411	1.3403026
25.635850863105826	1.8070657	1.3442714
25.653825859930386	1.8663453	1.3661425
25.671801498764548	1.8978735	1.3776333
25.68977778011949	1.8864744	1.3734899
25.707754704506524	1.9002111	1.3784814
25.725732272437153	1.9051887	1.3802857
25.743710484423012	1.8870302	1.3736922
25.761689340975888	1.8493154	1.3598953
25.77966884260774	1.8803995	1.3712766
25.797648989830662	1.9078336	1.3812435
25.815629783156922	1.8767161	1.3699329
25.83361122309895	1.8928005	1.3757908
25.85159331016929	1.8885341	1.3742394
25.869576044880695	1.8335483	1.3540858
25.887559427746034	1.810843	1.3456757
25.90554345927836	1.8131671	1.3465389
25.92352813999086	1.8442358	1.3580264
25.94151347039689	1.838305	1.355841
25.959499451009965	1.8279413	1.3520138
25.97748608234374	1.8124776	1.3462828
25.995473364912062	1.7842598	1.3357619
26.013461299228904	1.8060381	1.3438892
26.03144988580839	1.8542945	1.3617249
26.04943912516483	1.8892807	1.3745111
26.067429017812675	1.88493	1.3729275
26.085419564266537	1.8496418	1.3600154
26.103410765041186	1.8556303	1.3622152
26.12140262065155	1.8450423	1.3583233
26.139395131612723	1.7974972	1.3407077
26.157388298439948	1.8065864	1.3440932
26.17538212164861	1.8030006	1.3427585
26.193376601754295	1.8369944	1.3553576
26.211371739272714	1.8382629	1.3558255
26.229367534719746	1.852326	1.3610018
26.247363988611433	1.9051841	1.3802841
26.26536110146397	1.8484503	1.3595773
26.283358873793727	1.7700839	1.330445
26.301357306117204	1.7314101	1.3158306
26.319356398951104	1.7955664	1.3399875
26.33735615281224	1.8567146	1.3626132
26.35535656821762	1.8585925	1.3633021
26.373357645684404	1.8081394	1.3446708
26.39135938572991	1.7996877	1.3415244
26.409361788871614	1.8061085	1.3439153
26.427364855627165	1.7766732	1.332919
26.445368586514352	1.793416	1.3391849
26.46337298205115	1.8023237	1.3425065
26.48137804275568	1.829227	1.3524892
26.499383769146217	1.8333666	1.3540187
26.517390161741215	1.798104	1.340934
26.53539722105928	1.7690663	1.3300625
26.553404947619182	1.8002434	1.3417314
26.571413341939856	1.8209873	1.3494396
26.589422404540397	1.7850493	1.3360574
26.60743213594006	1.7728134	1.3314704
26.62544253665827	1.8069732	1.3442371
26.64345360721459	1.793581	1.3392464
26.66146534812879	1.8164779	1.3477677
26.679477759920758	1.8273977	1.3518127
26.69749084311057	1.8265482	1.3514985
26.71550459821847	1.7708848	1.3307459
26.733519025764842	1.7665087	1.3291007
26.751534126270258	1.784908	1.3360045
26.769549900255434	1.8122591	1.3462018
26.787566348241267	1.8178104	1.348262
26.80558347074881	1.7944711	1.3395787
26.823601268299267	1.793851	1.3393472
26.841619741414036	1.8269279	1.3516389
26.85963889061465	1.8387862	1.3560185
26.877658716422832	1.8356776	1.3548719
26.89567921936045	1.8612726	1.3642846
26.913700399949544	1.8654212	1.3658042
26.93172225871233	1.823357	1.3503174
26.949744796171174	1.7822472	1.3350083
26.967768012848605	1.820398	1.3492212
26.98579190926733	1.8385288	1.3559235
27.003816485950225	1.8329568	1.3538673
27.021841743420318	1.8113511	1.3458644
27.039867682200814	1.821547	1.349647
27.057894302815072	1.8459858	1.3586706
27.07592160578664	1.7846247	1.3358985
27.0939495916392	1.7279775	1.3145256
27.111978260896635	1.7704855	1.330596
27.13000761408296	1.794246	1.3394947
27.148037651722397	1.7717869	1.3310848
27.166068374339304	1.7998389	1.3415807
27.184099782458215	1.8156643	1.3474659
27.20213187660384	1.7966071	1.3403758
27.22016465730105	1.7914934	1.3384668
27.23819812507487	1.8062187	1.3439564
27.256232280450533	1.7916862	1.3385388
27.274267123953383	1.7959638	1.3401357
27.292302656108987	1.8694336	1.3672724
27.31033887744306	1.8791695	1.370828
27.32837578848146	1.840516	1.3566562
27.34641338975026	1.8183372	1.3484573
27.364451681775673	1.8409578	1.356819
27.382490665084074	1.8135844	1.3466939
27.400530340202046	1.7731938	1.3316133
27.41857070765629	1.7642936	1.3282671
27.436611767973726	1.7806147	1.3343967
27.454653521681404	1.8028188	1.3426908
27.472695969306564	1.7832923	1.3353996
27.490739111376627	1.741879	1.3198026
27.508782948419153	1.7124898	1.3086214
27.526827480961902	1.7507572	1.3231618
27.54487270953279	1.7796038	1.3340179
27.562918634659898	1.8076743	1.3444978
27.580965256871508	1.8168569	1.3479084
27.599012576696026	1.8043556	1.343263
27.617060594662068	1.8157405	1.3474941
27.63510931129842	1.8535858	1.3614646
27.65315872713401	1.8414679	1.3570069
27.67120884269797	1.8003494	1.341771
27.68925965851958	1.7889614	1.3375206
27.707311175128307	1.8204658	1.3492464
27.725363393053787	1.8729506	1.3685578
27.74341631282583	1.9220066	1.3863646
27.7614699349744	1.9150654	1.3838589
27.77952426002968	2.07569	1.4407256
27.797579288521973	2.1094728	1.4524024
27.815635020981784	2.5658255	1.6018194
27.83369145793979	2.7024071	1.6438999
27.85174859992682	2.5514886	1.597338
27.869806447473923	2.3248997	1.5247622
27.887865001112267	1.930801	1.3895327
27.905924261373233	1.817152	1.3480178
27.92398422878836	1.8825301	1.3720533
27.94204490388936	1.9435802	1.3941234
27.96010628720813	1.9166412	1.3844281
27.978168379276728	1.8780847	1.3704323
27.9962311806274	1.834888	1.3545804
28.014294691792568	1.8623519	1.3646802
28.0323589133048	1.8563998	1.3624976
28.050423845696887	1.8407453	1.3567407
28.068489489501758	1.8311986	1.3532178
28.086555845252523	1.8053614	1.3436373
28.104622913482487	1.8149055	1.3471843
28.122690694725115	1.8426913	1.3574576
28.14075918951405	1.8825858	1.3720735
28.15882839838312	1.9441875	1.3943412
28.176898321866304	1.9509513	1.3967646
28.1949689604978	1.9268438	1.388108
28.213040314811945	1.8896451	1.3746437
28.23111238534327	1.8920691	1.375525
28.249185172626493	1.9195426	1.3854755
28.267258677196473	1.9171396	1.3846081
28.285332899588294	1.9246185	1.3873062
28.303407840337172	1.8853476	1.3730797
28.321483499978545	1.8388371	1.3560373
28.33955987904799	1.8521279	1.360929
28.357636978081285	1.9208437	1.3859451
28.37571479761439	1.9399469	1.3928198
28.393793338183425	1.9451373	1.3946818
28.41187260032469	1.9542596	1.3979484
28.429952584574686	1.9605768	1.400206
28.448033291470065	2.004249	1.4157151
28.46611472154769	2.015666	1.4197415
28.484196875344566	2.0423706	1.4291153
28.502279753397914	2.0754786	1.4406521
28.52036335624511	2.1080263	1.4519044
28.538447684423716	2.056413	1.4340198
28.556532738471482	2.0099664	1.4177328
28.574618518926325	1.9772205	1.4061368
28.59270502632635	1.9807875	1.4074045
28.61079226120985	1.987003	1.409611
28.628880224115274	2.0249298	1.4230002
28.646968915581287	2.0297277	1.4246851
28.66505833614671	1.9886005	1.4101775
28.68314848635055	1.9985152	1.4136885
28.701239366732004	2.1115904	1.4531312
28.71933097783044	2.1396484	1.4627538
28.737423320185403	2.1685247	1.4725912
28.75551639433665	2.17418	1.4745101
28.773610200824074	2.1516936	1.4668652
28.791704740187793	2.121336	1.4564807
28.80980001296809	2.1300235	1.45946
28.827896019705413	2.1495142	1.4661222
28.845992760940433	2.172306	1.4738744
28.86409023721397	2.2411482	1.4970465
28.88218844906704	2.2435005	1.497832
28.900287397040845	2.2377129	1.4958987
28.918387081676755	2.244587	1.4981946
28.936487503516343	2.2342074	1.4947265
28.954588663101365	2.2636993	1.5045595
28.97269056097374	2.291453	1.5137546
28.990793197675597	2.2391942	1.4963937
29.00889657374923	2.2947593	1.5148463
29.027000689737125	2.378071	1.5420996
29.04510554618196	2.4335668	1.5599893
29.06321114362659	2.4891102	1.5776914
29.08131748261405	2.5427296	1.5945939
29.099424563687567	2.539905	1.5937079
29.11753238739057	2.5286672	1.5901784
29.13564095426663	2.536105	1.5925152
29.15375026485954	2.6263163	1.6205914
29.171860319713275	2.645478	1.6264925
29.18997111937199	2.6351857	1.6233255
29.20808266438002	2.6889422	1.6397995
29.226194955281898	2.753518	1.6593728
29.244307992622335	2.7932081	1.6712893
29.26242177694624	2.8634999	1.6921879
29.2805363087987	2.9132116	1.7068133
29.29865158872498	2.8900845	1.7000248
29.316767617270557	2.89584	1.7017168
29.334884394981064	2.9474645	1.7168181
29.353001922402367	2.9730167	1.7242438
29.37112020008047	3.0482855	1.745934
29.389239228561596	3.2046864	1.7901638
29.407359008392152	3.3981194	1.8433989
29.42547954011872	3.7328627	1.9320618
29.44360082428809	4.3398247	2.0832245
29.46172286144722	5.444924	2.333436
29.479845652143283	7.0535526	2.6558526
29.497969196923606	9.204909	3.0339594
29.516093496335728	11.889231	3.4480765
29.5342185509274	14.800541	3.8471472
29.55234436124651	17.160545	4.142529
29.570470927841175	18.603607	4.31319
29.588598251259686	18.255915	4.272694
29.60672633205055	16.821684	4.1014247
29.624855170762405	14.681932	3.831701
29.642984767944146	12.01184	3.46581
29.66111512414481	9.183705	3.030463
29.67924623991366	6.7035117	2.5891142
29.697378115800138	5.091008	2.2563262
29.71551075235387	4.158133	2.03915
29.733644150124675	3.723014	1.9295113
29.751778309662576	3.5247483	1.8774313
29.769913231517766	3.4166448	1.8484168
29.78804891624066	3.3320396	1.8253875
29.806185364381818	3.340581	1.8277256
29.82432257649206	3.3148198	1.8206646
29.842460553122333	3.3263073	1.8238167
29.86059929482382	3.3221307	1.8226713
29.878738802147872	3.2192187	1.7942182
29.896879075646048	3.2097137	1.7915674
29.915020115870114	3.2530549	1.8036227
29.933161923371976	3.3332179	1.8257102
29.951304498703777	3.3929775	1.8420037
29.969447842417857	3.3754156	1.8372304
29.987591955066733	3.3131566	1.8202078
30.005736837203123	3.2960494	1.8155025
30.023882489379943	3.2857296	1.8126582
30.04202891215028	3.2663631	1.8073083
30.060176106067455	3.193985	1.7871723
30.078324071684946	3.149353	1.7746416
30.09647280955646	3.1739337	1.7815537
30.114622320235863	3.2646852	1.806844
30.132772604277257	3.1940167	1.7871813
30.1509236622349	3.1290169	1.7689028
30.16907549466328	3.1110637	1.7638208
30.18722810211705	3.1119177	1.7640629
30.205381485151097	3.0195425	1.737683
30.22353564432045	2.9677324	1.7227107
30.241690580180403	2.9995325	1.7319158
30.25984629328638	3.1031787	1.7615842
30.278002784194037	3.0988524	1.7603557
30.296160053459246	3.002479	1.7327663
30.314318101638033	2.9042401	1.7041831
30.332476929286646	2.8634303	1.6921673
30.35063653696153	2.9029143	1.7037941
30.368796925219307	2.8690593	1.6938298
30.386958094616844	2.8362305	1.6841112
30.40512004571115	2.8844373	1.6983632
30.423282779059463	2.8927722	1.7008152
30.441446295219233	2.8463912	1.6871251
30.459610594748067	2.774974	1.6658254
30.47777567820382	2.733856	1.6534376
30.495941546144504	2.797689	1.6726294
30.51410819912835	2.8710392	1.6944141
30.532275637713795	2.9241881	1.7100258
30.55044386245946	2.942762	1.715448
30.56861287392416	2.8732843	1.6950765
30.586782672666956	2.828955	1.6819497
30.604953259247047	2.8219173	1.6798563
30.623124634223885	2.8156912	1.6780021
30.641296798157075	2.8037655	1.6744448
30.659469751606462	2.8191013	1.679018
30.677643495132074	2.7853446	1.6689352
30.695818029294152	2.7289155	1.651943
30.713993354653116	2.6886866	1.6397215
30.73216947176962	2.637154	1.6239316
30.75034638120448	2.6537368	1.6290294
30.768524083518756	2.7027998	1.6440194
30.786702579273673	2.7714787	1.6647758
30.80488186903069	2.873693	1.695197
30.82306195335144	2.9786596	1.7258794
30.841242832797782	3.1832943	1.7841789
30.85942450793176	3.4517338	1.8578843
30.877606979315637	3.7854872	1.9456328
30.895790247511883	4.1228456	2.0304792
30.913974313083134	4.5746307	2.1388385
30.932159176592283	4.92743	2.2197816
30.95034483860237	5.001061	2.2363052
30.968531299676698	4.7037263	2.1688075
30.98671856037873	4.3343706	2.0819151
31.00490662127215	3.986284	1.9965681
31.023095482920848	3.5782194	1.8916183
31.04128514588892	3.1235788	1.767365
31.059475610740662	2.795272	1.6719067
31.07766687804056	2.6280193	1.6211166
31.09585894835335	2.5808897	1.6065148
31.11405182224393	2.563108	1.600971
31.132245500277417	2.5116174	1.5848083
31.15043998301914	2.4846764	1.5762856
31.168635271034628	2.5368757	1.5927572
31.18683136488964	2.5525453	1.5976688
31.20502826515008	2.5041602	1.5824538
31.223225972382135	2.493907	1.5792109
31.241424487152155	2.5277371	1.5898858
31.259623810026692	2.5956366	1.6110979
31.27782394157253	2.5206316	1.5876497
31.296024882356644	2.542598	1.5945526
31.314226632946237	2.5593324	1.5997914
31.332429193908684	2.4986796	1.5807213
31.350632565811598	2.4374504	1.5612336
31.368836749222787	2.45969	1.56834
31.387041744710295	2.5217872	1.5880136
31.40524755284232	2.5525553	1.5976719
31.423454174187317	2.6061292	1.614351
31.441661609313922	2.5432987	1.5947723
31.459869858791002	2.50279	1.5820209
31.478078923187628	2.4802902	1.5748937
31.496288803073064	2.4902592	1.5780555
31.514499499016807	2.5133119	1.5853428
31.532711011588546	2.5348616	1.5921248
31.550923341358178	2.3930712	1.5469555
31.56913648889584	2.2987177	1.5161523
31.587350454771844	2.3344483	1.5278902
31.605565239556732	2.3339329	1.5277215
31.62378084382127	2.3398266	1.5296491
31.641997268136382	2.3656957	1.5380819
31.660214513073274	2.4673135	1.5707685
31.67843257920331	2.4199069	1.5556049
31.6966514670981	2.2586832	1.5028917
31.71487117732944	2.1542766	1.4677454
31.733091710469346	2.1330411	1.4604934
31.751313067090052	2.150319	1.4663967
31.769535247764008	2.217409	1.4890966
31.787758253063878	2.2893858	1.5130717
31.805982083562526	2.2808475	1.5102475
31.824206739833024	2.2222183	1.4907106
31.84243222244869	2.187282	1.4789463
31.860658531983013	2.1970303	1.4822383
31.878885669009737	2.1818879	1.4771215
31.897113634102784	2.2178068	1.4892303
31.91534242783632	2.240749	1.4969131
31.933572050784694	2.1997116	1.4831425
31.951802503522508	2.1022077	1.4498992
31.970033786624548	2.1439462	1.4642221
31.988265900665834	2.194021	1.4812227
32.006498846221575	2.2380395	1.4960078
32.02473262386724	2.2716513	1.5071998
32.04296723417845	2.311692	1.520425
32.0612026777311	2.3036072	1.5177639
32.07943895510129	2.1876605	1.4790742
32.097676066865304	2.117625	1.4552062
32.115914013599685	2.1978478	1.482514
32.13415279588115	2.2516513	1.5005503
32.152392414286666	2.2490907	1.4996969
32.1706328693934	2.196321	1.481999
32.18887416177875	2.1160326	1.454659
32.20711629202032	2.0950902	1.4474427
32.225359260695924	2.1385176	1.4623672
32.243603068383614	2.1590872	1.4693832
32.26184771566166	2.2212193	1.4903755
32.28009320310852	2.218766	1.4895523
32.2983395313029	2.1089926	1.4522371
32.31658670082372	2.1067863	1.4514773
32.33483471225012	2.1463814	1.4650533
32.35308356616143	2.1414702	1.4633763
32.371333263137245	2.0886867	1.4452289
32.38958380375734	2.0756655	1.440717
32.407835188601744	2.093706	1.4469644
32.42608741825067	2.1650078	1.4713966
32.444340493284585	2.1755393	1.4749709
32.46259441428416	2.0763493	1.4409543
32.48084918183028	1.9822569	1.4079264
32.49910479650405	2.0017087	1.4148176
32.51736125888683	2.046726	1.4306383
32.53561856956014	2.039395	1.4280739
32.5538767291058	1.9873825	1.4097456
32.572135738105764	2.04115	1.4286883
32.59039559714228	2.0885186	1.4451708
32.608656306797776	2.0744274	1.4402872
32.62691786765491	2.0421226	1.4290285
32.645180280296586	2.0141857	1.4192201
32.663443545305896	1.9988134	1.4137939
32.68170766326619	2.0412745	1.4287318
32.69997263476099	2.0331337	1.42588
32.7182384603741	2.0487416	1.4313426
32.7365051406895	2.0439696	1.4296746
32.75477267629144	2.1002586	1.4492269
32.77304106776434	2.0519783	1.4324728
32.79131031569289	2.068099	1.4380887
32.809580420661966	2.050204	1.4318534
32.827851383256714	1.9433235	1.3940314
32.84612320406245	1.8959575	1.3769377
32.86439588366476	1.9033393	1.3796157
32.88266942264945	1.9667187	1.4023975
32.9009438216025	1.9749327	1.405323
32.9192190811102	1.9950936	1.4124779
32.937495201758985	2.0110235	1.4181056
32.95577218413556	1.9626237	1.4009367
32.974050028826866	1.9484344	1.3958633
32.992328736420035	1.9505823	1.3966324
33.010608307502444	1.916179	1.3842611
33.02888874266169	1.8842715	1.3726877
33.047170042485604	1.779896	1.3341274
33.06545220756225	1.8098382	1.3453022
33.083735238479896	1.8474324	1.3592029
33.10201913582707	1.82746	1.3518358
33.12030390019248	1.9832498	1.4082791
33.138589532165135	2.0966132	1.4479686
33.15687603233419	1.9688183	1.4031459
33.17516340128909	1.8851362	1.3730026
33.19345163961947	1.863611	1.3651414
33.211740747915215	1.8838656	1.3725399
33.23003072676643	1.8525712	1.361092
33.248321576763466	1.8625308	1.3647457
33.266613298496885	1.9040512	1.3798736
33.28490589255747	1.9451416	1.3946834
33.30319935953626	1.9902259	1.4107537
33.32149370002451	2.0197666	1.4211849
33.339788914613706	2.070954	1.439081
33.358085003895575	2.0217857	1.4218951
33.376381968462034	1.951174	1.3968443
33.39467980890529	1.8858448	1.3732606
33.41297852581774	1.9165545	1.3843968
33.43127811979204	1.9371408	1.3918121
33.44957859142105	1.9345258	1.3908724
33.467879941297866	2.0418391	1.4289293
33.486182170015844	1.9989619	1.4138465
33.50448527816853	1.88742	1.373834
33.522789266349754	1.8621384	1.364602
33.541094135153514	1.8148452	1.3471619
33.55939988517411	1.8579729	1.3630748
33.57770651700602	1.8900672	1.3747971
33.59601403124398	1.9168915	1.3845185
33.61432242848296	2.012737	1.4187096
33.632631709318154	1.9948624	1.412396
33.650941874344994	1.9091557	1.381722
33.66925292415916	1.9008359	1.378708
33.68756485935654	2.0429993	1.4293352
33.70587768053328	2.0831842	1.443324
33.724191388285746	1.9724528	1.4044404
33.74250598321054	1.8358891	1.3549498
33.760821465904506	1.8974817	1.3774911
33.77913783696474	1.9619619	1.4007004
33.79745509698852	2.0251644	1.4230827
33.815773246573414	2.0851004	1.4439877
33.8340922863172	2.100209	1.4492098
33.852412216817896	2.0501711	1.4318419
33.87073303867377	2.028577	1.4242812
33.889054752483304	1.9966624	1.413033
33.907377358845245	1.9554863	1.3983871
33.92570085835853	1.8600609	1.3638405
33.94402525162239	1.86769	1.3666345
33.96235053923627	1.9551957	1.3982831
33.980676721799824	1.8796629	1.3710079
33.999003799912984	1.8339068	1.3542181
34.01733177417592	1.9893119	1.4104297
34.03566064518901	2.0410326	1.4286472
34.0539904135529	2.0222294	1.4220512
34.07232107986846	1.9542646	1.3979502
34.090652644736785	1.8822099	1.3719366
34.108985108759235	1.8091067	1.3450304
34.12731847253742	1.8663567	1.3661467
34.14565273667313	1.9432932	1.3940206
34.16398790176847	2.0211666	1.4216774
34.18232396842574	2.0323796	1.4256155
34.20066093724749	2.0457551	1.4302989
34.21899880883651	2.0739663	1.4401271
34.23733758379583	1.9255484	1.3876413
34.25567726272874	1.8197781	1.3489915
34.27401784623872	1.8722137	1.3682886
34.29235933492957	1.8654537	1.3658161
34.31070172940526	1.9011487	1.3788215
34.32904503027003	1.8618587	1.3644994
34.347389238128386	1.8926831	1.3757482
34.36573435358502	1.9426355	1.3937846
34.38408037724492	1.840179	1.356532
34.402427309713296	1.7963489	1.3402795
34.42077515159559	1.9354448	1.3912027
34.43912390349752	2.0240254	1.4226825
34.45747356602499	1.9813128	1.4075911
34.47582413978423	1.9150939	1.3838692
34.49417562538163	1.9084535	1.3814678
34.51252802342388	1.9937993	1.4120196
34.53088133451789	1.9464341	1.3951466
34.54923555927084	2.0012302	1.4146484
34.567590698290104	2.1077063	1.4517941
34.58594675218336	2.0506222	1.4319993
34.6043037215585	1.9354252	1.3911955
34.62266160702365	1.9011235	1.3788123
34.641020409187234	1.9579167	1.3992558
34.65938012865785	1.9184439	1.385079
34.677740766044394	1.9571836	1.3989937
34.69610232195598	1.9286214	1.3887482
34.714464797002016	1.9374939	1.3919389
34.73282819179208	1.9631994	1.4011421
34.751192506936064	1.9078131	1.3812361
34.76955774304408	1.7922297	1.3387418
34.7879239007265	1.898723	1.3779416
34.80629098059391	1.9893144	1.4104306
34.824658983257194	1.9985918	1.4137156
34.843027909327446	1.9593403	1.3997644
34.86139775941603	2.0025368	1.4151101
34.879768534134534	2.1710892	1.4734616
34.89814023409483	2.202937	1.4842294
34.91651285990901	2.0303729	1.4249115
34.93488641218944	1.7702022	1.3304894
34.95326089154871	1.7853432	1.3361673
34.97163629859967	1.9416286	1.3934233
34.99001263395542	2.0496268	1.4316518
35.00838989822934	1.9150938	1.3838692
35.02676809203499	1.8242072	1.3506322
35.04514721598624	1.8756852	1.3695565
35.063527270697215	1.959323	1.3997582
35.081908256782256	2.038078	1.4276127
35.10029017485597	2.1094484	1.452394
35.11867302553321	1.9862007	1.4093263
35.137056809429104	1.7861619	1.3364737
35.155441527159006	1.9691993	1.4032816
35.173827179338524	2.1247678	1.4576583
35.19221376658354	1.9995759	1.4140636
35.21060128951017	1.8039678	1.3431187
35.2289897487348	1.7593269	1.3263962
35.24737914487405	2.0252798	1.4231232
35.26576947854479	2.1810784	1.4768474
35.28416075036418	2.0114033	1.4182395
35.30255296094958	2.0718315	1.4393858
35.32094611091867	2.071875	1.4394009
35.33934020088932	1.9506574	1.3966594
35.35773523147969	1.9289969	1.3888834
35.3761312033082	1.8872535	1.3737735
35.394528116993506	2.008647	1.4172674
35.41292597315452	1.9580842	1.3993156
35.431324772410434	2.19889	1.4828655
35.449724515380666	2.6026223	1.6132644
35.46812520268491	2.2689483	1.5063028
35.486526834943106	2.14265	1.4637793
35.504929412775454	2.1778135	1.4757417
35.52333293680242	2.2014778	1.4837378
35.54173740764471	2.1240714	1.4574194
35.560142825923286	2.257038	1.5023443
35.5785491922594	1.8117985	1.3460306
35.59695650727454	1.4511418	1.2046335
35.61536477159042	1.7820303	1.3349271
