0.008763373481513119	0.56609195	0.7523908
0.026290120649546365	0.36068255	0.60056853
0.043816868432600686	0.2109245	0.45926517
0.06134361724069026	0.082868464	0.28786883
0.07887036748382949	0.084836364	0.29126683
0.0963971195720331	0.05331249	0.23089498
0.11392387391531617	0.043692295	0.20902702
0.1314506309236943	0.033456925	0.18291235
0.1489773910071836	0.0	0.0
0.16650415457580078	0.027849039	0.16688031
0.18403092203956356	0.04157996	0.20391165
0.20155769380849	0.14562048	0.38160253
0.2190844702925996	0.19542001	0.44206336
0.2366112519019124	0.2280838	0.4775812
0.2541380390464497	0.19495952	0.4415422
0.27166483213623416	0.15764157	0.39704102
0.28919163158128947	0.16463669	0.40575448
0.3067184377916406	0.12947677	0.3598288
0.324245251177314	0.111537725	0.33397263
0.34177207214833777	0.20030878	0.4475587
0.3592989011147415	0.22627425	0.47568294
0.37682573848655654	0.21112326	0.4594815
0.39435258467381573	0.1550024	0.39370343
0.41187944008655414	0.09943481	0.31533286
0.42940630513480854	0.09720282	0.31177366
0.446933180228618	0.07390501	0.27185476
0.4644600657780234	0.101694964	0.31889647
0.48198696219306775	0.15367927	0.39201948
0.49951386988379676	0.19445515	0.4409707
0.5170407892602581	0.18087694	0.4252963
0.5345677207325025	0.19366221	0.4400707
0.5520946647105822	0.18836989	0.434016
0.5696216216045534	0.21257773	0.46106154
0.5871485918244737	0.17678595	0.4204592
0.6046755757804043	0.13889593	0.37268743
0.6222025738824094	0.15109773	0.3887129
0.6397295865405557	0.14730181	0.38379917
0.6572566141649129	0.19646013	0.44323823
0.6747836571655547	0.14659311	0.3828748
0.6923107159525568	0.14582752	0.3818737
0.7098377909359992	0.11858017	0.34435472
0.7273648825259653	0.11080877	0.3328795
0.7448919911325411	0.09889742	0.3144796
0.762419117165817	0.12684721	0.35615617
0.7799462610358868	0.17578976	0.4192729
0.7974734231528482	0.18696871	0.4323988
0.8150006039268024	0.21012957	0.45839894
0.8325278037678551	0.17304116	0.41598216
0.8500550230861152	0.20266251	0.45018053
0.8675822622916969	0.18550776	0.4307061
0.8851095217947171	0.20909923	0.4572737
0.9026368020052984	0.21420997	0.46282822
0.9201641033335665	0.22783907	0.4773249
0.9376914261896523	0.23630205	0.48610908
0.9552187709836915	0.23670875	0.48652723
0.9727461381258234	0.22743133	0.4768976
0.990273528026193	0.22444034	0.47375134
1.0078009410949496	0.2196391	0.4686567
1.0253283777422473	0.2202592	0.4693178
1.0428558383782454	0.2575455	0.5074894
1.0603833234131086	0.2619727	0.51183265
1.0779108332570058	0.3265159	0.5714157
1.0954383683201119	0.3322165	0.5763823
1.112965929012607	0.35447866	0.5953811
1.1304935157446763	0.51214147	0.7156406
1.1480211289265108	0.55677015	0.74617034
1.1655487689683062	1.2861521	1.1340865
1.1830764362802655	1.5140939	1.2304852
1.200604131272596	1.9853122	1.4090111
1.2181318543555117	2.5304809	1.5907485
1.235659605939232	2.6420352	1.6254339
1.253187386433982	4.1893525	2.0467908
1.270715196249994	6.5846806	2.5660632
1.2882430357975057	12.049694	3.471267
1.3057709054867608	16.793398	4.097975
1.3232988057280106	22.595512	4.7534738
1.3408267369315112	27.664047	5.259662
1.358354699507526	31.210133	5.586603
1.3758826938663256	35.388058	5.9487863
1.3934107204181858	37.325138	6.1094303
1.410938779573391	38.384186	6.195497
1.4284668717422309	39.317352	6.270355
1.4459949973350033	38.806816	6.2295117
1.4635231567620117	38.620964	6.2145767
1.4810513504335687	37.409996	6.116371
1.4985795787599925	36.406513	6.033781
1.5161078421516088	35.67926	5.973212
1.5336361410187505	34.567146	5.879383
1.5511644757717598	34.402973	5.8654046
1.5686928468209842	35.202305	5.933153
1.58622125457678	36.07819	6.006512
1.6037496994495108	37.401386	6.1156673
1.621278181849548	37.185467	6.0979886
1.6388067021872719	37.43621	6.1185136
1.6563352608730693	36.998817	6.0826654
1.673863858317336	36.422665	6.035119
1.6913924949304753	35.77957	5.9816027
1.7089211711228998	34.70556	5.8911424
1.7264498873050296	34.17855	5.8462424
1.7439786438872935	33.504704	5.788325
1.7615074412801288	32.77498	5.7249436
1.779036279893981	32.122314	5.667655
1.796565160139305	30.969728	5.5650454
1.814094082426564	30.432127	5.516532
1.8316230471662298	29.526958	5.4338713
1.849152054768784	28.459694	5.3347626
1.8666811056447168	27.845179	5.276853
1.8842102002045273	26.977062	5.193945
1.901739338858724	26.555199	5.1531734
1.9192685220178245	26.060522	5.104951
1.9367977500923557	25.403265	5.040165
1.9543270234928547	24.891815	4.9891696
1.971856342629867	24.227028	4.922096
1.9893857079139496	23.726711	4.8710074
2.006915119755667	23.252182	4.8220515
2.0244445785655945	22.581232	4.7519712
2.0419740847543175	22.016964	4.6922235
2.0595036387324317	21.443375	4.630699
2.0770332409105414	21.084585	4.5917954
2.094562891699263	20.982893	4.580709
2.1120925915092217	20.498528	4.52753
2.129622340751053	20.104815	4.483839
2.1471521398354043	188.22598	13.719547
2.1646819891729323	444.32028	21.078907
2.182211889174303	440.45493	20.987019
2.1997418402501974	452.75717	21.278091
2.2172718428113023	432.94308	20.807285
2.234801897268317	321.17645	17.921396
2.2523320040319548	17.549112	4.189166
2.269862163512935	17.145994	4.1407723
2.287392376121992	17.04557	4.1286283
2.304922642269869	16.84947	4.1048107
2.322452962367322	16.44533	4.055284
2.3399833368251164	15.91321	3.9891365
2.357513766054032	15.699627	3.9622755
2.3750442504648586	15.344615	3.9172204
2.3925747904683963	15.007843	3.8739958
2.410105386475459	14.701968	3.8343146
2.4276360388968707	14.151388	3.7618332
2.445166748143469	13.938058	3.7333708
2.4626975146261025	13.818661	3.717346
2.4802283387556323	13.899712	3.7282317
2.4977592209429305	13.710336	3.702747
2.5152901615988825	13.248285	3.6398194
2.5328211611343865	12.934114	3.596403
2.5503522199603523	12.634968	3.55457
2.5678833384877024	12.491603	3.534346
2.5854145171273712	12.413226	3.5232408
2.6029457562903064	12.248607	3.499801
2.620477056387469	12.046487	3.470805
2.6380084178298326	11.882107	3.4470432
2.655539841028383	11.72797	3.4246125
2.673071326394119	11.719679	3.4234016
2.6906028743380523	11.465691	3.3861027
2.708134485271211	11.123761	3.3352304
2.7256661596046325	10.863309	3.2959535
2.743197897749369	10.564054	3.250239
2.760729700116486	10.481976	3.237588
2.778261567117063	10.386483	3.2228067
2.795793499162193	10.265635	3.2040029
2.8133254966629817	10.169609	3.1889825
2.830857560030551	9.913774	3.1486146
2.8483896896760337	9.80436	3.1311915
2.865921886010578	9.580536	3.0952442
2.883454149445347	9.515415	3.0847065
2.9009864803915177	9.395227	3.0651636
2.91851887926028	9.266864	3.0441525
2.9360513464628384	9.320157	3.0528932
2.953583882410413	9.225711	3.0373855
2.9711164875142373	9.1703205	3.0282538
2.9886491621855606	9.016292	3.0027142
3.0061819068356455	8.777649	2.9627097
3.023714721875769	8.692886	2.9483702
3.041247607717225	8.539048	2.922165
3.0587805647713213	8.492453	2.9141812
3.0763135934493806	8.353609	2.8902612
3.0938466941627407	8.170311	2.8583755
3.1113798673227544	8.059263	2.838884
3.1289131133407904	7.996614	2.8278284
3.1464464326282315	7.923065	2.814794
3.1639798255964786	7.928172	2.815701
3.1815132926569443	7.801612	2.7931366
3.1990468342210603	7.8043823	2.7936325
3.216580450700272	7.6095915	2.7585487
3.2341141425060416	7.4080873	2.72178
3.251647910049847	7.4034867	2.7209349
3.2691817537431813	7.292711	2.700502
3.286715673997555	7.312643	2.70419
3.3042496712244938	7.1778345	2.6791482
3.32178374583554	7.0703754	2.6590178
3.339317898242251	7.0197873	2.6494882
3.3568521288562034	6.841709	2.6156662
3.3743864380889876	6.7778172	2.603424
3.3919208263522127	6.7125816	2.5908651
3.4094552940575023	6.745102	2.5971334
3.4269898416164972	6.6476307	2.5783
3.444524469440858	6.557265	2.5607157
3.4620591779422587	6.508049	2.5510879
3.479593967532391	6.423604	2.534483
3.4971288386229658	6.5260825	2.5546198
3.5146637916257086	6.5281324	2.555021
3.5321988269523628	6.4807725	2.545736
3.5497339450146903	6.381468	2.5261567
3.5672691462244708	6.2242703	2.4948487
3.5848044309934988	6.189044	2.487779
3.60233979973359	6.3198614	2.5139334
3.619875252856575	6.451584	2.5399969
3.6374107907743034	6.4718885	2.5439906
3.6549464138986427	6.470399	2.5436978
3.6724821226414788	6.3950715	2.528848
3.690017917414714	6.3064933	2.5112731
3.7075537986302702	6.280322	2.506057
3.7250897667000857	6.2839556	2.5067818
3.7426258220361235	6.500818	2.5496702
3.7601619650503553	6.9089265	2.6284838
3.777698196154779	7.426304	2.7251246
3.7952345157614067	8.434345	2.9041944
3.8127709242822716	9.163686	3.027158
3.830307422129425	11.21771	3.349285
3.847844009714936	30.156507	5.491494
3.8653806874508954	97.70541	9.884604
3.882917455749409	96.967064	9.847185
3.900454315022606	96.70631	9.833937
3.917991265682631	41.325554	6.4284954
3.9355283081416506	10.97227	3.3124416
3.9530654428118495	8.856907	2.9760556
3.970602670105433	7.538252	2.7455878
3.9881399904346244	6.5511084	2.5595133
4.005677404211669	6.442224	2.5381536
4.023214911848827	6.335449	2.517032
4.0407525137583855	6.376826	2.5252378
4.058290210352644	6.399131	2.5296504
4.075828002043927	6.2677627	2.50355
4.0933658892445814	6.2293105	2.4958587
4.110903872366966	6.190753	2.4881225
4.128441951823468	6.2654295	2.503084
4.145980128026488	6.311818	2.5123332
4.163518401388452	6.3179603	2.5135553
4.181056772321807	6.215826	2.493156
4.1985952412390155	6.209644	2.4919157
4.216133808552567	6.1773677	2.4854312
4.233672474674966	6.3025246	2.510483
4.251211240018741	6.492281	2.5479956
4.268750104996445	6.75594	2.599219
4.286289070020643	7.7618537	2.7860103
4.303828135503928	9.476784	3.0784385
4.3213673018589125	29.76573	5.4557977
4.3389065694982305	90.92677	9.535553
4.356445938834537	166.0599	12.886423
4.3739854102805085	172.04369	13.116543
4.391524984248844	172.85306	13.147359
4.409064661152262	136.77788	11.695208
4.426604441403504	97.09362	9.853609
4.444144325415337	75.90987	8.712626
4.461684313600543	21.935583	4.6835437
4.47922440637193	22.091208	4.7001286
4.496764604142329	20.178173	4.492012
4.5143049073245916	18.43911	4.2940784
4.531845316331589	16.34979	4.0434875
4.5493858315762195	13.611828	3.6894212
4.566926453471405	11.198411	3.3464026
4.584467182430081	9.27518	3.045518
4.602008018865218	8.166149	2.8576474
4.619548963189798	7.4248705	2.7248616
4.637090015816834	6.8994193	2.6266747
4.654631177159353	6.6354313	2.575933
4.672172447630417	6.430518	2.5358467
4.689713827643102	6.3312454	2.5161967
4.7072553176105085	6.103336	2.470493
4.724796917945764	6.07954	2.4656723
4.742338629062015	6.01352	2.4522479
4.759880451372434	5.975572	2.4444983
4.777422385290215	5.8592753	2.420594
4.794964431228581	5.7957335	2.407433
4.812506589600768	5.7710624	2.4023035
4.830048860820047	5.6941967	2.3862517
4.847591245299709	5.710396	2.3896434
4.8651337434530655	5.7133455	2.3902605
4.882676355693457	5.806483	2.4096644
4.900219082434242	5.744495	2.3967676
4.917761924088813	5.6370263	2.3742423
4.935304881070575	5.506422	2.3465767
4.952847953792969	5.4475174	2.3339918
4.970391142669449	5.4747243	2.339813
4.9879344481135055	5.476397	2.3401704
5.005477870538642	5.4604874	2.3367686
5.023021410358394	5.461042	2.3368871
5.040565067986324	5.4430985	2.333045
5.05810884383601	5.4150677	2.3270297
5.075652738321066	5.341687	2.311209
5.09319675185512	5.3596244	2.3150864
5.110740884851836	5.386459	2.3208747
5.128285137724894	5.44087	2.3325672
5.145829510888007	5.472268	2.339288
5.163374004754908	5.4400725	2.3323963
5.1809186197393595	5.4416556	2.3327355
5.198463356255145	5.371167	2.3175778
5.216008214716077	5.3184443	2.3061752
5.233553195535998	5.33419	2.3095865
5.251098299128764	5.354413	2.3139606
5.268643525908272	5.3811445	2.3197293
5.286188876288432	5.336459	2.3100777
5.3037343506831895	5.396086	2.3229477
5.32127994950651	5.2979436	2.301726
5.3388256731723915	5.3131495	2.305027
5.356371522094851	5.327322	2.3080993
5.373917496687938	5.3701706	2.3173628
5.391463597365729	5.3492446	2.3128433
5.40900982454232	5.3360467	2.3099885
5.426556178631843	5.2668767	2.2949677
5.444102660048449	5.2189374	2.2844994
5.4616492692063225	5.144786	2.268212
5.479196006519669	5.2260156	2.286048
5.496742872402727	5.2152953	2.2837021
5.514289867269756	5.225187	2.2858667
5.531836991535049	5.2130218	2.2832043
5.549384245612924	5.212341	2.283055
5.566931629917724	5.3013115	2.3024578
5.584479144863822	5.2151575	2.2836719
5.6020267908656205	5.232823	2.2875364
5.619574568337545	5.14432	2.2681093
5.637122477694054	5.208163	2.28214
5.654670519349629	5.228023	2.286487
5.672218693718784	5.2024617	2.2808905
5.689767001216059	5.19823	2.2799628
5.707315442256021	5.150693	2.2695138
5.724864017253266	5.1647224	2.2726026
5.7424127266224225	5.1991305	2.2801602
5.75996157077814	5.1678133	2.2732825
5.777510550135105	5.1765027	2.275193
5.795059665108022	5.179607	2.275875
5.812608916111639	5.162256	2.27206
5.830158303560715	5.285122	2.2989392
5.847707827870055	5.3261294	2.3078408
5.86525748945448	5.4668016	2.3381193
5.8828072887288485	5.574637	2.3610668
5.900357226108044	5.657028	2.3784509
5.917907302006979	5.6670656	2.38056
5.9354575168406	6.2069464	2.4913745
5.9530078710238765	6.698582	2.588162
5.970558364971812	7.2586226	2.694183
5.988108999099438	7.5963054	2.7561395
6.005659773821818	8.067155	2.8402736
6.023210689554039	7.72411	2.7792284
6.040761746711227	8.114779	2.8486452
6.058312945708531	7.5485806	2.747468
6.075864286961132	7.1168613	2.6677446
6.093415770884244	6.552263	2.5597389
6.1109673978931065	6.161738	2.4822848
6.128519168402993	5.658863	2.3788364
6.146071082829204	5.5087147	2.3470652
6.163623141587075	5.3178124	2.3060381
6.181175345091969	5.3293386	2.308536
6.198727693759281	5.332104	2.309135
6.216280188004435	5.2826037	2.2983916
6.233832828242885	5.1495934	2.2692716
6.251385614890126	5.1182904	2.262364
6.268938548361669	5.054056	2.2481227
6.286491629073067	4.987208	2.2332058
6.304044857439898	5.002529	2.2366335
6.321598233877777	5.0456123	2.246244
6.339151758802344	5.070633	2.2518065
6.356705432629277	5.058064	2.249014
6.37425925577428	5.0134487	2.2390733
6.391813228653095	4.9880104	2.2333853
6.409367351681486	4.9827466	2.2322066
6.426921625275259	4.970927	2.2295575
6.44447604985025	4.9718447	2.2297633
6.46203062582232	4.994581	2.234856
6.47958535360737	5.0208936	2.240735
6.497140233621328	5.0296745	2.2426937
6.514695266280161	5.0142493	2.2392519
6.532250451999859	5.010459	2.2384055
6.549805791196454	5.0025477	2.2366376
6.567361284286002	4.9292383	2.2201889
6.584916931684597	4.973026	2.2300282
6.602472733808367	4.985427	2.232807
6.6200286910734665	5.0307035	2.242923
6.637584803896092	5.01517	2.2394576
6.655141072692462	4.9698205	2.2293093
6.672697497878842	5.001315	2.236362
6.690254079871514	4.9809523	2.2318046
6.707810819086808	5.045313	2.2461774
6.725367715941078	4.953309	2.225603
6.742924770850719	4.9359736	2.2217052
6.760481984232151	4.940974	2.2228303
6.778039356501836	5.012663	2.2388978
6.795596888076266	5.0164475	2.2397428
6.813154579371963	4.969001	2.2291255
6.830712430805492	4.9242806	2.219072
6.84827044279344	4.9155016	2.217093
6.865828615752445	4.9175987	2.217566
6.883386950099159	4.9940677	2.234741
6.900945446250287	5.0390043	2.2447727
6.918504104622553	5.0260844	2.241893
6.936062925632727	5.0619035	2.2498674
6.953621909697607	5.03275	2.243379
6.971181057234028	5.0362716	2.244164
6.988740368658859	5.091051	2.2563357
7.006299844389007	5.1086593	2.2602344
7.023859484841407	5.1897593	2.2781043
7.041419290433036	5.2572966	2.2928796
7.058979261580902	5.379356	2.3193438
7.0765393987020495	5.635846	2.3739936
7.094099702213559	5.994374	2.4483411
7.111660172532549	6.4483743	2.539365
7.129220810076164	6.796217	2.6069555
7.146781615261595	7.451653	2.7297716
7.16434258850606	7.6925926	2.7735524
7.181903730226821	8.199286	2.8634396
7.1994650408411704	8.252045	2.8726373
7.217026520766437	8.306699	2.8821344
7.234588170419983	8.558831	2.925548
7.252149990219215	8.558573	2.9255037
7.269711980581568	8.497127	2.914983
7.2872741419245175	8.280445	2.8775764
7.304836474665574	7.841509	2.8002694
7.322398979222286	7.522196	2.7426622
7.339961656012233	7.2023892	2.6837268
7.357524505453039	6.7455125	2.5972126
7.375087527962357	6.390721	2.5279875
7.392650723957886	6.134069	2.4767053
7.410214093857353	5.9519453	2.4396608
7.427777638078528	5.8417726	2.416976
7.445341357039213	5.758993	2.3997903
7.4629052511572525	5.5894794	2.364208
7.480469320850524	5.485819	2.3421824
7.498033566536948	5.3675594	2.3167994
7.5155979886344735	5.2695565	2.2955515
7.5331625875610975	5.1899824	2.2781532
7.550727363734844	5.193454	2.278915
7.568292317573788	5.2307034	2.2870731
7.585857449496025	5.285725	2.2990706
7.603422759919705	5.288199	2.2996085
7.620988249263007	5.310662	2.3044872
7.638553917944147	5.312506	2.3048875
7.656119766381391	5.3247476	2.3075414
7.673685794993023	5.2401547	2.2891383
7.691252004197388	5.179168	2.2757785
7.70881839441285	5.1552653	2.270521
7.726384966057826	5.256631	2.2927344
7.743951719550762	5.338916	2.3106093
7.761518655310149	5.3201933	2.3065543
7.779085773754511	5.265511	2.29467
7.796653075302419	5.2418947	2.2895184
7.814220560372475	5.2573533	2.292892
7.831788229383323	5.340023	2.310849
7.8493560827536495	5.3126354	2.3049154
7.866924120902174	5.3083606	2.303988
7.884492344247663	5.2930202	2.3006566
7.9020607532089135	5.304098	2.3030627
7.919629348204771	5.3466396	2.3122802
7.937198129654115	5.343144	2.3115242
7.954767097975865	5.311918	2.3047597
7.972336253588986	5.317189	2.3059032
7.989905596912472	5.3925705	2.322191
8.007475128365371	5.4479237	2.3340788
8.025044848366756	5.5459757	2.3549895
8.042614757335754	5.706545	2.3888376
8.060184855691523	5.775201	2.4031649
8.07775514385327	5.8817534	2.4252326
8.095325622240228	5.870969	2.4230082
8.112896291271687	5.850653	2.4188123
8.130467151366968	5.8879995	2.42652
8.148038202945436	5.92762	2.4346704
8.165609446426497	5.9897127	2.447389
8.183180882229594	6.055761	2.4608455
8.200752510774217	6.0885024	2.467489
8.218324332479893	6.0808935	2.4659467
8.235896347766193	6.0094705	2.4514222
8.253468557052724	5.9885135	2.447144
8.27104096075914	5.9176774	2.4326277
8.288613559305137	6.0065303	2.4508224
8.306186353110448	6.1011486	2.4700503
8.32375934259485	6.2333264	2.496663
8.341332528178162	6.222125	2.4944189
8.358905910280246	6.315644	2.5130944
8.376479489321003	6.303419	2.5106611
8.394053265720377	6.39583	2.528998
8.411627239898356	6.3370504	2.51735
8.42920141227497	6.33948	2.5178323
8.44677578327029	6.35569	2.5210495
8.464350353304427	6.312484	2.5124657
8.48192512279754	6.287796	2.5075479
8.499500092169827	6.176983	2.4853537
8.51707526184153	6.1123376	2.4723141
8.534650632232934	6.1311207	2.47611
8.552226203764365	6.124271	2.4747264
8.569801976856192	6.2047615	2.4909358
8.587377951928834	6.2332864	2.496655
8.60495412940274	6.312048	2.512379
8.622530509698416	6.289468	2.5078812
8.6401070932364	6.3933487	2.5285072
8.657683880437283	6.522472	2.553913
8.675260871721695	6.771968	2.6023004
8.692838067510303	7.035041	2.6523652
8.710415468223834	7.208467	2.6848588
8.727993074283043	7.308343	2.7033947
8.745570886108737	7.2316284	2.6891687
8.763148904121765	7.2417135	2.6910431
8.78072712874302	7.2356577	2.6899178
8.798305560393441	7.533486	2.7447197
8.815884199494006	7.6328664	2.7627642
8.833463046465745	7.848845	2.801579
8.851042101729728	7.9788117	2.8246791
8.86862136570707	8.27741	2.8770487
8.886200838818924	8.484225	2.9127693
8.903780521486505	8.462779	2.9090855
8.921360414131055	8.521449	2.919152
8.938940517173874	8.631484	2.9379387
8.956520831036297	8.752873	2.9585257
8.97410135613971	9.056403	3.0093858
8.99168209290554	9.235812	3.039048
9.009263041755265	9.464901	3.0765078
9.026844203110405	9.675874	3.1106067
9.044425577392525	9.91187	3.1483123
9.062007165023239	9.989443	3.160608
9.079588966424197	10.232475	3.198824
9.097170982017108	10.306379	3.210355
9.11475321222372	11.267102	3.3566504
9.132335657465825	12.192329	3.4917517
9.149918318165264	12.267139	3.5024476
9.167501194743924	12.710187	3.565135
9.18508428762374	12.372237	3.517419
9.202667597226693	12.371703	3.5173433
9.220251123974803	12.067339	3.4738076
9.237834868290143	11.735559	3.4257202
9.255418830594836	11.498185	3.3908975
9.273003011311046	10.992435	3.3154843
9.290587410860985	10.807636	3.287497
9.308172029666911	10.310135	3.21094
9.32575686815113	10.009658	3.1638043
9.343341926735997	8.83445	2.9722803
9.360927205843916	8.627421	2.9372473
9.378512705897327	8.485505	2.9129891
9.396098427318728	8.283197	2.8780544
9.413684370530664	8.135121	2.8522134
9.431270535955722	7.9532533	2.8201513
9.448856924016539	7.8967323	2.8101125
9.466443535135806	7.79755	2.7924094
9.484030369736251	7.8816586	2.807429
9.501617428240658	7.883762	2.8078036
9.519204711071852	7.830151	2.7982407
9.536792218652714	7.796307	2.7921867
9.55437995140617	7.7926455	2.791531
9.571967909755191	7.763209	2.7862535
9.589556094122802	7.812661	2.7951138
9.60714450493207	7.886487	2.808289
9.624733142606116	7.9994135	2.8283234
9.642322007568108	8.046808	2.8366897
9.659911100241267	8.041762	2.8358002
9.677500421048851	8.030091	2.8337417
9.695089970414175	8.095942	2.845337
9.712679748760609	8.1502	2.8548555
9.730269756511557	8.202227	2.8639529
9.747859994090492	8.147586	2.8543975
9.765450461920915	8.176393	2.8594391
9.78304116042639	8.172294	2.8587224
9.800632090030527	8.19574	2.8628201
9.81822325115699	8.241467	2.8707957
9.835814644229481	8.298927	2.880786
9.853406269671762	8.295739	2.8802326
9.870998127907646	8.265186	2.8749237
9.888590219360985	8.264315	2.874772
9.906182544455698	8.327075	2.885667
9.923775103615734	8.376032	2.8941374
9.941367897265108	8.437854	2.9047985
9.958960925827878	8.455879	2.9078994
9.97655418972816	8.47535	2.9112456
9.994147689390106	8.401914	2.8986053
10.011741425237934	8.335766	2.8871727
10.029335397695904	8.342142	2.8882766
10.04692960718833	8.342823	2.8883946
10.06452405413958	8.250439	2.8723576
10.082118738974064	8.188906	2.8616264
10.099713662116246	8.145174	2.853975
10.117308823990651	8.207479	2.8648698
10.134904225021844	8.264597	2.8748212
10.152499865634445	8.26283	2.8745139
10.170095746253125	8.229402	2.8686934
10.18769186730261	8.175694	2.859317
10.205288229207675	8.19208	2.862181
10.222884832393145	8.208063	2.8649716
10.2404816772839	8.209488	2.8652203
10.258078764304868	8.192467	2.8622487
10.275676093881035	8.158998	2.856396
10.293273666437438	8.097688	2.8456435
10.310871482399158	8.180376	2.8601356
10.32846954219134	8.236069	2.8698552
10.346067846239173	8.267785	2.8753757
10.363666394967908	8.271461	2.8760147
10.38126518880283	8.311452	2.882959
10.398864228169298	8.328844	2.8859737
10.416463513492713	8.237535	2.8701108
10.434063045198531	8.103158	2.8466046
10.451662823712262	8.099239	2.8459163
10.469262849459467	8.160974	2.8567417
10.486863122865758	8.204905	2.8644204
10.504463644356806	8.183789	2.8607323
10.522064414358338	8.092683	2.844764
10.539665433296118	8.075447	2.8417332
10.557266701595987	8.0245285	2.8327599
10.574868219683818	7.9181056	2.8139129
10.592469987985552	7.791327	2.7912948
10.610072006927185	7.708406	2.7764015
10.627674276934751	7.5835795	2.75383
10.64527679843435	7.3199544	2.7055414
10.662879571852143	7.14624	2.6732452
10.680482597614331	7.0299006	2.651396
10.698085876147173	6.9952707	2.6448574
10.715689407876988	6.9881573	2.6435122
10.733293193230146	6.9710565	2.6402757
10.750897232633072	6.8405604	2.6154466
10.76850152651225	6.690094	2.5865216
10.786106075294207	6.5674796	2.5627093
10.803710879405534	6.5218854	2.5537982
10.821315939272877	6.538151	2.5569808
10.83892125532294	6.416057	2.5329938
10.856526827982472	6.3572793	2.5213647
10.874132657678285	6.269158	2.5038288
10.891738744837243	6.270655	2.5041277
10.909345089886271	6.229803	2.4959574
10.926951693252343	6.1826277	2.486489
10.944558555362494	6.089642	2.46772
10.96216567664381	5.9525084	2.4397764
10.979773057523436	5.864727	2.4217198
10.997380698428573	5.8389344	2.4163888
11.014988599786477	5.800099	2.4083395
11.032596762024461	5.7108583	2.3897402
11.050205185569892	5.641637	2.375213
11.067813870850198	5.591576	2.3646514
11.085422818292859	5.562168	2.358425
11.10303202832541	5.504726	2.3462152
11.120641501375454	5.4822617	2.341423
11.138251237870636	5.3882427	2.3212588
11.155861238238671	5.322306	2.3070123
11.173471502907317	5.2554607	2.2924793
11.191082032304402	5.256029	2.292603
11.208692826857805	5.2423935	2.2896273
11.226303886995465	5.139013	2.2669392
11.243915213145371	5.0346684	2.2438066
11.261526805735578	4.9119143	2.2162838
11.279138665194196	4.8593245	2.2043877
11.296750791949393	4.790689	2.1887643
11.314363186429393	4.7366147	2.1763766
11.331975849062479	4.681714	2.1637268
11.34958878027699	4.6527567	2.1570249
11.36720198050133	4.639912	2.1540456
11.384815450163948	4.603653	2.1456125
11.402429189693366	4.537999	2.130258
11.420043199518153	4.47104	2.1144834
11.437657480066942	63.44206	7.965052
11.455272031768422	85.19879	9.230319
11.472886855051353	107.59037	10.372578
11.490501950344528	99.18017	9.958924
11.508117318076819	84.53193	9.194125
11.52573295867715	45.901188	6.7750416
11.543348872574514	4.1447325	2.0358615
11.560965060197946	4.0821867	2.0204422
11.57858152197655	4.0385346	2.0096107
11.59619825833949	4.0450325	2.0112267
11.613815269715985	4.0728045	2.018119
11.631432556535323	38.595055	6.212492
11.649050119226837	83.12556	9.117322
11.666667958219929	93.50926	9.670019
11.68428607394406	107.76564	10.381023
11.701904466828756	82.56758	9.086671
11.719523137303586	65.3768	8.085592
11.737142085798196	4.569732	2.1376932
11.754761312742286	3.695923	1.9224783
11.772380818565619	3.670124	1.9157568
11.790000603698015	3.6273549	1.9045616
11.80762066856935	3.6149862	1.9013118
11.825241013609572	3.594611	1.8959459
11.842861639248683	3.5669377	1.8886338
11.860482545916748	3.502371	1.8714622
11.878103734043883	3.4682121	1.8623136
11.895725204060282	3.449294	1.8572276
11.91334695639619	3.471826	1.8632836
11.930968991481919	3.4392095	1.8545105
11.948591309747824	3.3994186	1.8437512
11.966213911624347	3.3352184	1.8262581
11.98383679754198	3.307796	1.8187348
12.001459967931268	3.2995293	1.8164606
12.019083423222835	3.304343	1.8177851
12.036707163847352	3.3073037	1.8185993
12.05433119023556	3.2852538	1.812527
12.071955502818259	3.194274	1.7872531
12.089580102026313	3.1649446	1.7790291
12.107204988290643	3.1489234	1.7745206
12.12483016204224	3.1694467	1.780294
12.142455623712152	3.1320317	1.7697546
12.16008137373149	3.0892587	1.7576287
12.177707412531431	3.0777078	1.7543397
12.19533374054321	3.1002305	1.7607471
12.212960358198126	3.0884666	1.7574034
12.230587265927545	3.0725453	1.7528677
12.248214464162889	3.0438485	1.7446629
12.265841953335649	3.0574422	1.7485543
12.283469733877375	3.0005693	1.7322152
12.301097806219685	2.9814165	1.7266779
12.31872617079425	2.9274857	1.7109897
12.336354828032825	2.9012423	1.7033033
12.353983778367205	2.9023106	1.703617
12.371613022229262	2.9103105	1.7059633
12.389242560050928	2.9048216	1.7043537
12.406872392264201	2.9101708	1.7059222
12.424502519301143	2.8736002	1.6951697
12.442132941593874	2.8638117	1.69228
12.459763659574586	2.8624544	1.6918789
12.477394673675532	2.894618	1.7013577
12.49502598432903	2.9127812	1.7066872
12.51265759196746	2.904145	1.7041552
12.530289497023267	2.8878791	1.6993761
12.547921699928967	2.8215554	1.6797487
12.565554201117134	2.777621	1.6666197
12.583187001020404	2.7851155	1.6688665
12.600820100071486	2.7888896	1.6699969
12.618453498703152	2.7727234	1.6651497
12.636087197348235	2.7705386	1.6644934
12.65372119643964	2.784319	1.6686279
12.671355496410326	2.8006814	1.6735237
12.68899009769333	2.8301475	1.6823043
12.706625000721749	2.892465	1.7007248
12.724260205928752	2.975906	1.7250814
12.741895713747551	2.9838583	1.7273848
12.759531524611454	3.025591	1.7394226
12.777167638953818	3.0203166	1.7379059
12.794804057208072	3.0402477	1.7436306
12.812440779807702	3.058192	1.7487687
12.830077807186271	3.2257435	1.7960355
12.847715139777405	3.253631	1.8037825
12.865352778014795	3.4821024	1.8660393
12.882990722332197	3.5976312	1.8967422
12.90062897316344	3.6810453	1.9186051
12.918267530942412	3.7431028	1.93471
12.935906396103071	3.6230538	1.9034321
12.953545569079449	3.7720582	1.9421787
12.971185050305628	3.5916593	1.8951674
12.988824840215775	3.5842855	1.8932209
13.006464939244115	3.591766	1.8951955
13.024105347824943	3.4405608	1.8548748
13.041746066392617	3.5453382	1.8829068
13.05938709538157	3.3485007	1.8298908
13.077028435226296	3.3209255	1.8223406
13.094670086361363	3.1952202	1.7875179
13.112312049221401	3.1095366	1.7633878
13.129954324241112	3.0357223	1.7423325
13.147596911855258	2.8534389	1.6892124
13.165239812498685	2.856957	1.6902535
13.182883026606293	2.827328	1.681466
13.200526554613058	2.779709	1.667246
13.218170396954017	2.721644	1.6497406
13.235814554064284	2.6939378	1.641322
13.253459026379034	2.702371	1.643889
13.271103814333523	2.7007022	1.6433814
13.288748918363058	2.7112422	1.646585
13.306394338903031	2.6904159	1.6402488
13.32404007638889	2.6596637	1.6308476
13.341686131256164	2.6520588	1.6285143
13.359332503940449	2.6448605	1.6263027
13.376979194877402	2.6732953	1.6350214
13.394626204502751	2.760836	1.6615763
13.412273533252307	2.7944849	1.6716713
13.429921181561937	2.7979414	1.6727048
13.447569149867581	2.743783	1.6564368
13.465217438605247	2.7503693	1.6584238
13.482866048211022	2.682807	1.6379277
13.500514979121052	2.675808	1.6357898
13.518164231771568	2.6497242	1.6277974
13.535813806598844	2.6406398	1.6250045
13.553463704039254	2.6376498	1.6240842
13.571113924529229	2.676968	1.6361443
13.588764468505275	2.7336936	1.6533885
13.606415336403956	2.8003592	1.6734273
13.624066528661917	2.7976696	1.6726236
13.641718045715882	2.8283136	1.6817591
13.659369888002635	2.8898609	1.699959
13.67702205595903	2.9177697	1.708148
13.694674550021993	2.995938	1.7308779
13.712327370628532	3.02709	1.7398535
13.729980518215713	3.1059272	1.7623641
13.747633993220681	3.1564212	1.776632
13.765287796080647	3.1724246	1.7811301
13.7829419272329	3.2103446	1.7917434
13.800596387114801	3.2985384	1.8161879
13.818251176163775	3.3527641	1.8310555
13.835906294817324	3.381382	1.8388535
13.853561743513023	3.425193	1.8507277
13.871217522688525	3.4511733	1.8577334
13.888873632781538	3.5096962	1.8734183
13.906530074229858	3.511204	1.8738207
13.92418684747135	3.5442197	1.8826098
13.941843952943948	3.579378	1.8919244
13.959501391085665	3.553608	1.8851016
13.977159162334578	3.4330163	1.8528401
13.994817267128846	3.3057127	1.8181618
14.012475705906693	3.1787364	1.7829012
14.030134479106424	3.140554	1.7721608
14.047793587166414	3.1175134	1.7656481
14.065453030525108	3.097332	1.7599238
14.083112809621026	3.043034	1.7444295
14.100772924892766	2.9611714	1.7208054
14.118433376778997	2.938008	1.7140619
14.136094165718458	2.8666117	1.6931071
14.153755292149969	2.8048637	1.6747727
14.171416756512416	2.708524	1.6457593
14.189078559244768	2.6245334	1.6200411
14.20674070078606	2.5315418	1.591082
14.224403181575408	2.4679282	1.5709641
14.242066002051999	2.483251	1.5758334
14.259729162655093	2.495049	1.5795724
14.277392663824022	2.4731715	1.5726321
14.295056505998208	2.4355834	1.5606356
14.312720689617128	2.4081042	1.5518067
14.330385215120348	2.3973064	1.5483238
14.348050082947497	2.4082513	1.5518541
14.3657152935383	2.410052	1.5524342
14.383380847332528	2.391033	1.5462965
14.401046744770051	2.3864017	1.5447983
14.418712986290798	2.400408	1.549325
14.436379572334793	2.4125695	1.5532448
14.454046503342123	2.4010668	1.5495377
14.471713779752946	2.4047325	1.55072
14.489381402007504	2.3901541	1.5460123
14.507049370546113	2.393237	1.5470091
14.524717685809168	2.4104452	1.5525608
14.542386348237134	2.423386	1.5567229
14.560055358270553	2.45968	1.5683367
14.577724716350051	2.4858687	1.5766637
14.595394422916325	2.452183	1.5659448
14.61306447841015	2.4682515	1.571067
14.63073488327237	2.443696	1.5632325
14.648405637943917	2.483626	1.5759524
14.6660767428658	2.4853573	1.5765016
14.683748198479094	2.514339	1.5856668
14.701420005224954	2.5212212	1.5878353
14.719092163544628	2.6169436	1.617697
14.73676467387942	2.7054172	1.6448152
14.754437536670727	2.7208118	1.6494883
14.772110752360014	2.7191026	1.6489701
14.78978432138882	2.7112045	1.6465735
14.807458244198777	2.7126846	1.647023
14.82513252123159	2.6872506	1.6392835
14.842807152929028	2.671485	1.6344678
14.860482139732962	2.6456718	1.6265521
14.87815748208531	2.631298	1.6221277
14.8958331804281	2.6641765	1.6322305
14.91350923520342	2.671867	1.6345847
14.931185646853438	2.680387	1.6371888
14.948862415820408	2.6459186	1.626628
14.966539542546656	2.683625	1.6381774
14.98421702747459	2.6934009	1.6411583
15.001894871046696	2.6839738	1.6382838
15.019573073705542	2.6443725	1.6261526
15.037251635893766	2.64958	1.627753
15.054930558054092	2.690084	1.6401476
15.072609840629323	2.7694464	1.6641654
15.090289484062351	2.8944252	1.701301
15.107969488796124	3.1662636	1.7793998
15.125649855273691	3.6380994	1.9073802
15.14333058393817	4.1462507	2.0362344
15.161011675232768	5.1110377	2.2607605
15.17869312960076	6.459643	2.5415828
15.196374947485506	8.346084	2.888959
15.214057129330447	11.4369755	3.3818598
15.231739675579114	16.010607	4.0013256
15.249422586675102	20.90617	4.5723267
15.267105863062092	23.857237	4.884387
15.284789505183847	24.015976	4.90061
15.302473513484218	21.737137	4.66231
15.320157888407127	18.147398	4.2599764
15.337842630396578	14.143468	3.7607803
15.355527739896656	11.097802	3.3313365
15.37321321735153	8.729642	2.9545968
15.39089906320545	6.486227	2.5468073
15.408585277902748	4.923749	2.2189522
15.42627186188783	3.8665917	1.9663651
15.443958815605198	3.3121831	1.8199404
15.461646139499424	3.0174456	1.7370796
15.479333834015168	2.8670404	1.6932337
15.497021899597165	2.780519	1.6674888
15.514710336690234	2.7097647	1.6461363
15.53239914573928	2.5983515	1.6119403
15.550088327189297	2.514122	1.5855983
15.567777881485336	2.497862	1.5804626
15.58546780907256	2.5135164	1.5854074
15.6031581103962	2.5103734	1.5844158
15.620848785901568	2.507186	1.5834095
15.638539836034063	2.4846764	1.5762856
15.656231261239173	2.4452965	1.5637444
15.673923061962451	2.407634	1.5516553
15.691615238649552	2.4306974	1.5590694
15.709307791746202	2.4555283	1.5670125
15.727000721698221	2.4679785	1.5709801
15.744694028951498	2.4782467	1.5742449
15.76238771395202	2.4460826	1.5639957
15.780081777145844	2.3978817	1.5485095
15.797776218979125	2.3607252	1.5364652
15.815471039898094	2.3274732	1.5256058
15.833166240349064	2.3400948	1.5297369
15.850861820778437	2.3519418	1.5336041
15.868557781632699	2.3542936	1.5343708
15.886254123358412	2.3500817	1.5329976
15.903950846402232	2.349177	1.5327024
15.921647951210897	2.3651524	1.5379052
15.939345438231225	2.363021	1.537212
15.957043307910133	2.3686104	1.539029
15.974741560694602	2.3807817	1.5429782
15.992440197031714	2.3873336	1.5450999
16.01013921736862	2.3945467	1.5474323
16.02783862215259	2.3662126	1.5382499
16.045538411830933	2.3692667	1.5392423
16.06323858685107	2.3603365	1.5363387
16.080939147660512	2.3927996	1.5468677
16.09864009470684	2.3878334	1.5452616
16.11634142843774	2.3880115	1.5453192
16.134043149300954	2.3750713	1.5411266
16.15174525774433	2.408028	1.5517821
16.169447754215817	2.4027028	1.5500654
16.18715063916342	2.4037788	1.5504124
16.204853913035244	2.4389615	1.5617175
16.222557576279478	2.4693563	1.5714185
16.240261629344403	22.426924	4.7357073
16.257966072678386	42.944523	6.553207
16.275670906729868	38.07315	6.1703444
16.293376131947387	2.5157537	1.5861127
16.31108174877957	2.5783865	1.6057355
16.328787757675133	2.5953832	1.6110193
16.34649415908287	2.6034849	1.6135318
16.364200953451657	2.633893	1.6229273
16.38190814123048	2.6956735	1.6418506
16.39961572286839	2.7243862	1.6505715
16.41732369881455	2.682064	1.6377008
16.43503206951817	2.6690097	1.6337104
16.45274083542859	2.6953988	1.641767
16.47044999699522	2.7618177	1.6618718
16.488159554667558	2.8228576	1.6801362
16.505869508895184	2.9163363	1.7077284
16.523579860127786	2.9793842	1.7260892
16.541290608815117	3.0038028	1.7331482
16.559001755407035	3.0144312	1.7362118
16.57671330035348	3.0812485	1.7553486
16.59442524410448	3.1702144	1.7805096
16.61213758711015	3.227849	1.7966216
16.629850329820705	3.2496364	1.8026748
16.647563472686436	3.2907846	1.814052
16.665277016157724	3.3643515	1.8342168
16.682990960685053	3.4506917	1.8576038
16.70070530671898	3.4967747	1.8699665
16.718420054710155	3.5338252	1.8798472
16.736135205109335	3.5312173	1.8791534
16.753850758367335	3.5727403	1.8901694
16.771566714935087	3.606968	1.8992019
16.789283075263597	3.6991599	1.92332
16.80699983980398	3.738004	1.9333918
16.82471700900741	3.8323376	1.9576358
16.84243458332518	3.902518	1.9754792
16.860152563208665	3.9972796	1.9993198
16.87787094910932	4.071862	2.0178857
16.89558974147871	4.2088795	2.0515554
16.913308940768466	4.247772	2.0610125
16.931028547430333	4.246143	2.0606172
16.94874856191613	4.2445908	2.0602405
16.966468984677785	4.301658	2.074044
16.98418981616729	4.362007	2.088542
17.00191105683676	4.3982244	2.0971944
17.019632707138374	4.4144664	2.1010633
17.03735476752442	4.491869	2.119403
17.05507723844728	4.5775595	2.1395233
17.072800120359403	4.669518	2.1609068
17.090523413713353	4.662705	2.1593297
17.108247118961785	4.6169667	2.1487129
17.125971236557437	4.6342883	2.1527398
17.143695766953133	4.642413	2.154626
17.161420710601806	4.6707206	2.161185
17.179146067956477	4.6357555	2.1530805
17.19687183947025	4.636582	2.1532724
17.21459802559634	4.6442394	2.1550498
17.232324626788028	4.675023	2.1621802
17.25005164349871	4.6928177	2.1662912
17.267779076181863	4.629152	2.1515465
17.285506925291074	4.6068883	2.1463664
17.30323519127999	4.568585	2.137425
17.320963874602384	4.533235	2.1291394
17.33869297571211	4.5334277	2.1291847
17.356422495063114	4.538126	2.130288
17.37415243310944	4.5267386	2.1276133
17.391882790305218	4.5274796	2.1277876
17.40961356710468	4.5550256	2.1342506
17.42734476396215	4.548658	2.1327584
17.445076381332044	4.5618834	2.1358566
17.462808419668868	4.602696	2.1453896
17.48054087942723	4.7310514	2.175098
17.498273761061835	4.9769616	2.2309105
17.51600706502747	5.475248	2.3399248
17.533740791779024	6.242712	2.498542
17.551474941771485	7.6658587	2.7687287
17.56920951545993	8.782132	2.9634662
17.586944513299528	10.813408	3.2883747
17.60467993574556	12.323665	3.5105078
17.622415783253373	13.87839	3.7253711
17.64015205627843	15.187685	3.897138
17.657888755276293	16.221014	4.027532
17.675625880702604	16.691317	4.0855007
17.69336343301311	16.377964	4.04697
17.71110141266366	15.547861	3.9430776
17.728839820110178	14.573971	3.8175871
17.746578655808705	13.852253	3.7218616
17.764317920215372	12.57363	3.5459316
17.7820576137864	11.247096	3.353669
17.79979773697811	9.286697	3.0474083
17.81753829024692	7.4822774	2.7353752
17.835279274049356	5.8514013	2.418967
17.85302068884201	4.882104	2.2095482
17.870762535081607	4.3043036	2.0746815
17.888504813224934	4.040134	2.0100083
17.90624752372891	3.830298	1.9571147
17.923990667050536	3.71588	1.9276618
17.941734243646895	3.5895135	1.8946011
17.959478253975185	3.4902103	1.8682104
17.9772226984927	3.4029152	1.8446993
17.994967577656833	3.3700633	1.8357732
18.01271289192506	3.3736112	1.8367393
18.030458641754965	3.3325777	1.8255349
18.04820482760425	3.3062816	1.8183184
18.06595144993067	3.3046472	1.8178688
18.083698509192125	3.282879	1.8118718
18.101446005846576	3.3058836	1.8182089
18.119193940352105	3.2923384	1.8144802
18.136942313166887	3.2605925	1.805711
18.1546911247492	3.1943312	1.7872692
18.1724403755574	3.167752	1.7798179
18.19019006604997	3.178875	1.78294
18.207940196685467	3.1815743	1.7836968
18.225690767922575	3.1613698	1.7780241
18.243441780220046	3.1190326	1.7660784
18.261193234036764	3.068487	1.7517097
18.278945129831676	3.0382762	1.7430651
18.29669746806386	3.0139408	1.7360705
18.314450249192483	3.0001762	1.7321017
18.3322034736768	3.0364296	1.7425354
18.349957141976184	3.077626	1.7543163
18.3677112545501	3.0796716	1.7548993
18.385465811858108	3.0580785	1.7487363
18.403220814359884	3.0005326	1.7322046
18.420976262515172	3.0264337	1.7396648
18.43873215678387	3.0059812	1.7337766
18.456488497625923	3.079143	1.7547487
18.474245285501407	3.1803763	1.783361
18.492002520870486	3.3000479	1.8166034
18.50976020419343	3.3268762	1.8239726
18.527518335930615	3.6405487	1.9080222
18.545276916542516	4.2364144	2.0582552
18.563035946489688	4.442343	2.1076868
18.580795426232832	4.901488	2.2139304
18.598555356232698	4.8045807	2.1919353
18.616315736950185	5.1775284	2.2754183
18.63407656884626	4.843118	2.2007086
18.65183785238201	5.0370636	2.2443404
18.669599588018617	4.7388225	2.1768837
18.68736177621737	4.7257314	2.1738749
18.705124417439652	4.688295	2.165247
18.72288751214696	4.491595	2.1193383
18.740651060800886	4.6173587	2.148804
18.758415063863115	4.310796	2.0762455
18.77617952179546	4.4754477	2.1155255
18.793944435059814	4.214354	2.052889
18.811709804118184	4.2691526	2.0661929
18.829475629432675	4.2231092	2.0550206
18.8472419114655	4.0369196	2.0092087
18.86500865067897	4.111663	2.0277236
18.88277584753551	3.7945817	1.9479686
18.90054350249763	3.7848449	1.9454678
18.918311616027957	3.4352822	1.8534515
18.936080188589226	3.3400733	1.8275868
18.953849220644265	3.0774271	1.7542597
18.971618712656007	2.8859873	1.6988194
18.9893886650875	2.8099735	1.6762975
19.007159078401887	8.0295	2.8336372
19.024929953062408	32.92639	5.7381525
19.042701289532435	32.851723	5.7316422
19.060473088275405	25.388752	5.0387254
19.07824534975489	2.6666937	1.6330014
19.096018074434568	2.6299047	1.6216981
19.113791262778197	2.6345894	1.6231419
19.13156491524966	2.6197464	1.618563
19.149339032312945	2.6185455	1.6181921
19.167113614432136	2.557699	1.5992807
19.184888662071433	2.529334	1.5903881
19.202664175695123	2.5044358	1.5825409
19.220440155767623	2.5106232	1.5844946
19.238216602753447	2.5106893	1.5845155
19.2559935171172	2.4708498	1.5718937
19.27377089932361	2.4891	1.5776882
19.291548749837514	2.503967	1.5823928
19.309327069123835	2.515818	1.5861331
19.32710585764763	2.513953	1.5855451
19.344885115874032	2.4840767	1.5760955
19.362664844268313	2.4786675	1.5743785
19.380445043295822	2.4886544	1.577547
19.39822571342203	2.5087347	1.5838985
19.41600685511252	2.5276675	1.589864
19.43378846883297	2.543865	1.5949498
19.451570555049173	2.5559254	1.5987262
19.469353114227037	2.5270636	1.5896741
19.48713614683254	2.512509	1.5850896
19.50491965333182	2.5063965	1.5831603
19.52270363419109	2.4994242	1.5809567
19.540488089876686	2.485825	1.5766499
19.55827302085503	2.4715264	1.5721089
19.576058427592674	2.479037	1.5744958
19.593844310556282	2.4712164	1.5720103
19.611630670212598	2.5135486	1.5854175
19.629417507028506	2.545269	1.59539
19.64720482147098	2.5136416	1.5854468
19.6649926140071	2.4936907	1.5791425
19.682780885104084	2.5356772	1.592381
19.70056963522921	2.5815663	1.6067253
19.718358864849908	2.5708666	1.6033922
19.7361485744337	2.5496156	1.5967516
19.753938764448215	2.5137525	1.5854818
19.771729435361202	2.5356443	1.5923706
19.789520587640506	2.557	1.5990622
19.807312221754092	2.537677	1.5930088
19.825104338170043	2.513325	1.5853469
19.842896937356517	2.4878926	1.5773056
19.860690019781824	2.4973135	1.580289
19.87848358591436	2.499333	1.5809278
19.896277636222635	2.5089855	1.5839777
19.914072171175278	2.4944932	1.5793965
19.931867191241015	2.482453	1.5755802
19.94966269688869	2.4986024	1.5806968
19.967458688587264	2.507833	1.5836139
19.985255166805807	2.494143	1.5792856
20.00305213201348	2.4655876	1.5702189
20.020849584679578	2.429096	1.5585557
20.038647525273507	2.4258323	1.5575083
20.05644595426477	2.4251487	1.5572889
20.07424487212299	2.444791	1.5635828
20.092044279317903	2.4479916	1.564606
20.109844176319353	2.4365568	1.5609474
20.127644563597304	2.4164095	1.5544804
20.145445441621817	2.4442897	1.5634224
20.16324681086307	2.4853723	1.5765064
20.181048671791373	2.4704146	1.5717553
20.198851024877122	2.418945	1.5552958
20.216653870590836	2.4018009	1.5497744
20.234457209403146	2.4163857	1.5544728
20.252261041784802	2.422412	1.55641
20.270065368206662	2.41597	1.5543392
20.287870189139685	2.3737981	1.5407135
20.305675505054968	2.3873181	1.5450948
20.323481316423702	2.3975565	1.5484046
20.341287623717207	2.421678	1.5561742
20.359094427406884	2.373224	1.5405272
20.376901727964288	2.3231862	1.5242002
20.39470952586107	2.3193212	1.5229318
20.41251782156899	2.346406	1.5317982
20.430326615559935	2.3482373	1.532396
20.448135908305886	2.3215113	1.5236506
20.465945700278965	2.3025215	1.5174061
20.483755991951384	2.3350706	1.5280938
20.50156678379548	2.319157	1.5228778
20.519378076283708	2.3136206	1.521059
20.537189869888635	2.297903	1.5158836
20.55500216508294	2.3012047	1.5169722
20.572814962339415	2.2806675	1.5101879
20.59062826213098	2.2945929	1.5147914
20.60844206493066	2.3122134	1.5205964
20.626256371211593	2.3366094	1.5285972
20.644071181447032	2.3672962	1.538602
20.66188649611036	2.3780513	1.5420932
20.67970231567506	2.3424988	1.5305223
20.697518640614742	2.3007894	1.5168353
20.715335471403122	2.3041523	1.5179434
20.73315280851404	2.3207273	1.5233934
20.750970652421447	2.322477	1.5239675
20.768789003599412	2.3297038	1.5263367
20.786607862522136	2.3420377	1.5303718
20.8044272296639	2.299386	1.5163727
20.82224710549913	2.2706084	1.5068538
20.84006749050237	2.2837148	1.5111965
20.857888385148268	3.856305	1.9637476
20.8757097899116	45.930977	6.77724
20.893531705267254	64.796745	8.049643
20.911354131690224	83.81476	9.15504
20.92917706965566	69.06999	8.310836
20.94700051963877	50.135933	7.080673
20.96482448211493	29.406158	5.4227448
20.982648957559622	4.133858	2.033189
21.00047394644843	2.2178013	1.4892285
21.01829944925707	2.1929302	1.4808545
21.036125466461375	2.2623606	1.5041145
21.053951998537297	2.2826078	1.5108302
21.071779045960906	2.2713459	1.5070984
21.089606609208378	2.2243	1.4914087
21.10743468875603	2.2139876	1.4879475
21.12526328508028	2.2000332	1.4832509
21.143092398657675	2.1801775	1.4765424
21.16092202996488	2.1691847	1.4728153
21.17875217947867	2.2018363	1.4838586
21.19658284767596	2.2177136	1.4891989
21.21441403503377	2.2149863	1.488283
21.232245742029225	2.2163754	1.4887496
21.2500779691396	2.2200887	1.4899962
21.26791071684227	2.1864686	1.4786712
21.28574398561475	2.1603928	1.4698274
21.30357777593465	2.168085	1.4724419
21.321412088279704	2.1769526	1.4754499
21.339246923127792	2.1602485	1.4697784
21.357082280956888	2.1560094	1.4683356
21.3749181622451	2.1586318	1.4692283
21.392754567470647	2.1607716	1.4699563
21.41059149711187	2.1457136	1.4648254
21.42842895164726	2.1528068	1.4672446
21.446266931555378	2.1529224	1.467284
21.464105437314945	2.1351519	1.4612159
21.481944469404798	2.1395714	1.4627274
21.49978402830388	2.144034	1.464252
21.51762411449127	2.1487505	1.4658617
21.53546472844617	2.1399937	1.4628717
21.553305870647876	2.1258352	1.4580244
21.571147541575865	2.108086	1.4519249
21.58898974170967	2.0674877	1.4378761
21.60683247152899	2.075474	1.4406506
21.62467573151363	2.0902555	1.4457716
21.642519522143523	2.1155488	1.4544927
21.660363843898722	2.088125	1.4450346
21.6782086972594	2.0754852	1.4406544
21.696054082705864	2.085932	1.4442756
21.713900000718535	2.0882182	1.4450668
21.73174645177795	2.0962658	1.4478487
21.749593436364794	2.0464032	1.4305255
21.767440954959845	2.0121233	1.4184934
21.785289008044032	1.9946434	1.4123185
21.803137596098388	2.0019665	1.4149086
21.820986719604086	1.9858004	1.4091843
21.838836379042412	1.9975487	1.4133466
21.85668657489478	1.992036	1.4113951
21.87453730764273	2.0078497	1.4169861
21.892388577767914	1.9835433	1.4083833
21.91024038575213	1.998108	1.4135445
21.928092732077285	2.0111847	1.4181625
21.945945617225426	1.9975626	1.4133515
21.963799041678694	1.9962513	1.4128876
21.981653005919398	31.315058	5.595986
21.999507510429943	78.14369	8.839892
22.01736255569286	73.0759	8.548444
22.035218142190818	4.1536527	2.0380511
22.05307427040661	1.973097	1.4046696
22.07093094082315	1.969093	1.4032438
22.088788153923474	2.0173059	1.420319
22.106645910190746	2.0108836	1.4180562
22.12450421010827	1.9975659	1.4133527
22.142363054159464	1.9356736	1.3912848
22.16022244282787	1.9173949	1.3847003
22.178082376597164	1.9483767	1.3958427
22.195942855951145	1.9515502	1.396979
22.213803881373742	1.9708586	1.4038727
22.231665453349002	2.008435	1.4171927
22.24952757236111	2.0609224	1.4355913
22.26739023889438	2.0296552	1.4246597
22.28525345343323	2.0228035	1.422253
22.30311721646225	1.9858823	1.4092133
22.320981528466113	1.9724011	1.404422
22.33884638992964	1.9442859	1.3943765
22.356711801337788	1.9642745	1.4015257
22.37457776317561	1.952916	1.3974677
22.392444275928337	1.9591688	1.3997031
22.410311340081282	1.9572645	1.3990227
22.428178956119904	1.9598705	1.3999537
22.446047124529805	1.9405106	1.3930222
22.46391584579669	1.9283236	1.3886409
22.481785120406414	1.9167567	1.3844699
22.49965494884496	1.9319832	1.389958
22.51752533159841	1.9269246	1.3881371
22.53539626915302	1.955411	1.3983601
22.553267761995137	1.9465317	1.3951815
22.571139810611264	1.9636377	1.4012985
22.589012415488025	1.9321342	1.3900123
22.60688557711216	1.9558281	1.3985093
22.624759295970566	1.9181552	1.3849748
22.642633572550263	1.921151	1.386056
22.660508407338362	1.9371753	1.3918245
22.67838380082217	1.9436455	1.3941469
22.696259753489077	1.9363133	1.3915148
22.714136265826614	1.9642576	1.4015198
22.73201333832246	1.9840106	1.4085491
22.74989097146439	1.9415911	1.3934098
22.76776916574035	1.9186337	1.3851476
22.785647921638393	1.8857821	1.3732378
22.803527239646712	1.907786	1.3812263
22.82140712025363	1.9034879	1.3796695
22.839287563947593	1.900281	1.3785068
22.85716857121719	1.8973349	1.3774378
22.875050142551135	1.8978629	1.3776294
22.892932278438277	1.8994206	1.3781947
22.910814979367604	1.9090563	1.3816861
22.928698245828222	1.9356006	1.3912586
22.946582078309387	1.9674993	1.4026757
22.96446647730047	1.9829813	1.4081837
22.98235144329098	1.9692508	1.4032999
23.000236976770562	1.9408277	1.3931359
23.018123078229	1.9126409	1.3829826
23.03600974815619	1.9072691	1.3810391
23.053896987042194	1.8847144	1.372849
23.071784795377173	1.9213785	1.386138
23.08967317365145	1.9341838	1.3907493
23.10756212235546	1.9533253	1.3976141
23.125451641979787	1.940213	1.3929152
23.143341733015134	1.909372	1.3818003
23.161232395952357	1.9219471	1.3863431
23.179123631282426	1.9507278	1.3966845
23.197015439496468	1.9863294	1.409372
23.214907821085717	1.9620038	1.4007155
23.23280077654157	1.9343148	1.3907964
23.250694306355538	1.9352251	1.3911237
23.268588411019277	1.932525	1.3901529
23.28648309102458	1.9222697	1.3864595
23.304378346863356	1.9305048	1.3894261
23.322274179027676	1.9163586	1.3843261
23.340170588009723	1.9114103	1.3825376
23.358067574301852	1.9323477	1.390089
23.37596513839651	1.9443324	1.3943932
23.39386328078629	1.9475551	1.3955483
23.411762001963947	1.9503053	1.3965334
23.429661302422353	1.9441494	1.3943275
23.4475611826545	1.9529597	1.3974833
23.46546164315356	1.9246544	1.3873191
23.48336268441279	1.9107152	1.3822862
23.501264306925638	1.9240371	1.3870966
23.51916651118564	1.946204	1.3950641
23.537069297686497	1.9395586	1.3926804
23.554972666922037	1.8930804	1.3758925
23.57287661938623	1.8849535	1.3729361
23.59078115557318	1.9147546	1.3837466
23.608686275977128	1.9184775	1.3850912
23.62659198109246	1.8800522	1.37115
23.6444982714137	1.8315395	1.3533438
23.66240514743549	1.8505615	1.3603535
23.68031260965263	1.8860677	1.3733418
23.698220658560068	1.9259593	1.3877894
23.716129294652845	1.9469191	1.3953204
23.7340385184262	1.9305032	1.3894255
23.75194833037546	1.9335225	1.3905116
23.769858730996123	1.8965619	1.3771572
23.78776972078382	1.9318475	1.3899091
23.80568130023431	1.9527003	1.3973905
23.823593469843495	1.9209667	1.3859894
23.841506230107424	1.9102693	1.3821249
23.859419581522275	1.9123832	1.3828894
23.87733352458438	1.9255159	1.3876296
23.89524805979019	1.9235139	1.386908
23.913163187636318	1.9174515	1.3847207
23.931078908619508	1.88631	1.37343
23.948995223236633	1.9111325	1.3824371
23.966912131984735	1.9347786	1.3909632
23.98482963536096	1.9813118	1.4075907
24.002747733862616	1.9845065	1.4087251
24.020666427987155	2.0075586	1.4168833
24.038585718232156	2.0386584	1.4278159
24.056505605095353	2.0584338	1.4347243
24.074426089074617	2.0630214	1.4363222
24.092347170667946	2.045706	1.4302818
24.110268850373515	2.0189838	1.4209095
24.128191128689586	2.005874	1.4162887
24.146114006114626	1.9955529	1.4126405
24.164037483147187	2.0250292	1.4230351
24.181961560286005	2.0483692	1.4312124
24.199886238029926	2.0568352	1.434167
24.21781151687797	2.0031211	1.4153166
24.235737397329274	1.9735925	1.4048461
24.253663879883135	2.00409	1.4156588
24.271590965038975	2.0419323	1.428962
24.289518653296376	2.0280683	1.4241027
24.30744694515505	2.004497	1.4158026
24.32537584111486	1.9979384	1.4134845
24.34330534167581	2.0296392	1.4246541
24.361235447338046	2.0924902	1.4465442
24.379166158601876	2.123222	1.457128
24.39709747596772	2.026544	1.4235674
24.41502939993615	1.9066019	1.3807975
24.432961931007917	1.8765321	1.3698657
24.450895069683856	1.9125619	1.382954
24.468828816465	1.9763882	1.4058408
24.4867631718525	1.9723308	1.404397
24.504698136347656	1.9718069	1.4042104
24.52263371045192	1.9945409	1.4122822
24.540569894666874	2.064741	1.4369206
24.558506689494266	2.056138	1.433924
24.57644409543597	2.0050461	1.4159966
24.594382112994012	1.986424	1.4094056
24.61232074267057	1.9520203	1.3971472
24.630259984967953	1.9620082	1.400717
24.64819984038863	1.9055381	1.3804123
24.66614030943522	1.9240023	1.3870841
24.684081392610462	1.9002731	1.3785039
24.702023090417274	1.9145312	1.3836659
24.7199654033587	1.9660125	1.4021456
24.737908331937927	2.00998	1.4177376
24.755851876658305	2.0891156	1.4453773
24.773796038023324	2.0773206	1.4412913
24.79174081653661	2.0773294	1.4412943
24.809686212701962	2.0544212	1.4333252
24.827632227023294	2.0527818	1.4327532
24.8455788600047	2.060914	1.4355884
24.8635261121504	2.0903232	1.445795
24.88147398396475	2.11369	1.4538535
24.899422475952303	2.1250594	1.4577583
24.917371588617698	2.146126	1.4649662
24.935321322465768	2.1764584	1.4752824
24.953271678001478	2.2837284	1.511201
24.97122265572994	2.4449406	1.5636306
24.989174256156414	2.7261262	1.6510985
25.00712647978632	3.1610851	1.7779441
25.02507932712521	3.7139733	1.9271672
25.043032798678798	4.226554	2.0558584
25.060986894952933	4.829125	2.197527
25.078941616453637	5.550391	2.3559268
25.096896963687055	6.4285655	2.5354617
25.114852937159508	7.5135555	2.7410865
25.132809537377444	7.9760675	2.8241932
25.150766764847468	8.034418	2.8345048
25.168724620076347	7.459178	2.7311497
25.186683103570985	6.4934936	2.5482335
25.204642215838426	5.474096	2.3396785
25.222601957385894	4.296777	2.072867
25.24056232872074	3.337101	1.8267734
25.25852333035048	2.658368	1.6304502
25.276484962782778	2.2758133	1.5085799
25.294447226525435	2.0827847	1.4431856
25.312410122086423	2.013459	1.418964
25.330373649973843	1.924317	1.3871975
25.348337810695988	1.8778874	1.3703603
25.366302604761245	1.8773003	1.370146
25.384268032678207	1.9125607	1.3829536
25.40223409495558	1.9192159	1.3853577
25.420200792102257	1.9481704	1.3957688
25.438168124627246	1.9044398	1.3800144
25.45613609303974	1.8487916	1.3597027
25.474104697849057	1.8236238	1.3504162
25.492073939564698	1.832014	1.3535191
25.510043818696285	1.8874164	1.3738327
25.528014335753614	1.8829256	1.3721974
25.54598549124664	1.8966916	1.3772043
25.56395728568544	1.869573	1.3673233
25.58192971958028	1.8359646	1.3549777
25.59990279344156	1.7716638	1.3310386
25.617876507779833	1.7739354	1.3318917
25.635850863105826	1.8432539	1.3576648
25.653825859930386	1.9271659	1.388224
25.671801498764548	1.911914	1.3827198
25.68977778011949	1.8236227	1.3504157
25.707754704506524	1.8138154	1.3467796
25.725732272437153	1.8076346	1.344483
25.743710484423012	1.834545	1.3544538
25.761689340975888	1.8510772	1.360543
25.77966884260774	1.8971541	1.3773721
25.797648989830662	1.9139638	1.3834608
25.815629783156922	1.8770578	1.3700576
25.83361122309895	1.8071021	1.344285
25.85159331016929	1.8068264	1.3441824
25.869576044880695	1.8503491	1.3602754
25.887559427746034	1.8883122	1.3741587
25.90554345927836	1.8877528	1.3739551
25.92352813999086	1.8640398	1.3652984
25.94151347039689	1.8421844	1.357271
25.959499451009965	1.8848487	1.372898
25.97748608234374	1.8744322	1.369099
25.995473364912062	1.8031569	1.3428167
26.013461299228904	1.7805393	1.3343685
26.03144988580839	1.8149198	1.3471895
26.04943912516483	1.8491817	1.3598462
26.067429017812675	1.848228	1.3594955
26.085419564266537	1.857863	1.3630345
26.103410765041186	1.893019	1.3758702
26.12140262065155	1.9020556	1.3791503
26.139395131612723	1.918758	1.3851924
26.157388298439948	1.8957651	1.3768679
26.17538212164861	1.8514026	1.3606626
26.193376601754295	1.8328756	1.3538374
26.211371739272714	1.8530191	1.3612565
26.229367534719746	1.8336381	1.354119
26.247363988611433	1.812899	1.3464394
26.26536110146397	1.8180407	1.3483474
26.283358873793727	1.8494778	1.3599551
26.301357306117204	1.8518633	1.3608319
26.319356398951104	1.8163868	1.347734
26.33735615281224	1.8095778	1.3452055
26.35535656821762	1.7849478	1.3360194
26.373357645684404	1.7789785	1.3337835
26.39135938572991	1.760678	1.3269055
26.409361788871614	1.7554141	1.3249204
26.427364855627165	1.8354081	1.3547723
26.445368586514352	1.8396223	1.3563267
26.46337298205115	1.806454	1.3440439
26.48137804275568	1.8175137	1.3481519
26.499383769146217	1.8282026	1.3521104
26.517390161741215	1.8485132	1.3596004
26.53539722105928	1.8668861	1.3663404
26.553404947619182	1.8367174	1.3552555
26.571413341939856	1.8071425	1.3443
26.589422404540397	1.8118466	1.3460485
26.60743213594006	1.8271314	1.3517143
26.62544253665827	1.8469595	1.3590288
26.64345360721459	1.8107544	1.3456428
26.66146534812879	1.7470284	1.321752
26.679477759920758	1.7626431	1.3276457
26.69749084311057	1.7674618	1.3294592
26.71550459821847	1.786199	1.3364875
26.733519025764842	1.8148477	1.3471628
26.751534126270258	1.8625934	1.3647686
26.769549900255434	1.827368	1.3518018
26.787566348241267	1.7974104	1.3406754
26.80558347074881	1.7823738	1.3350557
26.823601268299267	1.80862	1.3448495
26.841619741414036	1.8153539	1.3473507
26.85963889061465	1.8332939	1.3539919
26.877658716422832	1.7745397	1.3321185
26.89567921936045	1.761372	1.3271669
26.913700399949544	1.7340086	1.3168176
26.93172225871233	1.765507	1.3287238
26.949744796171174	1.8209342	1.34942
26.967768012848605	1.8370825	1.3553902
26.98579190926733	1.7877082	1.337052
27.003816485950225	1.7941705	1.3394665
27.021841743420318	1.8206172	1.3493025
27.039867682200814	1.8147693	1.3471338
27.057894302815072	1.8209238	1.3494161
27.07592160578664	1.85176	1.360794
27.0939495916392	1.8574543	1.3628845
27.111978260896635	1.8681023	1.3667854
27.13000761408296	1.900265	1.3785009
27.148037651722397	1.8199613	1.3490595
27.166068374339304	1.7444884	1.3207908
27.184099782458215	1.7509217	1.323224
27.20213187660384	1.7823404	1.3350432
27.22016465730105	1.7948173	1.339708
27.23819812507487	1.8128344	1.3464154
27.256232280450533	1.8067374	1.3441494
27.274267123953383	1.8226094	1.3500406
27.292302656108987	1.84702	1.3590511
27.31033887744306	1.8178049	1.3482599
27.32837578848146	1.8062233	1.343958
27.34641338975026	1.831039	1.3531588
27.364451681775673	1.8851645	1.3730129
27.382490665084074	1.8847317	1.3728553
27.400530340202046	1.8439893	1.3579357
27.41857070765629	1.8271333	1.351715
27.436611767973726	1.7884582	1.3373325
27.454653521681404	1.8013068	1.3421277
27.472695969306564	1.8105618	1.3455712
27.490739111376627	1.8287159	1.3523003
27.508782948419153	1.7813869	1.334686
27.526827480961902	1.7818207	1.3348485
27.54487270953279	1.8220011	1.3498152
27.562918634659898	1.804616	1.34336
27.580965256871508	1.7824498	1.3350842
27.599012576696026	1.7912092	1.3383607
27.617060594662068	1.7895304	1.3377333
27.63510931129842	1.7705587	1.3306234
27.65315872713401	1.7868686	1.336738
27.67120884269797	1.8317627	1.3534262
27.68925965851958	1.8443716	1.3580765
27.707311175128307	1.820768	1.3493583
27.725363393053787	1.7951334	1.3398259
27.74341631282583	1.8409988	1.356834
27.7614699349744	1.8812749	1.3715957
27.77952426002968	2.102742	1.4500834
27.797579288521973	2.1567028	1.4685717
27.815635020981784	2.5983655	1.6119447
27.83369145793979	2.6306412	1.6219251
27.85174859992682	2.4249809	1.557235
27.869806447473923	2.303703	1.5177954
27.887865001112267	2.0193584	1.4210413
27.905924261373233	1.9061929	1.3806494
27.92398422878836	1.8223581	1.3499475
27.94204490388936	1.7649682	1.328521
27.96010628720813	1.746639	1.3216047
27.978168379276728	1.8095626	1.3451998
27.9962311806274	1.8328556	1.35383
28.014294691792568	1.8650676	1.3656747
28.0323589133048	1.8673173	1.3664982
28.050423845696887	1.8676337	1.366614
28.068489489501758	1.8269988	1.3516653
28.086555845252523	1.8436881	1.3578248
28.104622913482487	1.9076805	1.381188
28.122690694725115	1.9453001	1.3947401
28.14075918951405	1.8900262	1.3747822
28.15882839838312	1.8809977	1.3714947
28.176898321866304	1.9015162	1.3789548
28.1949689604978	1.9052249	1.3802989
28.213040314811945	1.8776917	1.370289
28.23111238534327	1.9038348	1.3797952
28.249185172626493	1.9549017	1.398178
28.267258677196473	1.9556116	1.3984318
28.285332899588294	1.9276485	1.3883978
28.303407840337172	1.9347297	1.3909456
28.321483499978545	1.9565916	1.3987821
28.33955987904799	1.9713417	1.4040447
28.357636978081285	1.9535196	1.3976836
28.37571479761439	1.9245843	1.3872938
28.393793338183425	1.9482267	1.3957889
28.41187260032469	2.0127366	1.4187095
28.429952584574686	2.0465267	1.4305687
28.448033291470065	2.005377	1.4161134
28.46611472154769	1.9732021	1.4047071
28.484196875344566	1.9829272	1.4081645
28.502279753397914	1.974505	1.4051708
28.52036335624511	1.9741019	1.4050274
28.538447684423716	1.96477	1.4017025
28.556532738471482	1.9837143	1.4084439
28.574618518926325	2.011499	1.4182732
28.59270502632635	2.0080013	1.4170396
28.61079226120985	1.9778551	1.4063624
28.628880224115274	1.954648	1.3980873
28.646968915581287	1.9356397	1.3912727
28.66505833614671	1.9702444	1.403654
28.68314848635055	1.9322252	1.390045
28.701239366732004	1.9676837	1.4027414
28.71933097783044	2.079959	1.4422063
28.737423320185403	2.1381893	1.4622549
28.75551639433665	2.1429894	1.4638953
28.773610200824074	2.1553373	1.4681067
28.791704740187793	2.1393282	1.4626442
28.80980001296809	2.1070678	1.4515742
28.827896019705413	2.0688238	1.4383407
28.845992760940433	2.0908203	1.445967
28.86409023721397	2.1142209	1.4540361
28.88218844906704	2.14501	1.4645853
28.900287397040845	2.1780555	1.4758236
28.918387081676755	2.2148404	1.488234
28.936487503516343	2.2496054	1.4998685
28.954588663101365	2.294174	1.5146531
28.97269056097374	2.3141232	1.5212243
28.990793197675597	2.369723	1.5393904
29.00889657374923	2.352868	1.5339061
29.027000689737125	2.3722303	1.5402046
29.04510554618196	2.4103389	1.5525266
29.06321114362659	2.4151683	1.5540812
29.08131748261405	2.4259307	1.5575399
29.099424563687567	2.5035875	1.5822729
29.11753238739057	2.563149	1.6009837
29.13564095426663	2.5408852	1.5940155
29.15375026485954	2.5593076	1.5997837
29.171860319713275	2.6357102	1.6234871
29.18997111937199	2.6935675	1.6412091
29.20808266438002	2.7153873	1.6478432
29.226194955281898	2.7025964	1.6439575
29.244307992622335	2.73109	1.652601
29.26242177694624	2.8498287	1.6881436
29.2805363087987	2.9196537	1.7086993
29.29865158872498	2.857969	1.6905528
29.316767617270557	2.8172646	1.6784708
29.334884394981064	2.8637908	1.6922739
29.353001922402367	2.9431708	1.7155672
29.37112020008047	3.0555987	1.7480271
29.389239228561596	3.187709	1.7854156
29.407359008392152	3.3700778	1.8357772
29.42547954011872	3.645176	1.9092344
29.44360082428809	4.250611	2.061701
29.46172286144722	5.3446116	2.3118417
29.479845652143283	6.9077835	2.6282663
29.497969196923606	8.791615	2.9650657
29.516093496335728	11.0293865	3.321052
29.5342185509274	13.6814	3.6988378
29.55234436124651	15.96875	3.9960918
29.570470927841175	17.212732	4.148823
29.588598251259686	17.011654	4.1245184
29.60672633205055	15.685007	3.9604301
29.624855170762405	13.6761465	3.6981275
29.642984767944146	11.227728	3.3507802
29.66111512414481	8.712236	2.9516497
29.67924623991366	6.5233326	2.5540814
29.697378115800138	5.082664	2.2544765
29.71551075235387	4.2356586	2.0580716
29.733644150124675	3.7709227	1.9418864
29.751778309662576	3.5397236	1.8814154
29.769913231517766	3.3957005	1.8427427
29.78804891624066	3.314459	1.8205656
29.806185364381818	3.3367503	1.8266774
29.82432257649206	3.3425593	1.8282667
29.842460553122333	3.2282348	1.7967288
29.86059929482382	3.1965277	1.7878836
29.878738802147872	3.2327192	1.7979764
29.896879075646048	3.2789378	1.8107837
29.915020115870114	3.257586	1.8048784
29.933161923371976	3.1876197	1.7853906
29.951304498703777	3.1863325	1.7850301
29.969447842417857	3.225774	1.796044
29.987591955066733	3.280408	1.8111897
30.005736837203123	3.2241857	1.7956017
30.023882489379943	3.2165964	1.7934872
30.04202891215028	3.2257822	1.7960463
30.060176106067455	3.1601157	1.7776715
30.078324071684946	3.1039724	1.7618095
30.09647280955646	3.0885613	1.7574303
30.114622320235863	3.1160135	1.7652234
30.132772604277257	3.1466746	1.7738869
30.1509236622349	3.1516807	1.7752974
30.16907549466328	3.0577686	1.7486477
30.18722810211705	2.9762857	1.7251915
30.205381485151097	2.9556797	1.7192091
30.22353564432045	2.9879062	1.7285562
30.241690580180403	3.022529	1.7385422
30.25984629328638	3.0389514	1.7432588
30.278002784194037	3.0297918	1.7406297
30.296160053459246	2.9848695	1.7276775
30.314318101638033	2.9400544	1.7146587
30.332476929286646	2.9166677	1.7078254
30.35063653696153	2.8749356	1.6955636
30.368796925219307	2.8600645	1.6911725
30.386958094616844	2.8358533	1.6839992
30.40512004571115	2.8037803	1.6744492
30.423282779059463	2.812525	1.6770585
30.441446295219233	2.7783942	1.6668516
30.459610594748067	2.7630675	1.6622478
30.47777567820382	2.7552884	1.6599061
30.495941546144504	2.7645185	1.6626841
30.51410819912835	2.8126853	1.6771063
30.532275637713795	2.7807143	1.6675473
30.55044386245946	2.741195	1.6556555
30.56861287392416	2.7644162	1.6626533
30.586782672666956	2.8354619	1.683883
30.604953259247047	2.8166714	1.6782942
30.623124634223885	2.7767687	1.666364
30.641296798157075	2.7332265	1.6532472
30.659469751606462	2.7233121	1.6502461
30.677643495132074	2.7476642	1.657608
30.695818029294152	2.734894	1.6537515
30.713993354653116	2.723613	1.6503372
30.73216947176962	2.7342753	1.6535645
30.75034638120448	2.7224247	1.6499772
30.768524083518756	2.700885	1.6434369
30.786702579273673	2.7226994	1.6500604
30.80488186903069	2.833371	1.683262
30.82306195335144	2.876175	1.6959289
30.841242832797782	2.9626014	1.721221
30.85942450793176	3.235417	1.7987264
30.877606979315637	3.6291308	1.9050277
30.895790247511883	3.9644606	1.9910953
30.913974313083134	4.38282	2.0935185
30.932159176592283	4.634876	2.1528761
30.95034483860237	4.608824	2.1468172
30.968531299676698	4.4476013	2.1089337
30.98671856037873	4.200687	2.0495577
31.00490662127215	3.855768	1.963611
31.023095482920848	3.4828746	1.8662461
31.04128514588892	3.0411212	1.7438811
31.059475610740662	2.6757472	1.6357712
31.07766687804056	2.5784445	1.6057535
31.09585894835335	2.5636182	1.6011302
31.11405182224393	2.554209	1.5981892
31.132245500277417	2.479232	1.5745578
31.15043998301914	2.52268	1.5882947
31.168635271034628	2.5123484	1.5850389
31.18683136488964	2.4216733	1.5561726
31.20502826515008	2.4527545	1.5661272
31.223225972382135	2.4910488	1.5783057
31.241424487152155	2.4721925	1.5723207
31.259623810026692	2.441474	1.5625217
31.27782394157253	2.4544935	1.5666823
31.296024882356644	2.393843	1.5472049
31.314226632946237	2.372475	1.540284
31.332429193908684	2.4272215	1.5579543
31.350632565811598	2.4381964	1.5614725
31.368836749222787	2.3606486	1.5364403
31.387041744710295	2.3691027	1.539189
31.40524755284232	2.502328	1.5818748
31.423454174187317	2.584736	1.6077114
31.441661609313922	2.6279938	1.6211088
31.459869858791002	2.5465887	1.5958035
31.478078923187628	2.4336271	1.5600086
31.496288803073064	2.387907	1.5452855
31.514499499016807	2.377357	1.541868
31.532711011588546	2.285793	1.511884
31.550923341358178	2.24703	1.4990097
31.56913648889584	2.2862468	1.5120339
31.587350454771844	2.3501265	1.5330123
31.605565239556732	2.335066	1.5280923
31.62378084382127	2.3156512	1.5217264
31.641997268136382	2.2759776	1.5086343
31.660214513073274	2.2856708	1.5118434
31.67843257920331	2.3326566	1.5273037
31.6966514670981	2.3475847	1.532183
31.71487117732944	2.2988937	1.5162103
31.733091710469346	2.2769222	1.5089474
31.751313067090052	2.2886763	1.5128372
31.769535247764008	2.2631013	1.5043608
31.787758253063878	2.209128	1.4863136
31.805982083562526	2.16258	1.4705713
31.824206739833024	2.2141798	1.488012
31.84243222244869	2.230388	1.4934484
31.860658531983013	2.236868	1.4956162
31.878885669009737	2.238293	1.4960926
31.897113634102784	2.226133	1.4920231
31.91534242783632	2.2298772	1.4932773
31.933572050784694	2.266727	1.5055653
31.951802503522508	2.2913284	1.5137135
31.970033786624548	2.2433217	1.4977722
31.988265900665834	2.1946387	1.4814314
32.006498846221575	2.1756375	1.4750042
32.02473262386724	2.2189448	1.4896123
32.04296723417845	2.2051687	1.4849811
32.0612026777311	2.146301	1.4650259
32.07943895510129	2.1151853	1.4543676
32.097676066865304	2.2061536	1.4853126
32.115914013599685	2.1927276	1.4807861
32.13415279588115	2.2091606	1.4863245
32.152392414286666	2.2445881	1.4981949
32.1706328693934	2.1931877	1.4809415
32.18887416177875	2.0568578	1.434175
32.20711629202032	2.0004952	1.4143887
32.225359260695924	2.1253974	1.4578743
32.243603068383614	2.200365	1.4833628
32.26184771566166	2.240662	1.4968841
32.28009320310852	2.2354953	1.4951572
32.2983395313029	2.2359416	1.4953065
32.31658670082372	2.221272	1.4903933
32.33483471225012	2.1721814	1.4738322
32.35308356616143	2.158798	1.4692849
32.371333263137245	2.176875	1.4754237
32.38958380375734	2.1375408	1.4620332
32.407835188601744	2.0960884	1.4477874
32.42608741825067	2.1660786	1.4717604
32.444340493284585	2.257235	1.5024097
32.46259441428416	2.1303241	1.459563
32.48084918183028	2.044334	1.4298021
32.49910479650405	2.1152692	1.4543965
32.51736125888683	2.1518266	1.4669106
32.53561856956014	2.1138208	1.4538984
32.5538767291058	2.0465238	1.4305676
32.572135738105764	2.0904186	1.445828
32.59039559714228	2.0842035	1.4436771
32.608656306797776	2.007594	1.416896
32.62691786765491	2.0722914	1.4395455
32.645180280296586	2.051339	1.4322495
32.663443545305896	2.0479999	1.4310834
32.68170766326619	2.0337224	1.4260864
32.69997263476099	2.0318244	1.4254208
32.7182384603741	2.0153296	1.419623
32.7365051406895	1.9802043	1.4071974
32.75477267629144	2.0163808	1.4199933
32.77304106776434	2.0206895	1.4215096
32.79131031569289	1.9932125	1.4118117
32.809580420661966	1.9650216	1.4017923
32.827851383256714	1.901227	1.3788499
32.84612320406245	1.8792601	1.370861
32.86439588366476	2.0191004	1.4209505
32.88266942264945	2.0258343	1.423318
32.9009438216025	1.9777766	1.4063345
32.9192190811102	1.954296	1.3979614
32.937495201758985	2.022854	1.4222708
32.95577218413556	2.0605817	1.4354726
32.974050028826866	1.9987928	1.4137866
32.992328736420035	1.9440506	1.3942921
33.010608307502444	2.0063255	1.4164482
33.02888874266169	1.9620414	1.4007288
33.047170042485604	1.9663996	1.4022837
33.06545220756225	1.9464142	1.3951395
33.083735238479896	2.0866518	1.4445248
33.10201913582707	2.0871336	1.4446915
33.12030390019248	2.0250087	1.423028
33.138589532165135	1.9947413	1.4123532
33.15687603233419	1.9930176	1.4117427
33.17516340128909	2.0197427	1.4211766
33.19345163961947	1.9638789	1.4013846
33.211740747915215	1.9194797	1.3854529
33.23003072676643	1.8796226	1.3709933
33.248321576763466	1.8773302	1.370157
33.266613298496885	1.885474	1.3731257
33.28490589255747	1.9075801	1.3811518
33.30319935953626	1.9470361	1.3953624
33.32149370002451	1.9550159	1.3982189
33.339788914613706	2.0152879	1.4196084
33.358085003895575	1.9407308	1.3931011
33.376381968462034	1.9083729	1.3814387
33.39467980890529	1.8798043	1.3710595
33.41297852581774	1.7993922	1.3414142
33.43127811979204	1.7742891	1.3320245
33.44957859142105	1.9056801	1.3804637
33.467879941297866	1.9153285	1.3839539
33.486182170015844	1.8822224	1.3719411
33.50448527816853	1.8405752	1.356678
33.522789266349754	1.8662684	1.3661144
33.541094135153514	2.0474365	1.4308866
33.55939988517411	2.1067328	1.4514588
33.57770651700602	2.007456	1.4168472
33.59601403124398	1.918818	1.3852141
33.61432242848296	1.9334207	1.390475
33.632631709318154	1.9178221	1.3848546
33.650941874344994	1.8487777	1.3596976
33.66925292415916	1.9294144	1.3890337
33.68756485935654	1.9341345	1.3907317
33.70587768053328	1.8792849	1.3708701
33.724191388285746	1.8942403	1.376314
33.74250598321054	1.8883457	1.3741709
33.760821465904506	1.879787	1.3710532
33.77913783696474	1.9461789	1.3950552
33.79745509698852	1.9790732	1.4067954
33.815773246573414	1.9446127	1.3944937
33.8340922863172	1.927064	1.3881873
33.852412216817896	1.9271504	1.3882184
33.87073303867377	2.0141437	1.4192053
33.889054752483304	2.094589	1.4472694
33.907377358845245	2.0288675	1.4243832
33.92570085835853	2.0356832	1.4267737
33.94402525162239	2.011239	1.4181817
33.96235053923627	2.0208592	1.4215693
33.980676721799824	2.119644	1.4558997
33.999003799912984	2.0901415	1.4457322
34.01733177417592	2.0302985	1.4248854
34.03566064518901	1.9676372	1.4027249
34.0539904135529	1.8938273	1.376164
34.07232107986846	1.8162676	1.3476897
34.090652644736785	1.9167466	1.3844662
34.108985108759235	2.0185404	1.4207535
34.12731847253742	2.0357645	1.4268022
34.14565273667313	1.9639707	1.4014174
34.16398790176847	2.0347872	1.4264597
34.18232396842574	2.01709	1.420243
34.20066093724749	1.8529642	1.3612362
34.21899880883651	1.7520223	1.3236398
34.23733758379583	1.7556769	1.3250196
34.25567726272874	1.7690712	1.3300644
34.27401784623872	1.8949487	1.3765714
34.29235933492957	2.001667	1.4148028
34.31070172940526	2.047174	1.4307948
34.32904503027003	2.130797	1.4597249
34.347389238128386	2.067867	1.4380081
34.36573435358502	1.9218514	1.3863086
34.38408037724492	1.9276463	1.388397
34.402427309713296	1.8608629	1.3641344
34.42077515159559	1.842061	1.3572255
34.43912390349752	1.793053	1.3390493
34.45747356602499	1.7534678	1.3241857
34.47582413978423	1.8237736	1.3504716
34.49417562538163	1.9047681	1.3801334
34.51252802342388	2.0871634	1.4447019
34.53088133451789	2.0916903	1.4462677
34.54923555927084	1.8890238	1.3744177
34.567590698290104	1.8840657	1.3726127
34.58594675218336	1.9483272	1.3958249
34.6043037215585	1.9177661	1.3848343
34.62266160702365	1.9082224	1.3813843
34.641020409187234	1.8553491	1.362112
34.65938012865785	1.8391591	1.356156
34.677740766044394	2.0507376	1.4320396
34.69610232195598	2.0994291	1.4489406
34.714464797002016	2.0852585	1.4440424
34.73282819179208	1.9488455	1.3960105
34.751192506936064	1.8209237	1.349416
34.76955774304408	1.8173835	1.3481036
34.7879239007265	1.8570269	1.3627278
34.80629098059391	1.8065469	1.3440784
34.824658983257194	1.8257084	1.3511878
34.843027909327446	2.0234687	1.4224868
34.86139775941603	2.211608	1.4871476
34.879768534134534	2.1288567	1.4590602
34.89814023409483	2.1849623	1.4781618
34.91651285990901	2.1928897	1.4808409
34.93488641218944	2.1823876	1.4772906
34.95326089154871	2.0215402	1.4218087
34.97163629859967	1.905796	1.3805057
34.99001263395542	1.7970172	1.3405287
35.00838989822934	1.7507598	1.3231628
35.02676809203499	1.9206055	1.3858591
35.04514721598624	1.9699948	1.403565
35.063527270697215	1.7680174	1.3296682
35.081908256782256	1.8325095	1.3537022
35.10029017485597	1.9892018	1.4103906
35.11867302553321	1.983695	1.4084371
35.137056809429104	1.8354295	1.3547803
35.155441527159006	1.8703251	1.3675983
35.173827179338524	1.7990001	1.3412681
35.19221376658354	1.7357588	1.317482
35.21060128951017	1.6214423	1.2733587
35.2289897487348	1.9346411	1.3909137
35.24737914487405	2.3444784	1.5311689
35.26576947854479	2.1438262	1.4641811
35.28416075036418	2.0300097	1.4247841
35.30255296094958	1.9572134	1.3990045
35.32094611091867	2.2142684	1.4880418
35.33934020088932	2.3649323	1.5378337
35.35773523147969	2.067971	1.4380442
35.3761312033082	1.8499243	1.3601192
35.394528116993506	1.981645	1.4077091
35.41292597315452	2.1121087	1.4533095
35.431324772410434	2.1288373	1.4590536
35.449724515380666	2.3134015	1.520987
35.46812520268491	2.3637993	1.5374652
35.486526834943106	2.3627222	1.5371149
35.504929412775454	2.3167284	1.5220803
35.52333293680242	2.4672914	1.5707614
35.54173740764471	2.166631	1.471948
35.560142825923286	1.9941404	1.4121404
35.5785491922594	2.1577852	1.4689401
35.59695650727454	2.0177495	1.4204751
35.61536477159042	1.6131138	1.2700841
