0.008763373481513119	0.0	0.0
0.026290120649546365	0.0	0.0
0.043816868432600686	0.0046239095	0.06799933
0.06134361724069026	0.095313266	0.30872846
0.07887036748382949	0.1601797	0.40022457
0.0963971195720331	0.17970814	0.42391998
0.11392387391531617	0.21290925	0.4614209
0.1314506309236943	0.16530822	0.40658113
0.1489773910071836	0.18463905	0.42969647
0.16650415457580078	0.16615604	0.40762243
0.18403092203956356	0.2275792	0.47705263
0.20155769380849	0.16580503	0.40719163
0.2190844702925996	0.14428729	0.37985167
0.2366112519019124	0.16079953	0.40099818
0.2541380390464497	0.20651884	0.45444345
0.27166483213623416	0.20694546	0.4549126
0.28919163158128947	0.1559341	0.3948849
0.3067184377916406	0.11252934	0.33545393
0.324245251177314	0.17394367	0.41706553
0.34177207214833777	0.17304066	0.41598156
0.3592989011147415	0.15642725	0.39550886
0.37682573848655654	0.11089324	0.33300638
0.39435258467381573	0.076475054	0.27654123
0.41187944008655414	0.06849801	0.26172125
0.42940630513480854	0.112783164	0.33583206
0.446933180228618	0.13809514	0.37161154
0.4644600657780234	0.18305935	0.42785436
0.48198696219306775	0.1883513	0.4339946
0.49951386988379676	0.1503303	0.38772452
0.5170407892602581	0.17013204	0.41247067
0.5345677207325025	0.2024461	0.44994012
0.5520946647105822	0.19714424	0.44400927
0.5696216216045534	0.15208583	0.38998184
0.5871485918244737	0.12181344	0.34901783
0.6046755757804043	0.12694913	0.35629922
0.6222025738824094	0.18388085	0.4288133
0.6397295865405557	0.19852315	0.44555935
0.6572566141649129	0.21539469	0.46410632
0.6747836571655547	0.19571152	0.44239295
0.6923107159525568	0.19603364	0.44275686
0.7098377909359992	0.19717973	0.44404924
0.7273648825259653	0.1892013	0.43497276
0.7448919911325411	0.17273466	0.4156136
0.762419117165817	0.18505786	0.43018353
0.7799462610358868	0.20395748	0.45161653
0.7974734231528482	0.18927793	0.43506083
0.8150006039268024	0.18021858	0.4245216
0.8325278037678551	0.1896358	0.43547192
0.8500550230861152	0.22507763	0.47442347
0.8675822622916969	0.24156477	0.4914924
0.8851095217947171	0.22086522	0.46996298
0.9026368020052984	0.2069772	0.45494747
0.9201641033335665	0.17046863	0.41287845
0.9376914261896523	0.1802515	0.42456037
0.9552187709836915	0.2027253	0.45025027
0.9727461381258234	0.2505895	0.50058913
0.990273528026193	0.26283574	0.5126751
1.0078009410949496	0.23727757	0.48711145
1.0253283777422473	0.21381152	0.46239758
1.0428558383782454	0.21775661	0.466644
1.0603833234131086	0.24071081	0.49062288
1.0779108332570058	0.307768	0.5547684
1.0954383683201119	0.35212213	0.5933988
1.112965929012607	0.40192723	0.6339773
1.1304935157446763	0.4871617	0.6979697
1.1480211289265108	0.5325572	0.7297652
1.1655487689683062	1.4350989	1.1979561
1.1830764362802655	1.7897276	1.337807
1.200604131272596	2.1478	1.4655374
1.2181318543555117	2.279355	1.5097533
1.235659605939232	2.2480814	1.4993603
1.253187386433982	3.9786537	1.9946563
1.270715196249994	6.3790445	2.525677
1.2882430357975057	11.892098	3.4484923
1.3057709054867608	16.465574	4.0577793
1.3232988057280106	22.106514	4.7017565
1.3408267369315112	26.9817	5.1943913
1.358354699507526	30.561674	5.528261
1.3758826938663256	34.820286	5.9008718
1.3934107204181858	36.868065	6.071908
1.410938779573391	37.303577	6.1076655
1.4284668717422309	37.896717	6.156031
1.4459949973350033	37.15225	6.0952644
1.4635231567620117	37.123657	6.0929184
1.4810513504335687	36.488766	6.040593
1.4985795787599925	35.859676	5.988295
1.5161078421516088	35.134937	5.927473
1.5336361410187505	34.09726	5.839286
1.5511644757717598	33.978752	5.8291297
1.5686928468209842	34.838356	5.9024024
1.58622125457678	35.55446	5.962756
1.6037496994495108	36.866135	6.0717487
1.621278181849548	36.468075	6.0388803
1.6388067021872719	37.225674	6.1012845
1.6563352608730693	36.753193	6.0624413
1.673863858317336	35.882347	5.9901876
1.6913924949304753	34.80546	5.8996153
1.7089211711228998	33.517838	5.789459
1.7264498873050296	32.790173	5.72627
1.7439786438872935	31.999138	5.656778
1.7615074412801288	31.172228	5.5832095
1.779036279893981	30.472656	5.5202045
1.796565160139305	29.90331	5.468392
1.814094082426564	29.057178	5.390471
1.8316230471662298	28.285223	5.3183856
1.849152054768784	27.468643	5.2410536
1.8666811056447168	27.06943	5.202829
1.8842102002045273	26.195837	5.118187
1.901739338858724	25.811804	5.080532
1.9192685220178245	25.487959	5.04856
1.9367977500923557	24.964815	4.9964805
1.9543270234928547	24.710238	4.970939
1.971856342629867	23.865759	4.885259
1.9893857079139496	23.12609	4.8089595
2.006915119755667	22.681133	4.762471
2.0244445785655945	22.236702	4.715581
2.0419740847543175	21.724407	4.660945
2.0595036387324317	20.874237	4.5688334
2.0770332409105414	20.35288	4.511417
2.094562891699263	19.933826	4.464731
2.1120925915092217	19.527765	4.419023
2.129622340751053	19.113764	4.371929
2.1471521398354043	187.32895	13.686816
2.1646819891729323	443.85623	21.067896
2.182211889174303	440.21255	20.981243
2.1997418402501974	452.67908	21.276257
2.2172718428113023	432.4641	20.79577
2.234801897268317	320.26953	17.896076
2.2523320040319548	16.659235	4.0815725
2.269862163512935	16.477428	4.05924
2.287392376121992	16.246975	4.0307536
2.304922642269869	15.817603	3.977135
2.322452962367322	15.425856	3.9275763
2.3399833368251164	15.058018	3.8804662
2.357513766054032	14.86492	3.8555052
2.3750442504648586	14.648396	3.8273222
2.3925747904683963	14.48057	3.8053343
2.410105386475459	14.29805	3.7812762
2.4276360388968707	13.9934435	3.740781
2.445166748143469	13.782761	3.7125142
2.4626975146261025	13.388433	3.659021
2.4802283387556323	13.1364975	3.6244307
2.4977592209429305	13.066778	3.6148
2.5152901615988825	12.821187	3.5806684
2.5328211611343865	12.528812	3.5396063
2.5503522199603523	12.246712	3.4995303
2.5678833384877024	11.969933	3.459759
2.5854145171273712	11.765897	3.4301453
2.6029457562903064	11.644112	3.4123468
2.620477056387469	11.506114	3.3920662
2.6380084178298326	11.45904	3.3851204
2.655539841028383	11.239215	3.3524938
2.673071326394119	11.134866	3.3368945
2.6906028743380523	11.059367	3.3255627
2.708134485271211	10.799723	3.2862933
2.7256661596046325	10.6166115	3.2583141
2.743197897749369	10.327715	3.2136762
2.760729700116486	10.166645	3.1885176
2.778261567117063	10.063044	3.17223
2.795793499162193	10.0852375	3.1757264
2.8133254966629817	10.122454	3.1815803
2.830857560030551	10.103468	3.1785953
2.8483896896760337	9.976448	3.1585517
2.865921886010578	9.8205385	3.1337738
2.883454149445347	9.66392	3.1086848
2.9009864803915177	9.567154	3.0930817
2.91851887926028	9.275787	3.0456178
2.9360513464628384	9.053019	3.0088234
2.953583882410413	8.846943	2.9743812
2.9711164875142373	8.693094	2.9484053
2.9886491621855606	8.520441	2.9189794
3.0061819068356455	8.320013	2.8844433
3.023714721875769	8.277027	2.8769822
3.041247607717225	8.224993	2.867925
3.0587805647713213	8.247213	2.8717961
3.0763135934493806	8.063394	2.8396115
3.0938466941627407	7.9712763	2.823345
3.1113798673227544	7.803394	2.7934556
3.1289131133407904	7.821049	2.796614
3.1464464326282315	7.7970443	2.7923188
3.1639798255964786	7.71537	2.7776556
3.1815132926569443	7.4970417	2.7380726
3.1990468342210603	7.3992176	2.7201502
3.216580450700272	7.2087946	2.6849198
3.2341141425060416	7.1520357	2.674329
3.251647910049847	7.069207	2.658798
3.2691817537431813	7.079041	2.6606467
3.286715673997555	7.0260844	2.6506763
3.3042496712244938	6.9031434	2.6273835
3.32178374583554	6.8471465	2.6167052
3.339317898242251	6.7853227	2.604865
3.3568521288562034	6.7263126	2.5935135
3.3743864380889876	6.7096047	2.5902905
3.3919208263522127	6.6517124	2.5790913
3.4094552940575023	6.522283	2.5538762
3.4269898416164972	6.3864226	2.5271373
3.444524469440858	6.394873	2.5288086
3.4620591779422587	6.483537	2.5462792
3.479593967532391	6.547896	2.5588856
3.4971288386229658	6.4528804	2.540252
3.5146637916257086	6.3731027	2.5245004
3.5321988269523628	6.3092585	2.5118237
3.5497339450146903	6.3553734	2.5209866
3.5672691462244708	6.29377	2.5087388
3.5848044309934988	6.223346	2.4946635
3.60233979973359	6.063052	2.4623265
3.619875252856575	6.0037556	2.450256
3.6374107907743034	6.0613136	2.4619734
3.6549464138986427	6.1981792	2.4896142
3.6724821226414788	6.1490707	2.479732
3.690017917414714	6.106249	2.4710824
3.7075537986302702	6.0501394	2.4597032
3.7250897667000857	6.054462	2.4605815
3.7426258220361235	6.252311	2.5004623
3.7601619650503553	6.5816007	2.565463
3.777698196154779	7.0768123	2.6602278
3.7952345157614067	8.1283245	2.8510218
3.8127709242822716	8.935967	2.9893088
3.830307422129425	11.179338	3.3435519
3.847844009714936	12.556963	3.5435805
3.8653806874508954	15.862843	3.9828184
3.882917455749409	15.504836	3.937618
3.900454315022606	15.620075	3.952224
3.917991265682631	12.577186	3.5464327
3.9355283081416506	10.691065	3.2697194
3.9530654428118495	8.616748	2.9354298
3.970602670105433	7.3488803	2.7108817
3.9881399904346244	6.4555144	2.5407705
4.005677404211669	6.2596617	2.5019317
4.023214911848827	6.223741	2.4947426
4.0407525137583855	6.2757215	2.505139
4.058290210352644	6.2853527	2.5070605
4.075828002043927	6.318149	2.513593
4.0933658892445814	6.268094	2.503616
4.110903872366966	6.2827907	2.5065496
4.128441951823468	6.1747804	2.4849105
4.145980128026488	6.1192174	2.4737053
4.163518401388452	6.0226364	2.454106
4.181056772321807	5.9928145	2.4480226
4.1985952412390155	5.986251	2.4466815
4.216133808552567	6.108672	2.4715729
4.233672474674966	6.256639	2.5013275
4.251211240018741	6.436455	2.5370169
4.268750104996445	6.5359726	2.5565548
4.286289070020643	7.4982424	2.738292
4.303828135503928	9.165293	3.0274234
4.3213673018589125	29.4685	5.4284897
4.3389065694982305	90.62238	9.519579
4.356445938834537	165.78142	12.875613
4.3739854102805085	171.23337	13.085617
4.391524984248844	172.07545	13.117753
4.409064661152262	136.17952	11.669598
4.426604441403504	96.45294	9.821046
4.444144325415337	75.53588	8.691138
4.461684313600543	21.51168	4.6380687
4.47922440637193	21.951645	4.6852584
4.496764604142329	20.28871	4.504299
4.5143049073245916	18.316374	4.279763
4.531845316331589	16.258839	4.032225
4.5493858315762195	13.38166	3.6580951
4.566926453471405	11.13379	3.3367333
4.584467182430081	9.102999	3.0171177
4.602008018865218	7.9196386	2.8141851
4.619548963189798	7.2971234	2.7013187
4.637090015816834	6.77862	2.6035783
4.654631177159353	6.5298157	2.5553503
4.672172447630417	6.2919636	2.5083787
4.689713827643102	6.1480355	2.4795232
4.7072553176105085	5.923743	2.4338741
4.724796917945764	5.800023	2.4083238
4.742338629062015	5.723062	2.3922923
4.759880451372434	5.692386	2.3858721
4.777422385290215	5.6158557	2.3697796
4.794964431228581	5.485555	2.3421261
4.812506589600768	5.4899116	2.343056
4.830048860820047	5.425584	2.3292882
4.847591245299709	5.491599	2.3434162
4.8651337434530655	5.4988184	2.344956
4.882676355693457	5.424703	2.3290992
4.900219082434242	5.352793	2.3136103
4.917761924088813	5.3081093	2.3039334
4.935304881070575	5.385942	2.3207633
4.952847953792969	5.3983803	2.3234415
4.970391142669449	5.3207784	2.3066812
4.9879344481135055	5.24634	2.290489
5.005477870538642	5.2320123	2.2873592
5.023021410358394	5.2227073	2.2853243
5.040565067986324	5.343166	2.311529
5.05810884383601	5.391138	2.3218825
5.075652738321066	5.4613624	2.3369558
5.09319675185512	5.400268	2.3238478
5.110740884851836	5.2773843	2.2972558
5.128285137724894	5.214275	2.2834787
5.145829510888007	5.2486334	2.2909896
5.163374004754908	5.2598906	2.293445
5.1809186197393595	5.2421303	2.2895699
5.198463356255145	5.2070355	2.281893
5.216008214716077	5.17632	2.2751527
5.233553195535998	5.188374	2.2778003
5.251098299128764	5.2481484	2.2908838
5.268643525908272	5.260134	2.2934983
5.286188876288432	5.278083	2.2974079
5.3037343506831895	5.200155	2.2803848
5.32127994950651	5.1618133	2.2719624
5.3388256731723915	5.113901	2.2613935
5.356371522094851	5.1193366	2.2625952
5.373917496687938	5.0358353	2.2440667
5.391463597365729	5.0739446	2.2525418
5.40900982454232	5.044259	2.2459428
5.426556178631843	5.089139	2.255912
5.444102660048449	5.015877	2.2396152
5.4616492692063225	4.986935	2.2331448
5.479196006519669	4.970538	2.2294703
5.496742872402727	5.010659	2.2384503
5.514289867269756	5.091623	2.2564626
5.531836991535049	5.084527	2.2548895
5.549384245612924	5.1192875	2.2625842
5.566931629917724	5.099404	2.2581859
5.584479144863822	5.0361986	2.2441475
5.6020267908656205	5.015663	2.2395675
5.619574568337545	5.0026426	2.2366588
5.637122477694054	5.032124	2.2432396
5.654670519349629	5.049666	2.2471461
5.672218693718784	4.986745	2.233102
5.689767001216059	5.011094	2.2385473
5.707315442256021	5.013205	2.2390187
5.724864017253266	5.014771	2.2393684
5.7424127266224225	5.0967393	2.257596
5.75996157077814	5.067886	2.2511966
5.777510550135105	5.068207	2.251268
5.795059665108022	5.0425515	2.2455626
5.812608916111639	5.06385	2.2503
5.830158303560715	5.253248	2.2919965
5.847707827870055	5.2436595	2.2899039
5.86525748945448	5.255328	2.2924502
5.8828072887288485	5.266773	2.2949452
5.900357226108044	5.322261	2.3070025
5.917907302006979	5.486599	2.342349
5.9354575168406	6.1981597	2.4896104
5.9530078710238765	6.8447537	2.6162481
5.970558364971812	7.420152	2.7239957
5.988108999099438	7.6765428	2.7706575
6.005659773821818	8.094809	2.8451376
6.023210689554039	7.7756114	2.7884784
6.040761746711227	8.237804	2.8701575
6.058312945708531	7.6926336	2.7735598
6.075864286961132	7.287081	2.6994593
6.093415770884244	6.596027	2.568273
6.1109673978931065	6.0022354	2.449946
6.128519168402993	5.3836985	2.3202798
6.146071082829204	5.2771583	2.2972066
6.163623141587075	5.111575	2.2608793
6.181175345091969	5.046757	2.2464988
6.198727693759281	4.9830637	2.2322776
6.216280188004435	5.0353875	2.2439668
6.233832828242885	5.086696	2.2553706
6.251385614890126	5.116617	2.2619941
6.268938548361669	5.1396933	2.2670891
6.286491629073067	5.0987983	2.2580519
6.304044857439898	5.083625	2.2546895
6.321598233877777	5.080965	2.2540996
6.339151758802344	5.068534	2.2513404
6.356705432629277	5.000729	2.236231
6.37425925577428	4.9474173	2.224279
6.391813228653095	4.9717636	2.2297451
6.409367351681486	5.003484	2.236847
6.426921625275259	5.028967	2.2425358
6.44447604985025	4.982513	2.2321544
6.46203062582232	4.9758067	2.2306516
6.47958535360737	4.958555	2.2267814
6.497140233621328	4.9574795	2.2265399
6.514695266280161	4.9310336	2.220593
6.532250451999859	4.974989	2.2304683
6.549805791196454	4.973026	2.2300282
6.567361284286002	5.0111833	2.2385674
6.584916931684597	5.002239	2.2365687
6.602472733808367	4.9863763	2.2330196
6.6200286910734665	4.9743295	2.2303205
6.637584803896092	4.878219	2.2086692
6.655141072692462	4.8200216	2.1954548
6.672697497878842	4.7809114	2.1865296
6.690254079871514	4.81145	2.1935017
6.707810819086808	4.8404365	2.2000992
6.725367715941078	4.8327785	2.198358
6.742924770850719	4.831711	2.1981153
6.760481984232151	4.801086	2.191138
6.778039356501836	4.7876873	2.1880784
6.795596888076266	4.793114	2.1893182
6.813154579371963	4.8593025	2.2043827
6.830712430805492	4.9490485	2.2246456
6.84827044279344	4.9819684	2.2320323
6.865828615752445	4.968752	2.2290697
6.883386950099159	4.939462	2.22249
6.900945446250287	4.9362593	2.2217693
6.918504104622553	4.9314218	2.2206805
6.936062925632727	4.888436	2.2109807
6.953621909697607	4.8831472	2.2097845
6.971181057234028	4.9156528	2.217127
6.988740368658859	5.01575	2.239587
7.006299844389007	5.110345	2.2606072
7.023859484841407	5.1929193	2.2787979
7.041419290433036	5.2936983	2.300804
7.058979261580902	5.3786654	2.319195
7.0765393987020495	5.5442777	2.354629
7.094099702213559	5.9030213	2.4296134
7.111660172532549	6.272595	2.504515
7.129220810076164	6.582026	2.565546
7.146781615261595	7.1293855	2.670091
7.16434258850606	7.38573	2.71767
7.181903730226821	7.8083053	2.7943344
7.1994650408411704	7.9924655	2.8270948
7.217026520766437	8.207809	2.8649275
7.234588170419983	8.424865	2.9025617
7.252149990219215	8.419197	2.9015853
7.269711980581568	8.282087	2.8778615
7.2872741419245175	8.0662565	2.8401155
7.304836474665574	7.604846	2.7576885
7.322398979222286	7.297782	2.7014408
7.339961656012233	7.022836	2.6500635
7.357524505453039	6.6796346	2.584499
7.375087527962357	6.396998	2.5292287
7.392650723957886	6.1406183	2.478027
7.410214093857353	5.8376374	2.4161203
7.427777638078528	5.634639	2.3737395
7.445341357039213	5.4703407	2.338876
7.4629052511572525	5.3361278	2.310006
7.480469320850524	5.2224464	2.2852674
7.498033566536948	5.1500473	2.2693715
7.5155979886344735	5.093879	2.2569623
7.5331625875610975	5.0815907	2.2542384
7.550727363734844	5.091676	2.2564743
7.568292317573788	5.156751	2.270848
7.585857449496025	5.1671743	2.2731419
7.603422759919705	5.1588383	2.2713077
7.620988249263007	5.134496	2.2659426
7.638553917944147	5.1169906	2.2620766
7.656119766381391	5.0810914	2.2541277
7.673685794993023	5.0462255	2.2463806
7.691252004197388	5.109618	2.2604465
7.70881839441285	5.1458964	2.268457
7.726384966057826	5.211557	2.2828834
7.743951719550762	5.175789	2.275036
7.761518655310149	5.1955276	2.27937
7.779085773754511	5.227128	2.2862914
7.796653075302419	5.218021	2.284299
7.814220560372475	5.2278595	2.2864513
7.831788229383323	5.216422	2.283949
7.8493560827536495	5.2701764	2.2956865
7.866924120902174	5.3414774	2.3111637
7.884492344247663	5.3329606	2.3093204
7.9020607532089135	5.309216	2.3041737
7.919629348204771	5.305567	2.3033817
7.937198129654115	5.283119	2.2985036
7.954767097975865	5.287833	2.2995288
7.972336253588986	5.2513614	2.291585
7.989905596912472	5.2952776	2.301147
8.007475128365371	5.425337	2.3292353
8.025044848366756	5.4370255	2.331743
8.042614757335754	5.5846896	2.3631947
8.060184855691523	5.635784	2.3739808
8.07775514385327	5.7797637	2.404114
8.095325622240228	5.7958694	2.4074612
8.112896291271687	5.7441483	2.3966954
8.130467151366968	5.772281	2.4025571
8.148038202945436	5.7903104	2.4063063
8.165609446426497	5.8548713	2.4196842
8.183180882229594	5.925112	2.4341552
8.200752510774217	5.8886127	2.4266465
8.218324332479893	5.873309	2.423491
8.235896347766193	5.826803	2.4138772
8.253468557052724	5.829097	2.4143522
8.27104096075914	5.8473	2.4181192
8.288613559305137	5.9487276	2.4390013
8.306186353110448	6.0284295	2.455286
8.32375934259485	6.0302267	2.455652
8.341332528178162	5.9706364	2.4434886
8.358905910280246	5.9978647	2.4490538
8.376479489321003	6.0658374	2.462892
8.394053265720377	6.1599946	2.4819336
8.411627239898356	6.2399635	2.4979918
8.42920141227497	6.248048	2.4996095
8.44677578327029	6.2607574	2.5021505
8.464350353304427	6.208326	2.4916513
8.48192512279754	6.1695313	2.483854
8.499500092169827	6.070177	2.463773
8.51707526184153	6.0170035	2.452958
8.534650632232934	6.060051	2.4617171
8.552226203764365	6.102621	2.4703484
8.569801976856192	6.1465855	2.4792309
8.587377951928834	6.1732044	2.4845934
8.60495412940274	6.178303	2.4856193
8.622530509698416	6.224253	2.4948454
8.6401070932364	6.3288016	2.515711
8.657683880437283	6.4172244	2.533224
8.675260871721695	6.502164	2.5499341
8.692838067510303	6.5617456	2.5615904
8.710415468223834	6.6409607	2.577006
8.727993074283043	6.796112	2.6069353
8.745570886108737	6.889932	2.624868
8.763148904121765	7.011904	2.648
8.78072712874302	7.076797	2.660225
8.798305560393441	7.310954	2.7038777
8.815884199494006	7.5021787	2.7390106
8.833463046465745	7.6673923	2.7690055
8.851042101729728	7.7809796	2.7894406
8.86862136570707	8.110859	2.847957
8.886200838818924	8.2160015	2.8663568
8.903780521486505	8.243849	2.8712103
8.921360414131055	8.269702	2.875709
8.938940517173874	8.431956	2.903783
8.956520831036297	8.652467	2.9415076
8.97410135613971	8.975438	2.9959035
8.99168209290554	9.201026	3.0333192
9.009263041755265	9.426303	3.0702286
9.026844203110405	9.585232	3.0960026
9.044425577392525	9.691672	3.113145
9.062007165023239	9.75612	3.123479
9.079588966424197	10.073777	3.1739213
9.097170982017108	10.223704	3.1974528
9.11475321222372	11.240773	3.3527262
9.132335657465825	12.056287	3.4722164
9.149918318165264	12.124721	3.4820569
9.167501194743924	12.677239	3.560511
9.18508428762374	12.3434305	3.5133219
9.202667597226693	12.406455	3.5222797
9.220251123974803	12.1108465	3.4800642
9.237834868290143	11.767821	3.430426
9.255418830594836	11.492808	3.3901045
9.273003011311046	10.984327	3.3142612
9.290587410860985	10.752704	3.2791317
9.308172029666911	10.186837	3.1916826
9.32575686815113	9.9055	3.1473005
9.343341926735997	8.70335	2.950144
9.360927205843916	8.441034	2.905346
9.378512705897327	8.20226	2.8639588
9.396098427318728	8.039517	2.8354042
9.413684370530664	7.930502	2.8161147
9.431270535955722	7.888016	2.8085613
9.448856924016539	7.876614	2.8065307
9.466443535135806	7.7666616	2.786873
9.484030369736251	7.7112803	2.7769191
9.501617428240658	7.643665	2.7647178
9.519204711071852	7.6574497	2.7672098
9.536792218652714	7.7324147	2.780722
9.55437995140617	7.7845554	2.7900815
9.571967909755191	7.817422	2.7959652
9.589556094122802	7.7463827	2.7832325
9.60714450493207	7.7374315	2.7816238
9.624733142606116	7.661588	2.7679574
9.642322007568108	7.71554	2.777686
9.659911100241267	7.7827497	2.789758
9.677500421048851	7.9301105	2.8160453
9.695089970414175	7.909193	2.8123288
9.712679748760609	7.928005	2.8156714
9.730269756511557	7.927818	2.815638
9.747859994090492	8.023922	2.8326528
9.765450461920915	8.051911	2.837589
9.78304116042639	8.0662775	2.8401194
9.800632090030527	8.047871	2.8368769
9.81822325115699	8.038362	2.8352005
9.835814644229481	8.037304	2.8350139
9.853406269671762	8.040668	2.835607
9.870998127907646	8.081601	2.8428156
9.888590219360985	8.083211	2.8430989
9.906182544455698	8.174073	2.8590336
9.923775103615734	8.15576	2.855829
9.941367897265108	8.170487	2.8584065
9.958960925827878	8.104027	2.8467572
9.97655418972816	8.181612	2.8603518
9.994147689390106	8.21934	2.8669393
10.011741425237934	8.24766	2.8718739
10.029335397695904	8.1967535	2.8629973
10.04692960718833	8.181063	2.8602557
10.06452405413958	8.18093	2.8602326
10.082118738974064	8.208551	2.865057
10.099713662116246	8.155725	2.8558228
10.117308823990651	8.11487	2.8486612
10.134904225021844	8.033819	2.8343992
10.152499865634445	8.066382	2.8401377
10.170095746253125	8.117852	2.8491845
10.18769186730261	8.04963	2.837187
10.205288229207675	8.00395	2.8291254
10.222884832393145	7.9386435	2.81756
10.2404816772839	7.9883804	2.8263724
10.258078764304868	8.024185	2.8326993
10.275676093881035	8.020549	2.8320572
10.293273666437438	7.956961	2.8208086
10.310871482399158	8.015946	2.8312447
10.32846954219134	8.030404	2.8337967
10.346067846239173	8.02464	2.8327796
10.363666394967908	8.028265	2.8334193
10.38126518880283	8.037297	2.8350127
10.398864228169298	8.075013	2.8416567
10.416463513492713	8.074657	2.8415942
10.434063045198531	8.009279	2.830067
10.451662823712262	8.007107	2.829683
10.469262849459467	8.028758	2.8335063
10.486863122865758	8.132233	2.851707
10.504463644356806	8.078071	2.8421948
10.522064414358338	7.9992223	2.8282897
10.539665433296118	7.8579774	2.8032084
10.557266701595987	7.7847652	2.7901192
10.574868219683818	7.6558332	2.7669177
10.592469987985552	7.5491085	2.747564
10.610072006927185	7.4937563	2.7374725
10.627674276934751	7.3957696	2.7195165
10.64527679843435	7.3206115	2.705663
10.662879571852143	7.202846	2.683812
10.680482597614331	7.0605307	2.657166
10.698085876147173	6.9741735	2.640866
10.715689407876988	6.9025674	2.6272738
10.733293193230146	6.846822	2.6166432
10.750897232633072	6.787087	2.6052039
10.76850152651225	6.67831	2.5842426
10.786106075294207	6.5573254	2.5607276
10.803710879405534	6.5144086	2.5523338
10.821315939272877	6.4871826	2.546995
10.83892125532294	6.4013977	2.5300984
10.856526827982472	6.300481	2.5100758
10.874132657678285	6.196966	2.4893706
10.891738744837243	6.093903	2.468583
10.909345089886271	6.0319934	2.4560118
10.926951693252343	6.026152	2.4548223
10.944558555362494	5.9959264	2.448658
10.96216567664381	5.916391	2.4323633
10.979773057523436	5.846318	2.417916
10.997380698428573	5.6953773	2.386499
11.014988599786477	5.6131396	2.3692064
11.032596762024461	5.58202	2.36263
11.050205185569892	5.5571704	2.3573651
11.067813870850198	5.5092897	2.3471875
11.085422818292859	5.4227695	2.328684
11.10303202832541	5.341514	2.3111715
11.120641501375454	5.299421	2.302047
11.138251237870636	5.2890444	2.2997923
11.155861238238671	5.2974195	2.3016124
11.173471502907317	5.175526	2.2749782
11.191082032304402	5.087589	2.2555685
11.208692826857805	5.021584	2.240889
11.226303886995465	5.0165334	2.2397618
11.243915213145371	4.994565	2.2348523
11.261526805735578	4.920664	2.218257
11.279138665194196	4.848234	2.2018707
11.296750791949393	4.808536	2.1928375
11.314363186429393	4.793591	2.1894271
11.331975849062479	4.7635546	2.1825569
11.34958878027699	4.708241	2.1698482
11.36720198050133	4.6127615	2.147734
11.384815450163948	4.5199566	2.126019
11.402429189693366	4.486966	2.118246
11.420043199518153	4.421871	2.1028247
11.437657480066942	63.380608	7.961194
11.455272031768422	85.087776	9.224303
11.472886855051353	107.4845	10.367473
11.490501950344528	99.07101	9.953442
11.508117318076819	84.41227	9.187615
11.52573295867715	45.775425	6.7657537
11.543348872574514	4.08959	2.0222735
11.560965060197946	4.048963	2.0122035
11.57858152197655	3.992696	1.9981732
11.59619825833949	3.9541538	1.9885054
11.613815269715985	3.9468923	1.9866787
11.631432556535323	38.49032	6.2040567
11.649050119226837	83.0193	9.111493
11.666667958219929	93.41475	9.665131
11.68428607394406	107.652054	10.375551
11.701904466828756	82.48823	9.082303
11.719523137303586	65.33502	8.083008
11.737142085798196	4.565042	2.136596
11.754761312742286	3.6543393	1.9116327
11.772380818565619	3.637564	1.9072399
11.790000603698015	3.6129994	1.9007891
11.80762066856935	3.5469825	1.8833435
11.825241013609572	3.5211055	1.8764609
11.842861639248683	3.512793	1.8742447
11.860482545916748	3.4989052	1.8705361
11.878103734043883	3.4375367	1.8540596
11.895725204060282	3.3803809	1.8385812
11.91334695639619	3.3678234	1.835163
11.930968991481919	3.3992267	1.8436992
11.948591309747824	3.421554	1.8497443
11.966213911624347	3.3863258	1.8401972
11.98383679754198	3.3335686	1.8258063
12.001459967931268	3.270869	1.8085544
12.019083423222835	3.2060988	1.7905582
12.036707163847352	3.1709256	1.7807093
12.05433119023556	3.158814	1.7773052
12.071955502818259	3.163395	1.7785935
12.089580102026313	3.16284	1.7784375
12.107204988290643	3.175973	1.782126
12.12483016204224	3.1652265	1.7791083
12.142455623712152	3.1011975	1.7610217
12.16008137373149	3.034962	1.7421142
12.177707412531431	3.0165327	1.7368168
12.19533374054321	3.023533	1.7388309
12.212960358198126	3.0316746	1.7411705
12.230587265927545	3.041534	1.7439994
12.248214464162889	3.0430148	1.7444239
12.265841953335649	3.0058744	1.7337458
12.283469733877375	2.9466896	1.7165924
12.301097806219685	2.9470713	1.7167037
12.31872617079425	2.9450626	1.7161185
12.336354828032825	2.9508076	1.7177914
12.353983778367205	2.9493158	1.7173572
12.371613022229262	2.9360151	1.7134805
12.389242560050928	2.9231856	1.7097327
12.406872392264201	2.8904145	1.7001219
12.424502519301143	2.846871	1.6872673
12.442132941593874	2.864456	1.6924703
12.459763659574586	2.8595223	1.6910123
12.477394673675532	2.8158567	1.6780515
12.49502598432903	2.7680662	1.6637506
12.51265759196746	2.781149	1.6676776
12.530289497023267	2.8025243	1.6740742
12.547921699928967	2.811551	1.6767681
12.565554201117134	2.7857366	1.6690526
12.583187001020404	2.7483203	1.6578059
12.600820100071486	2.7362719	1.654168
12.618453498703152	2.725489	1.6509055
12.636087197348235	2.7389686	1.6549829
12.65372119643964	2.7590208	1.66103
12.671355496410326	2.776821	1.6663796
12.68899009769333	2.7899115	1.6703029
12.706625000721749	2.798966	1.6730111
12.724260205928752	2.8396013	1.6851116
12.741895713747551	2.8510706	1.6885114
12.759531524611454	2.9123325	1.7065557
12.777167638953818	2.9145558	1.707207
12.794804057208072	2.9583752	1.7199928
12.812440779807702	2.9908795	1.7294159
12.830077807186271	3.166231	1.7793906
12.847715139777405	3.2283318	1.7967559
12.865352778014795	3.403569	1.8448764
12.882990722332197	3.4739041	1.8638412
12.90062897316344	3.5365212	1.8805641
12.918267530942412	3.6551862	1.9118541
12.935906396103071	3.5604699	1.8869207
12.953545569079449	3.703957	1.9245667
12.971185050305628	3.5019925	1.8713611
12.988824840215775	3.4860325	1.867092
13.006464939244115	3.520335	1.8762555
13.024105347824943	3.373698	1.8367629
13.041746066392617	3.5227606	1.8769019
13.05938709538157	3.33792	1.8269975
13.077028435226296	3.3682055	1.8352672
13.094670086361363	3.2404575	1.800127
13.112312049221401	3.1440628	1.7731506
13.129954324241112	3.0427663	1.7443527
13.147596911855258	2.8624697	1.6918834
13.165239812498685	2.8017583	1.6738454
13.182883026606293	2.7152188	1.6477921
13.200526554613058	2.6806054	1.6372554
13.218170396954017	2.6957576	1.6418762
13.235814554064284	2.6976826	1.6424624
13.253459026379034	2.658361	1.6304481
13.271103814333523	2.5993967	1.6122645
13.288748918363058	2.6011987	1.6128232
13.306394338903031	2.6462975	1.6267444
13.32404007638889	2.6609063	1.6312284
13.341686131256164	2.65405	1.6291256
13.359332503940449	2.6259935	1.6204917
13.376979194877402	2.6310084	1.6220384
13.394626204502751	2.6697006	1.6339219
13.412273533252307	2.7168844	1.6482974
13.429921181561937	2.6728106	1.6348733
13.447569149867581	2.6661174	1.632825
13.465217438605247	2.6441493	1.6260841
13.482866048211022	2.6591756	1.6306978
13.500514979121052	2.657662	1.6302336
13.518164231771568	2.6417446	1.6253445
13.535813806598844	2.6324198	1.6224734
13.553463704039254	2.6306598	1.6219308
13.571113924529229	2.6056256	1.614195
13.588764468505275	2.6000597	1.61247
13.606415336403956	2.6684177	1.6335292
13.624066528661917	2.7250414	1.65077
13.641718045715882	2.7969599	1.6724114
13.659369888002635	2.7961202	1.6721604
13.67702205595903	2.8460722	1.6870306
13.694674550021993	2.9498365	1.7175088
13.712327370628532	3.0210216	1.7381086
13.729980518215713	3.1060305	1.7623934
13.747633993220681	3.141882	1.7725354
13.765287796080647	3.141393	1.7723975
13.7829419272329	3.208975	1.7913612
13.800596387114801	3.2691617	1.8080823
13.818251176163775	3.335056	1.8262136
13.835906294817324	3.3552196	1.8317258
13.853561743513023	3.3746822	1.8370308
13.871217522688525	3.4254076	1.8507857
13.888873632781538	3.4435318	1.8556756
13.906530074229858	3.493727	1.8691514
13.92418684747135	3.4871528	1.867392
13.941843952943948	3.4392629	1.854525
13.959501391085665	3.3759265	1.8373694
13.977159162334578	3.3519158	1.8308238
13.994817267128846	3.323704	1.8231028
14.012475705906693	3.2655158	1.8070738
14.030134479106424	3.1658018	1.77927
14.047793587166414	3.094726	1.7591834
14.065453030525108	3.0504878	1.7465645
14.083112809621026	3.014132	1.7361256
14.100772924892766	2.9505985	1.7177306
14.118433376778997	2.9276218	1.7110294
14.136094165718458	2.8760746	1.6958994
14.153755292149969	2.818184	1.6787448
14.171416756512416	2.7269528	1.6513488
14.189078559244768	2.6569765	1.6300235
14.20674070078606	2.5797923	1.6061732
14.224403181575408	2.512676	1.5851423
14.242066002051999	2.458542	1.5679739
14.259729162655093	2.4399362	1.5620295
14.277392663824022	2.409518	1.5522622
14.295056505998208	2.3562102	1.5349952
14.312720689617128	2.380502	1.5428876
14.330385215120348	2.3708234	1.5397478
14.348050082947497	2.375606	1.5413002
14.3657152935383	2.3660805	1.5382069
14.383380847332528	2.3695953	1.539349
14.401046744770051	2.398665	1.5487624
14.418712986290798	2.3830266	1.5437055
14.436379572334793	2.38313	1.543739
14.454046503342123	2.384927	1.544321
14.471713779752946	2.3779886	1.5420728
14.489381402007504	2.3761997	1.5414927
14.507049370546113	2.3691583	1.539207
14.524717685809168	2.3744586	1.5409278
14.542386348237134	2.405655	1.5510174
14.560055358270553	2.43451	1.5602916
14.577724716350051	2.468429	1.5711235
14.595394422916325	2.4476368	1.5644925
14.61306447841015	2.4319372	1.559467
14.63073488327237	2.4183228	1.5550958
14.648405637943917	2.4358993	1.5607368
14.6660767428658	2.4365098	1.5609324
14.683748198479094	2.469257	1.571387
14.701420005224954	2.4976737	1.5804031
14.719092163544628	2.550571	1.5970507
14.73676467387942	2.605031	1.6140108
14.754437536670727	2.6525452	1.6286637
14.772110752360014	2.7062478	1.6450677
14.78978432138882	2.6899338	1.6401018
14.807458244198777	2.6571739	1.630084
14.82513252123159	2.630807	1.6219763
14.842807152929028	2.7035244	1.6442398
14.860482139732962	2.7247434	1.6506797
14.87815748208531	2.6742404	1.6353105
14.8958331804281	2.655687	1.629628
14.91350923520342	2.605483	1.6141509
14.931185646853438	2.6561518	1.6297705
14.948862415820408	2.6545608	1.6292824
14.966539542546656	2.7159152	1.6480033
14.98421702747459	2.6817858	1.6376159
15.001894871046696	2.6646717	1.6323822
15.019573073705542	2.6233346	1.6196711
15.037251635893766	2.592212	1.6100348
15.054930558054092	2.602147	1.6131172
15.072609840629323	2.6506882	1.6280934
15.090289484062351	2.7767887	1.6663699
15.107969488796124	2.8919694	1.7005792
15.125649855273691	3.119785	1.7662914
15.14333058393817	3.5255592	1.8776473
15.161011675232768	4.0637884	2.015884
15.17869312960076	4.680935	2.1635468
15.196374947485506	5.324535	2.3074954
15.214057129330447	6.7426376	2.596659
15.231739675579114	8.902708	2.9837406
15.249422586675102	13.469408	3.6700692
15.267105863062092	17.920557	4.233268
15.284789505183847	25.053474	5.0053444
15.302473513484218	29.996616	5.476917
15.320157888407127	34.146667	5.843515
15.337842630396578	33.050858	5.7489877
15.355527739896656	30.249924	5.499993
15.37321321735153	23.582516	4.856183
15.39089906320545	15.996074	3.999509
15.408585277902748	10.241717	3.2002683
15.42627186188783	6.3426433	2.5184605
15.443958815605198	4.5377183	2.130192
15.461646139499424	3.7451112	1.935229
15.479333834015168	3.347156	1.8295234
15.497021899597165	3.0540078	1.747572
15.514710336690234	2.8368526	1.6842959
15.53239914573928	2.6565714	1.6298991
15.550088327189297	2.5576494	1.5992652
15.567777881485336	2.5056465	1.5829234
15.58546780907256	2.527164	1.5897056
15.6031581103962	2.5442674	1.595076
15.620848785901568	2.5357304	1.5923977
15.638539836034063	2.4988542	1.5807765
15.656231261239173	2.4569592	1.567469
15.673923061962451	2.4134943	1.5535425
15.691615238649552	2.3743882	1.540905
15.709307791746202	2.341936	1.5303385
15.727000721698221	2.3591266	1.5359448
15.744694028951498	2.3559358	1.5349058
15.76238771395202	2.358817	1.5358441
15.780081777145844	2.342097	1.5303911
15.797776218979125	2.3701565	1.5395312
15.815471039898094	2.4201376	1.5556792
15.833166240349064	2.4514732	1.5657182
15.850861820778437	2.4512072	1.5656332
15.868557781632699	2.4279027	1.5581728
15.886254123358412	2.434454	1.5602736
15.903950846402232	2.474862	1.5731695
15.921647951210897	2.4968045	1.580128
15.939345438231225	2.5226297	1.5882789
15.957043307910133	2.5535786	1.5979921
15.974741560694602	2.5634727	1.6010848
15.992440197031714	2.5224586	1.588225
16.01013921736862	2.4586575	1.5680107
16.02783862215259	2.4777765	1.5740955
16.045538411830933	2.4847302	1.5763028
16.06323858685107	2.484611	1.5762649
16.080939147660512	2.4602468	1.5685174
16.09864009470684	2.4234555	1.5567452
16.11634142843774	2.4297795	1.5587751
16.134043149300954	2.4142082	1.5537722
16.15174525774433	2.3862388	1.5447456
16.169447754215817	2.374084	1.5408063
16.18715063916342	2.3889048	1.5456083
16.204853913035244	2.407224	1.5515231
16.222557576279478	2.4263833	1.5576853
16.240261629344403	22.413435	4.734283
16.257966072678386	42.922657	6.5515385
16.275670906729868	38.037525	6.167457
16.293376131947387	2.4372988	1.561185
16.31108174877957	2.4690704	1.5713276
16.328787757675133	2.4927993	1.5788602
16.34649415908287	2.5657837	1.6018064
16.364200953451657	2.5661116	1.6019087
16.38190814123048	2.5729537	1.6040429
16.39961572286839	2.5501833	1.5969293
16.41732369881455	2.5747821	1.6046127
16.43503206951817	2.633778	1.6228919
16.45274083542859	2.700002	1.6431682
16.47044999699522	2.7756145	1.6660175
16.488159554667558	2.8388715	1.684895
16.505869508895184	2.8874385	1.6992464
16.523579860127786	2.965059	1.7219347
16.541290608815117	3.0182078	1.737299
16.559001755407035	3.0692284	1.7519213
16.57671330035348	3.1280396	1.7686265
16.59442524410448	3.2511837	1.8031039
16.61213758711015	3.4397578	1.8546584
16.629850329820705	3.5066185	1.8725967
16.647563472686436	3.5476146	1.8835112
16.665277016157724	3.479552	1.8653557
16.682990960685053	3.520695	1.8763515
16.70070530671898	3.4829776	1.8662738
16.718420054710155	3.517668	1.8755447
16.736135205109335	3.5060244	1.8724381
16.753850758367335	3.52857	1.8784488
16.771566714935087	3.5341897	1.8799441
16.789283075263597	3.5770824	1.8913176
16.80699983980398	3.6641464	1.914196
16.82471700900741	3.738725	1.9335783
16.84243458332518	3.8121724	1.9524785
16.860152563208665	3.893395	1.9731687
16.87787094910932	3.999836	1.999959
16.89558974147871	4.1116834	2.0277286
16.913308940768466	4.176657	2.043687
16.931028547430333	4.2295475	2.0565863
16.94874856191613	4.2533116	2.0623558
16.966468984677785	4.344412	2.0843253
16.98418981616729	4.3808303	2.0930433
17.00191105683676	4.434428	2.1058083
17.019632707138374	4.51712	2.1253517
17.03735476752442	4.562222	2.1359358
17.05507723844728	4.543364	2.131517
17.072800120359403	4.504567	2.1223965
17.090523413713353	4.52297	2.1267276
17.108247118961785	4.5608406	2.1356125
17.125971236557437	4.582567	2.1406932
17.143695766953133	4.6561003	2.1578
17.161420710601806	4.690323	2.1657152
17.179146067956477	4.6690784	2.160805
17.19687183947025	4.604344	2.1457734
17.21459802559634	4.553604	2.1339176
17.232324626788028	4.603398	2.145553
17.25005164349871	4.6032066	2.1455085
17.267779076181863	4.6335206	2.1525614
17.285506925291074	4.6350265	2.1529112
17.30323519127999	4.603794	2.1456454
17.320963874602384	4.578813	2.139816
17.33869297571211	4.493371	2.1197574
17.356422495063114	4.516071	2.125105
17.37415243310944	4.4848485	2.117746
17.391882790305218	4.4780684	2.1161447
17.40961356710468	4.4379663	2.1066482
17.42734476396215	4.442618	2.1077518
17.445076381332044	4.5639567	2.1363418
17.462808419668868	4.6644106	2.1597247
17.48054087942723	4.7292223	2.1746776
17.498273761061835	4.7818093	2.186735
17.51600706502747	5.118627	2.2624383
17.533740791779024	5.766673	2.4013898
17.551474941771485	6.695931	2.5876496
17.56920951545993	8.59444	2.9316275
17.586944513299528	9.844745	3.1376336
17.60467993574556	12.709001	3.5649686
17.622415783253373	15.411491	3.9257472
17.64015205627843	18.21805	4.268261
17.657888755276293	20.530008	4.5310054
17.675625880702604	22.026134	4.693201
17.69336343301311	20.57116	4.535544
17.71110141266366	18.57252	4.3095846
17.728839820110178	15.902964	3.987852
17.746578655808705	12.71438	3.565723
17.764317920215372	10.505542	3.2412252
17.7820576137864	8.745947	2.9573548
17.79979773697811	7.3230395	2.7061114
17.81753829024692	5.9650536	2.4423459
17.835279274049356	5.1297064	2.2648854
17.85302068884201	4.462757	2.1125238
17.870762535081607	4.0837135	2.02082
17.888504813224934	3.874955	1.9684905
17.90624752372891	3.7652085	1.9404145
17.923990667050536	3.6510053	1.9107604
17.941734243646895	3.5245907	1.8773893
17.959478253975185	3.4912581	1.8684908
17.9772226984927	3.4742253	1.8639274
17.994967577656833	3.4240677	1.8504237
18.01271289192506	3.3503473	1.8303953
18.030458641754965	3.3300984	1.8248557
18.04820482760425	3.3348258	1.8261505
18.06595144993067	3.3168836	1.8212314
18.083698509192125	3.3141842	1.8204901
18.101446005846576	3.2716157	1.8087609
18.119193940352105	3.2471848	1.8019947
18.136942313166887	3.1796384	1.783154
18.1546911247492	3.1635597	1.7786398
18.1724403755574	3.1377072	1.7713574
18.19019006604997	3.1498754	1.7747889
18.207940196685467	3.0922492	1.7584792
18.225690767922575	3.0786688	1.7546136
18.243441780220046	3.0559435	1.7481257
18.261193234036764	3.0571783	1.7484789
18.278945129831676	3.0263312	1.7396353
18.29669746806386	3.0252128	1.7393138
18.314450249192483	3.0304058	1.7408061
18.3322034736768	3.0362396	1.7424809
18.349957141976184	3.0289493	1.7403877
18.3677112545501	3.0546458	1.7477545
18.385465811858108	3.05299	1.7472807
18.403220814359884	3.0411327	1.7438843
18.420976262515172	3.0585146	1.748861
18.43873215678387	3.1094198	1.7633547
18.456488497625923	3.1275241	1.7684808
18.474245285501407	3.223894	1.7955205
18.492002520870486	3.2334971	1.7981927
18.50976020419343	3.2970762	1.8157853
18.527518335930615	3.5864184	1.8937842
18.545276916542516	4.181058	2.0447636
18.563035946489688	4.3707576	2.0906358
18.580795426232832	4.81946	2.1953268
18.598555356232698	4.7478824	2.1789637
18.616315736950185	4.9547577	2.2259285
18.63407656884626	4.5440316	2.1316733
18.65183785238201	4.6692305	2.1608403
18.669599588018617	4.4989843	2.1210809
18.68736177621737	4.5252447	2.1272624
18.705124417439652	4.553594	2.1339152
18.72288751214696	4.3687	2.0901434
18.740651060800886	4.4880023	2.1184905
18.758415063863115	4.2454753	2.060455
18.77617952179546	4.4130197	2.1007187
18.793944435059814	4.188457	2.046572
18.811709804118184	4.2190776	2.0540392
18.829475629432675	4.187321	2.0462945
18.8472419114655	3.9924004	1.9980992
18.86500865067897	4.0457864	2.011414
18.88277584753551	3.7197223	1.9286581
18.90054350249763	3.7279582	1.9307921
18.918311616027957	3.4544704	1.8586205
18.936080188589226	3.3843288	1.8396546
18.953849220644265	3.0977738	1.7600493
18.971618712656007	2.9016182	1.7034137
18.9893886650875	2.87291	1.6949661
19.007159078401887	8.0116625	2.830488
19.024929953062408	32.898106	5.7356873
19.042701289532435	32.794895	5.7266827
19.060473088275405	25.351923	5.0350695
19.07824534975489	2.5843387	1.6075878
19.096018074434568	2.5441802	1.5950487
19.113791262778197	2.5154688	1.586023
19.13156491524966	2.5083828	1.5837874
19.149339032312945	2.4969466	1.580173
19.167113614432136	2.5331726	1.5915943
19.184888662071433	2.5564227	1.5988817
19.202664175695123	2.5545192	1.5982863
19.220440155767623	2.5332692	1.5916247
19.238216602753447	2.5159645	1.5861793
19.2559935171172	2.4664245	1.5704855
19.27377089932361	2.4609509	1.5687418
19.291548749837514	2.4415345	1.562541
19.309327069123835	2.450169	1.5653015
19.32710585764763	2.4602077	1.5685049
19.344885115874032	2.5045402	1.5825739
19.362664844268313	2.503357	1.5822
19.380445043295822	2.4792016	1.574548
19.39822571342203	2.4577594	1.5677242
19.41600685511252	2.491882	1.5785697
19.43378846883297	2.518416	1.5869517
19.451570555049173	2.5458195	1.5955625
19.469353114227037	2.5308666	1.5908698
19.48713614683254	2.4633904	1.5695192
19.50491965333182	2.447957	1.5645949
19.52270363419109	2.4559336	1.5671419
19.540488089876686	2.4726574	1.5724686
19.55827302085503	2.4658337	1.5702974
19.576058427592674	2.4343472	1.5602394
19.593844310556282	2.4207482	1.5558754
19.611630670212598	2.452883	1.5661683
19.629417507028506	2.5009663	1.5814444
19.64720482147098	2.478994	1.5744821
19.6649926140071	2.462041	1.5690892
19.682780885104084	2.4518957	1.565853
19.70056963522921	2.434524	1.5602962
19.718358864849908	2.4565108	1.567326
19.7361485744337	2.4814608	1.5752653
19.753938764448215	2.4992716	1.5809085
19.771729435361202	2.5094938	1.5841382
19.789520587640506	2.5020936	1.5818007
19.807312221754092	2.5013368	1.5815616
19.825104338170043	2.5069764	1.5833434
19.842896937356517	2.5382123	1.5931768
19.860690019781824	2.538235	1.5931839
19.87848358591436	2.5101779	1.584354
19.896277636222635	2.4728224	1.5725211
19.914072171175278	2.4493191	1.5650301
19.931867191241015	2.442177	1.5627466
19.94966269688869	2.4331484	1.5598552
19.967458688587264	2.451709	1.5657934
19.985255166805807	2.4412644	1.5624546
20.00305213201348	2.409937	1.5523971
20.020849584679578	2.4096856	1.5523162
20.038647525273507	2.4042516	1.5505649
20.05644595426477	2.4281905	1.5582652
20.07424487212299	2.4275057	1.5580455
20.092044279317903	2.4129002	1.5533513
20.109844176319353	2.3580446	1.5355926
20.127644563597304	2.3395655	1.5295638
20.145445441621817	2.3916156	1.546485
20.16324681086307	2.3957782	1.5478301
20.181048671791373	2.3911176	1.5463239
20.198851024877122	2.4028327	1.5501074
20.216653870590836	2.408374	1.5518937
20.234457209403146	2.4016604	1.5497291
20.252261041784802	2.3797479	1.5426432
20.270065368206662	2.367788	1.5387619
20.287870189139685	2.3559356	1.5349057
20.305675505054968	2.343007	1.5306884
20.323481316423702	2.3273706	1.5255722
20.341287623717207	2.3351326	1.5281141
20.359094427406884	2.3409436	1.5300143
20.376901727964288	2.3475306	1.5321653
20.39470952586107	2.3220637	1.523832
20.41251782156899	2.3187056	1.5227296
20.430326615559935	2.3061833	1.5186123
20.448135908305886	2.3014054	1.5170383
20.465945700278965	2.2992144	1.516316
20.483755991951384	2.329325	1.5262126
20.50156678379548	2.3430147	1.5306909
20.519378076283708	2.3148243	1.5214547
20.537189869888635	2.2976108	1.5157871
20.55500216508294	2.311732	1.5204381
20.572814962339415	2.3119853	1.5205214
20.59062826213098	2.305811	1.5184897
20.60844206493066	2.2966468	1.5154692
20.626256371211593	2.276258	1.5087273
20.644071181447032	2.271212	1.5070541
20.66188649611036	2.2596033	1.5031977
20.67970231567506	2.2985067	1.5160826
20.697518640614742	2.2975585	1.51577
20.715335471403122	2.3222194	1.523883
20.73315280851404	2.2895093	1.5131124
20.750970652421447	2.2749112	1.5082809
20.768789003599412	2.3015351	1.5170811
20.786607862522136	2.3372142	1.528795
20.8044272296639	2.3245256	1.5246395
20.82224710549913	2.2542386	1.5014122
20.84006749050237	2.2392046	1.4963973
20.857888385148268	3.8484652	1.9617505
20.8757097899116	45.97972	6.7808347
20.893531705267254	64.83375	8.051941
20.911354131690224	83.79727	9.154085
20.92917706965566	69.062645	8.310393
20.94700051963877	50.12528	7.079921
20.96482448211493	29.38808	5.4210773
20.982648957559622	4.1179047	2.029262
21.00047394644843	2.2167816	1.488886
21.01829944925707	2.242847	1.4976138
21.036125466461375	2.2560413	1.5020124
21.053951998537297	2.2427206	1.4975716
21.071779045960906	2.2212188	1.4903754
21.089606609208378	2.2230086	1.4909757
21.10743468875603	2.2260003	1.4919786
21.12526328508028	2.2325957	1.4941874
21.143092398657675	2.2292333	1.4930617
21.16092202996488	2.2120278	1.4872887
21.17875217947867	2.1658807	1.4716932
21.19658284767596	2.2082367	1.4860137
21.21441403503377	2.1947117	1.4814559
21.232245742029225	2.1595697	1.4695475
21.2500779691396	2.1228573	1.4570029
21.26791071684227	2.125201	1.457807
21.28574398561475	2.1377301	1.4620979
21.30357777593465	2.133598	1.4606841
21.321412088279704	2.14407	1.4642643
21.339246923127792	2.1484003	1.4657422
21.357082280956888	2.1276665	1.4586523
21.3749181622451	2.0761826	1.4408965
21.392754567470647	2.0971553	1.4481559
21.41059149711187	2.1078122	1.4518306
21.42842895164726	2.1384654	1.4623493
21.446266931555378	2.1068645	1.4515042
21.464105437314945	2.101451	1.4496382
21.481944469404798	2.0705097	1.4389266
21.49978402830388	2.0773416	1.4412986
21.51762411449127	2.1001985	1.4492061
21.53546472844617	2.1158552	1.454598
21.553305870647876	2.0926118	1.4465863
21.571147541575865	2.0396998	1.4281806
21.58898974170967	2.0400858	1.4283158
21.60683247152899	2.0496426	1.4316573
21.62467573151363	2.0517373	1.4323887
21.642519522143523	2.0375655	1.4274331
21.660363843898722	2.019715	1.4211668
21.6782086972594	2.0057428	1.4162425
21.696054082705864	2.0092092	1.4174658
21.713900000718535	2.0206454	1.421494
21.73174645177795	1.9892379	1.4104035
21.749593436364794	1.9698685	1.4035201
21.767440954959845	1.9686886	1.4030997
21.785289008044032	1.9961829	1.4128634
21.803137596098388	2.0249045	1.4229914
21.820986719604086	2.0229988	1.4223217
21.838836379042412	2.0384889	1.4277565
21.85668657489478	2.033358	1.4259586
21.87453730764273	1.9894655	1.4104841
21.892388577767914	1.9598132	1.3999333
21.91024038575213	1.9815223	1.4076656
21.928092732077285	2.0140145	1.4191598
21.945945617225426	2.024697	1.4229186
21.963799041678694	2.0089514	1.4173748
21.981653005919398	31.331013	5.597411
21.999507510429943	78.14664	8.840058
22.01736255569286	73.085915	8.54903
22.035218142190818	4.177663	2.0439332
22.05307427040661	1.9733338	1.404754
22.07093094082315	1.9647682	1.4017019
22.088788153923474	1.953305	1.3976068
22.106645910190746	1.9503942	1.3965651
22.12450421010827	1.9865178	1.4094388
22.142363054159464	2.0209043	1.4215851
22.16022244282787	2.0434513	1.4294934
22.178082376597164	2.010183	1.4178092
22.195942855951145	1.9518535	1.3970875
22.213803881373742	1.9403068	1.392949
22.231665453349002	1.9721775	1.4043424
22.24952757236111	1.9840547	1.4085648
22.26739023889438	1.9327472	1.3902328
22.28525345343323	1.9146279	1.3837008
22.30311721646225	1.9361756	1.3914653
22.320981528466113	1.9854946	1.4090759
22.33884638992964	2.0202663	1.4213607
22.356711801337788	2.0020945	1.414954
22.37457776317561	1.9617525	1.4006257
22.392444275928337	1.9385618	1.3923224
22.410311340081282	1.9380896	1.3921529
22.428178956119904	1.9559002	1.398535
22.446047124529805	1.9480487	1.3957251
22.46391584579669	1.9536878	1.3977438
22.481785120406414	1.9203813	1.3857782
22.49965494884496	1.8943434	1.3763515
22.51752533159841	1.8991628	1.3781011
22.53539626915302	1.8890963	1.374444
22.553267761995137	1.881736	1.3717638
22.571139810611264	1.8700945	1.367514
22.589012415488025	1.9241313	1.3871306
22.60688557711216	1.9646202	1.4016491
22.624759295970566	2.003343	1.415395
22.642633572550263	1.9955742	1.412648
22.660508407338362	1.9809128	1.407449
22.67838380082217	1.9554604	1.3983778
22.696259753489077	1.9581724	1.3993472
22.714136265826614	1.9499949	1.3964221
22.73201333832246	1.9294404	1.389043
22.74989097146439	1.9432598	1.3940085
22.76776916574035	1.9578806	1.3992429
22.785647921638393	1.94173	1.3934597
22.803527239646712	1.8852767	1.3730538
22.82140712025363	1.8740094	1.3689446
22.839287563947593	1.8575522	1.3629204
22.85716857121719	1.8566049	1.3625729
22.875050142551135	1.872764	1.3684896
22.892932278438277	1.904786	1.3801398
22.910814979367604	1.9132699	1.38321
22.928698245828222	1.8822857	1.3719642
22.946582078309387	1.9049022	1.3801819
22.96446647730047	1.9069362	1.3809186
22.98235144329098	1.8787872	1.3706886
23.000236976770562	1.8493739	1.3599169
23.018123078229	1.8832608	1.3723195
23.03600974815619	1.9231981	1.3867942
23.053896987042194	1.9357477	1.3913115
23.071784795377173	1.9446857	1.3945199
23.08967317365145	1.9223961	1.386505
23.10756212235546	1.9496615	1.3963028
23.125451641979787	1.9037094	1.3797498
23.143341733015134	1.9125397	1.382946
23.161232395952357	1.9020622	1.3791527
23.179123631282426	1.9312062	1.3896785
23.197015439496468	1.9356159	1.3912641
23.214907821085717	1.9388465	1.3924247
23.23280077654157	1.9331466	1.3903764
23.250694306355538	1.9264134	1.3879529
23.268588411019277	1.9381406	1.3921711
23.28648309102458	1.93885	1.392426
23.304378346863356	1.9529438	1.3974776
23.322274179027676	1.9465448	1.3951863
23.340170588009723	1.9395345	1.3926717
23.358067574301852	1.8960742	1.3769801
23.37596513839651	1.8678927	1.3667088
23.39386328078629	1.884394	1.3727323
23.411762001963947	1.9145663	1.3836786
23.429661302422353	1.9313462	1.3897288
23.4475611826545	1.9338589	1.3906325
23.46546164315356	1.914913	1.3838038
23.48336268441279	1.8998568	1.3783529
23.501264306925638	1.8630759	1.3649454
23.51916651118564	1.8656003	1.3658698
23.537069297686497	1.8990518	1.3780609
23.554972666922037	1.9255416	1.3876389
23.57287661938623	1.9091303	1.3817128
23.59078115557318	1.8572959	1.3628265
23.608686275977128	1.8237776	1.350473
23.62659198109246	1.8267474	1.3515722
23.6444982714137	1.8570313	1.3627294
23.66240514743549	1.9082174	1.3813825
23.68031260965263	1.9260638	1.387827
23.698220658560068	1.9105625	1.382231
23.716129294652845	1.9403994	1.3929822
23.7340385184262	1.9096833	1.381913
23.75194833037546	1.9038669	1.3798069
23.769858730996123	1.8764731	1.3698442
23.78776972078382	1.9010308	1.3787787
23.80568130023431	1.9392929	1.3925849
23.823593469843495	1.9479148	1.3956772
23.841506230107424	1.9343281	1.3908012
23.859419581522275	1.9073975	1.3810856
23.87733352458438	1.8862062	1.3733922
23.89524805979019	1.9255095	1.3876272
23.913163187636318	1.9344106	1.3908309
23.931078908619508	1.9659339	1.4021176
23.948995223236633	1.9722092	1.4043536
23.966912131984735	2.0099764	1.4177364
23.98482963536096	2.0196507	1.4211441
24.002747733862616	2.0190072	1.4209177
24.020666427987155	2.016255	1.4199489
24.038585718232156	2.0252929	1.4231279
24.056505605095353	2.0546336	1.4333993
24.074426089074617	2.1285145	1.4589429
24.092347170667946	2.1394663	1.4626914
24.110268850373515	2.1119432	1.4532527
24.128191128689586	2.0752065	1.4405577
24.146114006114626	2.0976706	1.4483337
24.164037483147187	2.0824468	1.4430685
24.181961560286005	2.0387378	1.4278438
24.199886238029926	2.020375	1.421399
24.21781151687797	2.052439	1.4326336
24.235737397329274	2.0600374	1.4352831
24.253663879883135	2.068137	1.4381019
24.271590965038975	2.045512	1.4302139
24.289518653296376	2.0135307	1.4189893
24.30744694515505	2.03222	1.4255595
24.32537584111486	2.0354023	1.4266753
24.34330534167581	2.0369458	1.427216
24.361235447338046	2.0041845	1.4156922
24.379166158601876	2.0087638	1.4173087
24.39709747596772	1.9989301	1.4138353
24.41502939993615	1.9609159	1.4003271
24.432961931007917	1.9833	1.4082968
24.450895069683856	1.9920634	1.4114047
24.468828816465	1.9931023	1.4117727
24.4867631718525	1.9472055	1.395423
24.504698136347656	1.9397019	1.3927318
24.52263371045192	1.9019693	1.379119
24.540569894666874	1.886008	1.3733201
24.558506689494266	1.885254	1.3730456
24.57644409543597	1.9049453	1.3801975
24.594382112994012	1.9226097	1.386582
24.61232074267057	1.9260535	1.3878233
24.630259984967953	1.9685146	1.4030377
24.64819984038863	2.0030758	1.4153006
24.66614030943522	2.0119998	1.4184498
24.684081392610462	1.9827131	1.4080884
24.702023090417274	1.9773973	1.4061996
24.7199654033587	1.9836144	1.4084085
24.737908331937927	2.0095901	1.4176002
24.755851876658305	2.035052	1.4265525
24.773796038023324	2.006423	1.4164826
24.79174081653661	1.9845704	1.4087478
24.809686212701962	2.0027442	1.4151834
24.827632227023294	2.0514312	1.4322819
24.8455788600047	2.105128	1.4509059
24.8635261121504	2.1299024	1.4594185
24.88147398396475	2.146991	1.4652615
24.899422475952303	2.1427684	1.4638197
24.917371588617698	2.1508663	1.4665833
24.935321322465768	2.184371	1.4779618
24.953271678001478	2.2845302	1.5114663
24.97122265572994	2.448613	1.5648044
24.989174256156414	2.8143167	1.6775925
25.00712647978632	3.4213972	1.8497019
25.02507932712521	4.4359975	2.1061807
25.043032798678798	5.8938293	2.427721
25.060986894952933	7.536414	2.745253
25.078941616453637	8.994901	2.99915
25.096896963687055	9.897009	3.1459513
25.114852937159508	10.535916	3.2459075
25.132809537377444	10.359	3.2185402
25.150766764847468	9.755082	3.1233127
25.168724620076347	8.388438	2.89628
25.186683103570985	7.159775	2.6757755
25.204642215838426	5.7909555	2.4064405
25.222601957385894	4.5964394	2.143931
25.24056232872074	3.5060487	1.8724446
25.25852333035048	2.90006	1.7029562
25.276484962782778	2.5086422	1.5838693
25.294447226525435	2.2601893	1.5033926
25.312410122086423	2.101035	1.4494948
25.330373649973843	2.0051153	1.4160209
25.348337810695988	2.0290394	1.4244435
25.366302604761245	2.0434628	1.4294974
25.384268032678207	2.023448	1.4224795
25.40223409495558	1.9768672	1.4060111
25.420200792102257	1.946048	1.3950082
25.438168124627246	1.9294308	1.3890395
25.45613609303974	1.9049864	1.3802124
25.474104697849057	1.8745337	1.3691361
25.492073939564698	1.8969122	1.3772844
25.510043818696285	1.9010412	1.3787825
25.528014335753614	1.8667127	1.366277
25.54598549124664	1.8690288	1.3671243
25.56395728568544	1.8851439	1.3730054
25.58192971958028	1.8864065	1.3734652
25.59990279344156	1.8103163	1.34548
25.617876507779833	1.7904652	1.3380827
25.635850863105826	1.8237638	1.350468
25.653825859930386	1.8345889	1.35447
25.671801498764548	1.837396	1.3555058
25.68977778011949	1.8667736	1.3662993
25.707754704506524	1.8636277	1.3651475
25.725732272437153	1.8445933	1.358158
25.743710484423012	1.8248008	1.3508519
25.761689340975888	1.8604902	1.3639978
25.77966884260774	1.8777125	1.3702965
25.797648989830662	1.8906945	1.3750253
25.815629783156922	1.9041401	1.3799058
25.83361122309895	1.8841332	1.3726373
25.85159331016929	1.8394783	1.3562737
25.869576044880695	1.8071098	1.3442879
25.887559427746034	1.8102039	1.3454382
25.90554345927836	1.8381925	1.3557996
25.92352813999086	1.8310674	1.3531694
25.94151347039689	1.8244512	1.3507224
25.959499451009965	1.8151832	1.3472873
25.97748608234374	1.8338253	1.3541881
25.995473364912062	1.8307682	1.3530588
26.013461299228904	1.8050537	1.3435229
26.03144988580839	1.7679394	1.3296388
26.04943912516483	1.7441174	1.3206503
26.067429017812675	1.7840301	1.3356758
26.085419564266537	1.7967492	1.3404287
26.103410765041186	1.805894	1.3438356
26.12140262065155	1.8193872	1.3488467
26.139395131612723	1.8201414	1.3491262
26.157388298439948	1.834778	1.3545398
26.17538212164861	1.906261	1.3806741
26.193376601754295	1.8967944	1.3772416
26.211371739272714	1.836056	1.3550115
26.229367534719746	1.7831511	1.3353468
26.247363988611433	1.7889972	1.337534
26.26536110146397	1.7910516	1.3383018
26.283358873793727	1.8381768	1.3557938
26.301357306117204	1.8200996	1.3491107
26.319356398951104	1.8665072	1.3662018
26.33735615281224	1.8855644	1.3731586
26.35535656821762	1.8625797	1.3647636
26.373357645684404	1.8238074	1.3504841
26.39135938572991	1.8342487	1.3543444
26.409361788871614	1.8203146	1.3491904
26.427364855627165	1.794935	1.3397518
26.445368586514352	1.8077862	1.3445394
26.46337298205115	1.8458512	1.358621
26.48137804275568	1.8507458	1.3604212
26.499383769146217	1.8191633	1.3487636
26.517390161741215	1.8526311	1.3611139
26.53539722105928	1.8641825	1.3653507
26.553404947619182	1.8341885	1.3543222
26.571413341939856	1.786639	1.3366522
26.589422404540397	1.7640783	1.328186
26.60743213594006	1.7680725	1.3296889
26.62544253665827	1.8109987	1.3457335
26.64345360721459	1.805685	1.3437577
26.66146534812879	1.783642	1.3355306
26.679477759920758	1.8392273	1.3561811
26.69749084311057	1.846905	1.3590088
26.71550459821847	1.7979034	1.3408592
26.733519025764842	1.772623	1.3313988
26.751534126270258	1.7935386	1.3392305
26.769549900255434	1.830077	1.3528033
26.787566348241267	1.8711966	1.367917
26.80558347074881	1.8614243	1.3643403
26.823601268299267	1.8210762	1.3494725
26.841619741414036	1.8297938	1.3526987
26.85963889061465	1.8252184	1.3510065
26.877658716422832	1.840746	1.356741
26.89567921936045	1.8486401	1.359647
26.913700399949544	1.8181621	1.3483924
26.93172225871233	1.8018076	1.3423142
26.949744796171174	1.7553177	1.324884
26.967768012848605	1.7364459	1.3177427
26.98579190926733	1.7659583	1.3288937
27.003816485950225	1.7775264	1.3332391
27.021841743420318	1.7905879	1.3381286
27.039867682200814	1.8009082	1.3419793
27.057894302815072	1.8153485	1.3473487
27.07592160578664	1.7904553	1.338079
27.0939495916392	1.7626202	1.3276371
27.111978260896635	1.7897836	1.3378279
27.13000761408296	1.8277109	1.3519286
27.148037651722397	1.8490329	1.3597915
27.166068374339304	1.7734755	1.331719
27.184099782458215	1.7352161	1.317276
27.20213187660384	1.7426581	1.3200978
27.22016465730105	1.8148383	1.3471594
27.23819812507487	1.8257266	1.3511945
27.256232280450533	1.8605262	1.364011
27.274267123953383	1.8668132	1.3663137
27.292302656108987	1.880624	1.3713585
27.31033887744306	1.8237637	1.3504679
27.32837578848146	1.7869855	1.3367817
27.34641338975026	1.7593416	1.3264017
27.364451681775673	1.7481251	1.3221668
27.382490665084074	1.7311355	1.3157262
27.400530340202046	1.77402	1.3319234
27.41857070765629	1.7805566	1.334375
27.436611767973726	1.7962186	1.3402308
27.454653521681404	1.8054957	1.3436874
27.472695969306564	1.8179238	1.348304
27.490739111376627	1.8107054	1.3456246
27.508782948419153	1.7804346	1.3343292
27.526827480961902	1.7477173	1.3220125
27.54487270953279	1.745382	1.3211291
27.562918634659898	1.7764853	1.3328485
27.580965256871508	1.8093553	1.3451228
27.599012576696026	1.8270463	1.3516828
27.617060594662068	1.8146801	1.3471006
27.63510931129842	1.790741	1.3381857
27.65315872713401	1.8315368	1.3533428
27.67120884269797	1.8223991	1.3499626
27.68925965851958	1.8246658	1.350802
27.707311175128307	1.8540478	1.3616343
27.725363393053787	1.9097505	1.3819373
27.74341631282583	1.9318728	1.3899183
27.7614699349744	1.9072174	1.3810204
27.77952426002968	2.0613098	1.4357263
27.797579288521973	2.1430864	1.4639285
27.815635020981784	2.6374896	1.624035
27.83369145793979	2.7125874	1.6469934
27.85174859992682	2.5256503	1.5892295
27.869806447473923	2.3471742	1.5320491
27.887865001112267	2.0870454	1.444661
27.905924261373233	1.994651	1.4123211
27.92398422878836	1.929829	1.3891828
27.94204490388936	1.8791806	1.3708321
27.96010628720813	1.9075199	1.38113
27.978168379276728	1.9310942	1.3896382
27.9962311806274	1.9048061	1.3801471
28.014294691792568	1.8634131	1.3650689
28.0323589133048	1.8868449	1.3736247
28.050423845696887	1.8996738	1.3782866
28.068489489501758	1.8869482	1.3736624
28.086555845252523	1.9094582	1.3818314
28.104622913482487	1.9030629	1.3795155
28.122690694725115	1.8678837	1.3667054
28.14075918951405	1.8272163	1.3517456
28.15882839838312	1.8726661	1.3684539
28.176898321866304	1.9014844	1.3789432
28.1949689604978	1.8877649	1.3739595
28.213040314811945	1.8788847	1.3707242
28.23111238534327	1.8892012	1.3744822
28.249185172626493	1.877781	1.3703215
28.267258677196473	1.874375	1.3690782
28.285332899588294	1.8896492	1.3746451
28.303407840337172	1.918275	1.385018
28.321483499978545	1.9455252	1.3948208
28.33955987904799	1.9475535	1.3955477
28.357636978081285	1.9620063	1.4007163
28.37571479761439	2.0172286	1.4202918
28.393793338183425	2.0440295	1.4296956
28.41187260032469	1.9869044	1.4095759
28.429952584574686	1.9521698	1.3972007
28.448033291470065	1.9630435	1.4010866
28.46611472154769	2.032651	1.4257107
28.484196875344566	2.0708988	1.4390618
28.502279753397914	2.0526054	1.4326917
28.52036335624511	2.0273156	1.4238384
28.538447684423716	2.00879	1.4173179
28.556532738471482	2.0045538	1.4158226
28.574618518926325	1.9633763	1.4012053
28.59270502632635	1.9447323	1.3945366
28.61079226120985	1.9808058	1.407411
28.628880224115274	1.9977872	1.413431
28.646968915581287	1.9783316	1.4065317
28.66505833614671	1.9922601	1.4114745
28.68314848635055	2.0202727	1.421363
28.701239366732004	2.0939925	1.4470634
28.71933097783044	2.0954378	1.4475627
28.737423320185403	2.098527	1.4486294
28.75551639433665	2.1065922	1.4514104
28.773610200824074	2.1006577	1.4493645
28.791704740187793	2.1225188	1.4568866
28.80980001296809	2.173767	1.4743701
28.827896019705413	2.155255	1.4680787
28.845992760940433	2.1234107	1.4571928
28.86409023721397	2.1041636	1.4505736
28.88218844906704	2.1394534	1.462687
28.900287397040845	2.1880593	1.4792091
28.918387081676755	2.2063112	1.4853656
28.936487503516343	2.163779	1.470979
28.954588663101365	2.134933	1.461141
28.97269056097374	2.2140305	1.4879619
28.990793197675597	2.2889495	1.5129274
29.00889657374923	2.3548484	1.5345515
29.027000689737125	2.380424	1.5428623
29.04510554618196	2.3403647	1.5298251
29.06321114362659	2.3478308	1.5322633
29.08131748261405	2.4200754	1.5556592
29.099424563687567	2.4086106	1.5519699
29.11753238739057	2.4189856	1.5553088
29.13564095426663	2.456447	1.5673056
29.15375026485954	2.5200617	1.5874702
29.171860319713275	2.5910256	1.6096663
29.18997111937199	2.633885	1.6229248
29.20808266438002	2.7220352	1.6498592
29.226194955281898	2.7586343	1.6609137
29.244307992622335	2.724265	1.6505347
29.26242177694624	2.7773042	1.6665245
29.2805363087987	2.8744516	1.6954207
29.29865158872498	2.9171853	1.7079769
29.316767617270557	2.9380252	1.7140669
29.334884394981064	2.9977007	1.7313869
29.353001922402367	3.0285954	1.740286
29.37112020008047	3.1001668	1.7607291
29.389239228561596	3.256559	1.8045938
29.407359008392152	3.4473648	1.856708
29.42547954011872	3.7240727	1.9297856
29.44360082428809	4.0960345	2.0238662
29.46172286144722	4.9097505	2.2157958
29.479845652143283	6.5049434	2.550479
29.497969196923606	9.138168	3.0229404
29.516093496335728	12.913137	3.5934854
29.5342185509274	16.424686	4.052738
29.55234436124651	19.657738	4.433705
29.570470927841175	21.14367	4.5982246
29.588598251259686	21.119915	4.5956407
29.60672633205055	19.468021	4.412258
29.624855170762405	16.339878	4.0422616
29.642984767944146	12.88367	3.589383
29.66111512414481	9.593772	3.0973814
29.67924623991366	7.0658402	2.6581647
29.697378115800138	5.2083344	2.2821774
29.71551075235387	4.3187847	2.0781686
29.733644150124675	3.8606076	1.9648429
29.751778309662576	3.5737996	1.8904495
29.769913231517766	3.459227	1.8598998
29.78804891624066	3.3711958	1.8360816
29.806185364381818	3.3107526	1.8195474
29.82432257649206	3.343867	1.8286244
29.842460553122333	3.3382485	1.8270874
29.86059929482382	3.3088171	1.8190154
29.878738802147872	3.296738	1.8156922
29.896879075646048	3.2958343	1.8154433
29.915020115870114	3.3192434	1.8218791
29.933161923371976	3.3739357	1.8368276
29.951304498703777	3.325886	1.8237011
29.969447842417857	3.266636	1.8073837
29.987591955066733	3.2732105	1.8092016
30.005736837203123	3.271646	1.8087692
30.023882489379943	3.1592274	1.7774216
30.04202891215028	3.1485558	1.774417
30.060176106067455	3.2125897	1.7923698
30.078324071684946	3.178387	1.782803
30.09647280955646	3.171544	1.780883
30.114622320235863	3.1468081	1.7739245
30.132772604277257	3.130622	1.7693564
30.1509236622349	3.0738556	1.7532414
30.16907549466328	2.9956543	1.7307959
30.18722810211705	3.0211096	1.7381339
30.205381485151097	3.1702673	1.7805245
30.22353564432045	3.1937091	1.7870952
30.241690580180403	3.0950463	1.7592744
30.25984629328638	3.0489419	1.746122
30.278002784194037	3.047448	1.7456942
30.296160053459246	2.9952977	1.7306929
30.314318101638033	2.9349282	1.7131633
30.332476929286646	2.946141	1.7164327
30.35063653696153	2.9669495	1.7224835
30.368796925219307	2.915359	1.7074423
30.386958094616844	2.853324	1.6891785
30.40512004571115	2.8671641	1.6932702
30.423282779059463	2.930698	1.7119281
30.441446295219233	2.9286833	1.7113396
30.459610594748067	2.8410082	1.685529
30.47777567820382	2.792635	1.6711179
30.495941546144504	2.8219142	1.6798555
30.51410819912835	2.8082893	1.6757951
30.532275637713795	2.8015213	1.6737746
30.55044386245946	2.8329759	1.6831447
30.56861287392416	2.803275	1.6742984
30.586782672666956	2.7939801	1.6715204
30.604953259247047	2.7951782	1.6718787
30.623124634223885	2.8621664	1.6917938
30.641296798157075	2.8784897	1.6966113
30.659469751606462	2.8934312	1.7010089
30.677643495132074	2.823291	1.6802652
30.695818029294152	2.7910142	1.6706328
30.713993354653116	2.69976	1.6430947
30.73216947176962	2.6952178	1.6417118
30.75034638120448	2.7190952	1.648968
30.768524083518756	2.697445	1.64239
30.786702579273673	2.8050706	1.6748345
30.80488186903069	2.965183	1.7219707
30.82306195335144	3.1580255	1.7770834
30.841242832797782	3.3588314	1.8327115
30.85942450793176	3.6026778	1.8980721
30.877606979315637	3.8846004	1.9709389
30.895790247511883	4.253353	2.062366
30.913974313083134	4.7641234	2.1826873
30.932159176592283	5.281211	2.2980886
30.95034483860237	5.6053805	2.3675685
30.968531299676698	5.5620823	2.3584068
30.98671856037873	5.207313	2.2819538
31.00490662127215	4.7577906	2.181236
31.023095482920848	4.2418885	2.0595846
31.04128514588892	3.6982324	1.9230789
31.059475610740662	3.2420063	1.8005573
31.07766687804056	2.8951268	1.7015072
31.09585894835335	2.7236874	1.6503597
31.11405182224393	2.6259968	1.6204928
31.132245500277417	2.5810113	1.6065526
31.15043998301914	2.5234067	1.5885235
31.168635271034628	2.4606216	1.5686369
31.18683136488964	2.4197288	1.5555477
31.20502826515008	2.4882612	1.5774224
31.223225972382135	2.4685705	1.5711685
31.241424487152155	2.3632154	1.5372753
31.259623810026692	2.338691	1.5292779
31.27782394157253	2.3653224	1.5379604
31.296024882356644	2.4208608	1.5559115
31.314226632946237	2.4383035	1.5615067
31.332429193908684	2.440212	1.5621178
31.350632565811598	2.4535167	1.5663706
31.368836749222787	2.476702	1.5737541
31.387041744710295	2.5688024	1.6027484
31.40524755284232	2.6582503	1.6304141
31.423454174187317	2.6680262	1.6334094
31.441661609313922	2.6241257	1.6199154
31.459869858791002	2.5310984	1.5909426
31.478078923187628	2.484032	1.5760812
31.496288803073064	2.4011123	1.5495523
31.514499499016807	2.3412783	1.5301236
31.532711011588546	2.2921813	1.5139952
31.550923341358178	2.2579625	1.5026518
31.56913648889584	2.294508	1.5147634
31.587350454771844	2.3380167	1.5290575
31.605565239556732	2.3259833	1.5251175
31.62378084382127	2.284216	1.5113623
31.641997268136382	2.3417437	1.5302757
31.660214513073274	2.4082873	1.5518657
31.67843257920331	2.3878062	1.5452528
31.6966514670981	2.3463287	1.5317731
31.71487117732944	2.3376198	1.5289277
31.733091710469346	2.305963	1.5185398
31.751313067090052	2.3105187	1.5200391
31.769535247764008	2.354391	1.5344025
31.787758253063878	2.3057542	1.518471
31.805982083562526	2.249885	1.4999617
31.824206739833024	2.2911243	1.513646
31.84243222244869	2.3169568	1.5221553
31.860658531983013	2.2840126	1.511295
31.878885669009737	2.2512863	1.5004287
31.897113634102784	2.2870383	1.5122957
31.91534242783632	2.2200212	1.4899735
31.933572050784694	2.1317732	1.4600593
31.951802503522508	2.1588197	1.4692923
31.970033786624548	2.2481208	1.4993734
31.988265900665834	2.25262	1.5008731
32.006498846221575	2.2951396	1.5149719
32.02473262386724	2.3020504	1.5172509
32.04296723417845	2.33386	1.5276976
32.0612026777311	2.2943997	1.5147276
32.07943895510129	2.2378411	1.4959415
32.097676066865304	2.2070246	1.4856058
32.115914013599685	2.1911242	1.4802446
32.13415279588115	2.1205745	1.4562192
32.152392414286666	2.0992835	1.4488904
32.1706328693934	2.1291723	1.4591683
32.18887416177875	2.1890752	1.4795524
32.20711629202032	2.2391806	1.4963892
32.225359260695924	2.1951015	1.4815875
32.243603068383614	2.1716344	1.4736466
32.26184771566166	2.2156613	1.4885098
32.28009320310852	2.1744335	1.474596
32.2983395313029	2.1423905	1.4636908
32.31658670082372	2.2014828	1.4837395
32.33483471225012	2.1617959	1.4703047
32.35308356616143	2.061408	1.4357605
32.371333263137245	2.091195	1.4460965
32.38958380375734	2.2017956	1.4838449
32.407835188601744	2.2271392	1.4923602
32.42608741825067	2.2194507	1.4897821
32.444340493284585	2.1547997	1.4679236
32.46259441428416	2.091281	1.4461262
32.48084918183028	2.0619211	1.4359391
32.49910479650405	2.184914	1.4781455
32.51736125888683	2.2213497	1.4904193
32.53561856956014	2.127386	1.4585562
32.5538767291058	2.0342627	1.4262758
32.572135738105764	2.055136	1.4335746
32.59039559714228	2.0694387	1.4385544
32.608656306797776	2.0640433	1.4366778
32.62691786765491	2.0721388	1.4394926
32.645180280296586	2.0865505	1.4444897
32.663443545305896	2.1557157	1.4682356
32.68170766326619	2.129443	1.4592611
32.69997263476099	1.9979494	1.4134884
32.7182384603741	1.9999347	1.4141904
32.7365051406895	2.0802076	1.4422925
32.75477267629144	2.062313	1.4360756
32.77304106776434	2.017819	1.4204996
32.79131031569289	1.9903134	1.4107847
32.809580420661966	1.967465	1.4026636
32.827851383256714	2.030025	1.4247894
32.84612320406245	2.082197	1.442982
32.86439588366476	2.0841897	1.4436723
32.88266942264945	1.9843838	1.4086816
32.9009438216025	1.9372079	1.3918362
32.9192190811102	1.9210649	1.3860248
32.937495201758985	1.9245794	1.3872921
32.95577218413556	1.9085702	1.3815101
32.974050028826866	1.9300358	1.3892573
32.992328736420035	1.9825805	1.4080414
33.010608307502444	1.9636617	1.4013071
33.02888874266169	1.9422933	1.3936619
33.047170042485604	1.9417924	1.3934821
33.06545220756225	1.9635717	1.401275
33.083735238479896	1.9666252	1.4023641
33.10201913582707	2.0223658	1.4220991
33.12030390019248	2.031223	1.4252099
33.138589532165135	1.9794989	1.4069467
33.15687603233419	1.9308907	1.3895649
33.17516340128909	1.9709438	1.403903
33.19345163961947	1.9429146	1.3938847
33.211740747915215	1.91033	1.382147
33.23003072676643	1.8796127	1.3709897
33.248321576763466	1.8965821	1.3771645
33.266613298496885	1.8214424	1.3496082
33.28490589255747	1.7968028	1.3404487
33.30319935953626	1.8234905	1.3503668
33.32149370002451	1.948804	1.3959957
33.339788914613706	2.023301	1.4224278
33.358085003895575	2.04785	1.4310311
33.376381968462034	1.9008496	1.378713
33.39467980890529	1.9129543	1.383096
33.41297852581774	1.9263879	1.3879437
33.43127811979204	1.9011228	1.3788121
33.44957859142105	1.8863255	1.3734356
33.467879941297866	1.9876809	1.4098514
33.486182170015844	2.0504436	1.431937
33.50448527816853	2.035956	1.4268693
33.522789266349754	1.953562	1.3976989
33.541094135153514	1.8781691	1.3704631
33.55939988517411	1.9051956	1.3802882
33.57770651700602	1.9465823	1.3951998
33.59601403124398	1.8915938	1.3753523
33.61432242848296	1.9393445	1.3926035
33.632631709318154	1.9718902	1.4042401
33.650941874344994	1.8859109	1.3732847
33.66925292415916	1.7913333	1.338407
33.68756485935654	1.7466513	1.3216094
33.70587768053328	1.8285036	1.3522217
33.724191388285746	1.8379041	1.3556932
33.74250598321054	1.9007392	1.378673
33.760821465904506	1.9838399	1.4084885
33.77913783696474	1.8833132	1.3723385
33.79745509698852	1.779518	1.3339858
33.815773246573414	1.8590062	1.3634537
33.8340922863172	1.8853623	1.3730849
33.852412216817896	1.8330432	1.3538992
33.87073303867377	1.7197661	1.3113985
33.889054752483304	1.7222949	1.3123623
33.907377358845245	1.7745377	1.3321178
33.92570085835853	1.8455578	1.3585131
33.94402525162239	1.8179929	1.3483297
33.96235053923627	1.8488231	1.3597144
33.980676721799824	1.9093621	1.3817967
33.999003799912984	1.8360155	1.3549964
34.01733177417592	1.7733538	1.3316733
34.03566064518901	1.8861557	1.3733739
34.0539904135529	1.924055	1.3871031
34.07232107986846	1.9741325	1.4050382
34.090652644736785	2.0617323	1.4358734
34.108985108759235	1.996326	1.412914
34.12731847253742	1.9059869	1.3805748
34.14565273667313	1.8620961	1.3645864
34.16398790176847	1.8747586	1.3692182
34.18232396842574	1.8143647	1.3469836
34.20066093724749	1.7917303	1.3385553
34.21899880883651	1.8637141	1.3651792
34.23733758379583	2.0909104	1.4459981
34.25567726272874	2.1514075	1.4667677
34.27401784623872	2.1125095	1.4534475
34.29235933492957	1.9642494	1.4015168
34.31070172940526	1.9013193	1.3788834
34.32904503027003	2.0194993	1.4210908
34.347389238128386	2.0891972	1.4454055
34.36573435358502	2.0028756	1.4152299
34.38408037724492	2.0365243	1.4270685
34.402427309713296	2.007765	1.4169563
34.42077515159559	1.9966888	1.4130424
34.43912390349752	1.9955316	1.4126328
34.45747356602499	2.003435	1.4154274
34.47582413978423	1.9669427	1.4024774
34.49417562538163	2.0311882	1.4251976
34.51252802342388	1.9105505	1.3822266
34.53088133451789	1.851293	1.3606223
34.54923555927084	1.8645606	1.3654891
34.567590698290104	1.9211217	1.3860453
34.58594675218336	1.931646	1.3898367
34.6043037215585	1.7953063	1.3398904
34.62266160702365	1.7105216	1.3078691
34.641020409187234	1.927839	1.3884665
34.65938012865785	2.038366	1.4277136
34.677740766044394	1.9867619	1.4095254
34.69610232195598	1.9177443	1.3848264
34.714464797002016	1.9458501	1.3949373
34.73282819179208	1.9710718	1.4039487
34.751192506936064	1.9428746	1.3938704
34.76955774304408	1.7781693	1.3334801
34.7879239007265	1.7670007	1.3292857
34.80629098059391	1.8823235	1.3719779
34.824658983257194	1.987989	1.4099606
34.843027909327446	2.170114	1.4731307
34.86139775941603	1.9936092	1.4119523
34.879768534134534	1.6564295	1.2870235
34.89814023409483	1.639614	1.2804741
34.91651285990901	1.9571457	1.3989803
34.93488641218944	2.2580063	1.5026664
34.95326089154871	2.287529	1.512458
34.97163629859967	2.1085787	1.4520946
34.99001263395542	2.0118845	1.4184091
35.00838989822934	2.1429372	1.4638774
35.02676809203499	2.292779	1.5141925
35.04514721598624	2.1687372	1.4726633
35.063527270697215	2.0569353	1.434202
35.081908256782256	2.0039763	1.4156187
35.10029017485597	2.0449686	1.430024
35.11867302553321	1.9669999	1.4024978
35.137056809429104	1.9760008	1.405703
35.155441527159006	1.9258889	1.387764
35.173827179338524	2.1362915	1.4616058
35.19221376658354	2.2653735	1.5051157
35.21060128951017	1.9477947	1.3956342
35.2289897487348	1.8701875	1.367548
35.24737914487405	2.1069078	1.4515191
35.26576947854479	2.0926006	1.4465824
35.28416075036418	1.84023	1.3565508
35.30255296094958	1.8131306	1.3465254
35.32094611091867	1.8475862	1.3592594
35.33934020088932	1.8206193	1.3493032
35.35773523147969	1.8885963	1.3742621
35.3761312033082	2.2104547	1.4867598
35.394528116993506	2.3095214	1.519711
35.41292597315452	1.9694078	1.403356
35.431324772410434	1.6290869	1.2763568
35.449724515380666	1.6949372	1.3018975
35.46812520268491	1.8289015	1.3523688
35.486526834943106	2.0321045	1.425519
35.504929412775454	2.2319605	1.4939747
35.52333293680242	2.3194902	1.5229872
35.54173740764471	1.9566739	1.3988116
35.560142825923286	1.511416	1.2293966
35.5785491922594	1.6574914	1.287436
35.59695650727454	1.836832	1.3552978
35.61536477159042	1.5075935	1.227841
