0.008763373481513119	0.0	0.0
0.026290120649546365	0.0	0.0
0.043816868432600686	0.060138714	0.24523196
0.06134361724069026	0.08291717	0.2879534
0.07887036748382949	0.1736755	0.41674393
0.0963971195720331	0.3512653	0.5926764
0.11392387391531617	0.39383733	0.6275646
0.1314506309236943	0.4058439	0.6370588
0.1489773910071836	0.38192168	0.6179981
0.16650415457580078	0.25448692	0.50446695
0.18403092203956356	0.18755811	0.4330798
0.20155769380849	0.08857383	0.29761356
0.2190844702925996	0.08165805	0.28575873
0.2366112519019124	0.09744005	0.31215388
0.2541380390464497	0.08477215	0.29115656
0.27166483213623416	0.08638354	0.29391077
0.28919163158128947	0.08989164	0.29981935
0.3067184377916406	0.09420783	0.30693296
0.324245251177314	0.060178246	0.24531254
0.34177207214833777	0.07143597	0.2672751
0.3592989011147415	0.10379068	0.3221656
0.37682573848655654	0.15098472	0.38856754
0.39435258467381573	0.17717801	0.42092517
0.41187944008655414	0.1554662	0.39429203
0.42940630513480854	0.20123917	0.4485969
0.446933180228618	0.20155042	0.44894367
0.4644600657780234	0.22705089	0.47649857
0.48198696219306775	0.22707963	0.47652873
0.49951386988379676	0.1711908	0.4137521
0.5170407892602581	0.10872785	0.32973906
0.5345677207325025	0.07489853	0.27367598
0.5520946647105822	0.09163436	0.3027117
0.5696216216045534	0.13912301	0.37299198
0.5871485918244737	0.16547695	0.4067886
0.6046755757804043	0.15997615	0.3999702
0.6222025738824094	0.15856172	0.3981981
0.6397295865405557	0.14493753	0.3807066
0.6572566141649129	0.15925658	0.39906964
0.6747836571655547	0.14890999	0.38588858
0.6923107159525568	0.17081879	0.4133023
0.7098377909359992	0.17353648	0.4165771
0.7273648825259653	0.17544185	0.41885778
0.7448919911325411	0.1821219	0.42675743
0.762419117165817	0.16466326	0.4057872
0.7799462610358868	0.13487044	0.3672471
0.7974734231528482	0.16711219	0.40879357
0.8150006039268024	0.19353831	0.4399299
0.8325278037678551	0.21943498	0.46843886
0.8500550230861152	0.17547342	0.41889548
0.8675822622916969	0.2037114	0.451344
0.8851095217947171	0.20787543	0.45593357
0.9026368020052984	0.2350371	0.48480624
0.9201641033335665	0.24013118	0.4900318
0.9376914261896523	0.23274483	0.48243636
0.9552187709836915	0.21978977	0.4688174
0.9727461381258234	0.22012773	0.46917772
0.990273528026193	0.20306525	0.45062762
1.0078009410949496	0.21619138	0.46496385
1.0253283777422473	0.23827684	0.48813608
1.0428558383782454	0.2996939	0.5474431
1.0603833234131086	0.29630837	0.54434216
1.0779108332570058	0.33305165	0.5771063
1.0954383683201119	0.31742597	0.5634057
1.112965929012607	0.3409162	0.5838803
1.1304935157446763	0.43766144	0.6615599
1.1480211289265108	0.43631205	0.6605392
1.1655487689683062	1.3077525	1.1435701
1.1830764362802655	1.6042464	1.2665884
1.200604131272596	2.0761545	1.4408867
1.2181318543555117	2.45584	1.5671121
1.235659605939232	2.5387146	1.5933344
1.253187386433982	4.127574	2.0316432
1.270715196249994	6.430883	2.5359185
1.2882430357975057	11.873925	3.4458563
1.3057709054867608	16.41294	4.0512886
1.3232988057280106	22.131346	4.7043962
1.3408267369315112	27.11232	5.206949
1.358354699507526	30.847757	5.5540757
1.3758826938663256	34.954193	5.912207
1.3934107204181858	36.793095	6.065731
1.410938779573391	37.50153	6.1238494
1.4284668717422309	37.783325	6.1468143
1.4459949973350033	37.483944	6.122413
1.4635231567620117	37.546005	6.1274796
1.4810513504335687	36.761673	6.0631404
1.4985795787599925	35.862217	5.9885073
1.5161078421516088	35.178677	5.9311614
1.5336361410187505	34.615185	5.883467
1.5511644757717598	34.54672	5.8776455
1.5686928468209842	35.401844	5.949945
1.58622125457678	35.561115	5.963314
1.6037496994495108	36.626144	6.051954
1.621278181849548	36.332558	6.0276494
1.6388067021872719	37.045425	6.0864954
1.6563352608730693	36.77445	6.0641937
1.673863858317336	35.95408	5.996172
1.6913924949304753	35.09889	5.9244313
1.7089211711228998	34.19333	5.847506
1.7264498873050296	33.31667	5.7720594
1.7439786438872935	32.332745	5.6861887
1.7615074412801288	31.439531	5.6070967
1.779036279893981	30.710833	5.5417356
1.796565160139305	29.679573	5.447896
1.814094082426564	29.113237	5.3956685
1.8316230471662298	28.457182	5.3345275
1.849152054768784	27.750912	5.2679133
1.8666811056447168	27.282415	5.223257
1.8842102002045273	26.386995	5.1368275
1.901739338858724	25.739843	5.073445
1.9192685220178245	25.27147	5.0270734
1.9367977500923557	24.711775	4.971094
1.9543270234928547	24.460203	4.945726
1.971856342629867	23.609503	4.858961
1.9893857079139496	22.93926	4.789495
2.006915119755667	22.376614	4.7303925
2.0244445785655945	21.72519	4.661029
2.0419740847543175	21.45946	4.632436
2.0595036387324317	21.102736	4.5937715
2.0770332409105414	20.776623	4.558138
2.094562891699263	20.512877	4.5291142
2.1120925915092217	20.060621	4.4789085
2.129622340751053	19.654974	4.433393
2.1471521398354043	187.74121	13.701869
2.1646819891729323	443.88818	21.068653
2.182211889174303	440.14767	20.979696
2.1997418402501974	452.63342	21.275183
2.2172718428113023	432.58817	20.798754
2.234801897268317	320.53802	17.903576
2.2523320040319548	16.94538	4.1164765
2.269862163512935	16.691002	4.085462
2.287392376121992	16.547348	4.067843
2.304922642269869	16.36436	4.0452886
2.322452962367322	16.101063	4.012613
2.3399833368251164	15.664343	3.9578204
2.357513766054032	15.195542	3.898146
2.3750442504648586	14.8812065	3.8576167
2.3925747904683963	14.720756	3.8367636
2.410105386475459	14.512136	3.8094797
2.4276360388968707	14.1715	3.7645054
2.445166748143469	13.790082	3.7135
2.4626975146261025	13.611863	3.689426
2.4802283387556323	13.405914	3.661409
2.4977592209429305	13.23415	3.6378772
2.5152901615988825	13.214923	3.6352336
2.5328211611343865	13.064717	3.6145148
2.5503522199603523	12.618683	3.5522785
2.5678833384877024	12.287896	3.5054095
2.5854145171273712	12.023893	3.4675486
2.6029457562903064	11.910835	3.4512079
2.620477056387469	11.810232	3.4366019
2.6380084178298326	11.630216	3.4103103
2.655539841028383	11.350438	3.3690412
2.673071326394119	11.304511	3.3622181
2.6906028743380523	11.113068	3.3336267
2.708134485271211	11.0119915	3.318432
2.7256661596046325	10.787269	3.2843978
2.743197897749369	10.496311	3.2398012
2.760729700116486	10.3506565	3.2172437
2.778261567117063	10.048331	3.1699102
2.795793499162193	9.909769	3.1479785
2.8133254966629817	9.723251	3.118213
2.830857560030551	9.704039	3.1151307
2.8483896896760337	9.735989	3.1202545
2.865921886010578	9.4841	3.0796266
2.883454149445347	9.290533	3.0480375
2.9009864803915177	9.146936	3.0243902
2.91851887926028	9.082403	3.0137026
2.9360513464628384	9.090118	3.0149822
2.953583882410413	8.993826	2.9989707
2.9711164875142373	9.008852	3.0014749
2.9886491621855606	8.882765	2.9803967
3.0061819068356455	8.776819	2.9625697
3.023714721875769	8.614184	2.934993
3.041247607717225	8.454065	2.9075875
3.0587805647713213	8.307834	2.8823314
3.0763135934493806	8.15112	2.8550167
3.0938466941627407	7.9284377	2.8157482
3.1113798673227544	7.9363093	2.8171456
3.1289131133407904	7.792444	2.791495
3.1464464326282315	7.717634	2.778063
3.1639798255964786	7.636045	2.7633395
3.1815132926569443	7.5897584	2.7549517
3.1990468342210603	7.5618024	2.7498732
3.216580450700272	7.4126215	2.722613
3.2341141425060416	7.2107706	2.6852877
3.251647910049847	7.0384707	2.6530116
3.2691817537431813	7.0020704	2.6461425
3.286715673997555	6.9860106	2.6431062
3.3042496712244938	6.9025784	2.627276
3.32178374583554	6.8986855	2.626535
3.339317898242251	6.9280868	2.6321259
3.3568521288562034	6.9584293	2.6378834
3.3743864380889876	6.7715917	2.6022282
3.3919208263522127	6.7013345	2.5886936
3.4094552940575023	6.659946	2.580687
3.4269898416164972	6.550627	2.5594194
3.444524469440858	6.505905	2.5506675
3.4620591779422587	6.417644	2.5333068
3.479593967532391	6.382386	2.5263386
3.4971288386229658	6.314462	2.5128593
3.5146637916257086	6.175621	2.4850798
3.5321988269523628	6.2041845	2.4908202
3.5497339450146903	6.200851	2.4901507
3.5672691462244708	6.1643515	2.4828112
3.5848044309934988	6.1260138	2.4750786
3.60233979973359	6.1791534	2.4857903
3.619875252856575	6.18687	2.487342
3.6374107907743034	6.2119193	2.4923723
3.6549464138986427	6.215866	2.4931638
3.6724821226414788	6.2290635	2.495809
3.690017917414714	6.27312	2.5046196
3.7075537986302702	6.238276	2.4976542
3.7250897667000857	6.3184843	2.5136595
3.7426258220361235	6.4030075	2.5304165
3.7601619650503553	6.7711267	2.602139
3.777698196154779	7.342714	2.7097442
3.7952345157614067	8.262045	2.8743773
3.8127709242822716	9.111455	3.0185187
3.830307422129425	11.182045	3.3439565
3.847844009714936	12.519497	3.53829
3.8653806874508954	15.924034	3.990493
3.882917455749409	15.420844	3.9269383
3.900454315022606	15.378829	3.921585
3.917991265682631	12.346917	3.513818
3.9355283081416506	10.456901	3.2337132
3.9530654428118495	8.414082	2.9007037
3.970602670105433	7.2264986	2.6882148
3.9881399904346244	6.393266	2.5284908
4.005677404211669	6.4263606	2.5350268
4.023214911848827	6.4544864	2.540568
4.0407525137583855	6.4203167	2.5338345
4.058290210352644	6.4511247	2.5399065
4.075828002043927	6.292739	2.5085332
4.0933658892445814	6.138229	2.477545
4.110903872366966	5.995528	2.4485767
4.128441951823468	5.978169	2.4450295
4.145980128026488	6.020154	2.4536002
4.163518401388452	5.9720726	2.4437823
4.181056772321807	5.9607	2.4414544
4.1985952412390155	6.027588	2.4551146
4.216133808552567	6.11255	2.472357
4.233672474674966	6.2196765	2.493928
4.251211240018741	6.3564787	2.521206
4.268750104996445	6.575192	2.5642138
4.286289070020643	7.529682	2.7440267
4.303828135503928	9.276272	3.0456972
4.3213673018589125	29.439137	5.4257846
4.3389065694982305	90.543335	9.515426
4.356445938834537	165.61514	12.869155
4.3739854102805085	171.19933	13.084316
4.391524984248844	172.13506	13.120025
4.409064661152262	136.31044	11.675206
4.426604441403504	96.87963	9.842745
4.444144325415337	75.90178	8.712163
4.461684313600543	21.912552	4.6810846
4.47922440637193	22.241608	4.7161007
4.496764604142329	20.407806	4.5175
4.5143049073245916	18.493374	4.300392
4.531845316331589	16.298828	4.037181
4.5493858315762195	13.429029	3.6645641
4.566926453471405	11.084932	3.329404
4.584467182430081	9.110137	3.0183003
4.602008018865218	8.0780525	2.8421915
4.619548963189798	7.4274178	2.725329
4.637090015816834	6.898338	2.6264687
4.654631177159353	6.5945864	2.5679927
4.672172447630417	6.3185315	2.513669
4.689713827643102	6.167221	2.4833891
4.7072553176105085	5.9611077	2.441538
4.724796917945764	5.8218203	2.412845
4.742338629062015	5.7164445	2.3909087
4.759880451372434	5.6620755	2.3795116
4.777422385290215	5.6641116	2.3799393
4.794964431228581	5.6032662	2.367122
4.812506589600768	5.6701264	2.3812027
4.830048860820047	5.7057667	2.3886747
4.847591245299709	5.633806	2.373564
4.8651337434530655	5.580998	2.3624136
4.882676355693457	5.5287733	2.3513343
4.900219082434242	5.4995694	2.3451161
4.917761924088813	5.390212	2.321683
4.935304881070575	5.3192058	2.3063405
4.952847953792969	5.3118863	2.304753
4.970391142669449	5.318141	2.3061094
4.9879344481135055	5.3812284	2.3197474
5.005477870538642	5.3285637	2.3083682
5.023021410358394	5.3821216	2.31994
5.040565067986324	5.4050307	2.3248723
5.05810884383601	5.4223056	2.3285844
5.075652738321066	5.4279785	2.3298023
5.09319675185512	5.35929	2.3150141
5.110740884851836	5.297137	2.3015509
5.128285137724894	5.2795897	2.2977357
5.145829510888007	5.282451	2.2983584
5.163374004754908	5.27528	2.2967978
5.1809186197393595	5.218382	2.2843778
5.198463356255145	5.195964	2.2794657
5.216008214716077	5.3125615	2.3048995
5.233553195535998	5.319448	2.306393
5.251098299128764	5.3408675	2.3110318
5.268643525908272	5.231404	2.2872262
5.286188876288432	5.1883936	2.2778046
5.3037343506831895	5.1708717	2.273955
5.32127994950651	5.1759915	2.2750804
5.3388256731723915	5.235288	2.2880752
5.356371522094851	5.246535	2.2905316
5.373917496687938	5.1931453	2.2788475
5.391463597365729	5.142054	2.2676098
5.40900982454232	5.118665	2.2624466
5.426556178631843	5.1605277	2.2716794
5.444102660048449	5.1303053	2.2650177
5.4616492692063225	5.159311	2.2714117
5.479196006519669	5.1413307	2.2674503
5.496742872402727	5.0822797	2.2543912
5.514289867269756	5.0991774	2.2581358
5.531836991535049	5.071661	2.252035
5.549384245612924	5.0530357	2.247896
5.566931629917724	5.033227	2.2434855
5.584479144863822	5.048111	2.2468002
5.6020267908656205	5.1144214	2.2615087
5.619574568337545	5.203444	2.2811058
5.637122477694054	5.2164965	2.283965
5.654670519349629	5.1734242	2.2745163
5.672218693718784	5.0984597	2.257977
5.689767001216059	5.0419493	2.2454286
5.707315442256021	5.011597	2.2386596
5.724864017253266	4.9956293	2.2350905
5.7424127266224225	5.018035	2.240097
5.75996157077814	5.0203	2.2406025
5.777510550135105	5.1350517	2.2660654
5.795059665108022	5.2028174	2.2809684
5.812608916111639	5.271052	2.2958772
5.830158303560715	5.3632507	2.3158693
5.847707827870055	5.291416	2.3003078
5.86525748945448	5.3013515	2.3024664
5.8828072887288485	5.3371096	2.3102186
5.900357226108044	5.360639	2.3153055
5.917907302006979	5.451955	2.334942
5.9354575168406	5.9621034	2.441742
5.9530078710238765	6.5577555	2.5608115
5.970558364971812	7.1316376	2.6705127
5.988108999099438	7.548457	2.7474456
6.005659773821818	8.135065	2.8522036
6.023210689554039	7.947522	2.819135
6.040761746711227	8.326854	2.885629
6.058312945708531	7.636472	2.7634168
6.075864286961132	7.1295514	2.670122
6.093415770884244	6.412045	2.5322015
6.1109673978931065	5.9283557	2.4348216
6.128519168402993	5.447409	2.3339686
6.146071082829204	5.3557	2.3142385
6.163623141587075	5.164738	2.2726061
6.181175345091969	5.0249014	2.2416291
6.198727693759281	4.9519506	2.225298
6.216280188004435	4.9952497	2.2350056
6.233832828242885	5.0159965	2.2396421
6.251385614890126	5.0880675	2.2556746
6.268938548361669	5.1045117	2.2593167
6.286491629073067	5.0299788	2.2427614
6.304044857439898	5.021162	2.240795
6.321598233877777	4.999691	2.2359989
6.339151758802344	5.0404754	2.2451003
6.356705432629277	4.977075	2.2309358
6.37425925577428	4.947189	2.2242277
6.391813228653095	4.8722587	2.2073193
6.409367351681486	4.8341517	2.1986704
6.426921625275259	4.8808613	2.2092671
6.44447604985025	4.895778	2.2126405
6.46203062582232	4.92532	2.2193062
6.47958535360737	4.914246	2.21681
6.497140233621328	4.9889793	2.2336023
6.514695266280161	5.0112777	2.2385883
6.532250451999859	4.9577284	2.2265956
6.549805791196454	4.871673	2.2071867
6.567361284286002	4.852392	2.2028146
6.584916931684597	4.866895	2.206104
6.602472733808367	4.925108	2.2192583
6.6200286910734665	4.9500704	2.2248755
6.637584803896092	5.0258713	2.2418456
6.655141072692462	5.0232773	2.241267
6.672697497878842	4.9929385	2.2344885
6.690254079871514	4.9745307	2.2303655
6.707810819086808	4.933499	2.221148
6.725367715941078	4.9130898	2.2165492
6.742924770850719	4.847866	2.201787
6.760481984232151	4.8756022	2.2080765
6.778039356501836	4.879839	2.2090356
6.795596888076266	4.916001	2.2172055
6.813154579371963	4.901436	2.2139187
6.830712430805492	4.9303126	2.2204306
6.84827044279344	4.934949	2.2214744
6.865828615752445	4.943215	2.223334
6.883386950099159	4.9614415	2.2274294
6.900945446250287	4.9955783	2.235079
6.918504104622553	4.982859	2.2322319
6.936062925632727	4.9605937	2.2272391
6.953621909697607	5.0040555	2.2369747
6.971181057234028	5.077704	2.253376
6.988740368658859	5.1588626	2.271313
7.006299844389007	5.2460155	2.2904181
7.023859484841407	5.235324	2.288083
7.041419290433036	5.296838	2.301486
7.058979261580902	5.3871236	2.3210177
7.0765393987020495	5.6405096	2.3749757
7.094099702213559	6.0270553	2.4550061
7.111660172532549	6.3796678	2.5258005
7.129220810076164	6.736358	2.5954494
7.146781615261595	7.32368	2.70623
7.16434258850606	7.5885715	2.7547362
7.181903730226821	8.010662	2.8303113
7.1994650408411704	8.0787735	2.8423183
7.217026520766437	8.167057	2.8578064
7.234588170419983	8.383127	2.895363
7.252149990219215	8.3267565	2.885612
7.269711980581568	8.228721	2.8685746
7.2872741419245175	8.028966	2.833543
7.304836474665574	7.5985885	2.7565536
7.322398979222286	7.3272853	2.7068958
7.339961656012233	7.085751	2.6619074
7.357524505453039	6.7907476	2.6059062
7.375087527962357	6.463695	2.5423799
7.392650723957886	6.2773137	2.5054567
7.410214093857353	5.979155	2.4452312
7.427777638078528	5.8029876	2.4089391
7.445341357039213	5.579435	2.3620827
7.4629052511572525	5.3780746	2.3190677
7.480469320850524	5.3231444	2.307194
7.498033566536948	5.2588844	2.2932258
7.5155979886344735	5.260083	2.293487
7.5331625875610975	5.2678123	2.2951715
7.550727363734844	5.2060537	2.2816777
7.568292317573788	5.1951413	2.2792852
7.585857449496025	5.1599703	2.2715569
7.603422759919705	5.1780586	2.2755349
7.620988249263007	5.1842337	2.2768912
7.638553917944147	5.139558	2.2670593
7.656119766381391	5.0693865	2.2515297
7.673685794993023	5.0582266	2.2490501
7.691252004197388	5.064627	2.2504725
7.70881839441285	5.1188235	2.2624817
7.726384966057826	5.099347	2.2581735
7.743951719550762	5.0840073	2.2547743
7.761518655310149	5.1522117	2.2698483
7.779085773754511	5.214253	2.283474
7.796653075302419	5.297824	2.3017
7.814220560372475	5.286076	2.299147
7.831788229383323	5.222424	2.2852623
7.8493560827536495	5.1500187	2.2693653
7.866924120902174	5.1451397	2.26829
7.884492344247663	5.1513586	2.2696605
7.9020607532089135	5.220896	2.2849278
7.919629348204771	5.2085233	2.282219
7.937198129654115	5.285441	2.2990086
7.954767097975865	5.319304	2.3063617
7.972336253588986	5.356029	2.3143096
7.989905596912472	5.328536	2.3083622
8.007475128365371	5.371834	2.3177216
8.025044848366756	5.384251	2.3203988
8.042614757335754	5.540556	2.3538384
8.060184855691523	5.6176033	2.3701484
8.07775514385327	5.7272887	2.3931754
8.095325622240228	5.7488756	2.3976812
8.112896291271687	5.7936134	2.4069927
8.130467151366968	5.9077115	2.4305785
8.148038202945436	5.975883	2.444562
8.165609446426497	5.961622	2.4416432
8.183180882229594	5.981264	2.4456623
8.200752510774217	5.8730006	2.4234273
8.218324332479893	5.8491945	2.418511
8.235896347766193	5.8237143	2.4132373
8.253468557052724	5.870157	2.4228406
8.27104096075914	5.9315805	2.4354837
8.288613559305137	5.9536667	2.4400136
8.306186353110448	6.0205564	2.4536822
8.32375934259485	6.1465077	2.4792151
8.341332528178162	6.2483516	2.4996703
8.358905910280246	6.2891965	2.507827
8.376479489321003	6.149957	2.4799106
8.394053265720377	6.101757	2.4701736
8.411627239898356	6.0512543	2.4599297
8.42920141227497	6.0965858	2.4691265
8.44677578327029	6.1931195	2.4885979
8.464350353304427	6.1909947	2.4881709
8.48192512279754	6.1516232	2.4802465
8.499500092169827	6.103091	2.4704435
8.51707526184153	6.1310034	2.4760864
8.534650632232934	6.2035766	2.490698
8.552226203764365	6.209727	2.4919324
8.569801976856192	6.203343	2.4906511
8.587377951928834	6.1983953	2.4896576
8.60495412940274	6.2552576	2.5010512
8.622530509698416	6.2495055	2.499901
8.6401070932364	6.387819	2.5274134
8.657683880437283	6.462833	2.5422103
8.675260871721695	6.671096	2.5828464
8.692838067510303	6.772678	2.602437
8.710415468223834	6.8993125	2.6266541
8.727993074283043	7.037508	2.6528301
8.745570886108737	7.0236416	2.6502154
8.763148904121765	7.123645	2.6690156
8.78072712874302	7.066759	2.6583376
8.798305560393441	7.3584466	2.7126458
8.815884199494006	7.531069	2.7442794
8.833463046465745	7.7543573	2.7846646
8.851042101729728	7.8937473	2.8095813
8.86862136570707	8.16849	2.858057
8.886200838818924	8.314136	2.8834243
8.903780521486505	8.341531	2.888171
8.921360414131055	8.419863	2.9017
8.938940517173874	8.532694	2.9210775
8.956520831036297	8.721919	2.9532895
8.97410135613971	9.005141	3.0008566
8.99168209290554	9.147233	3.0244393
9.009263041755265	9.327359	3.0540726
9.026844203110405	9.518291	3.085173
9.044425577392525	9.693254	3.1133993
9.062007165023239	9.813357	3.132628
9.079588966424197	10.118269	3.1809227
9.097170982017108	10.210314	3.1953583
9.11475321222372	11.1890955	3.3450105
9.132335657465825	12.042187	3.4701855
9.149918318165264	12.161427	3.4873238
9.167501194743924	12.832401	3.5822341
9.18508428762374	12.537603	3.5408478
9.202667597226693	12.454993	3.5291634
9.220251123974803	12.057657	3.4724138
9.237834868290143	11.757403	3.428907
9.255418830594836	11.50786	3.3923237
9.273003011311046	10.943067	3.3080306
9.290587410860985	10.701728	3.2713494
9.308172029666911	10.09234	3.1768444
9.32575686815113	9.8323	3.13565
9.343341926735997	8.696422	2.9489696
9.360927205843916	8.438902	2.9049788
9.378512705897327	8.24103	2.8707194
9.396098427318728	8.0523405	2.8376646
9.413684370530664	7.9517765	2.8198895
9.431270535955722	7.914469	2.8132665
9.448856924016539	7.817733	2.796021
9.466443535135806	7.7130847	2.777244
9.484030369736251	7.654892	2.7667475
9.501617428240658	7.5849075	2.754071
9.519204711071852	7.6141863	2.7593815
9.536792218652714	7.6781054	2.7709394
9.55437995140617	7.7859325	2.7903285
9.571967909755191	7.844565	2.800815
9.589556094122802	7.809558	2.7945585
9.60714450493207	7.849607	2.801715
9.624733142606116	7.8401113	2.80002
9.642322007568108	7.924856	2.815112
9.659911100241267	7.978156	2.824563
9.677500421048851	8.0323925	2.8341477
9.695089970414175	8.008453	2.829921
9.712679748760609	7.9365215	2.8171833
9.730269756511557	8.0178795	2.8315861
9.747859994090492	8.090364	2.8443565
9.765450461920915	8.124893	2.8504198
9.78304116042639	8.138868	2.8528702
9.800632090030527	8.25054	2.8723752
9.81822325115699	8.299835	2.8809435
9.835814644229481	8.34035	2.8879664
9.853406269671762	8.249347	2.8721676
9.870998127907646	8.180516	2.86016
9.888590219360985	8.223841	2.867724
9.906182544455698	8.229632	2.8687336
9.923775103615734	8.205297	2.864489
9.941367897265108	8.204368	2.8643267
9.958960925827878	8.224394	2.8678205
9.97655418972816	8.220468	2.8671358
9.994147689390106	8.227188	2.8683076
10.011741425237934	8.134943	2.8521821
10.029335397695904	8.083245	2.8431048
10.04692960718833	8.102799	2.8465416
10.06452405413958	8.161391	2.8568149
10.082118738974064	8.211979	2.865655
10.099713662116246	8.171803	2.8586366
10.117308823990651	8.153334	2.8554044
10.134904225021844	8.090357	2.8443553
10.152499865634445	8.006536	2.8295822
10.170095746253125	8.008808	2.8299837
10.18769186730261	7.9732523	2.8236947
10.205288229207675	8.067257	2.8402917
10.222884832393145	8.083624	2.8431714
10.2404816772839	8.106486	2.8471892
10.258078764304868	8.082636	2.8429978
10.275676093881035	8.09802	2.845702
10.293273666437438	8.099139	2.8458986
10.310871482399158	8.165061	2.8574572
10.32846954219134	8.121367	2.8498013
10.346067846239173	8.092456	2.8447242
10.363666394967908	8.08314	2.8430865
10.38126518880283	8.08511	2.8434327
10.398864228169298	8.111067	2.8479934
10.416463513492713	8.1038885	2.8467329
10.434063045198531	8.102665	2.846518
10.451662823712262	8.119129	2.8494086
10.469262849459467	8.10677	2.847239
10.486863122865758	8.070436	2.8408513
10.504463644356806	8.063343	2.8396027
10.522064414358338	7.9482713	2.8192677
10.539665433296118	7.8713107	2.8055856
10.557266701595987	7.819221	2.796287
10.574868219683818	7.6987934	2.77467
10.592469987985552	7.568991	2.75118
10.610072006927185	7.481987	2.735322
10.627674276934751	7.4363184	2.7269614
10.64527679843435	7.417559	2.7235196
10.662879571852143	7.306942	2.7031355
10.680482597614331	7.169524	2.6775968
10.698085876147173	7.0084667	2.6473508
10.715689407876988	6.90229	2.6272209
10.733293193230146	6.835534	2.6144855
10.750897232633072	6.8004603	2.6077693
10.76850152651225	6.7066207	2.5897143
10.786106075294207	6.6664495	2.5819468
10.803710879405534	6.5999293	2.5690327
10.821315939272877	6.442999	2.5383062
10.83892125532294	6.296331	2.509249
10.856526827982472	6.1949244	2.4889605
10.874132657678285	6.205523	2.4910886
10.891738744837243	6.2688537	2.503768
10.909345089886271	6.2179203	2.4935758
10.926951693252343	6.162551	2.4824486
10.944558555362494	6.01983	2.4535341
10.96216567664381	5.9477444	2.4387999
10.979773057523436	5.896462	2.4282632
10.997380698428573	5.8537936	2.4194615
11.014988599786477	5.7975183	2.4078035
11.032596762024461	5.7414904	2.3961408
11.050205185569892	5.6564627	2.378332
11.067813870850198	5.602889	2.3670423
11.085422818292859	5.4977884	2.3447363
11.10303202832541	5.427581	2.329717
11.120641501375454	5.358415	2.314825
11.138251237870636	5.32089	2.3067055
11.155861238238671	5.2765183	2.2970674
11.173471502907317	5.1569514	2.2708921
11.191082032304402	5.103864	2.2591734
11.208692826857805	5.078812	2.253622
11.226303886995465	4.979502	2.23148
11.243915213145371	4.928133	2.21994
11.261526805735578	4.8505383	2.2023938
11.279138665194196	4.794096	2.1895425
11.296750791949393	4.7627087	2.182363
11.314363186429393	4.7391553	2.17696
11.331975849062479	4.6514096	2.1567128
11.34958878027699	4.5717916	2.1381748
11.36720198050133	4.5072985	2.12304
11.384815450163948	4.5039043	2.1222403
11.402429189693366	4.4917593	2.1193771
11.420043199518153	4.4489217	2.1092467
11.437657480066942	63.438625	7.9648366
11.455272031768422	85.1256	9.226354
11.472886855051353	107.54666	10.370471
11.490501950344528	99.07063	9.9534235
11.508117318076819	84.37685	9.185687
11.52573295867715	45.778038	6.765947
11.543348872574514	4.1056776	2.0262473
11.560965060197946	4.0712194	2.0177264
11.57858152197655	4.0103326	2.0025816
11.59619825833949	3.963367	1.9908206
11.613815269715985	3.9449425	1.9861879
11.631432556535323	38.48122	6.2033234
11.649050119226837	82.98929	9.109846
11.666667958219929	93.376816	9.663168
11.68428607394406	107.6145	10.373741
11.701904466828756	82.46691	9.081129
11.719523137303586	65.313286	8.081663
11.737142085798196	4.576899	2.1393688
11.754761312742286	3.7214196	1.9290981
11.772380818565619	3.6866353	1.9200612
11.790000603698015	3.6607943	1.9133202
11.80762066856935	3.5873055	1.8940184
11.825241013609572	3.5121808	1.8740814
11.842861639248683	3.4533641	1.858323
11.860482545916748	3.418151	1.8488241
11.878103734043883	3.4441848	1.8558515
11.895725204060282	3.399323	1.8437253
11.91334695639619	3.346089	1.8292317
11.930968991481919	3.2968574	1.815725
11.948591309747824	3.2892187	1.8136203
11.966213911624347	3.3292086	1.8246119
11.98383679754198	3.3335435	1.8257995
12.001459967931268	3.2958658	1.815452
12.019083423222835	3.2358727	1.7988532
12.036707163847352	3.199887	1.7888228
12.05433119023556	3.2087076	1.7912866
12.071955502818259	3.1715233	1.7808771
12.089580102026313	3.1697612	1.7803823
12.107204988290643	3.1359582	1.7708637
12.12483016204224	3.1169012	1.7654748
12.142455623712152	3.1209288	1.766615
12.16008137373149	3.092989	1.7586895
12.177707412531431	3.068464	1.7517031
12.19533374054321	3.0424664	1.7442667
12.212960358198126	3.0399852	1.7435553
12.230587265927545	3.0216627	1.738293
12.248214464162889	2.9790323	1.7259873
12.265841953335649	2.9591436	1.7202162
12.283469733877375	2.959348	1.7202755
12.301097806219685	2.9355946	1.7133577
12.31872617079425	2.9130325	1.7067609
12.336354828032825	2.9091513	1.7056234
12.353983778367205	2.8986797	1.702551
12.371613022229262	2.8904414	1.7001299
12.389242560050928	2.8624005	1.6918631
12.406872392264201	2.862199	1.6918035
12.424502519301143	2.8871288	1.6991553
12.442132941593874	2.8966634	1.7019587
12.459763659574586	2.8576727	1.6904652
12.477394673675532	2.8188105	1.6789314
12.49502598432903	2.828843	1.6819165
12.51265759196746	2.82972	1.6821772
12.530289497023267	2.8211093	1.6796159
12.547921699928967	2.8052642	1.6748923
12.565554201117134	2.7747288	1.6657517
12.583187001020404	2.7366269	1.6542753
12.600820100071486	2.7643137	1.6626226
12.618453498703152	2.7706609	1.6645303
12.636087197348235	2.7712276	1.6647005
12.65372119643964	2.7555313	1.6599793
12.671355496410326	2.7344968	1.6536314
12.68899009769333	2.7315395	1.652737
12.706625000721749	2.7621953	1.6619854
12.724260205928752	2.8570342	1.6902764
12.741895713747551	2.8964684	1.7019014
12.759531524611454	2.9408555	1.7148923
12.777167638953818	2.9515774	1.7180156
12.794804057208072	2.9397063	1.7145572
12.812440779807702	2.9748363	1.7247714
12.830077807186271	3.1308389	1.7694176
12.847715139777405	3.1681721	1.779936
12.865352778014795	3.386133	1.8401449
12.882990722332197	3.5107126	1.8736895
12.90062897316344	3.5948553	1.8960104
12.918267530942412	3.6872506	1.9202214
12.935906396103071	3.5576541	1.8861744
12.953545569079449	3.6986394	1.9231848
12.971185050305628	3.5090976	1.8732586
12.988824840215775	3.5466182	1.8832468
13.006464939244115	3.5479848	1.8836095
13.024105347824943	3.403542	1.8448691
13.041746066392617	3.476396	1.8645096
13.05938709538157	3.3200848	1.8221099
13.077028435226296	3.330964	1.8250929
13.094670086361363	3.2229788	1.7952657
13.112312049221401	3.1011627	1.7610118
13.129954324241112	2.9904532	1.7292928
13.147596911855258	2.8355143	1.6838986
13.165239812498685	2.8116782	1.676806
13.182883026606293	2.79803	1.6727313
13.200526554613058	2.7301738	1.6523237
13.218170396954017	2.7296748	1.6521728
13.235814554064284	2.7101512	1.6462537
13.253459026379034	2.7267997	1.6513025
13.271103814333523	2.6780608	1.6364782
13.288748918363058	2.658657	1.630539
13.306394338903031	2.64502	1.6263517
13.32404007638889	2.6347606	1.6231946
13.341686131256164	2.661193	1.6313163
13.359332503940449	2.634542	1.6231272
13.376979194877402	2.6402018	1.6248698
13.394626204502751	2.6710334	1.6343297
13.412273533252307	2.688327	1.6396118
13.429921181561937	2.6557112	1.6296353
13.447569149867581	2.6393557	1.6246094
13.465217438605247	2.6468544	1.6269156
13.482866048211022	2.6496668	1.6277797
13.500514979121052	2.6926618	1.6409332
13.518164231771568	2.692147	1.6407764
13.535813806598844	2.682954	1.6379726
13.553463704039254	2.661241	1.6313311
13.571113924529229	2.6729443	1.6349142
13.588764468505275	2.6691823	1.6337632
13.606415336403956	2.6810834	1.6374015
13.624066528661917	2.6812723	1.637459
13.641718045715882	2.7644005	1.6626487
13.659369888002635	2.8648891	1.6925983
13.67702205595903	2.9310033	1.7120173
13.694674550021993	3.008684	1.7345558
13.712327370628532	3.044906	1.7449659
13.729980518215713	3.141209	1.7723455
13.747633993220681	3.191984	1.7866124
13.765287796080647	3.2158644	1.7932831
13.7829419272329	3.2723825	1.8089727
13.800596387114801	3.3039925	1.8176888
13.818251176163775	3.3374608	1.8268719
13.835906294817324	3.358567	1.8326393
13.853561743513023	3.389101	1.8409511
13.871217522688525	3.388251	1.8407203
13.888873632781538	3.377353	1.8377576
13.906530074229858	3.3955848	1.8427112
13.92418684747135	3.430466	1.8521518
13.941843952943948	3.4840653	1.8665651
13.959501391085665	3.4702597	1.8628633
13.977159162334578	3.4035225	1.8448638
13.994817267128846	3.342275	1.828189
14.012475705906693	3.3131115	1.8201954
14.030134479106424	3.2744405	1.8095416
14.047793587166414	3.1489236	1.7745206
14.065453030525108	3.056498	1.7482843
14.083112809621026	3.008485	1.7344985
14.100772924892766	2.9394727	1.714489
14.118433376778997	2.883963	1.6982235
14.136094165718458	2.8084805	1.6758522
14.153755292149969	2.7653885	1.6629457
14.171416756512416	2.7307642	1.6525024
14.189078559244768	2.682624	1.6378719
14.20674070078606	2.5892935	1.6091281
14.224403181575408	2.520717	1.5876765
14.242066002051999	2.455588	1.5670316
14.259729162655093	2.4158516	1.554301
14.277392663824022	2.3912404	1.5463636
14.295056505998208	2.4153883	1.554152
14.312720689617128	2.4323401	1.5595962
14.330385215120348	2.4179468	1.5549749
14.348050082947497	2.4116526	1.5529497
14.3657152935383	2.3778663	1.5420332
14.383380847332528	2.3378386	1.5289992
14.401046744770051	2.3167784	1.5220968
14.418712986290798	2.3108108	1.5201352
14.436379572334793	2.3496442	1.5328549
14.454046503342123	2.353411	1.5340831
14.471713779752946	2.3433511	1.5308008
14.489381402007504	2.3320832	1.527116
14.507049370546113	2.3793073	1.5425004
14.524717685809168	2.4162126	1.5544171
14.542386348237134	2.4095402	1.5522693
14.560055358270553	2.3814292	1.543188
14.577724716350051	2.4001415	1.549239
14.595394422916325	2.4095635	1.5522768
14.61306447841015	2.4869115	1.5769944
14.63073488327237	2.4751668	1.5732663
14.648405637943917	2.5235336	1.5885633
14.6660767428658	2.4793992	1.5746108
14.683748198479094	2.4986784	1.5807209
14.701420005224954	2.5436094	1.5948697
14.719092163544628	2.608775	1.6151702
14.73676467387942	2.6276	1.6209873
14.754437536670727	2.655662	1.6296202
14.772110752360014	2.7131634	1.6471683
14.78978432138882	2.7296057	1.6521518
14.807458244198777	2.725098	1.650787
14.82513252123159	2.660719	1.631171
14.842807152929028	2.6674073	1.63322
14.860482139732962	2.6741185	1.6352732
14.87815748208531	2.6842306	1.6383622
14.8958331804281	2.6863792	1.6390177
14.91350923520342	2.61955	1.6185024
14.931185646853438	2.6372137	1.62395
14.948862415820408	2.6420624	1.6254423
14.966539542546656	2.6679347	1.6333814
14.98421702747459	2.6387262	1.6244156
15.001894871046696	2.6472554	1.6270388
15.019573073705542	2.6319554	1.6223302
15.037251635893766	2.6215408	1.6191173
15.054930558054092	2.6489182	1.6275498
15.072609840629323	2.6819482	1.6376655
15.090289484062351	2.776611	1.6663166
15.107969488796124	2.9511404	1.7178884
15.125649855273691	3.196358	1.7878361
15.14333058393817	3.571633	1.8898765
15.161011675232768	4.162943	2.0403292
15.17869312960076	4.8111424	2.1934316
15.196374947485506	5.459165	2.3364856
15.214057129330447	6.725583	2.5933728
15.231739675579114	8.829779	2.9714944
15.249422586675102	13.35477	3.6544178
15.267105863062092	17.837294	4.223422
15.284789505183847	24.814299	4.9813952
15.302473513484218	29.417416	5.4237823
15.320157888407127	33.332504	5.773431
15.337842630396578	32.27743	5.681323
15.355527739896656	29.625395	5.4429216
15.37321321735153	23.23443	4.8202105
15.39089906320545	15.936428	3.9920456
15.408585277902748	10.317285	3.212053
15.42627186188783	6.37287	2.5244544
15.443958815605198	4.577527	2.1395156
15.461646139499424	3.785804	1.9457142
15.479333834015168	3.4093375	1.8464391
15.497021899597165	3.10039	1.7607924
15.514710336690234	2.8579457	1.6905459
15.53239914573928	2.6517668	1.6284246
15.550088327189297	2.5787919	1.6058617
15.567777881485336	2.545198	1.5953677
15.58546780907256	2.529831	1.5905442
15.6031581103962	2.5011077	1.5814891
15.620848785901568	2.5074484	1.5834925
15.638539836034063	2.5045433	1.5825748
15.656231261239173	2.5085316	1.5838344
15.673923061962451	2.4517279	1.5657995
15.691615238649552	2.4841034	1.5761039
15.709307791746202	2.4903352	1.5780796
15.727000721698221	2.4598162	1.5683801
15.744694028951498	2.4078374	1.5517207
15.76238771395202	2.386647	1.5448776
15.780081777145844	2.385268	1.5444313
15.797776218979125	2.3804927	1.5428846
15.815471039898094	2.411606	1.5529346
15.833166240349064	2.397674	1.5484425
15.850861820778437	2.4291868	1.5585849
15.868557781632699	2.4175181	1.554837
15.886254123358412	2.445208	1.563716
15.903950846402232	2.4444	1.5634577
15.921647951210897	2.4513605	1.565682
15.939345438231225	2.4626925	1.5692968
15.957043307910133	2.4823637	1.5755519
15.974741560694602	2.5007308	1.5813699
15.992440197031714	2.4833822	1.575875
16.01013921736862	2.482503	1.5755961
16.02783862215259	2.4477105	1.5645161
16.045538411830933	2.4353404	1.5605577
16.06323858685107	2.3915994	1.5464797
16.080939147660512	2.388178	1.5453731
16.09864009470684	2.4231071	1.5566332
16.11634142843774	2.4182904	1.5550853
16.134043149300954	2.4377298	1.561323
16.15174525774433	2.4136004	1.5535767
16.169447754215817	2.4175053	1.5548328
16.18715063916342	2.4441419	1.5633751
16.204853913035244	2.465225	1.5701035
16.222557576279478	2.4780695	1.5741886
16.240261629344403	22.436806	4.7367506
16.257966072678386	43.003124	6.557677
16.275670906729868	38.095352	6.1721435
16.293376131947387	2.4975913	1.580377
16.31108174877957	2.4821851	1.5754952
16.328787757675133	2.526613	1.5895324
16.34649415908287	2.550376	1.5969896
16.364200953451657	2.5728707	1.604017
16.38190814123048	2.5897336	1.609265
16.39961572286839	2.6182458	1.6180995
16.41732369881455	2.6712208	1.634387
16.43503206951817	2.7027626	1.644008
16.45274083542859	2.7264583	1.6511991
16.47044999699522	2.7366722	1.654289
16.488159554667558	2.8056724	1.6750141
16.505869508895184	2.8733466	1.6950948
16.523579860127786	2.911568	1.7063317
16.541290608815117	2.9772284	1.7254647
16.559001755407035	3.0950806	1.7592841
16.57671330035348	3.2260897	1.7961318
16.59442524410448	3.2933424	1.8147569
16.61213758711015	3.3977044	1.8432863
16.629850329820705	3.4434357	1.8556497
16.647563472686436	3.484075	1.8665677
16.665277016157724	3.4400403	1.8547345
16.682990960685053	3.4485767	1.8570343
16.70070530671898	3.4097612	1.8465539
16.718420054710155	3.4815037	1.8658788
16.736135205109335	3.54432	1.8826364
16.753850758367335	3.5931184	1.8955523
16.771566714935087	3.5860841	1.893696
16.789283075263597	3.6485596	1.9101202
16.80699983980398	3.751957	1.9369969
16.82471700900741	3.8156114	1.953359
16.84243458332518	3.8871577	1.9715877
16.860152563208665	3.963819	1.9909343
16.87787094910932	4.021717	2.0054219
16.89558974147871	4.1087494	2.027005
16.913308940768466	4.1754565	2.0433934
16.931028547430333	4.248895	2.0612848
16.94874856191613	4.3269243	2.080126
16.966468984677785	4.3768606	2.092095
16.98418981616729	4.3746066	2.091556
17.00191105683676	4.3754063	2.0917473
17.019632707138374	4.4109325	2.100222
17.03735476752442	4.446811	2.1087463
17.05507723844728	4.4727	2.1148758
17.072800120359403	4.5286794	2.1280694
17.090523413713353	4.5986633	2.1444495
17.108247118961785	4.633621	2.1525848
17.125971236557437	4.594452	2.1434672
17.143695766953133	4.5994906	2.1446424
17.161420710601806	4.6573343	2.1580858
17.179146067956477	4.676429	2.1625051
17.19687183947025	4.6625466	2.1592932
17.21459802559634	4.6312003	2.1520224
17.232324626788028	4.631086	2.151996
17.25005164349871	4.6369324	2.1533537
17.267779076181863	4.6485004	2.156038
17.285506925291074	4.6161294	2.1485178
17.30323519127999	4.5990343	2.144536
17.320963874602384	4.5736885	2.1386185
17.33869297571211	4.5624437	2.1359878
17.356422495063114	4.549164	2.1328769
17.37415243310944	4.490281	2.1190283
17.391882790305218	4.519635	2.1259434
17.40961356710468	4.5332685	2.1291473
17.42734476396215	4.5504866	2.133187
17.445076381332044	4.558769	2.1351275
17.462808419668868	4.575263	2.1389863
17.48054087942723	4.7035766	2.1687732
17.498273761061835	4.842062	2.2004685
17.51600706502747	5.217835	2.2842581
17.533740791779024	5.79798	2.4078994
17.551474941771485	6.7008443	2.588599
17.56920951545993	8.584212	2.9298825
17.586944513299528	9.88144	3.1434758
17.60467993574556	12.745663	3.5701067
17.622415783253373	15.410966	3.9256804
17.64015205627843	18.181072	4.263927
17.657888755276293	20.421276	4.5189905
17.675625880702604	21.878931	4.677492
17.69336343301311	20.276148	4.5029044
17.71110141266366	18.173836	4.263078
17.728839820110178	15.485132	3.9351153
17.746578655808705	12.320953	3.5101216
17.764317920215372	10.160356	3.1875312
17.7820576137864	8.482808	2.9125261
17.79979773697811	7.1205144	2.6684291
17.81753829024692	5.891419	2.4272246
17.835279274049356	5.1121793	2.2610128
17.85302068884201	4.45012	2.1095307
17.870762535081607	4.133654	2.033139
17.888504813224934	3.9257214	1.9813434
17.90624752372891	3.7495651	1.9363794
17.923990667050536	3.6332557	1.90611
17.941734243646895	3.547729	1.8835416
17.959478253975185	3.5061917	1.8724828
17.9772226984927	3.473801	1.8638135
17.994967577656833	3.4150038	1.8479729
18.01271289192506	3.3423338	1.8282051
18.030458641754965	3.2945259	1.8150829
18.04820482760425	3.2564154	1.8045541
18.06595144993067	3.278372	1.8106276
18.083698509192125	3.2837875	1.8121223
18.101446005846576	3.2598276	1.8054993
18.119193940352105	3.219223	1.7942194
18.136942313166887	3.2034225	1.7898108
18.1546911247492	3.1939933	1.7871747
18.1724403755574	3.1675386	1.779758
18.19019006604997	3.1214824	1.7667718
18.207940196685467	3.0894947	1.7576958
18.225690767922575	3.0777633	1.7543555
18.243441780220046	3.08687	1.7569491
18.261193234036764	3.0553916	1.7479678
18.278945129831676	3.0286193	1.7402929
18.29669746806386	3.035261	1.7422
18.314450249192483	3.045364	1.7450972
18.3322034736768	3.0413299	1.743941
18.349957141976184	3.047972	1.7458442
18.3677112545501	3.0292768	1.7404817
18.385465811858108	3.0514421	1.7468377
18.403220814359884	3.058879	1.7489651
18.420976262515172	3.0973036	1.7599158
18.43873215678387	3.1312313	1.7695285
18.456488497625923	3.1743271	1.7816641
18.474245285501407	3.244197	1.8011655
18.492002520870486	3.29773	1.8159653
18.50976020419343	3.3524742	1.8309762
18.527518335930615	3.6347575	1.906504
18.545276916542516	4.2106037	2.0519755
18.563035946489688	4.3861427	2.094312
18.580795426232832	4.840689	2.2001567
18.598555356232698	4.7227883	2.1731977
18.616315736950185	4.9885645	2.2335095
18.63407656884626	4.648921	2.1561356
18.65183785238201	4.821583	2.1958103
18.669599588018617	4.6146235	2.1481674
18.68736177621737	4.6035376	2.1455855
18.705124417439652	4.622561	2.1500142
18.72288751214696	4.4624653	2.112455
18.740651060800886	4.647987	2.155919
18.758415063863115	4.36721	2.089787
18.77617952179546	4.447154	2.1088276
18.793944435059814	4.1659155	2.0410573
18.811709804118184	4.1785216	2.0441432
18.829475629432675	4.1609316	2.0398362
18.8472419114655	3.9358792	1.9839051
18.86500865067897	4.0299163	2.0074651
18.88277584753551	3.7415335	1.9343044
18.90054350249763	3.719282	1.928544
18.918311616027957	3.3389742	1.827286
18.936080188589226	3.229813	1.7971681
18.953849220644265	2.9410572	1.714951
18.971618712656007	2.8123107	1.6769946
18.9893886650875	2.7809813	1.6676275
19.007159078401887	8.013867	2.8308775
19.024929953062408	32.896133	5.735515
19.042701289532435	32.849712	5.731467
19.060473088275405	25.391588	5.0390067
19.07824534975489	2.6499374	1.6278628
19.096018074434568	2.617752	1.6179469
19.113791262778197	2.6125858	1.6163496
19.13156491524966	2.5689073	1.602781
19.149339032312945	2.5092814	1.5840712
19.167113614432136	2.4524977	1.5660453
19.184888662071433	2.4483058	1.5647063
19.202664175695123	2.4795392	1.5746553
19.220440155767623	2.5351312	1.5922096
19.238216602753447	2.5836093	1.607361
19.2559935171172	2.5795832	1.6061081
19.27377089932361	2.521524	1.5879307
19.291548749837514	2.4848943	1.5763547
19.309327069123835	2.473801	1.5728321
19.32710585764763	2.4636486	1.5696014
19.344885115874032	2.4729276	1.5725545
19.362664844268313	2.5047905	1.582653
19.380445043295822	2.531036	1.590923
19.39822571342203	2.517744	1.58674
19.41600685511252	2.4995644	1.581001
19.43378846883297	2.4434822	1.5631641
19.451570555049173	2.4183996	1.5551205
19.469353114227037	2.4242256	1.5569925
19.48713614683254	2.460421	1.568573
19.50491965333182	2.4541976	1.5665879
19.52270363419109	2.4944758	1.579391
19.540488089876686	2.514846	1.5858266
19.55827302085503	2.5419016	1.5943342
19.576058427592674	2.5068793	1.5833127
19.593844310556282	2.5127776	1.5851743
19.611630670212598	2.5197656	1.587377
19.629417507028506	2.5148072	1.5858144
19.64720482147098	2.5044336	1.5825403
19.6649926140071	2.5365016	1.5926398
19.682780885104084	2.53474	1.5920867
19.70056963522921	2.519237	1.5872104
19.718358864849908	2.499423	1.5809563
19.7361485744337	2.4924872	1.5787613
19.753938764448215	2.4689102	1.5712767
19.771729435361202	2.512513	1.5850909
19.789520587640506	2.5429451	1.5946615
19.807312221754092	2.5205274	1.5876169
19.825104338170043	2.511902	1.5848981
19.842896937356517	2.5494602	1.5967029
19.860690019781824	2.558297	1.5994678
19.87848358591436	2.5360758	1.5925062
19.896277636222635	2.4833689	1.5758709
19.914072171175278	2.4658413	1.5702997
19.931867191241015	2.4660401	1.570363
19.94966269688869	2.4901664	1.5780262
19.967458688587264	2.4732022	1.5726418
19.985255166805807	2.445098	1.5636809
20.00305213201348	2.4527597	1.5661288
20.020849584679578	2.4553466	1.5669546
20.038647525273507	2.453243	1.5662832
20.05644595426477	2.4436455	1.5632164
20.07424487212299	2.4520879	1.5659144
20.092044279317903	2.4589732	1.5681113
20.109844176319353	2.4331129	1.5598439
20.127644563597304	2.4100442	1.5524317
20.145445441621817	2.3968177	1.5481659
20.16324681086307	2.402898	1.5501285
20.181048671791373	2.3860748	1.5446924
20.198851024877122	2.3577478	1.535496
20.216653870590836	2.3418615	1.5303142
20.234457209403146	2.3566911	1.5351518
20.252261041784802	2.3365548	1.5285794
20.270065368206662	2.3536432	1.5341588
20.287870189139685	2.3814783	1.543204
20.305675505054968	2.3887925	1.5455719
20.323481316423702	2.38869	1.5455388
20.341287623717207	2.3970618	1.5482447
20.359094427406884	2.3711386	1.5398502
20.376901727964288	2.3581939	1.5356412
20.39470952586107	2.3528206	1.5338907
20.41251782156899	2.3583708	1.5356988
20.430326615559935	2.3386548	1.5292661
20.448135908305886	2.3357122	1.5283037
20.465945700278965	2.349785	1.5329009
20.483755991951384	2.3366923	1.5286243
20.50156678379548	2.3310046	1.5267628
20.519378076283708	2.3161464	1.5218891
20.537189869888635	2.348447	1.5324644
20.55500216508294	2.361121	1.5365939
20.572814962339415	2.3539913	1.5342722
20.59062826213098	2.3098266	1.5198114
20.60844206493066	2.2972772	1.5156771
20.626256371211593	2.2839942	1.5112889
20.644071181447032	2.285068	1.5116441
20.66188649611036	2.2948844	1.5148876
20.67970231567506	2.3002934	1.5166718
20.697518640614742	2.2968047	1.5155213
20.715335471403122	2.3056185	1.5184263
20.73315280851404	2.296431	1.515398
20.750970652421447	2.2821593	1.5106817
20.768789003599412	2.2688673	1.506276
20.786607862522136	2.2589362	1.5029758
20.8044272296639	2.2605262	1.5035046
20.82224710549913	2.2383418	1.4961089
20.84006749050237	2.2360327	1.495337
20.857888385148268	3.8213012	1.9548149
20.8757097899116	45.935265	6.777556
20.893531705267254	64.788	8.0491
20.911354131690224	83.82476	9.155586
20.92917706965566	69.12806	8.314328
20.94700051963877	50.22505	7.0869637
20.96482448211493	29.48587	5.4300895
20.982648957559622	4.173862	2.043003
21.00047394644843	2.269826	1.5065942
21.01829944925707	2.272553	1.5074989
21.036125466461375	2.2678716	1.5059454
21.053951998537297	2.242092	1.4973617
21.071779045960906	2.229608	1.4931872
21.089606609208378	2.2382572	1.4960806
21.10743468875603	2.2406597	1.4968834
21.12526328508028	2.2338269	1.4945992
21.143092398657675	2.184716	1.4780785
21.16092202996488	2.1640918	1.4710853
21.17875217947867	2.190128	1.4799081
21.19658284767596	2.2357821	1.4952532
21.21441403503377	2.2468662	1.498955
21.232245742029225	2.2204053	1.4901024
21.2500779691396	2.1685345	1.4725945
21.26791071684227	2.139021	1.4625392
21.28574398561475	2.1408012	1.4631476
21.30357777593465	2.1421943	1.4636236
21.321412088279704	2.135831	1.4614483
21.339246923127792	2.0874012	1.4447842
21.357082280956888	2.0769906	1.4411768
21.3749181622451	2.0941586	1.4471208
21.392754567470647	2.1219597	1.4566947
21.41059149711187	2.127821	1.4587052
21.42842895164726	2.1045609	1.4507104
21.446266931555378	2.0653417	1.4371297
21.464105437314945	2.0910883	1.4460596
21.481944469404798	2.0979967	1.4484463
21.49978402830388	2.0748982	1.4404507
21.51762411449127	2.041161	1.4286921
21.53546472844617	2.0343523	1.4263072
21.553305870647876	2.0524766	1.4326468
21.571147541575865	2.0805168	1.4423996
21.58898974170967	2.0764418	1.4409864
21.60683247152899	2.0602047	1.4353414
21.62467573151363	2.0618277	1.4359065
21.642519522143523	2.0828767	1.4432175
21.660363843898722	2.0947492	1.4473249
21.6782086972594	2.0673988	1.4378452
21.696054082705864	2.0634873	1.4364843
21.713900000718535	2.0391471	1.4279871
21.73174645177795	2.0342228	1.4262618
21.749593436364794	2.016855	1.4201602
21.767440954959845	2.0117545	1.4183633
21.785289008044032	1.984466	1.4087107
21.803137596098388	1.954648	1.3980873
21.820986719604086	1.961219	1.4004353
21.838836379042412	1.9806743	1.4073642
21.85668657489478	1.9908309	1.4109681
21.87453730764273	1.9627556	1.4009838
21.892388577767914	1.964609	1.4016451
21.91024038575213	1.9811776	1.4075431
21.928092732077285	1.9837791	1.4084669
21.945945617225426	1.975801	1.4056319
21.963799041678694	2.0010142	1.4145721
21.981653005919398	31.36117	5.6001043
21.999507510429943	78.14321	8.839865
22.01736255569286	73.03994	8.546341
22.035218142190818	4.0920553	2.022883
22.05307427040661	1.947239	1.3954351
22.07093094082315	2.0068395	1.4166297
22.088788153923474	2.0283377	1.4241972
22.106645910190746	2.0346782	1.4264215
22.12450421010827	2.0151253	1.4195511
22.142363054159464	2.0000348	1.4142258
22.16022244282787	1.9579886	1.3992815
22.178082376597164	1.93941	1.392627
22.195942855951145	1.9631562	1.4011267
22.213803881373742	1.9706908	1.403813
22.231665453349002	1.9991266	1.4139047
22.24952757236111	1.9682987	1.4029607
22.26739023889438	1.9478098	1.3956395
22.28525345343323	1.9236987	1.3869747
22.30311721646225	1.9353366	1.3911637
22.320981528466113	1.9374188	1.391912
22.33884638992964	1.9265181	1.3879907
22.356711801337788	1.9643781	1.4015627
22.37457776317561	1.9723312	1.4043971
22.392444275928337	1.9967403	1.4130607
22.410311340081282	1.9780674	1.4064379
22.428178956119904	1.9742329	1.405074
22.446047124529805	1.9523423	1.3972625
22.46391584579669	1.949775	1.3963435
22.481785120406414	1.9711487	1.4039761
22.49965494884496	1.9606863	1.4002451
22.51752533159841	1.9135317	1.3833046
22.53539626915302	1.8618865	1.3645096
22.553267761995137	1.90045	1.378568
22.571139810611264	1.936514	1.3915869
22.589012415488025	1.9368044	1.3916912
22.60688557711216	1.9184747	1.3850901
22.624759295970566	1.9310493	1.389622
22.642633572550263	1.9595383	1.3998351
22.660508407338362	1.9705296	1.4037555
22.67838380082217	1.9873646	1.4097393
22.696259753489077	1.9906744	1.4109126
22.714136265826614	1.9978337	1.4134475
22.73201333832246	1.9748101	1.4052794
22.74989097146439	1.9547036	1.3981072
22.76776916574035	1.9494965	1.3962437
22.785647921638393	1.9691893	1.403278
22.803527239646712	1.991966	1.4113703
22.82140712025363	1.9747882	1.4052715
22.839287563947593	1.9256842	1.3876902
22.85716857121719	1.9087348	1.3815697
22.875050142551135	1.9402848	1.3929411
22.892932278438277	1.9377387	1.3920268
22.910814979367604	1.9147623	1.3837494
22.928698245828222	1.889727	1.3746734
22.946582078309387	1.8986775	1.377925
22.96446647730047	1.9309094	1.3895717
22.98235144329098	1.9315704	1.3898095
23.000236976770562	1.8996804	1.378289
23.018123078229	1.8666912	1.3662691
23.03600974815619	1.8722603	1.3683057
23.053896987042194	1.9033617	1.3796238
23.071784795377173	1.9322519	1.3900547
23.08967317365145	1.9167476	1.3844665
23.10756212235546	1.8836502	1.3724613
23.125451641979787	1.8799391	1.3711087
23.143341733015134	1.912138	1.3828008
23.161232395952357	1.9188277	1.3852175
23.179123631282426	1.911751	1.3826609
23.197015439496468	1.9092296	1.3817488
23.214907821085717	1.9352362	1.3911277
23.23280077654157	1.9465259	1.3951795
23.250694306355538	1.9352527	1.3911335
23.268588411019277	1.9255635	1.3876467
23.28648309102458	1.934358	1.390812
23.304378346863356	1.9490051	1.3960677
23.322274179027676	1.9534591	1.397662
23.340170588009723	1.9373031	1.3918704
23.358067574301852	1.8929865	1.3758584
23.37596513839651	1.9019612	1.379116
23.39386328078629	1.957174	1.3989903
23.411762001963947	1.9641387	1.4014773
23.429661302422353	1.9400768	1.3928664
23.4475611826545	1.9577197	1.3991854
23.46546164315356	1.9457799	1.3949121
23.48336268441279	1.970319	1.4036806
23.501264306925638	1.9193463	1.3854047
23.51916651118564	1.9129684	1.383101
23.537069297686497	1.885885	1.3732753
23.554972666922037	1.9005127	1.3785908
23.57287661938623	1.9287376	1.38879
23.59078115557318	1.939342	1.3926026
23.608686275977128	1.9202055	1.3857148
23.62659198109246	1.8779184	1.3703716
23.6444982714137	1.9329208	1.3902953
23.66240514743549	1.9603456	1.4001235
23.68031260965263	1.9643147	1.4015402
23.698220658560068	1.9002281	1.3784876
23.716129294652845	1.9130062	1.3831147
23.7340385184262	1.9082998	1.3814123
23.75194833037546	1.8892691	1.3745068
23.769858730996123	1.8784391	1.3705616
23.78776972078382	1.8878376	1.373986
23.80568130023431	1.9085033	1.3814859
23.823593469843495	1.8855457	1.3731518
23.841506230107424	1.8711978	1.3679173
23.859419581522275	1.8591517	1.3635072
23.87733352458438	1.8790439	1.3707823
23.89524805979019	1.9298598	1.3891939
23.913163187636318	1.9620594	1.4007353
23.931078908619508	1.9670745	1.4025244
23.948995223236633	1.9398814	1.3927963
23.966912131984735	1.9703697	1.4036986
23.98482963536096	2.011433	1.41825
24.002747733862616	2.0387888	1.4278616
24.020666427987155	2.0565374	1.4340632
24.038585718232156	2.0711167	1.4391375
24.056505605095353	2.0585434	1.4347625
24.074426089074617	2.0839863	1.4436018
24.092347170667946	2.062313	1.4360756
24.110268850373515	2.0985894	1.448651
24.128191128689586	2.0991502	1.4488444
24.146114006114626	2.0768392	1.4411243
24.164037483147187	2.0378242	1.4275237
24.181961560286005	2.0149195	1.4194787
24.199886238029926	2.0007963	1.4144951
24.21781151687797	2.054251	1.4332658
24.235737397329274	2.0804577	1.4423791
24.253663879883135	2.098409	1.4485886
24.271590965038975	2.0664885	1.4375286
24.289518653296376	2.0281026	1.4241147
24.30744694515505	2.019273	1.4210113
24.32537584111486	2.0367494	1.4271473
24.34330534167581	2.0035048	1.4154521
24.361235447338046	1.989251	1.4104081
24.379166158601876	1.985954	1.4092388
24.39709747596772	2.0125647	1.4186488
24.41502939993615	2.0404308	1.4284365
24.432961931007917	2.056119	1.4339174
24.450895069683856	2.0521653	1.432538
24.468828816465	2.0857804	1.4442232
24.4867631718525	2.0564325	1.4340267
24.504698136347656	2.014544	1.4193463
24.52263371045192	1.9595073	1.399824
24.540569894666874	1.9784911	1.4065884
24.558506689494266	1.9568783	1.3988847
24.57644409543597	1.9630989	1.4011064
24.594382112994012	1.929365	1.3890158
24.61232074267057	1.9313865	1.3897433
24.630259984967953	1.9370681	1.391786
24.64819984038863	1.9408832	1.3931558
24.66614030943522	1.9184852	1.3850939
24.684081392610462	1.9197154	1.385538
24.702023090417274	1.973927	1.4049652
24.7199654033587	2.0183542	1.4206879
24.737908331937927	2.1137025	1.4538578
24.755851876658305	2.105424	1.4510078
24.773796038023324	2.0352848	1.4266341
24.79174081653661	1.9926618	1.4116168
24.809686212701962	2.0163388	1.4199785
24.827632227023294	2.097825	1.448387
24.8455788600047	2.1297126	1.4593534
24.8635261121504	2.1691859	1.4728156
24.88147398396475	2.1589797	1.4693466
24.899422475952303	2.106809	1.451485
24.917371588617698	2.0630956	1.436348
24.935321322465768	2.1303165	1.4595604
24.953271678001478	2.2957242	1.5151647
24.97122265572994	2.537729	1.5930251
24.989174256156414	2.911206	1.7062256
25.00712647978632	3.450872	1.8576523
25.02507932712521	4.434213	2.1057572
25.043032798678798	5.902335	2.4294722
25.060986894952933	7.4263945	2.7251413
25.078941616453637	8.844727	2.9740086
25.096896963687055	9.748245	3.122218
25.114852937159508	10.527387	3.2445934
25.132809537377444	10.446989	3.23218
25.150766764847468	9.916207	3.1490011
25.168724620076347	8.557992	2.9254045
25.186683103570985	7.249698	2.6925263
25.204642215838426	5.8808265	2.4250414
25.222601957385894	4.7107944	2.1704364
25.24056232872074	3.6556122	1.9119655
25.25852333035048	2.8736038	1.6951708
25.276484962782778	2.447331	1.5643947
25.294447226525435	2.2005088	1.4834112
25.312410122086423	2.1135657	1.4538107
25.330373649973843	1.9995537	1.4140557
25.348337810695988	1.9407736	1.3931165
25.366302604761245	1.9080875	1.3813354
25.384268032678207	1.8992172	1.3781209
25.40223409495558	1.8599055	1.3637835
25.420200792102257	1.8644639	1.3654537
25.438168124627246	1.9091426	1.3817173
25.45613609303974	1.9226124	1.386583
25.474104697849057	1.8765892	1.3698865
25.492073939564698	1.8637776	1.3652024
25.510043818696285	1.8907914	1.3750606
25.528014335753614	1.8927567	1.375775
25.54598549124664	1.8302302	1.35286
25.56395728568544	1.8108183	1.3456665
25.58192971958028	1.846373	1.358813
25.59990279344156	1.8895639	1.3746141
25.617876507779833	1.8917997	1.3754271
25.635850863105826	1.8494052	1.3599284
25.653825859930386	1.8546082	1.36184
25.671801498764548	1.8572916	1.3628248
25.68977778011949	1.8615928	1.3644019
25.707754704506524	1.8543236	1.3617355
25.725732272437153	1.8744321	1.369099
25.743710484423012	1.9031124	1.3795334
25.761689340975888	1.8509616	1.3605005
25.77966884260774	1.8006672	1.3418894
25.797648989830662	1.8413236	1.3569537
25.815629783156922	1.8747667	1.3692212
25.83361122309895	1.8613485	1.3643124
25.85159331016929	1.8742977	1.3690499
25.869576044880695	1.8528446	1.3611923
25.887559427746034	1.85178	1.3608012
25.90554345927836	1.8037245	1.3430281
25.92352813999086	1.794523	1.3395981
25.94151347039689	1.8435167	1.3577616
25.959499451009965	1.8728415	1.368518
25.97748608234374	1.8524626	1.361052
25.995473364912062	1.8293903	1.3525496
26.013461299228904	1.8562154	1.36243
26.03144988580839	1.8909882	1.3751321
26.04943912516483	1.9025846	1.3793421
26.067429017812675	1.8786678	1.370645
26.085419564266537	1.8733076	1.3686882
26.103410765041186	1.8528621	1.3611988
26.12140262065155	1.8451349	1.3583574
26.139395131612723	1.8333658	1.3540183
26.157388298439948	1.828289	1.3521423
26.17538212164861	1.8071855	1.344316
26.193376601754295	1.7916181	1.3385134
26.211371739272714	1.8067201	1.3441429
26.229367534719746	1.8107284	1.3456331
26.247363988611433	1.8183922	1.3484777
26.26536110146397	1.8233037	1.3502977
26.283358873793727	1.8507044	1.3604059
26.301357306117204	1.8320549	1.3535342
26.319356398951104	1.7931775	1.3390958
26.33735615281224	1.7992979	1.3413792
26.35535656821762	1.8244804	1.3507333
26.373357645684404	1.8254675	1.3510987
26.39135938572991	1.8399454	1.3564459
26.409361788871614	1.7974693	1.3406973
26.427364855627165	1.784125	1.3357114
26.445368586514352	1.8127567	1.3463866
26.46337298205115	1.866234	1.3661017
26.48137804275568	1.8924658	1.3756692
26.499383769146217	1.9029797	1.3794854
26.517390161741215	1.8673761	1.3665197
26.53539722105928	1.8233744	1.3503238
26.553404947619182	1.7772596	1.333139
26.571413341939856	1.7905105	1.3380996
26.589422404540397	1.7817109	1.3348074
26.60743213594006	1.8196262	1.3489352
26.62544253665827	1.8323044	1.3536264
26.64345360721459	1.8675715	1.3665912
26.66146534812879	1.8337883	1.3541744
26.679477759920758	1.7479633	1.3221056
26.69749084311057	1.7072138	1.3066039
26.71550459821847	1.7247949	1.3133144
26.733519025764842	1.7606016	1.3268766
26.751534126270258	1.745341	1.3211135
26.769549900255434	1.7977202	1.3407909
26.787566348241267	1.8366992	1.3552488
26.80558347074881	1.8452876	1.3584136
26.823601268299267	1.8280767	1.3520639
26.841619741414036	1.8820269	1.3718698
26.85963889061465	1.8835741	1.3724337
26.877658716422832	1.8415667	1.3570434
26.89567921936045	1.8300683	1.3528001
26.913700399949544	1.7654111	1.3286878
26.93172225871233	1.7377883	1.318252
26.949744796171174	1.7621018	1.3274418
26.967768012848605	1.8044987	1.3433163
26.98579190926733	1.8156781	1.347471
27.003816485950225	1.8037081	1.343022
27.021841743420318	1.8013713	1.3421518
27.039867682200814	1.8142905	1.346956
27.057894302815072	1.8387483	1.3560046
27.07592160578664	1.8036679	1.3430071
27.0939495916392	1.8193525	1.3488338
27.111978260896635	1.8114128	1.3458874
27.13000761408296	1.7820112	1.3349199
27.148037651722397	1.7571647	1.325581
27.166068374339304	1.7781981	1.333491
27.184099782458215	1.8140401	1.346863
27.20213187660384	1.8293434	1.3525323
27.22016465730105	1.8297775	1.3526927
27.23819812507487	1.8466524	1.3589159
27.256232280450533	1.835337	1.3547461
27.274267123953383	1.8063703	1.3440127
27.292302656108987	1.772345	1.3312944
27.31033887744306	1.7563257	1.3252645
27.32837578848146	1.7377013	1.318219
27.34641338975026	1.7492021	1.322574
27.364451681775673	1.7963768	1.3402898
27.382490665084074	1.851029	1.3605253
27.400530340202046	1.8377178	1.3556244
27.41857070765629	1.7900125	1.3379135
27.436611767973726	1.7793373	1.333918
27.454653521681404	1.7942644	1.3395016
27.472695969306564	1.8237655	1.3504686
27.490739111376627	1.8313375	1.3532692
27.508782948419153	1.8479198	1.3593822
27.526827480961902	1.8122311	1.3461913
27.54487270953279	1.798631	1.3411305
27.562918634659898	1.8231659	1.3502465
27.580965256871508	1.8424103	1.3573542
27.599012576696026	1.8478425	1.3593537
27.617060594662068	1.8217262	1.3497133
27.63510931129842	1.7997487	1.3415471
27.65315872713401	1.8198154	1.3490053
27.67120884269797	1.8266555	1.3515382
27.68925965851958	1.8368884	1.3553185
27.707311175128307	1.8132933	1.3465858
27.725363393053787	1.840306	1.3565788
27.74341631282583	1.892423	1.3756536
27.7614699349744	1.9315196	1.3897913
27.77952426002968	2.1114247	1.4530742
27.797579288521973	2.2031088	1.4842873
27.815635020981784	2.7596102	1.6612074
27.83369145793979	2.8748097	1.6955264
27.85174859992682	2.6515315	1.6283524
27.869806447473923	2.4178543	1.5549451
27.887865001112267	2.1021078	1.4498647
27.905924261373233	1.9901195	1.4107159
27.92398422878836	1.9239902	1.3870797
27.94204490388936	1.8548584	1.3619319
27.96010628720813	1.8665737	1.3662261
27.978168379276728	1.9315606	1.3898059
27.9962311806274	1.9300658	1.389268
28.014294691792568	1.884715	1.3728492
28.0323589133048	1.8385385	1.3559272
28.050423845696887	1.8561741	1.3624148
28.068489489501758	1.9029182	1.3794631
28.086555845252523	1.8942022	1.3763002
28.104622913482487	1.8833404	1.3723484
28.122690694725115	1.8587257	1.3633509
28.14075918951405	1.829247	1.3524966
28.15882839838312	1.8867067	1.3735744
28.176898321866304	1.9662085	1.4022156
28.1949689604978	1.9647999	1.4017133
28.213040314811945	1.9293286	1.3890027
28.23111238534327	1.8785322	1.3705956
28.249185172626493	1.9082093	1.3813795
28.267258677196473	1.9374647	1.3919284
28.285332899588294	1.9237196	1.3869822
28.303407840337172	1.9111499	1.3824434
28.321483499978545	1.9465368	1.3951834
28.33955987904799	1.9404526	1.3930013
28.357636978081285	1.9518783	1.3970964
28.37571479761439	1.972129	1.4043251
28.393793338183425	1.9591209	1.399686
28.41187260032469	1.9533936	1.3976386
28.429952584574686	2.0621164	1.4360071
28.448033291470065	2.0933726	1.4468492
28.46611472154769	2.039768	1.4282044
28.484196875344566	1.9861277	1.4093004
28.502279753397914	2.0041418	1.4156772
28.52036335624511	1.9841914	1.4086133
28.538447684423716	1.9446335	1.3945012
28.556532738471482	1.9961447	1.4128498
28.574618518926325	2.019604	1.4211277
28.59270502632635	2.057268	1.434318
28.61079226120985	2.0226629	1.4222035
28.628880224115274	1.9842558	1.4086361
28.646968915581287	1.9829268	1.4081644
28.66505833614671	2.0595686	1.4351197
28.68314848635055	2.0519857	1.4324754
28.701239366732004	2.0273938	1.4238658
28.71933097783044	2.0377443	1.4274958
28.737423320185403	2.0348303	1.4264748
28.75551639433665	2.0638864	1.4366232
28.773610200824074	2.084484	1.4437742
28.791704740187793	2.1252794	1.4578338
28.80980001296809	2.1277492	1.4586806
28.827896019705413	2.1486187	1.4658167
28.845992760940433	2.1574368	1.4688215
28.86409023721397	2.1334128	1.4606208
28.88218844906704	2.1623752	1.4705017
28.900287397040845	2.22227	1.490728
28.918387081676755	2.2268422	1.4922608
28.936487503516343	2.2344708	1.4948146
28.954588663101365	2.293922	1.5145699
28.97269056097374	2.4064803	1.5512835
28.990793197675597	2.4017122	1.5497458
29.00889657374923	2.4292579	1.5586077
29.027000689737125	2.4452498	1.5637294
29.04510554618196	2.4347222	1.5603596
29.06321114362659	2.4301777	1.5589027
29.08131748261405	2.4232314	1.5566732
29.099424563687567	2.4642112	1.5697806
29.11753238739057	2.5225372	1.5882497
29.13564095426663	2.5882692	1.6088098
29.15375026485954	2.6336706	1.6228588
29.171860319713275	2.6279848	1.621106
29.18997111937199	2.6081674	1.6149821
29.20808266438002	2.6307514	1.6219591
29.226194955281898	2.696876	1.6422168
29.244307992622335	2.7922614	1.6710061
29.26242177694624	2.8625643	1.6919115
29.2805363087987	2.9356244	1.7133664
29.29865158872498	2.9430785	1.7155403
29.316767617270557	2.963314	1.7214279
29.334884394981064	3.031793	1.7412045
29.353001922402367	3.059608	1.7491735
29.37112020008047	3.0328271	1.7415015
29.389239228561596	3.0442877	1.7447888
29.407359008392152	3.2458277	1.8016181
29.42547954011872	3.571513	1.8898447
29.44360082428809	4.071829	2.0178773
29.46172286144722	4.933242	2.2210903
29.479845652143283	6.6520133	2.5791497
29.497969196923606	9.47229	3.0777085
29.516093496335728	13.28342	3.6446426
29.5342185509274	16.677732	4.083838
29.55234436124651	19.727713	4.441589
29.570470927841175	21.231127	4.6077247
29.588598251259686	20.9141	4.5731936
29.60672633205055	19.085976	4.36875
29.624855170762405	16.042784	4.0053444
29.642984767944146	12.707684	3.5647838
29.66111512414481	9.494714	3.0813494
29.67924623991366	7.033351	2.6520464
29.697378115800138	5.3010554	2.302402
29.71551075235387	4.400555	2.09775
29.733644150124675	3.8734434	1.9681065
29.751778309662576	3.6937952	1.9219248
29.769913231517766	3.5514672	1.8845336
29.78804891624066	3.4228158	1.8500854
29.806185364381818	3.3598049	1.832977
29.82432257649206	3.3263953	1.8238409
29.842460553122333	3.3280005	1.8242809
29.86059929482382	3.2865632	1.812888
29.878738802147872	3.2447894	1.8013299
29.896879075646048	3.2713356	1.8086834
29.915020115870114	3.29761	1.8159323
29.933161923371976	3.3401718	1.8276137
29.951304498703777	3.3409827	1.8278356
29.969447842417857	3.3016756	1.8170513
29.987591955066733	3.2550056	1.8041635
30.005736837203123	3.2645261	1.8068
30.023882489379943	3.2758934	1.809943
30.04202891215028	3.2020926	1.7894392
30.060176106067455	3.1781368	1.782733
30.078324071684946	3.1230416	1.767213
30.09647280955646	3.078258	1.7544966
30.114622320235863	3.1463017	1.7737818
30.132772604277257	3.152971	1.7756608
30.1509236622349	3.153176	1.7757185
30.16907549466328	3.1639152	1.7787398
30.18722810211705	3.1293936	1.7690092
30.205381485151097	3.0433433	1.744518
30.22353564432045	3.0347495	1.7420533
30.241690580180403	3.0846856	1.7563273
30.25984629328638	3.1173737	1.7656085
30.278002784194037	3.1055295	1.7622513
30.296160053459246	3.0506773	1.7466189
30.314318101638033	3.01411	1.7361193
30.332476929286646	2.908202	1.7053452
30.35063653696153	2.801074	1.673641
30.368796925219307	2.8349242	1.6837233
30.386958094616844	2.8848104	1.698473
30.40512004571115	2.905746	1.7046249
30.423282779059463	2.8407943	1.6854656
30.441446295219233	2.8345919	1.6836246
30.459610594748067	2.9172409	1.7079933
30.47777567820382	2.9112482	1.706238
30.495941546144504	2.830484	1.6824042
30.51410819912835	2.7728257	1.6651804
30.532275637713795	2.833698	1.6833591
30.55044386245946	2.8631802	1.6920934
30.56861287392416	2.9010127	1.703236
30.586782672666956	2.8719707	1.6946889
30.604953259247047	2.7959042	1.6720958
30.623124634223885	2.7885447	1.6698936
30.641296798157075	2.8154027	1.6779162
30.659469751606462	2.8275	1.6815172
30.677643495132074	2.8422549	1.6858988
30.695818029294152	2.825698	1.6809813
30.713993354653116	2.7980328	1.6727321
30.73216947176962	2.7719157	1.6649071
30.75034638120448	2.7648315	1.6627783
30.768524083518756	2.7651079	1.6628613
30.786702579273673	2.7221828	1.6499039
30.80488186903069	2.8381848	1.6846913
30.82306195335144	3.0105379	1.7350901
30.841242832797782	3.2596116	1.8054395
30.85942450793176	3.557455	1.8861217
30.877606979315637	4.0046797	2.0011697
30.895790247511883	4.391468	2.095583
30.913974313083134	4.8547597	2.203352
30.932159176592283	5.330966	2.3088884
30.95034483860237	5.644766	2.3758717
30.968531299676698	5.687901	2.384932
30.98671856037873	5.426339	2.3294504
31.00490662127215	5.0275283	2.2422152
31.023095482920848	4.6088305	2.1468186
31.04128514588892	4.0611253	2.0152233
31.059475610740662	3.3524902	1.8309807
31.07766687804056	2.7835994	1.6684122
31.09585894835335	2.5174322	1.5866418
31.11405182224393	2.4417472	1.5626091
31.132245500277417	2.4604301	1.5685759
31.15043998301914	2.4735367	1.5727482
31.168635271034628	2.4930172	1.5789292
31.18683136488964	2.4654694	1.5701814
31.20502826515008	2.452271	1.5659728
31.223225972382135	2.4855464	1.5765616
31.241424487152155	2.4991205	1.5808607
31.259623810026692	2.4980552	1.5805237
31.27782394157253	2.4483638	1.5647248
31.296024882356644	2.3511407	1.533343
31.314226632946237	2.3494434	1.5327895
31.332429193908684	2.3911717	1.5463414
31.350632565811598	2.413573	1.5535679
31.368836749222787	2.4237752	1.5568478
31.387041744710295	2.477834	1.5741137
31.40524755284232	2.5792286	1.6059977
31.423454174187317	2.631207	1.6220995
31.441661609313922	2.6443129	1.6261343
31.459869858791002	2.5327353	1.591457
31.478078923187628	2.4488811	1.5648901
31.496288803073064	2.3404374	1.5298488
31.514499499016807	2.2776122	1.509176
31.532711011588546	2.2690165	1.5063255
31.550923341358178	2.344741	1.5312548
31.56913648889584	2.3740501	1.5407953
31.587350454771844	2.349478	1.5328007
31.605565239556732	2.3047435	1.5181382
31.62378084382127	2.3220458	1.523826
31.641997268136382	2.409203	1.5521607
31.660214513073274	2.4079487	1.5517566
31.67843257920331	2.373803	1.5407151
31.6966514670981	2.326948	1.5254337
31.71487117732944	2.3203177	1.5232589
31.733091710469346	2.3333855	1.5275424
31.751313067090052	2.360786	1.536485
31.769535247764008	2.3321507	1.5271381
31.787758253063878	2.3322778	1.5271797
31.805982083562526	2.3455985	1.5315347
31.824206739833024	2.312822	1.5207965
31.84243222244869	2.2026525	1.4841336
31.860658531983013	2.191985	1.4805354
31.878885669009737	2.2813625	1.510418
31.897113634102784	2.27766	1.5091918
31.91534242783632	2.2848434	1.5115699
31.933572050784694	2.349953	1.5329556
31.951802503522508	2.3556383	1.5348089
31.970033786624548	2.2356665	1.4952146
31.988265900665834	2.2169774	1.4889518
32.006498846221575	2.2158835	1.4885844
32.02473262386724	2.202573	1.4841068
32.04296723417845	2.1773262	1.4755765
32.0612026777311	2.1664925	1.4719009
32.07943895510129	2.1714742	1.4735923
32.097676066865304	2.182032	1.4771703
32.115914013599685	2.2099774	1.4865993
32.13415279588115	2.21218	1.4873399
32.152392414286666	2.2168534	1.4889101
32.1706328693934	2.1800885	1.4765123
32.18887416177875	2.072144	1.4394944
32.20711629202032	2.093092	1.4467522
32.225359260695924	2.1412218	1.4632914
32.243603068383614	2.0962753	1.447852
32.26184771566166	2.0678432	1.4379997
32.28009320310852	2.1176183	1.4552039
32.2983395313029	2.1591227	1.4693954
32.31658670082372	2.0972776	1.4481981
32.33483471225012	2.101786	1.4497538
32.35308356616143	2.0574782	1.4343913
32.371333263137245	2.074291	1.4402399
32.38958380375734	2.1109338	1.4529053
32.407835188601744	2.1468532	1.4652144
32.42608741825067	2.1249597	1.4577241
32.444340493284585	2.0619352	1.435944
32.46259441428416	2.0688543	1.4383513
32.48084918183028	2.1626306	1.4705886
32.49910479650405	2.1447031	1.4644805
32.51736125888683	2.0752826	1.4405841
32.53561856956014	2.0105543	1.4179401
32.5538767291058	2.02641	1.4235203
32.572135738105764	2.021376	1.421751
32.59039559714228	2.0790799	1.4419014
32.608656306797776	2.1438572	1.4641917
32.62691786765491	2.0780816	1.4415553
32.645180280296586	2.007134	1.4167335
32.663443545305896	1.988731	1.4102237
32.68170766326619	2.0160728	1.4198848
32.69997263476099	2.053419	1.4329756
32.7182384603741	2.0663958	1.4374963
32.7365051406895	2.0779693	1.4415163
32.75477267629144	2.0238197	1.4226102
32.77304106776434	2.0181098	1.420602
32.79131031569289	2.005844	1.4162782
32.809580420661966	1.9903316	1.4107912
32.827851383256714	1.9561411	1.3986212
32.84612320406245	1.9786549	1.4066467
32.86439588366476	2.0061877	1.4163996
32.88266942264945	2.0440674	1.4297088
32.9009438216025	2.040893	1.4285983
32.9192190811102	1.9633098	1.4011816
32.937495201758985	1.9270469	1.3881811
32.95577218413556	1.8629159	1.3648868
32.974050028826866	1.8603622	1.363951
32.992328736420035	1.9349023	1.3910077
33.010608307502444	2.0100396	1.4177586
33.02888874266169	2.0145383	1.4193443
33.047170042485604	1.9816711	1.4077184
33.06545220756225	1.9556545	1.3984472
33.083735238479896	2.023984	1.4226679
33.10201913582707	2.0412245	1.4287143
33.12030390019248	1.9824603	1.4079987
33.138589532165135	1.9800221	1.4071326
33.15687603233419	2.0672712	1.4378009
33.17516340128909	2.1268468	1.4583713
33.19345163961947	1.9854976	1.4090768
33.211740747915215	1.9156132	1.3840568
33.23003072676643	1.9303126	1.389357
33.248321576763466	1.9020274	1.3791401
33.266613298496885	1.9138565	1.383422
33.28490589255747	1.9652551	1.4018756
33.30319935953626	2.0297663	1.4246987
33.32149370002451	2.0329237	1.4258063
33.339788914613706	1.9738907	1.4049522
33.358085003895575	1.9975998	1.4133648
33.376381968462034	1.9965649	1.4129986
33.39467980890529	1.9559394	1.3985491
33.41297852581774	1.9623361	1.4008341
33.43127811979204	2.0154064	1.4196501
33.44957859142105	1.9500228	1.3964322
33.467879941297866	1.9434792	1.3940872
33.486182170015844	1.9133728	1.3832471
33.50448527816853	1.891742	1.3754061
33.522789266349754	1.9538612	1.3978058
33.541094135153514	2.0517871	1.4324061
33.55939988517411	2.0690947	1.4384348
33.57770651700602	2.0044594	1.4157894
33.59601403124398	1.9726948	1.4045265
33.61432242848296	1.9959737	1.4127893
33.632631709318154	2.06948	1.4385687
33.650941874344994	1.992395	1.4115223
33.66925292415916	1.9418029	1.3934859
33.68756485935654	1.9906827	1.4109156
33.70587768053328	2.0221045	1.4220072
33.724191388285746	1.9283007	1.3886327
33.74250598321054	1.8708512	1.3677906
33.760821465904506	1.8359549	1.3549742
33.77913783696474	1.8192232	1.3487858
33.79745509698852	1.8659528	1.3659989
33.815773246573414	2.016991	1.4202081
33.8340922863172	2.1294389	1.4592597
33.852412216817896	2.1059966	1.4512053
33.87073303867377	2.0425034	1.4291618
33.889054752483304	1.90894	1.3816439
33.907377358845245	2.0235415	1.4225124
33.92570085835853	1.9787734	1.4066888
33.94402525162239	1.929268	1.3889809
33.96235053923627	1.8913496	1.3752635
33.980676721799824	1.9050895	1.3802497
33.999003799912984	1.9648757	1.4017402
34.01733177417592	2.0068343	1.4166278
34.03566064518901	1.9580737	1.3993119
34.0539904135529	1.8662841	1.3661201
34.07232107986846	1.9191661	1.3853397
34.090652644736785	2.0043688	1.4157573
34.108985108759235	1.9718397	1.4042221
34.12731847253742	1.9908035	1.4109584
34.14565273667313	2.1541436	1.4677001
34.16398790176847	2.241878	1.4972903
34.18232396842574	2.1365194	1.4616838
34.20066093724749	1.9999369	1.4141912
34.21899880883651	1.7928126	1.3389596
34.23733758379583	1.7134175	1.3089757
34.25567726272874	1.7260976	1.3138103
34.27401784623872	1.7403975	1.3192413
34.29235933492957	1.8124951	1.3462894
34.31070172940526	1.9354893	1.3912187
34.32904503027003	2.0036533	1.4155046
34.347389238128386	1.9508315	1.3967217
34.36573435358502	1.8491795	1.3598454
34.38408037724492	1.9577968	1.399213
34.402427309713296	2.050708	1.4320294
34.42077515159559	1.9737082	1.4048872
34.43912390349752	1.9543382	1.3979765
34.45747356602499	2.1544414	1.4678016
34.47582413978423	2.2479095	1.499303
34.49417562538163	2.1662345	1.4718133
34.51252802342388	2.0950353	1.4474237
34.53088133451789	1.9995252	1.4140457
34.54923555927084	1.910216	1.3821056
34.567590698290104	1.877411	1.3701864
34.58594675218336	1.8922857	1.3756038
34.6043037215585	1.9010583	1.3787887
34.62266160702365	1.9691978	1.4032811
34.641020409187234	2.0951643	1.4474683
34.65938012865785	2.0502586	1.4318724
34.677740766044394	1.8831718	1.372287
34.69610232195598	1.8046329	1.3433663
34.714464797002016	1.9054109	1.3803662
34.73282819179208	1.9413401	1.3933198
34.751192506936064	1.9359559	1.3913863
34.76955774304408	1.9166472	1.3844303
34.7879239007265	1.8297156	1.3526698
34.80629098059391	1.7905446	1.3381124
34.824658983257194	1.9083462	1.3814291
34.843027909327446	1.8982291	1.3777623
34.86139775941603	1.8646255	1.3655128
34.879768534134534	1.9980139	1.4135112
34.89814023409483	2.0543087	1.433286
34.91651285990901	1.9798367	1.4070667
34.93488641218944	1.9838803	1.4085028
34.95326089154871	2.0494497	1.43159
34.97163629859967	2.0183527	1.4206874
34.99001263395542	1.9067086	1.3808362
35.00838989822934	1.7915423	1.3384851
35.02676809203499	1.5766661	1.2556536
35.04514721598624	1.7839638	1.335651
35.063527270697215	1.9836491	1.4084208
35.081908256782256	2.0344183	1.4263303
35.10029017485597	1.764472	1.3283343
35.11867302553321	1.7438773	1.3205595
35.137056809429104	1.8098946	1.3453232
35.155441527159006	1.9345709	1.3908886
35.173827179338524	2.0228722	1.4222771
35.19221376658354	2.0040636	1.4156495
35.21060128951017	1.7968141	1.3404529
35.2289897487348	1.6167965	1.2715331
35.24737914487405	1.6707655	1.292581
35.26576947854479	1.8101467	1.3454169
35.28416075036418	1.9742602	1.4050837
35.30255296094958	2.020419	1.4214144
35.32094611091867	1.92933	1.3890033
35.33934020088932	1.986674	1.4094942
35.35773523147969	2.0399249	1.4282594
35.3761312033082	2.1005218	1.4493177
35.394528116993506	2.1834495	1.47765
35.41292597315452	2.0764956	1.4410051
35.431324772410434	1.8865166	1.3735052
35.449724515380666	2.0984182	1.4485918
35.46812520268491	2.417464	1.5548196
35.486526834943106	2.3143835	1.5213099
35.504929412775454	1.9726319	1.4045042
35.52333293680242	1.8642321	1.3653688
35.54173740764471	1.8598735	1.3637718
35.560142825923286	2.0151167	1.419548
35.5785491922594	2.0280166	1.4240844
35.59695650727454	1.5085982	1.22825
35.61536477159042	0.42420965	0.6513138
