0.008763373481513119	0.0	0.0
0.026290120649546365	0.14626539	0.3824466
0.043816868432600686	0.1255995	0.3544002
0.06134361724069026	0.121095665	0.347988
0.07887036748382949	0.1890063	0.43474856
0.0963971195720331	0.12155288	0.34864435
0.11392387391531617	0.11859596	0.34437764
0.1314506309236943	0.083382234	0.28875983
0.1489773910071836	0.13572636	0.3684106
0.16650415457580078	0.15969004	0.39961237
0.18403092203956356	0.20533408	0.45313805
0.20155769380849	0.20680378	0.45475683
0.2190844702925996	0.26045236	0.51034534
0.2366112519019124	0.21523777	0.46393725
0.2541380390464497	0.21567693	0.4644103
0.27166483213623416	0.18686546	0.43227938
0.28919163158128947	0.19580537	0.442499
0.3067184377916406	0.15794405	0.39742175
0.324245251177314	0.20903789	0.4572066
0.34177207214833777	0.20037973	0.44763795
0.3592989011147415	0.20189658	0.44932902
0.37682573848655654	0.21236381	0.46082947
0.39435258467381573	0.21720779	0.46605557
0.41187944008655414	0.16401683	0.4049899
0.42940630513480854	0.1115285	0.33395883
0.446933180228618	0.06315663	0.2513098
0.4644600657780234	0.057525814	0.2398454
0.48198696219306775	0.07008237	0.26473075
0.49951386988379676	0.12958615	0.35998076
0.5170407892602581	0.20651025	0.45443398
0.5345677207325025	0.23354663	0.48326662
0.5520946647105822	0.21799557	0.46689996
0.5696216216045534	0.20491496	0.45267534
0.5871485918244737	0.22800899	0.47750285
0.6046755757804043	0.2478622	0.4978576
0.6222025738824094	0.2513897	0.5013878
0.6397295865405557	0.21561049	0.46433878
0.6572566141649129	0.16435157	0.40540296
0.6747836571655547	0.16799797	0.40987554
0.6923107159525568	0.15718839	0.3964699
0.7098377909359992	0.13104987	0.3620081
0.7273648825259653	0.10533673	0.3245562
0.7448919911325411	0.11643871	0.34123117
0.762419117165817	0.15564847	0.39452308
0.7799462610358868	0.17391448	0.41703054
0.7974734231528482	0.15205997	0.38994867
0.8150006039268024	0.14938472	0.3865032
0.8325278037678551	0.14513935	0.38097158
0.8500550230861152	0.18915074	0.43491462
0.8675822622916969	0.20072298	0.44802117
0.8851095217947171	0.20635594	0.4542642
0.9026368020052984	0.21374156	0.4623219
0.9201641033335665	0.26022258	0.51012015
0.9376914261896523	0.28500453	0.5338582
0.9552187709836915	0.26127595	0.5111516
0.9727461381258234	0.2276669	0.47714454
0.990273528026193	0.24611856	0.49610338
1.0078009410949496	0.25005442	0.5000544
1.0253283777422473	0.2649825	0.5147645
1.0428558383782454	0.25522628	0.50519925
1.0603833234131086	0.31317997	0.55962485
1.0779108332570058	0.2923788	0.54072064
1.0954383683201119	0.31497744	0.5612285
1.112965929012607	0.33834085	0.58167076
1.1304935157446763	0.47252664	0.6874057
1.1480211289265108	0.5417372	0.736028
1.1655487689683062	1.4677132	1.2114922
1.1830764362802655	1.7959138	1.3401171
1.200604131272596	2.1842976	1.477937
1.2181318543555117	2.5407596	1.593976
1.235659605939232	2.552809	1.5977513
1.253187386433982	4.0678196	2.0168836
1.270715196249994	6.3405747	2.5180497
1.2882430357975057	11.82056	3.4381042
1.3057709054867608	16.710436	4.08784
1.3232988057280106	22.592339	4.75314
1.3408267369315112	27.721388	5.2651105
1.358354699507526	31.216846	5.587204
1.3758826938663256	35.28041	5.9397316
1.3934107204181858	37.521317	6.1254644
1.410938779573391	37.668182	6.137441
1.4284668717422309	38.205658	6.1810727
1.4459949973350033	37.76788	6.145558
1.4635231567620117	37.59096	6.131147
1.4810513504335687	37.069412	6.0884657
1.4985795787599925	36.476753	6.039599
1.5161078421516088	36.010555	6.00088
1.5336361410187505	35.13521	5.927496
1.5511644757717598	35.04532	5.9199085
1.5686928468209842	35.68496	5.973689
1.58622125457678	36.488865	6.0406013
1.6037496994495108	37.96353	6.161455
1.621278181849548	37.47096	6.1213527
1.6388067021872719	38.006626	6.1649513
1.6563352608730693	37.490883	6.12298
1.673863858317336	36.756096	6.0626807
1.6913924949304753	36.097214	6.0080957
1.7089211711228998	34.81823	5.900697
1.7264498873050296	34.481552	5.8720994
1.7439786438872935	33.758274	5.810187
1.7615074412801288	32.56058	5.706188
1.779036279893981	31.883215	5.6465225
1.796565160139305	30.863134	5.55546
1.814094082426564	30.361473	5.5101247
1.8316230471662298	29.590046	5.4396734
1.849152054768784	28.43181	5.3321486
1.8666811056447168	27.693993	5.2625084
1.8842102002045273	26.77614	5.1745667
1.901739338858724	26.358677	5.1340704
1.9192685220178245	25.715578	5.071053
1.9367977500923557	24.980833	4.998083
1.9543270234928547	24.711433	4.97106
1.971856342629867	24.30068	4.929572
1.9893857079139496	23.69719	4.8679757
2.006915119755667	23.086952	4.8048882
2.0244445785655945	22.543167	4.7479644
2.0419740847543175	22.136898	4.7049866
2.0595036387324317	21.61382	4.6490664
2.0770332409105414	20.97159	4.579475
2.094562891699263	20.59563	4.538241
2.1120925915092217	20.077091	4.4807467
2.129622340751053	19.768078	4.4461308
2.1471521398354043	187.91574	13.708237
2.1646819891729323	444.19525	21.07594
2.182211889174303	440.3057	20.983463
2.1997418402501974	452.62634	21.275017
2.2172718428113023	432.78024	20.803371
2.234801897268317	321.0625	17.918217
2.2523320040319548	17.4963	4.182858
2.269862163512935	17.290054	4.158131
2.287392376121992	16.881311	4.1086874
2.304922642269869	16.472708	4.0586586
2.322452962367322	16.075737	4.009456
2.3399833368251164	15.5818	3.9473789
2.357513766054032	15.399409	3.9242082
2.3750442504648586	15.214689	3.9006011
2.3925747904683963	15.121821	3.8886786
2.410105386475459	14.834646	3.851577
2.4276360388968707	14.347012	3.787745
2.445166748143469	13.958779	3.736145
2.4626975146261025	13.571542	3.6839573
2.4802283387556323	13.546562	3.6805654
2.4977592209429305	13.526008	3.677772
2.5152901615988825	13.348003	3.653492
2.5328211611343865	13.099657	3.619345
2.5503522199603523	12.742647	3.5696845
2.5678833384877024	12.394073	3.5205216
2.5854145171273712	12.085805	3.4764645
2.6029457562903064	11.811472	3.4367821
2.620477056387469	11.8270645	3.43905
2.6380084178298326	11.604333	3.4065132
2.655539841028383	11.435954	3.3817089
2.673071326394119	11.318639	3.3643184
2.6906028743380523	11.235527	3.3519437
2.708134485271211	11.000081	3.316637
2.7256661596046325	10.900268	3.3015554
2.743197897749369	10.724614	3.2748456
2.760729700116486	10.718086	3.2738488
2.778261567117063	10.6128025	3.2577298
2.795793499162193	10.436353	3.2305343
2.8133254966629817	10.203807	3.1943398
2.830857560030551	9.86177	3.1403456
2.8483896896760337	9.527702	3.0866976
2.865921886010578	9.347155	3.0573118
2.883454149445347	9.183423	3.0304163
2.9009864803915177	9.171552	3.028457
2.91851887926028	9.218099	3.036132
2.9360513464628384	9.363435	3.059973
2.953583882410413	9.183649	3.0304537
2.9711164875142373	8.843224	2.9737558
2.9886491621855606	8.663558	2.9433923
3.0061819068356455	8.537357	2.9218757
3.023714721875769	8.525297	2.9198112
3.041247607717225	8.518272	2.918608
3.0587805647713213	8.450921	2.9070468
3.0763135934493806	8.404546	2.8990595
3.0938466941627407	8.240863	2.8706903
3.1113798673227544	8.242849	2.8710363
3.1289131133407904	8.026107	2.8330383
3.1464464326282315	7.8933077	2.809503
3.1639798255964786	7.733861	2.780982
3.1815132926569443	7.578249	2.752862
3.1990468342210603	7.6007466	2.7569451
3.216580450700272	7.4853067	2.7359288
3.2341141425060416	7.3266463	2.7067778
3.251647910049847	7.2066865	2.6845272
3.2691817537431813	7.089428	2.662598
3.286715673997555	7.1082077	2.6661222
3.3042496712244938	7.1446214	2.6729424
3.32178374583554	7.182225	2.6799674
3.339317898242251	7.185354	2.680551
3.3568521288562034	7.0314946	2.6516964
3.3743864380889876	6.9656687	2.6392553
3.3919208263522127	6.808789	2.6093657
3.4094552940575023	6.785013	2.6048057
3.4269898416164972	6.63596	2.5760357
3.444524469440858	6.60349	2.5697258
3.4620591779422587	6.5045433	2.5504007
3.479593967532391	6.387123	2.5272758
3.4971288386229658	6.2836165	2.5067143
3.5146637916257086	6.303743	2.5107255
3.5321988269523628	6.3420515	2.518343
3.5497339450146903	6.412955	2.5323813
3.5672691462244708	6.405723	2.530953
3.5848044309934988	6.4042625	2.5306644
3.60233979973359	6.3159447	2.5131543
3.619875252856575	6.312327	2.5124345
3.6374107907743034	6.272986	2.504593
3.6549464138986427	6.2736998	2.5047355
3.6724821226414788	6.267748	2.503547
3.690017917414714	6.270079	2.5040126
3.7075537986302702	6.3779283	2.525456
3.7250897667000857	6.442686	2.5382447
3.7426258220361235	6.5716357	2.5635202
3.7601619650503553	6.837073	2.6147797
3.777698196154779	7.518576	2.7420022
3.7952345157614067	8.603769	2.9332182
3.8127709242822716	9.417788	3.0688415
3.830307422129425	11.578048	3.402653
3.847844009714936	30.478083	5.5206957
3.8653806874508954	97.99385	9.899184
3.882917455749409	97.08256	9.853048
3.900454315022606	96.84206	9.840837
3.917991265682631	41.29408	6.426047
3.9355283081416506	11.004374	3.317284
3.9530654428118495	8.772283	2.961804
3.970602670105433	7.4203587	2.7240336
3.9881399904346244	6.561679	2.5615773
4.005677404211669	6.5317507	2.555729
4.023214911848827	6.573664	2.5639157
4.0407525137583855	6.4965343	2.54883
4.058290210352644	6.4803853	2.54566
4.075828002043927	6.3896527	2.5277762
4.0933658892445814	6.3340144	2.5167468
4.110903872366966	6.2717743	2.5043511
4.128441951823468	6.151373	2.4801962
4.145980128026488	6.1186776	2.473596
4.163518401388452	6.156172	2.4811635
4.181056772321807	6.1899614	2.4879632
4.1985952412390155	6.0683737	2.463407
4.216133808552567	6.080917	2.4659514
4.233672474674966	6.133724	2.4766357
4.251211240018741	6.4038167	2.5305765
4.268750104996445	6.6418023	2.5771694
4.286289070020643	7.4746947	2.7339888
4.303828135503928	9.011387	3.001897
4.3213673018589125	29.387577	5.421031
4.3389065694982305	90.629745	9.519965
4.356445938834537	166.06665	12.886685
4.3739854102805085	171.69872	13.103386
4.391524984248844	172.6461	13.139486
4.409064661152262	136.69249	11.691556
4.426604441403504	96.89831	9.843694
4.444144325415337	75.762825	8.704185
4.461684313600543	21.70744	4.6591244
4.47922440637193	22.031778	4.6938024
4.496764604142329	20.446846	4.521819
4.5143049073245916	18.601849	4.312986
4.531845316331589	16.50306	4.0623956
4.5493858315762195	13.6228285	3.6909115
4.566926453471405	11.378964	3.3732722
4.584467182430081	9.326008	3.0538514
4.602008018865218	8.246339	2.871644
4.619548963189798	7.5524764	2.7481768
4.637090015816834	7.028663	2.6511626
4.654631177159353	6.6905794	2.5866153
4.672172447630417	6.340725	2.5180795
4.689713827643102	6.257306	2.5014608
4.7072553176105085	6.043052	2.458262
4.724796917945764	5.9353127	2.4362497
4.742338629062015	5.768809	2.4018345
4.759880451372434	5.722425	2.392159
4.777422385290215	5.765027	2.401047
4.794964431228581	5.78438	2.405074
4.812506589600768	5.8078656	2.4099514
4.830048860820047	5.7166324	2.390948
4.847591245299709	5.6635227	2.3798156
4.8651337434530655	5.5869718	2.3636775
4.882676355693457	5.605755	2.3676476
4.900219082434242	5.5343356	2.352517
4.917761924088813	5.526208	2.3507888
4.935304881070575	5.523719	2.3502593
4.952847953792969	5.4892693	2.3429189
4.970391142669449	5.4651127	2.337758
4.9879344481135055	5.4172544	2.3274996
5.005477870538642	5.4106812	2.326087
5.023021410358394	5.390176	2.3216753
5.040565067986324	5.406476	2.325183
5.05810884383601	5.4164176	2.3273199
5.075652738321066	5.4596467	2.3365886
5.09319675185512	5.4639287	2.3375049
5.110740884851836	5.517569	2.3489506
5.128285137724894	5.523648	2.3502443
5.145829510888007	5.4243526	2.329024
5.163374004754908	5.3507905	2.3131776
5.1809186197393595	5.3699603	2.3173175
5.198463356255145	5.3915186	2.3219643
5.216008214716077	5.4091625	2.3257606
5.233553195535998	5.3685803	2.3170197
5.251098299128764	5.337302	2.3102603
5.268643525908272	5.2618785	2.2938786
5.286188876288432	5.21001	2.2825446
5.3037343506831895	5.141665	2.267524
5.32127994950651	5.150395	2.269448
5.3388256731723915	5.1472816	2.268762
5.356371522094851	5.1738124	2.2746017
5.373917496687938	5.191163	2.2784123
5.391463597365729	5.180873	2.276153
5.40900982454232	5.230635	2.287058
5.426556178631843	5.1833115	2.2766888
5.444102660048449	5.122453	2.2632837
5.4616492692063225	5.1177044	2.2622344
5.479196006519669	5.0985785	2.2580032
5.496742872402727	5.110978	2.2607472
5.514289867269756	5.120644	2.2628841
5.531836991535049	5.186157	2.2773137
5.549384245612924	5.1931396	2.278846
5.566931629917724	5.1822114	2.276447
5.584479144863822	5.150825	2.269543
5.6020267908656205	5.2156205	2.2837734
5.619574568337545	5.2265067	2.2861555
5.637122477694054	5.1989017	2.2801101
5.654670519349629	5.1395464	2.2670567
5.672218693718784	5.0819807	2.254325
5.689767001216059	5.047219	2.2466016
5.707315442256021	5.058204	2.2490451
5.724864017253266	5.066357	2.2508569
5.7424127266224225	5.1252313	2.2638974
5.75996157077814	5.175335	2.2749362
5.777510550135105	5.153777	2.270193
5.795059665108022	5.1636977	2.272377
5.812608916111639	5.261981	2.2939007
5.830158303560715	5.407597	2.325424
5.847707827870055	5.410344	2.3260148
5.86525748945448	5.463789	2.3374748
5.8828072887288485	5.5718765	2.3604822
5.900357226108044	5.6045866	2.367401
5.917907302006979	5.641845	2.3752568
5.9354575168406	6.270487	2.5040941
5.9530078710238765	6.880417	2.623055
5.970558364971812	7.4933734	2.7374027
5.988108999099438	7.8377695	2.7996016
6.005659773821818	8.351392	2.8898776
6.023210689554039	8.049616	2.8371844
6.040761746711227	8.474296	2.9110644
6.058312945708531	7.8486443	2.8015432
6.075864286961132	7.374014	2.7155135
6.093415770884244	6.717603	2.5918338
6.1109673978931065	6.0922585	2.46825
6.128519168402993	5.4316344	2.3305867
6.146071082829204	5.281389	2.2981274
6.163623141587075	5.1386404	2.266857
6.181175345091969	5.118772	2.2624702
6.198727693759281	5.098739	2.2580388
6.216280188004435	5.128334	2.2645826
6.233832828242885	5.1950994	2.2792761
6.251385614890126	5.277477	2.297276
6.268938548361669	5.2775636	2.2972949
6.286491629073067	5.1761327	2.2751117
6.304044857439898	5.1220765	2.2632005
6.321598233877777	5.050672	2.24737
6.339151758802344	5.0640736	2.2503498
6.356705432629277	5.048973	2.246992
6.37425925577428	5.052377	2.2477493
6.391813228653095	5.0763607	2.253078
6.409367351681486	5.085738	2.2551582
6.426921625275259	5.056359	2.2486348
6.44447604985025	5.0562615	2.2486134
6.46203062582232	5.039388	2.2448583
6.47958535360737	5.088915	2.2558622
6.497140233621328	5.068547	2.2513433
6.514695266280161	5.1156883	2.2617888
6.532250451999859	5.176225	2.275132
6.549805791196454	5.1798325	2.2759244
6.567361284286002	5.086896	2.2554147
6.584916931684597	4.996042	2.2351828
6.602472733808367	5.005703	2.2373428
6.6200286910734665	5.042898	2.2456398
6.637584803896092	5.056115	2.2485807
6.655141072692462	5.037825	2.24451
6.672697497878842	4.97894	2.2313538
6.690254079871514	5.048963	2.2469897
6.707810819086808	5.0942717	2.2570493
6.725367715941078	5.066929	2.250984
6.742924770850719	5.0136404	2.239116
6.760481984232151	4.951725	2.2252471
6.778039356501836	4.9619474	2.2275429
6.795596888076266	5.0471625	2.2465892
6.813154579371963	5.1153216	2.2617078
6.830712430805492	5.1683006	2.2733896
6.84827044279344	5.131674	2.2653198
6.865828615752445	5.0977273	2.2578146
6.883386950099159	5.098753	2.2580419
6.900945446250287	5.092117	2.256572
6.918504104622553	5.094314	2.2570586
6.936062925632727	5.026723	2.2420354
6.953621909697607	5.060194	2.2494874
6.971181057234028	5.0941653	2.2570257
6.988740368658859	5.178852	2.2757092
7.006299844389007	5.240047	2.289115
7.023859484841407	5.3209667	2.3067222
7.041419290433036	5.3981185	2.3233852
7.058979261580902	5.53453	2.3525581
7.0765393987020495	5.7236643	2.3924181
7.094099702213559	6.062523	2.462219
7.111660172532549	6.4278975	2.5353298
7.129220810076164	6.779545	2.603756
7.146781615261595	7.4162154	2.723273
7.16434258850606	7.5789127	2.7529826
7.181903730226821	7.938632	2.8175578
7.1994650408411704	8.023548	2.8325868
7.217026520766437	8.198706	2.8633382
7.234588170419983	8.470031	2.9103317
7.252149990219215	8.487271	2.9132922
7.269711980581568	8.449787	2.9068518
7.2872741419245175	8.243617	2.87117
7.304836474665574	7.834972	2.799102
7.322398979222286	7.4552636	2.7304327
7.339961656012233	7.1915517	2.681707
7.357524505453039	6.8505864	2.6173625
7.375087527962357	6.546342	2.558582
7.392650723957886	6.269055	2.503808
7.410214093857353	5.943907	2.4380128
7.427777638078528	5.763528	2.400735
7.445341357039213	5.6084375	2.368214
7.4629052511572525	5.4630575	2.3373184
7.480469320850524	5.2977643	2.3016872
7.498033566536948	5.2363496	2.2883072
7.5155979886344735	5.1784773	2.275627
7.5331625875610975	5.1759973	2.2750819
7.550727363734844	5.1784487	2.2756205
7.568292317573788	5.162888	2.272199
7.585857449496025	5.1545925	2.2703729
7.603422759919705	5.189817	2.278117
7.620988249263007	5.2428455	2.289726
7.638553917944147	5.245887	2.29039
7.656119766381391	5.158279	2.2711844
7.673685794993023	5.160841	2.2717485
7.691252004197388	5.169421	2.273636
7.70881839441285	5.1982646	2.2799704
7.726384966057826	5.203085	2.281027
7.743951719550762	5.2442665	2.2900364
7.761518655310149	5.269256	2.295486
7.779085773754511	5.255902	2.2925754
7.796653075302419	5.214386	2.283503
7.814220560372475	5.1878104	2.2776766
7.831788229383323	5.1901164	2.2781827
7.8493560827536495	5.235677	2.28816
7.866924120902174	5.2694397	2.295526
7.884492344247663	5.3108277	2.3045232
7.9020607532089135	5.3980727	2.3233752
7.919629348204771	5.4361615	2.3315578
7.937198129654115	5.4687333	2.3385322
7.954767097975865	5.4243736	2.3290284
7.972336253588986	5.4144654	2.3269005
7.989905596912472	5.37902	2.3192716
8.007475128365371	5.381532	2.319813
8.025044848366756	5.393726	2.3224397
8.042614757335754	5.5192256	2.3493032
8.060184855691523	5.5738745	2.3609054
8.07775514385327	5.7222447	2.3921213
8.095325622240228	5.792604	2.4067829
8.112896291271687	5.8284826	2.414225
8.130467151366968	5.8789115	2.4246466
8.148038202945436	5.9512286	2.439514
8.165609446426497	5.969518	2.4432597
8.183180882229594	6.037478	2.457128
8.200752510774217	6.0421224	2.458073
8.218324332479893	6.0751476	2.4647815
8.235896347766193	6.0651064	2.4627438
8.253468557052724	6.144867	2.4788842
8.27104096075914	6.114906	2.4728336
8.288613559305137	6.1737375	2.4847007
8.306186353110448	6.1706285	2.484075
8.32375934259485	6.249038	2.4998076
8.341332528178162	6.231396	2.4962764
8.358905910280246	6.2149687	2.4929838
8.376479489321003	6.1907535	2.4881225
8.394053265720377	6.3020225	2.510383
8.411627239898356	6.37871	2.5256107
8.42920141227497	6.379593	2.5257857
8.44677578327029	6.3079915	2.5115714
8.464350353304427	6.2416654	2.4983325
8.48192512279754	6.2122765	2.4924438
8.499500092169827	6.0816455	2.4660993
8.51707526184153	6.0846176	2.4667017
8.534650632232934	6.1161766	2.4730904
8.552226203764365	6.1760387	2.4851637
8.569801976856192	6.259722	2.5019436
8.587377951928834	6.3014016	2.5102594
8.60495412940274	6.336638	2.517268
8.622530509698416	6.4031844	2.5304515
8.6401070932364	6.4849277	2.5465522
8.657683880437283	6.559079	2.56107
8.675260871721695	6.6736264	2.5833364
8.692838067510303	6.8377547	2.6149101
8.710415468223834	7.034875	2.652334
8.727993074283043	7.2513547	2.692834
8.745570886108737	7.1341243	2.670978
8.763148904121765	7.1469836	2.6733842
8.78072712874302	7.1003513	2.6646485
8.798305560393441	7.457202	2.7307878
8.815884199494006	7.5495687	2.7476478
8.833463046465745	7.7193904	2.7783792
8.851042101729728	7.8369346	2.7994525
8.86862136570707	8.163622	2.8572052
8.886200838818924	8.371289	2.893318
8.903780521486505	8.449657	2.9068294
8.921360414131055	8.54053	2.9224186
8.938940517173874	8.609796	2.9342453
8.956520831036297	8.728537	2.9544096
8.97410135613971	9.073633	3.012247
8.99168209290554	9.334494	3.0552404
9.009263041755265	9.653155	3.1069527
9.026844203110405	9.760064	3.1241102
9.044425577392525	9.830409	3.1353483
9.062007165023239	9.893706	3.1454263
9.079588966424197	10.144811	3.185092
9.097170982017108	10.189795	3.1921458
9.11475321222372	11.3128	3.3634508
9.132335657465825	12.3112755	3.5087428
9.149918318165264	12.462137	3.5301752
9.167501194743924	13.055812	3.6132827
9.18508428762374	12.635008	3.5545757
9.202667597226693	12.624594	3.5531104
9.220251123974803	12.301902	3.5074067
9.237834868290143	11.998141	3.4638333
9.255418830594836	11.848922	3.4422262
9.273003011311046	11.284189	3.3591948
9.290587410860985	11.053965	3.3247504
9.308172029666911	10.386108	3.2227485
9.32575686815113	10.084643	3.1756327
9.343341926735997	8.870785	2.9783862
9.360927205843916	8.62694	2.9371653
9.378512705897327	8.426387	2.902824
9.396098427318728	8.170682	2.8584404
9.413684370530664	8.035005	2.8346083
9.431270535955722	7.915884	2.813518
9.448856924016539	7.8846765	2.8079667
9.466443535135806	7.7743206	2.7882469
9.484030369736251	7.770456	2.7875538
9.501617428240658	7.715824	2.7777371
9.519204711071852	7.7402024	2.782122
9.536792218652714	7.8111863	2.7948499
9.55437995140617	7.90812	2.812138
9.571967909755191	7.8956428	2.8099186
9.589556094122802	7.8623376	2.803986
9.60714450493207	7.8455863	2.8009973
9.624733142606116	7.9219913	2.8146033
9.642322007568108	8.029328	2.833607
9.659911100241267	8.08832	2.8439972
9.677500421048851	8.142564	2.8535178
9.695089970414175	8.184917	2.8609295
9.712679748760609	8.1939125	2.8625011
9.730269756511557	8.186894	2.861275
9.747859994090492	8.14688	2.854274
9.765450461920915	8.21733	2.8665886
9.78304116042639	8.329283	2.8860497
9.800632090030527	8.376325	2.8941882
9.81822325115699	8.374077	2.8937998
9.835814644229481	8.321179	2.8846455
9.853406269671762	8.284575	2.8782938
9.870998127907646	8.285114	2.8783875
9.888590219360985	8.38523	2.8957262
9.906182544455698	8.423601	2.902344
9.923775103615734	8.468514	2.9100711
9.941367897265108	8.432664	2.903905
9.958960925827878	8.341986	2.8882496
9.97655418972816	8.387308	2.896085
9.994147689390106	8.349629	2.8895726
10.011741425237934	8.368931	2.8929105
10.029335397695904	8.312244	2.8830962
10.04692960718833	8.292107	2.8796017
10.06452405413958	8.236421	2.8699164
10.082118738974064	8.25295	2.8727949
10.099713662116246	8.293643	2.8798685
10.117308823990651	8.318045	2.884102
10.134904225021844	8.326021	2.8854845
10.152499865634445	8.3600645	2.8913777
10.170095746253125	8.388212	2.896241
10.18769186730261	8.332842	2.8866663
10.205288229207675	8.255285	2.8732011
10.222884832393145	8.180439	2.8601468
10.2404816772839	8.114756	2.848641
10.258078764304868	8.133457	2.8519216
10.275676093881035	8.086368	2.843654
10.293273666437438	8.088837	2.844088
10.310871482399158	8.088712	2.8440661
10.32846954219134	8.120445	2.8496394
10.346067846239173	8.238324	2.870248
10.363666394967908	8.286829	2.8786852
10.38126518880283	8.254955	2.873144
10.398864228169298	8.183616	2.860702
10.416463513492713	8.10985	2.8477798
10.434063045198531	8.13497	2.852187
10.451662823712262	8.186854	2.861268
10.469262849459467	8.235466	2.8697503
10.486863122865758	8.165219	2.8574848
10.504463644356806	8.132509	2.8517554
10.522064414358338	8.065327	2.839952
10.539665433296118	8.049239	2.8371181
10.557266701595987	7.976746	2.8243134
10.574868219683818	7.8468614	2.801225
10.592469987985552	7.731457	2.7805498
10.610072006927185	7.602071	2.7571852
10.627674276934751	7.4661083	2.732418
10.64527679843435	7.41297	2.722677
10.662879571852143	7.35983	2.7129006
10.680482597614331	7.331936	2.7077549
10.698085876147173	7.2841086	2.6989088
10.715689407876988	7.144327	2.6728873
10.733293193230146	6.9989033	2.645544
10.750897232633072	6.825166	2.6125019
10.76850152651225	6.6876144	2.5860422
10.786106075294207	6.6026244	2.5695572
10.803710879405534	6.5078273	2.5510445
10.821315939272877	6.460857	2.5418215
10.83892125532294	6.4554663	2.540761
10.856526827982472	6.3785124	2.5255716
10.874132657678285	6.319512	2.513864
10.891738744837243	6.264233	2.502845
10.909345089886271	6.173662	2.4846854
10.926951693252343	6.0431128	2.4582744
10.944558555362494	5.948906	2.4390378
10.96216567664381	5.9242554	2.4339793
10.979773057523436	5.8816586	2.425213
10.997380698428573	5.842995	2.417229
11.014988599786477	5.8206973	2.4126122
11.032596762024461	5.728412	2.3934102
11.050205185569892	5.6557684	2.378186
11.067813870850198	5.620336	2.3707247
11.085422818292859	5.5313025	2.3518722
11.10303202832541	5.4290876	2.3300402
11.120641501375454	5.380853	2.3196666
11.138251237870636	5.3774796	2.3189392
11.155861238238671	5.3448625	2.3118958
11.173471502907317	5.3225584	2.3070672
11.191082032304402	5.215592	2.283767
11.208692826857805	5.134707	2.265989
11.226303886995465	4.99593	2.2351577
11.243915213145371	4.912057	2.216316
11.261526805735578	4.869523	2.2066996
11.279138665194196	4.81428	2.1941469
11.296750791949393	4.829148	2.1975322
11.314363186429393	4.787588	2.1880558
11.331975849062479	4.7331553	2.1755817
11.34958878027699	4.6336126	2.152583
11.36720198050133	4.6267915	2.1509979
11.384815450163948	4.575098	2.138948
11.402429189693366	4.5417356	2.1311347
11.420043199518153	4.4528785	2.1101844
11.437657480066942	63.42241	7.9638186
11.455272031768422	85.1704	9.228781
11.472886855051353	107.63202	10.374585
11.490501950344528	99.22876	9.961364
11.508117318076819	84.566826	9.196022
11.52573295867715	45.9337	6.7774405
11.543348872574514	4.235991	2.0581524
11.560965060197946	4.2060065	2.0508552
11.57858152197655	4.1362314	2.0337727
11.59619825833949	4.0830646	2.0206594
11.613815269715985	3.9922204	1.9980541
11.631432556535323	38.50238	6.2050285
11.649050119226837	83.05524	9.113464
11.666667958219929	93.45485	9.667205
11.68428607394406	107.73357	10.379478
11.701904466828756	82.584335	9.087592
11.719523137303586	65.46798	8.0912285
11.737142085798196	4.7324243	2.1754136
11.754761312742286	3.8280735	1.9565463
11.772380818565619	3.7086835	1.9257942
11.790000603698015	3.688798	1.9206244
11.80762066856935	3.6578052	1.9125389
11.825241013609572	3.623821	1.9036336
11.842861639248683	3.6229064	1.9033934
11.860482545916748	3.597934	1.8968221
11.878103734043883	3.5430732	1.8823053
11.895725204060282	3.4588058	1.8597865
11.91334695639619	3.401437	1.8442985
11.930968991481919	3.399717	1.8438321
11.948591309747824	3.424189	1.8504565
11.966213911624347	3.373007	1.8365748
11.98383679754198	3.306552	1.8183926
12.001459967931268	3.2650218	1.8069371
12.019083423222835	3.2617257	1.8060248
12.036707163847352	3.2578862	1.8049616
12.05433119023556	3.238149	1.7994857
12.071955502818259	3.2518723	1.8032949
12.089580102026313	3.2575674	1.8048732
12.107204988290643	3.243591	1.8009973
12.12483016204224	3.187271	1.785293
12.142455623712152	3.1540756	1.7759718
12.16008137373149	3.0795557	1.7548664
12.177707412531431	3.0540109	1.7475729
12.19533374054321	3.0282815	1.7401958
12.212960358198126	3.0301855	1.7407428
12.230587265927545	3.0433185	1.744511
12.248214464162889	3.067953	1.7515574
12.265841953335649	3.0429285	1.7443992
12.283469733877375	3.030758	1.7409072
12.301097806219685	3.0122368	1.7355797
12.31872617079425	3.0311346	1.7410154
12.336354828032825	3.0539205	1.747547
12.353983778367205	3.0391328	1.7433109
12.371613022229262	2.9693534	1.7231812
12.389242560050928	2.9034598	1.7039542
12.406872392264201	2.8672535	1.6932967
12.424502519301143	2.9016976	1.703437
12.442132941593874	2.9130597	1.7067688
12.459763659574586	2.930819	1.7119635
12.477394673675532	2.858732	1.6907785
12.49502598432903	2.826282	1.681155
12.51265759196746	2.8209798	1.6795772
12.530289497023267	2.845689	1.6869171
12.547921699928967	2.8151875	1.677852
12.565554201117134	2.8095746	1.6761786
12.583187001020404	2.7858963	1.6691004
12.600820100071486	2.7777002	1.6666434
12.618453498703152	2.7692735	1.6641134
12.636087197348235	2.765864	1.6630887
12.65372119643964	2.7594392	1.6611559
12.671355496410326	2.774456	1.6656698
12.68899009769333	2.7829387	1.6682142
12.706625000721749	2.82763	1.6815559
12.724260205928752	2.8672545	1.6932969
12.741895713747551	2.9011571	1.7032783
12.759531524611454	2.954092	1.7187473
12.777167638953818	2.991182	1.7295034
12.794804057208072	2.9999206	1.7320279
12.812440779807702	3.0188248	1.7374766
12.830077807186271	3.17392	1.7815498
12.847715139777405	3.2269094	1.79636
12.865352778014795	3.4827135	1.866203
12.882990722332197	3.6111932	1.900314
12.90062897316344	3.6684463	1.9153188
12.918267530942412	3.7148573	1.9273965
12.935906396103071	3.5996644	1.8972782
12.953545569079449	3.7724035	1.9422677
12.971185050305628	3.6044579	1.898541
12.988824840215775	3.627133	1.9045033
13.006464939244115	3.6000152	1.8973706
13.024105347824943	3.4672513	1.8620557
13.041746066392617	3.5594518	1.8866509
13.05938709538157	3.4213965	1.8497018
13.077028435226296	3.42354	1.8502811
13.094670086361363	3.2938395	1.8148938
13.112312049221401	3.1557565	1.7764449
13.129954324241112	3.0708935	1.7523965
13.147596911855258	2.903263	1.7038964
13.165239812498685	2.88239	1.6977603
13.182883026606293	2.8372934	1.6844267
13.200526554613058	2.8264902	1.6812168
13.218170396954017	2.805665	1.675012
13.235814554064284	2.7614315	1.6617556
13.253459026379034	2.732735	1.6530986
13.271103814333523	2.7218077	1.6497902
13.288748918363058	2.7349014	1.6537538
13.306394338903031	2.725182	1.6508125
13.32404007638889	2.686679	1.6391091
13.341686131256164	2.6950462	1.6416596
13.359332503940449	2.6715271	1.6344807
13.376979194877402	2.7022207	1.6438433
13.394626204502751	2.7102797	1.6462927
13.412273533252307	2.7413933	1.6557153
13.429921181561937	2.7320757	1.6528991
13.447569149867581	2.7436626	1.6564004
13.465217438605247	2.7443466	1.6566069
13.482866048211022	2.7466342	1.6572973
13.500514979121052	2.7717164	1.6648473
13.518164231771568	2.7352269	1.6538521
13.535813806598844	2.7193325	1.6490399
13.553463704039254	2.663674	1.6320766
13.571113924529229	2.6944184	1.6414684
13.588764468505275	2.7592676	1.6611043
13.606415336403956	2.7785082	1.6668857
13.624066528661917	2.7582092	1.6607857
13.641718045715882	2.8112652	1.6766828
13.659369888002635	2.874786	1.6955193
13.67702205595903	2.96115	1.7207992
13.694674550021993	2.96505	1.721932
13.712327370628532	2.9947271	1.730528
13.729980518215713	3.0508044	1.7466552
13.747633993220681	3.1759524	1.7821202
13.765287796080647	3.250714	1.8029736
13.7829419272329	3.3154445	1.8208362
13.800596387114801	3.34466	1.8288412
13.818251176163775	3.3744957	1.8369801
13.835906294817324	3.4320004	1.8525659
13.853561743513023	3.4452913	1.8561496
13.871217522688525	3.4607468	1.8603083
13.888873632781538	3.479831	1.8654305
13.906530074229858	3.5455806	1.8829712
13.92418684747135	3.6052728	1.8987556
13.941843952943948	3.6077023	1.8993952
13.959501391085665	3.5474553	1.883469
13.977159162334578	3.452076	1.8579763
13.994817267128846	3.349487	1.8301604
14.012475705906693	3.2381682	1.799491
14.030134479106424	3.1674185	1.7797242
14.047793587166414	3.121536	1.7667869
14.065453030525108	3.043518	1.7445681
14.083112809621026	2.9860797	1.7280277
14.100772924892766	2.9308891	1.7119839
14.118433376778997	2.8856187	1.6987109
14.136094165718458	2.8457181	1.6869256
14.153755292149969	2.7724342	1.6650628
14.171416756512416	2.7097764	1.6461399
14.189078559244768	2.6230137	1.619572
14.20674070078606	2.5854125	1.6079218
14.224403181575408	2.5553117	1.5985342
14.242066002051999	2.5278854	1.5899326
14.259729162655093	2.5112817	1.5847024
14.277392663824022	2.4663918	1.570475
14.295056505998208	2.4394963	1.5618887
14.312720689617128	2.427305	1.557981
14.330385215120348	2.4347594	1.5603715
14.348050082947497	2.426185	1.5576216
14.3657152935383	2.426087	1.5575901
14.383380847332528	2.3999367	1.5491729
14.401046744770051	2.3916156	1.546485
14.418712986290798	2.4008682	1.5494735
14.436379572334793	2.4100258	1.5524257
14.454046503342123	2.3855314	1.5445166
14.471713779752946	2.3395526	1.5295596
14.489381402007504	2.3361835	1.5284579
14.507049370546113	2.3646827	1.5377525
14.524717685809168	2.4032514	1.5502424
14.542386348237134	2.4262462	1.5576413
14.560055358270553	2.4268162	1.5578243
14.577724716350051	2.434722	1.5603596
14.595394422916325	2.4445684	1.5635116
14.61306447841015	2.4323275	1.5595921
14.63073488327237	2.439238	1.5618061
14.648405637943917	2.4517639	1.5658109
14.6660767428658	2.4656582	1.5702415
14.683748198479094	2.524749	1.5889459
14.701420005224954	2.5976915	1.6117356
14.719092163544628	2.6667705	1.6330249
14.73676467387942	2.687115	1.6392422
14.754437536670727	2.6961036	1.6419816
14.772110752360014	2.6682665	1.6334829
14.78978432138882	2.6450953	1.626375
14.807458244198777	2.6394038	1.6246243
14.82513252123159	2.6479464	1.6272511
14.842807152929028	2.6796546	1.636965
14.860482139732962	2.6903691	1.6402345
14.87815748208531	2.6809413	1.6373581
14.8958331804281	2.690832	1.6403755
14.91350923520342	2.6716332	1.6345131
14.931185646853438	2.684206	1.6383547
14.948862415820408	2.6645222	1.6323364
14.966539542546656	2.66597	1.6327798
14.98421702747459	2.6830902	1.6380141
15.001894871046696	2.7052379	1.6447607
15.019573073705542	2.6925564	1.6409011
15.037251635893766	2.6527421	1.6287241
15.054930558054092	2.6596992	1.6308584
15.072609840629323	2.7195137	1.6490948
15.090289484062351	2.8702838	1.6941912
15.107969488796124	3.1677182	1.7798085
15.125649855273691	3.533634	1.8797963
15.14333058393817	4.0240154	2.0059948
15.161011675232768	4.9542127	2.225806
15.17869312960076	6.3805766	2.5259802
15.196374947485506	8.238937	2.870355
15.214057129330447	11.349899	3.368961
15.231739675579114	16.058163	4.0072637
15.249422586675102	21.194307	4.6037273
15.267105863062092	24.45611	4.945312
15.284789505183847	24.81024	4.980988
15.302473513484218	22.687822	4.7631736
15.320157888407127	19.024511	4.3617096
15.337842630396578	14.897079	3.8596735
15.355527739896656	11.69076	3.4191754
15.37321321735153	9.131557	3.0218468
15.39089906320545	6.6562915	2.579979
15.408585277902748	4.9455514	2.2238595
15.42627186188783	3.768999	1.941391
15.443958815605198	3.199529	1.7887228
15.461646139499424	2.9072585	1.7050685
15.479333834015168	2.7953758	1.6719377
15.497021899597165	2.7026677	1.6439792
15.514710336690234	2.643982	1.6260326
15.53239914573928	2.6111329	1.6159
15.550088327189297	2.5588882	1.5996525
15.567777881485336	2.5116723	1.5848256
15.58546780907256	2.474013	1.5728996
15.6031581103962	2.47569	1.5734326
15.620848785901568	2.4393616	1.5618455
15.638539836034063	2.4642272	1.5697857
15.656231261239173	2.4915104	1.5784519
15.673923061962451	2.4994175	1.5809547
15.691615238649552	2.5039322	1.5823818
15.709307791746202	2.4801266	1.5748417
15.727000721698221	2.4862921	1.5767981
15.744694028951498	2.4593549	1.568233
15.76238771395202	2.4039626	1.5504718
15.780081777145844	2.375604	1.5412995
15.797776218979125	2.3729203	1.5404286
15.815471039898094	2.3988378	1.5488182
15.833166240349064	2.4136245	1.5535845
15.850861820778437	2.4035194	1.5503289
15.868557781632699	2.38882	1.5455807
15.886254123358412	2.3961945	1.5479646
15.903950846402232	2.4038856	1.5504469
15.921647951210897	2.4125931	1.5532525
15.939345438231225	2.3902907	1.5460565
15.957043307910133	2.3803172	1.5428277
15.974741560694602	2.3753204	1.5412074
15.992440197031714	2.3974562	1.5483721
16.01013921736862	2.381558	1.5432297
16.02783862215259	2.368795	1.539089
16.045538411830933	2.372428	1.5402688
16.06323858685107	2.4022334	1.549914
16.080939147660512	2.410027	1.5524262
16.09864009470684	2.4012053	1.5495822
16.11634142843774	2.3881488	1.5453637
16.134043149300954	2.3610065	1.5365567
16.15174525774433	2.3732004	1.5405195
16.169447754215817	2.3970027	1.5482256
16.18715063916342	2.4056776	1.5510247
16.204853913035244	2.4291048	1.5585586
16.222557576279478	2.4205012	1.555796
16.240261629344403	22.425457	4.7355523
16.257966072678386	42.95146	6.5537367
16.275670906729868	38.060352	6.169307
16.293376131947387	2.493208	1.5789895
16.31108174877957	2.5314903	1.5910658
16.328787757675133	2.5792313	1.6059985
16.34649415908287	2.6259937	1.6204919
16.364200953451657	2.6473308	1.627062
16.38190814123048	2.6259604	1.6204815
16.39961572286839	2.6308265	1.6219822
16.41732369881455	2.6542962	1.629201
16.43503206951817	2.6977835	1.642493
16.45274083542859	2.7599735	1.6613168
16.47044999699522	2.8057976	1.6750516
16.488159554667558	2.8364553	1.684178
16.505869508895184	2.8795624	1.6969273
16.523579860127786	2.9233258	1.7097737
16.541290608815117	2.948727	1.7171857
16.559001755407035	3.0013425	1.7324383
16.57671330035348	3.041446	1.7439742
16.59442524410448	3.070618	1.7523179
16.61213758711015	3.1175716	1.7656646
16.629850329820705	3.175443	1.7819773
16.647563472686436	3.2403533	1.8000982
16.665277016157724	3.2774851	1.8103826
16.682990960685053	3.3489432	1.8300118
16.70070530671898	3.412178	1.8472081
16.718420054710155	3.4752085	1.8641912
16.736135205109335	3.5302527	1.8788967
16.753850758367335	3.5672216	1.888709
16.771566714935087	3.6563888	1.9121686
16.789283075263597	3.7456748	1.9353746
16.80699983980398	3.8124266	1.9525436
16.82471700900741	3.8512359	1.9624566
16.84243458332518	3.8901496	1.9723462
16.860152563208665	3.9832726	1.9958137
16.87787094910932	4.053247	2.0132678
16.89558974147871	4.104794	2.026029
16.913308940768466	4.171459	2.0424151
16.931028547430333	4.268991	2.0661538
16.94874856191613	4.332158	2.0813837
16.966468984677785	4.3853197	2.0941155
16.98418981616729	4.438948	2.1068811
17.00191105683676	4.5642605	2.136413
17.019632707138374	4.601111	2.14502
17.03735476752442	4.590093	2.1424503
17.05507723844728	4.5849695	2.1412542
17.072800120359403	4.6087093	2.1467905
17.090523413713353	4.659853	2.1586692
17.108247118961785	4.6682267	2.160608
17.125971236557437	4.689592	2.1655467
17.143695766953133	4.673857	2.1619105
17.161420710601806	4.689879	2.165613
17.179146067956477	4.6855054	2.1646028
17.19687183947025	4.706029	2.1693385
17.21459802559634	4.741848	2.1775784
17.232324626788028	4.7762976	2.1854742
17.25005164349871	4.7402635	2.1772146
17.267779076181863	4.638366	2.1536868
17.285506925291074	4.589576	2.1423295
17.30323519127999	4.569351	2.137604
17.320963874602384	4.6031947	2.1455057
17.33869297571211	4.6176677	2.148876
17.356422495063114	4.610281	2.1471565
17.37415243310944	4.5469794	2.1323647
17.391882790305218	4.49206	2.1194482
17.40961356710468	4.477169	2.1159322
17.42734476396215	4.512685	2.124308
17.445076381332044	4.540954	2.1309514
17.462808419668868	4.618929	2.1491694
17.48054087942723	4.75101	2.179681
17.498273761061835	5.049448	2.2470977
17.51600706502747	5.5068383	2.3466654
17.533740791779024	6.2339954	2.496797
17.551474941771485	7.662246	2.7680762
17.56920951545993	8.719367	2.9528575
17.586944513299528	10.959358	3.310492
17.60467993574556	12.711292	3.56529
17.622415783253373	14.512624	3.8095438
17.64015205627843	15.850344	3.981249
17.657888755276293	17.045147	4.1285768
17.675625880702604	17.644804	4.200572
17.69336343301311	17.524036	4.186172
17.71110141266366	16.550924	4.0682826
17.728839820110178	15.526595	3.94038
17.746578655808705	14.547117	3.8140683
17.764317920215372	13.070791	3.615355
17.7820576137864	11.477086	3.3877847
17.79979773697811	9.401009	3.0661063
17.81753829024692	7.4306154	2.7259154
17.835279274049356	5.793977	2.407068
17.85302068884201	4.779128	2.1861217
17.870762535081607	4.173164	2.0428324
17.888504813224934	3.868646	1.9668874
17.90624752372891	3.6960828	1.9225199
17.923990667050536	3.6411502	1.9081799
17.941734243646895	3.6014037	1.8977364
17.959478253975185	3.5479867	1.88361
17.9772226984927	3.482876	1.8662465
17.994967577656833	3.430309	1.8521093
18.01271289192506	3.4117162	1.8470832
18.030458641754965	3.35776	1.8324192
18.04820482760425	3.341938	1.8280969
18.06595144993067	3.298659	1.8162211
18.083698509192125	3.2906456	1.8140137
18.101446005846576	3.2759366	1.8099549
18.119193940352105	3.2420564	1.8005711
18.136942313166887	3.2313251	1.7975887
18.1546911247492	3.216226	1.793384
18.1724403755574	3.1905193	1.7862024
18.19019006604997	3.1617796	1.7781394
18.207940196685467	3.1290913	1.7689238
18.225690767922575	3.1220422	1.7669301
18.243441780220046	3.1220949	1.7669451
18.261193234036764	3.1374068	1.7712727
18.278945129831676	3.1353624	1.7706954
18.29669746806386	3.10658	1.7625493
18.314450249192483	3.0762587	1.7539266
18.3322034736768	3.0729291	1.7529773
18.349957141976184	3.0775807	1.7543035
18.3677112545501	3.0496778	1.7463326
18.385465811858108	3.0704572	1.752272
18.403220814359884	3.0463297	1.7453738
18.420976262515172	3.0787401	1.7546339
18.43873215678387	3.1371095	1.7711887
18.456488497625923	3.1695006	1.7803091
18.474245285501407	3.2215803	1.7948761
18.492002520870486	3.2857995	1.8126774
18.50976020419343	3.3799338	1.8384596
18.527518335930615	3.7098181	1.9260888
18.545276916542516	4.308815	2.0757685
18.563035946489688	4.5024133	2.121889
18.580795426232832	4.9235973	2.218918
18.598555356232698	4.7826843	2.186935
18.616315736950185	5.133707	2.2657685
18.63407656884626	4.788009	2.188152
18.65183785238201	4.9845	2.2325993
18.669599588018617	4.685852	2.1646829
18.68736177621737	4.6624837	2.1592784
18.705124417439652	4.636142	2.15317
18.72288751214696	4.4552817	2.1107538
18.740651060800886	4.641664	2.154452
18.758415063863115	4.408078	2.0995424
18.77617952179546	4.5451484	2.1319354
18.793944435059814	4.233219	2.057479
18.811709804118184	4.271582	2.0667806
18.829475629432675	4.304207	2.0746582
18.8472419114655	4.107182	2.0266185
18.86500865067897	4.1250443	2.0310204
18.88277584753551	3.7624552	1.9397049
18.90054350249763	3.7977068	1.9487706
18.918311616027957	3.4983873	1.8703977
18.936080188589226	3.4200768	1.849345
18.953849220644265	3.0954332	1.7593844
18.971618712656007	2.9061341	1.7047387
18.9893886650875	2.8654444	1.6927624
19.007159078401887	8.022526	2.8324063
19.024929953062408	32.901802	5.736009
19.042701289532435	32.800888	5.7272058
19.060473088275405	25.36009	5.03588
19.07824534975489	2.6191502	1.6183789
19.096018074434568	2.6517618	1.6284231
19.113791262778197	2.6516826	1.6283988
19.13156491524966	2.6288228	1.6213645
19.149339032312945	2.5949671	1.6108902
19.167113614432136	2.5738041	1.604308
19.184888662071433	2.5444808	1.5951428
19.202664175695123	2.5464866	1.5957714
19.220440155767623	2.558719	1.5995996
19.238216602753447	2.5582356	1.5994486
19.2559935171172	2.5059698	1.5830255
19.27377089932361	2.4919016	1.5785758
19.291548749837514	2.5164783	1.5863411
19.309327069123835	2.5255926	1.5892113
19.32710585764763	2.5389674	1.5934137
19.344885115874032	2.5169055	1.5864758
19.362664844268313	2.5153897	1.585998
19.380445043295822	2.5163362	1.5862963
19.39822571342203	2.4875152	1.5771859
19.41600685511252	2.4735246	1.5727443
19.43378846883297	2.487003	1.5770235
19.451570555049173	2.4918244	1.5785514
19.469353114227037	2.475216	1.5732819
19.48713614683254	2.4640102	1.5697166
19.50491965333182	2.4777863	1.5740986
19.52270363419109	2.4913347	1.5783962
19.540488089876686	2.4881098	1.5773743
19.55827302085503	2.4670599	1.5706877
19.576058427592674	2.4474313	1.5644268
19.593844310556282	2.4843793	1.5761914
19.611630670212598	2.5188155	1.5870776
19.629417507028506	2.5376925	1.5930136
19.64720482147098	2.5039535	1.5823885
19.6649926140071	2.5076263	1.5835487
19.682780885104084	2.4861364	1.5767487
19.70056963522921	2.4731414	1.5726224
19.718358864849908	2.4655545	1.5702084
19.7361485744337	2.4661276	1.5703909
19.753938764448215	2.482212	1.5755037
19.771729435361202	2.533935	1.5918338
19.789520587640506	2.5637069	1.601158
19.807312221754092	2.5693939	1.6029329
19.825104338170043	2.5488842	1.5965226
19.842896937356517	2.514751	1.5857966
19.860690019781824	2.4861274	1.5767459
19.87848358591436	2.490835	1.5782379
19.896277636222635	2.5237005	1.5886159
19.914072171175278	2.5465589	1.5957941
19.931867191241015	2.5551121	1.5984718
19.94966269688869	2.5585554	1.5995485
19.967458688587264	2.5218437	1.5880314
19.985255166805807	2.531396	1.5910361
20.00305213201348	2.5319169	1.5911999
20.020849584679578	2.5432723	1.594764
20.038647525273507	2.5311158	1.5909481
20.05644595426477	2.4896576	1.5778649
20.07424487212299	2.475568	1.5733938
20.092044279317903	2.4596045	1.5683126
20.109844176319353	2.4661326	1.5703925
20.127644563597304	2.4158313	1.5542945
20.145445441621817	2.3898342	1.5459088
20.16324681086307	2.3954897	1.547737
20.181048671791373	2.4105709	1.5526013
20.198851024877122	2.4311707	1.5592211
20.216653870590836	2.4328563	1.5597616
20.234457209403146	2.4326336	1.5596902
20.252261041784802	2.4065237	1.5512974
20.270065368206662	2.3660152	1.5381857
20.287870189139685	2.369187	1.5392164
20.305675505054968	2.4121225	1.553101
20.323481316423702	2.4458282	1.5639144
20.341287623717207	2.4165409	1.5545228
20.359094427406884	2.3735178	1.5406225
20.376901727964288	2.3480077	1.532321
20.39470952586107	2.3723068	1.5402294
20.41251782156899	2.388805	1.5455759
20.430326615559935	2.3778377	1.5420239
20.448135908305886	2.3681514	1.5388799
20.465945700278965	2.3831067	1.5437315
20.483755991951384	2.3691802	1.5392141
20.50156678379548	2.369643	1.5393645
20.519378076283708	2.3699236	1.5394557
20.537189869888635	2.362985	1.5372003
20.55500216508294	2.3457224	1.5315752
20.572814962339415	2.3242989	1.5245651
20.59062826213098	2.3086996	1.5194405
20.60844206493066	2.3184035	1.5226305
20.626256371211593	2.3790612	1.5424206
20.644071181447032	2.394075	1.5472798
20.66188649611036	2.3930817	1.5469588
20.67970231567506	2.3306255	1.5266386
20.697518640614742	2.2837796	1.511218
20.715335471403122	2.270134	1.5066963
20.73315280851404	2.2902062	1.5133427
20.750970652421447	2.3034666	1.5177176
20.768789003599412	2.308799	1.5194733
20.786607862522136	2.3060062	1.518554
20.8044272296639	2.3009324	1.5168824
20.82224710549913	2.2894373	1.5130887
20.84006749050237	2.2838697	1.5112478
20.857888385148268	3.853342	1.9629931
20.8757097899116	45.956345	6.779111
20.893531705267254	64.805984	8.050217
20.911354131690224	83.82208	9.15544
20.92917706965566	69.089935	8.312036
20.94700051963877	50.145153	7.081324
20.96482448211493	29.397837	5.421977
20.982648957559622	4.123638	2.0306742
21.00047394644843	2.2555022	1.501833
21.01829944925707	2.2951345	1.5149702
21.036125466461375	2.2717645	1.5072374
21.053951998537297	2.225514	1.4918157
21.071779045960906	2.1813028	1.4769235
21.089606609208378	2.1937354	1.4811264
21.10743468875603	2.1985583	1.4827536
21.12526328508028	2.1905346	1.4800454
21.143092398657675	2.174746	1.474702
21.16092202996488	2.15093	1.466605
21.17875217947867	2.1427698	1.4638203
21.19658284767596	2.1693723	1.4728789
21.21441403503377	2.1896508	1.4797468
21.232245742029225	2.1941333	1.4812607
21.2500779691396	2.163666	1.4709405
21.26791071684227	2.132044	1.460152
21.28574398561475	2.1193175	1.4557875
21.30357777593465	2.1588728	1.4693103
21.321412088279704	2.1971483	1.4822781
21.339246923127792	2.2030065	1.4842528
21.357082280956888	2.1874647	1.479008
21.3749181622451	2.1794	1.4762791
21.392754567470647	2.1864173	1.4786539
21.41059149711187	2.175285	1.4748847
21.42842895164726	2.1409256	1.4631902
21.446266931555378	2.110683	1.452819
21.464105437314945	2.1088357	1.4521831
21.481944469404798	2.134836	1.4611077
21.49978402830388	2.1419666	1.4635459
21.51762411449127	2.1315806	1.4599934
21.53546472844617	2.142879	1.4638575
21.553305870647876	2.1146557	1.4541856
21.571147541575865	2.1025891	1.4500307
21.58898974170967	2.093893	1.447029
21.60683247152899	2.0998914	1.4491003
21.62467573151363	2.0652425	1.4370952
21.642519522143523	2.0641263	1.4367068
21.660363843898722	2.0610807	1.4356464
21.6782086972594	2.1051795	1.4509237
21.696054082705864	2.0918016	1.4463062
21.713900000718535	2.0612357	1.4357004
21.73174645177795	2.069362	1.4385277
21.749593436364794	2.0638258	1.4366022
21.767440954959845	2.0534406	1.4329832
21.785289008044032	2.0335672	1.426032
21.803137596098388	2.0250058	1.423027
21.820986719604086	2.030685	1.425021
21.838836379042412	2.0376968	1.4274791
21.85668657489478	2.036199	1.4269545
21.87453730764273	1.9899144	1.4106432
21.892388577767914	1.9742115	1.4050664
21.91024038575213	1.9842126	1.4086208
21.928092732077285	2.0020137	1.4149253
21.945945617225426	2.0304337	1.4249328
21.963799041678694	2.0316849	1.4253719
21.981653005919398	31.406399	5.604141
21.999507510429943	78.23186	8.844877
22.01736255569286	73.168144	8.553838
22.035218142190818	4.197394	2.0487542
22.05307427040661	1.9812407	1.4075656
22.07093094082315	1.9810488	1.4074974
22.088788153923474	1.9695375	1.4034021
22.106645910190746	1.971096	1.4039572
22.12450421010827	1.9864961	1.4094311
22.142363054159464	1.9963272	1.4129144
22.16022244282787	1.9773724	1.4061908
22.178082376597164	1.9789624	1.406756
22.195942855951145	2.020855	1.4215678
22.213803881373742	2.0631976	1.4363835
22.231665453349002	2.0521524	1.4325335
22.24952757236111	2.0319116	1.4254514
22.26739023889438	2.00804	1.4170532
22.28525345343323	1.9600459	1.4000164
22.30311721646225	1.9359922	1.3913994
22.320981528466113	1.9752597	1.4054393
22.33884638992964	1.996675	1.4130375
22.356711801337788	1.996217	1.4128754
22.37457776317561	1.976159	1.4057592
22.392444275928337	2.004179	1.4156903
22.410311340081282	2.0502086	1.431855
22.428178956119904	2.043751	1.4295982
22.446047124529805	2.0014095	1.4147118
22.46391584579669	1.9310874	1.3896357
22.481785120406414	1.9288788	1.3888408
22.49965494884496	1.9233559	1.3868511
22.51752533159841	1.9170693	1.3845828
22.53539626915302	1.9369546	1.3917452
22.553267761995137	1.9694998	1.4033887
22.571139810611264	2.0010262	1.4145763
22.589012415488025	1.9762849	1.405804
22.60688557711216	1.943385	1.3940535
22.624759295970566	1.9032646	1.3795886
22.642633572550263	1.9120998	1.382787
22.660508407338362	1.9381348	1.3921691
22.67838380082217	1.9606856	1.4002448
22.696259753489077	1.9617761	1.4006342
22.714136265826614	1.9698082	1.4034985
22.73201333832246	1.9609581	1.4003421
22.74989097146439	1.9785509	1.4066098
22.76776916574035	1.9803886	1.4072628
22.785647921638393	1.9682018	1.4029261
22.803527239646712	1.9162041	1.3842702
22.82140712025363	1.9017419	1.3790365
22.839287563947593	1.9176484	1.3847919
22.85716857121719	1.9212753	1.3861008
22.875050142551135	1.916672	1.3844392
22.892932278438277	1.9275076	1.388347
22.910814979367604	1.9434655	1.3940823
22.928698245828222	1.9231579	1.3867797
22.946582078309387	1.9039559	1.3798391
22.96446647730047	1.9071546	1.3809977
22.98235144329098	1.9081852	1.3813708
23.000236976770562	1.9119911	1.3827477
23.018123078229	1.9166986	1.3844489
23.03600974815619	1.918178	1.3849831
23.053896987042194	1.8989676	1.3780303
23.071784795377173	1.9002424	1.3784928
23.08967317365145	1.8922061	1.3755748
23.10756212235546	1.9256716	1.3876857
23.125451641979787	1.905869	1.3805321
23.143341733015134	1.9179865	1.3849139
23.161232395952357	1.8900913	1.3748059
23.179123631282426	1.9106454	1.3822609
23.197015439496468	1.9603807	1.400136
23.214907821085717	1.9870526	1.4096285
23.23280077654157	1.967106	1.4025356
23.250694306355538	1.9248296	1.3873823
23.268588411019277	1.9097089	1.3819221
23.28648309102458	1.9645	1.4016062
23.304378346863356	1.9792168	1.4068464
23.322274179027676	2.0060627	1.4163555
23.340170588009723	1.9804753	1.4072936
23.358067574301852	1.9961988	1.412869
23.37596513839651	2.002195	1.4149894
23.39386328078629	1.9626135	1.400933
23.411762001963947	1.9287653	1.3887999
23.429661302422353	1.9163808	1.3843341
23.4475611826545	1.9110583	1.3824103
23.46546164315356	1.9131165	1.3831545
23.48336268441279	1.9607643	1.400273
23.501264306925638	2.0249934	1.4230226
23.51916651118564	2.0000577	1.4142339
23.537069297686497	1.9351261	1.3910881
23.554972666922037	1.905022	1.3802253
23.57287661938623	1.9297099	1.38914
23.59078115557318	1.951407	1.3969277
23.608686275977128	1.9660963	1.4021755
23.62659198109246	1.9656242	1.4020072
23.6444982714137	1.9347632	1.3909576
23.66240514743549	1.894239	1.3763136
23.68031260965263	1.8777729	1.3703185
23.698220658560068	1.8775501	1.3702372
23.716129294652845	1.9168018	1.3844861
23.7340385184262	1.929269	1.3889812
23.75194833037546	1.9592528	1.3997332
23.769858730996123	1.956499	1.3987491
23.78776972078382	1.9409403	1.3931763
23.80568130023431	1.9018897	1.3790902
23.823593469843495	1.8516995	1.3607717
23.841506230107424	1.8423316	1.3573252
23.859419581522275	1.8673075	1.3664947
23.87733352458438	1.9155859	1.3840469
23.89524805979019	1.9086063	1.3815231
23.913163187636318	1.9131285	1.3831589
23.931078908619508	1.9259291	1.3877785
23.948995223236633	1.9900224	1.4106815
23.966912131984735	2.0185459	1.4207554
23.98482963536096	2.0442421	1.42977
24.002747733862616	2.042798	1.4292649
24.020666427987155	2.0501635	1.4318392
24.038585718232156	2.0510125	1.4321357
24.056505605095353	2.0713274	1.4392107
24.074426089074617	2.0839126	1.4435763
24.092347170667946	2.0523293	1.4325953
24.110268850373515	1.9997082	1.4141104
24.128191128689586	2.004202	1.4156984
24.146114006114626	2.0742574	1.4402282
24.164037483147187	2.1300104	1.4594555
24.181961560286005	2.106564	1.4514008
24.199886238029926	2.0583913	1.4347095
24.21781151687797	2.039746	1.4281968
24.235737397329274	2.0424669	1.429149
24.253663879883135	2.0320666	1.4255058
24.271590965038975	2.0242538	1.4227628
24.289518653296376	2.0228474	1.4222684
24.30744694515505	2.0531278	1.432874
24.32537584111486	2.101882	1.4497869
24.34330534167581	2.091861	1.4463267
24.361235447338046	2.0615697	1.4358168
24.379166158601876	1.9962094	1.4128728
24.39709747596772	2.011014	1.4181023
24.41502939993615	2.0329628	1.42582
24.432961931007917	2.0272686	1.4238218
24.450895069683856	2.025915	1.4233464
24.468828816465	2.0441368	1.4297332
24.4867631718525	2.0627158	1.4362158
24.504698136347656	2.0503387	1.4319004
24.52263371045192	2.059455	1.43508
24.540569894666874	2.0595384	1.4351091
24.558506689494266	2.0220416	1.421985
24.57644409543597	1.9764713	1.4058703
24.594382112994012	1.9640021	1.4014286
24.61232074267057	1.9695928	1.4034219
24.630259984967953	1.9682986	1.4029607
24.64819984038863	1.9890372	1.4103323
24.66614030943522	2.0065491	1.4165272
24.684081392610462	1.994623	1.4123112
24.702023090417274	2.0067275	1.4165901
24.7199654033587	2.0108492	1.4180442
24.737908331937927	2.0183005	1.4206691
24.755851876658305	2.0076175	1.4169042
24.773796038023324	2.0279865	1.4240739
24.79174081653661	2.0626078	1.4361782
24.809686212701962	2.087507	1.4448208
24.827632227023294	2.0760407	1.4408473
24.8455788600047	2.0761573	1.4408877
24.8635261121504	2.1177952	1.4552647
24.88147398396475	2.1767018	1.4753649
24.899422475952303	2.1717846	1.4736977
24.917371588617698	2.1864705	1.4786719
24.935321322465768	2.1951723	1.4816114
24.953271678001478	2.276753	1.5088913
24.97122265572994	2.5005412	1.5813099
24.989174256156414	2.839141	1.684975
25.00712647978632	3.2889137	1.8135363
25.02507932712521	3.822309	1.9550726
25.043032798678798	4.3383656	2.0828743
25.060986894952933	5.005153	2.23722
25.078941616453637	5.8390803	2.4164188
25.096896963687055	6.925066	2.631552
25.114852937159508	8.112845	2.8483057
25.132809537377444	8.537372	2.921878
25.150766764847468	8.434352	2.9041955
25.168724620076347	7.8546095	2.8026075
25.186683103570985	6.820454	2.6116
25.204642215838426	5.558262	2.3575966
25.222601957385894	4.123169	2.0305588
25.24056232872074	3.1343048	1.7703968
25.25852333035048	2.5894575	1.6091791
25.276484962782778	2.2494276	1.4998091
25.294447226525435	2.0733948	1.4399288
25.312410122086423	2.01276	1.4187177
25.330373649973843	1.9595066	1.3998238
25.348337810695988	1.8695841	1.3673273
25.366302604761245	1.8532269	1.3613328
25.384268032678207	1.8513453	1.3606415
25.40223409495558	1.8771325	1.3700849
25.420200792102257	1.844045	1.3579562
25.438168124627246	1.8450209	1.3583155
25.45613609303974	1.8425648	1.357411
25.474104697849057	1.8377303	1.3556291
25.492073939564698	1.8440986	1.357976
25.510043818696285	1.8588026	1.3633791
25.528014335753614	1.8834156	1.3723758
25.54598549124664	1.8998342	1.3783448
25.56395728568544	1.8914881	1.3753138
25.58192971958028	1.8831172	1.3722671
25.59990279344156	1.8656178	1.3658762
25.617876507779833	1.8998662	1.3783563
25.635850863105826	1.9555515	1.3984103
25.653825859930386	1.9243795	1.38722
25.671801498764548	1.8969815	1.3773096
25.68977778011949	1.8803133	1.3712451
25.707754704506524	1.8625083	1.3647374
25.725732272437153	1.8611168	1.3642275
25.743710484423012	1.863963	1.3652703
25.761689340975888	1.8657907	1.3659395
25.77966884260774	1.8454316	1.3584666
25.797648989830662	1.8292246	1.3524883
25.815629783156922	1.8232349	1.3502722
25.83361122309895	1.8228257	1.3501207
25.85159331016929	1.8395313	1.3562932
25.869576044880695	1.8470767	1.359072
25.887559427746034	1.88555	1.3731533
25.90554345927836	1.8766688	1.3699156
25.92352813999086	1.8511634	1.3605746
25.94151347039689	1.7640251	1.328166
25.959499451009965	1.7500622	1.3228992
25.97748608234374	1.7696685	1.3302889
25.995473364912062	1.8223164	1.349932
26.013461299228904	1.7955389	1.3399771
26.03144988580839	1.7685734	1.3298773
26.04943912516483	1.7837709	1.3355789
26.067429017812675	1.8108671	1.3456846
26.085419564266537	1.8616318	1.3644162
26.103410765041186	1.9258467	1.3877488
26.12140262065155	1.9641906	1.4014958
26.139395131612723	1.8941332	1.3762751
26.157388298439948	1.8377928	1.3556521
26.17538212164861	1.78242	1.335073
26.193376601754295	1.7968917	1.3404819
26.211371739272714	1.7998927	1.3416008
26.229367534719746	1.820987	1.3494395
26.247363988611433	1.830215	1.3528544
26.26536110146397	1.7806767	1.33442
26.283358873793727	1.743088	1.3202605
26.301357306117204	1.762817	1.3277112
26.319356398951104	1.8190931	1.3487376
26.33735615281224	1.8225889	1.3500329
26.35535656821762	1.8623992	1.3646975
26.373357645684404	1.8864622	1.3734854
26.39135938572991	1.8455588	1.3585135
26.409361788871614	1.8064862	1.3440559
26.427364855627165	1.8148143	1.3471504
26.445368586514352	1.8323092	1.3536282
26.46337298205115	1.8435528	1.357775
26.48137804275568	1.8578153	1.363017
26.499383769146217	1.8616593	1.3644264
26.517390161741215	1.8750128	1.3693111
26.53539722105928	1.9006329	1.3786345
26.553404947619182	1.8833023	1.3723346
26.571413341939856	1.8641489	1.3653383
26.589422404540397	1.8516315	1.3607466
26.60743213594006	1.8106972	1.3456215
26.62544253665827	1.7682688	1.3297627
26.64345360721459	1.7707765	1.3307053
26.66146534812879	1.8141704	1.3469114
26.679477759920758	1.8111521	1.3457905
26.69749084311057	1.8252326	1.3510118
26.71550459821847	1.8666741	1.3662628
26.733519025764842	1.8843473	1.3727154
26.751534126270258	1.8606988	1.3640743
26.769549900255434	1.8493544	1.3599097
26.787566348241267	1.8810692	1.3715208
26.80558347074881	1.8680236	1.3667566
26.823601268299267	1.8446598	1.3581825
26.841619741414036	1.8392314	1.3561827
26.85963889061465	1.8342321	1.3543383
26.877658716422832	1.8699007	1.3674431
26.89567921936045	1.8457192	1.3585725
26.913700399949544	1.8083627	1.3447537
26.93172225871233	1.7773576	1.3331758
26.949744796171174	1.740019	1.3190978
26.967768012848605	1.7288191	1.3148457
26.98579190926733	1.7460939	1.3213985
27.003816485950225	1.7685717	1.3298765
27.021841743420318	1.8034134	1.3429123
27.039867682200814	1.7876905	1.3370454
27.057894302815072	1.7140957	1.3092347
27.07592160578664	1.7409574	1.3194535
27.0939495916392	1.8110442	1.3457505
27.111978260896635	1.8268229	1.3516002
27.13000761408296	1.8078339	1.3445572
27.148037651722397	1.784561	1.3358747
27.166068374339304	1.8137952	1.3467722
27.184099782458215	1.8321373	1.3535647
27.20213187660384	1.8403013	1.356577
27.22016465730105	1.8097676	1.345276
27.23819812507487	1.8281158	1.3520783
27.256232280450533	1.8019284	1.3423593
27.274267123953383	1.8028784	1.3427131
27.292302656108987	1.7989713	1.3412573
27.31033887744306	1.797356	1.3406551
27.32837578848146	1.8275089	1.3518538
27.34641338975026	1.8812606	1.3715905
27.364451681775673	1.8825712	1.3720683
27.382490665084074	1.8776311	1.3702668
27.400530340202046	1.8456407	1.3585436
27.41857070765629	1.8142444	1.3469388
27.436611767973726	1.7821809	1.3349835
27.454653521681404	1.793701	1.3392912
27.472695969306564	1.7946124	1.3396314
27.490739111376627	1.8018384	1.3423257
27.508782948419153	1.7810503	1.3345599
27.526827480961902	1.764846	1.328475
27.54487270953279	1.7771338	1.3330919
27.562918634659898	1.7569519	1.3255006
27.580965256871508	1.7592516	1.3263679
27.599012576696026	1.7884167	1.337317
27.617060594662068	1.8009391	1.3419907
27.63510931129842	1.771778	1.3310815
27.65315872713401	1.8018285	1.3423221
27.67120884269797	1.8424948	1.3573853
27.68925965851958	1.8668879	1.3663411
27.707311175128307	1.8491846	1.3598473
27.725363393053787	1.8296953	1.3526623
27.74341631282583	1.8230277	1.3501954
27.7614699349744	1.8167523	1.3478695
27.77952426002968	2.0055947	1.4161903
27.797579288521973	2.1034238	1.4503186
27.815635020981784	2.5399036	1.5937076
27.83369145793979	2.6352656	1.6233501
27.85174859992682	2.4774184	1.5739818
27.869806447473923	2.3516917	1.5335226
27.887865001112267	1.9974786	1.4133219
27.905924261373233	1.8410034	1.3568358
27.92398422878836	1.8191165	1.3487463
27.94204490388936	1.8725076	1.368396
27.96010628720813	1.8735675	1.3687832
27.978168379276728	1.8679476	1.3667288
27.9962311806274	1.8767694	1.3699523
28.014294691792568	1.8552974	1.3620931
28.0323589133048	1.8133725	1.3466152
28.050423845696887	1.8010346	1.3420262
28.068489489501758	1.7956814	1.3400303
28.086555845252523	1.8270632	1.351689
28.104622913482487	1.8232319	1.3502711
28.122690694725115	1.8362725	1.3550913
28.14075918951405	1.8399535	1.3564489
28.15882839838312	1.9325564	1.3901641
28.176898321866304	1.9391583	1.3925366
28.1949689604978	1.8968234	1.3772521
28.213040314811945	1.8885229	1.3742354
28.23111238534327	1.8844357	1.3727475
28.249185172626493	1.9206992	1.385893
28.267258677196473	1.964569	1.4016309
28.285332899588294	1.9837357	1.4084516
28.303407840337172	1.9139193	1.3834448
28.321483499978545	1.8939084	1.3761934
28.33955987904799	1.9762605	1.4057953
28.357636978081285	2.0084386	1.4171939
28.37571479761439	1.9714866	1.4040964
28.393793338183425	1.9294568	1.3890489
28.41187260032469	1.9793524	1.4068946
28.429952584574686	1.9947834	1.412368
28.448033291470065	2.002327	1.4150361
28.46611472154769	1.9852483	1.4089884
28.484196875344566	1.9535118	1.3976809
28.502279753397914	1.9235623	1.3869255
28.52036335624511	1.9289185	1.3888551
28.538447684423716	2.0182745	1.4206599
28.556532738471482	2.0495405	1.4316217
28.574618518926325	2.0447953	1.4299634
28.59270502632635	2.0097656	1.417662
28.61079226120985	1.980314	1.4072363
28.628880224115274	1.9711285	1.4039688
28.646968915581287	2.002774	1.415194
28.66505833614671	2.036349	1.4270071
28.68314848635055	2.0259738	1.423367
28.701239366732004	2.0229518	1.4223051
28.71933097783044	2.0081327	1.417086
28.737423320185403	2.0482368	1.4311663
28.75551639433665	2.1079247	1.4518694
28.773610200824074	2.137495	1.4620174
28.791704740187793	2.136002	1.4615067
28.80980001296809	2.1113195	1.4530381
28.827896019705413	2.1006393	1.4493582
28.845992760940433	2.0850527	1.4439712
28.86409023721397	2.1541345	1.467697
28.88218844906704	2.213909	1.487921
28.900287397040845	2.187888	1.4791511
28.918387081676755	2.156997	1.4686718
28.936487503516343	2.1838214	1.4777758
28.954588663101365	2.2864687	1.5121074
28.97269056097374	2.355397	1.5347303
28.990793197675597	2.3272567	1.5255349
29.00889657374923	2.3276062	1.5256494
29.027000689737125	2.374102	1.5408121
29.04510554618196	2.3919985	1.5466087
29.06321114362659	2.4091744	1.5521516
29.08131748261405	2.4387126	1.5616378
29.099424563687567	2.474572	1.5730772
29.11753238739057	2.4820356	1.5754478
29.13564095426663	2.4949498	1.579541
29.15375026485954	2.5516798	1.5973978
29.171860319713275	2.615563	1.6172702
29.18997111937199	2.577452	1.6054444
29.20808266438002	2.6496365	1.6277704
29.226194955281898	2.7175858	1.6485102
29.244307992622335	2.782005	1.6679344
29.26242177694624	2.8546555	1.6895726
29.2805363087987	2.8538122	1.689323
29.29865158872498	2.9349802	1.7131784
29.316767617270557	2.9727607	1.7241696
29.334884394981064	2.9567273	1.7195137
29.353001922402367	2.949319	1.7173581
29.37112020008047	2.9999378	1.7320329
29.389239228561596	3.1611748	1.7779692
29.407359008392152	3.3210793	1.8223828
29.42547954011872	3.6964319	1.9226106
29.44360082428809	4.375328	2.0917284
29.46172286144722	5.429159	2.3300557
29.479845652143283	6.9915447	2.6441529
29.497969196923606	9.022186	3.0036955
29.516093496335728	11.582168	3.4032583
29.5342185509274	14.408883	3.7959034
29.55234436124651	16.867136	4.1069617
29.570470927841175	18.23056	4.269726
29.588598251259686	18.028364	4.245982
29.60672633205055	16.717377	4.088689
29.624855170762405	14.623825	3.824111
29.642984767944146	11.928675	3.4537914
29.66111512414481	9.034504	3.0057452
29.67924623991366	6.6504345	2.5788436
29.697378115800138	5.0885153	2.2557738
29.71551075235387	4.2212934	2.0545785
29.733644150124675	3.8282225	1.9565845
29.751778309662576	3.602248	1.8979589
29.769913231517766	3.391404	1.8415765
29.78804891624066	3.32911	1.8245848
29.806185364381818	3.2903306	1.8139268
29.82432257649206	3.2934237	1.8147793
29.842460553122333	3.3786404	1.8381078
29.86059929482382	3.3689523	1.8354706
29.878738802147872	3.2791703	1.810848
29.896879075646048	3.2729099	1.8091185
29.915020115870114	3.2716217	1.8087624
29.933161923371976	3.2713268	1.8086809
29.951304498703777	3.2792766	1.8108773
29.969447842417857	3.2597437	1.8054761
29.987591955066733	3.2162795	1.7933989
30.005736837203123	3.1555755	1.776394
30.023882489379943	3.1164534	1.765348
30.04202891215028	3.1228595	1.7671614
30.060176106067455	3.1691751	1.7802178
30.078324071684946	3.210492	1.7917845
30.09647280955646	3.1298847	1.769148
30.114622320235863	3.024511	1.7391121
30.132772604277257	3.038599	1.7431577
30.1509236622349	3.1049757	1.7620941
30.16907549466328	3.115673	1.765127
30.18722810211705	3.097335	1.7599248
30.205381485151097	3.1200287	1.7663603
30.22353564432045	3.1132765	1.7644479
30.241690580180403	3.0668411	1.7512399
30.25984629328638	3.0418923	1.7441021
30.278002784194037	3.0250385	1.7392638
30.296160053459246	2.9522333	1.7182064
30.314318101638033	2.9827416	1.7270615
30.332476929286646	3.0253694	1.7393589
30.35063653696153	3.0117033	1.735426
30.368796925219307	2.9500062	1.7175583
30.386958094616844	2.9774194	1.72552
30.40512004571115	2.9810069	1.7265593
30.423282779059463	2.9442353	1.7158774
30.441446295219233	2.9070225	1.7049992
30.459610594748067	2.8432484	1.6861935
30.47777567820382	2.839905	1.6852018
30.495941546144504	2.8575513	1.6904293
30.51410819912835	2.8309464	1.6825416
30.532275637713795	2.8208508	1.6795388
30.55044386245946	2.8282914	1.6817524
30.56861287392416	2.78183	1.667882
30.586782672666956	2.7393973	1.6551125
30.604953259247047	2.745495	1.6569536
30.623124634223885	2.881194	1.6974081
30.641296798157075	2.9249754	1.710256
30.659469751606462	2.8026516	1.6741122
30.677643495132074	2.6876397	1.6394023
30.695818029294152	2.6935568	1.6412059
30.713993354653116	2.6981316	1.642599
30.73216947176962	2.77218	1.6649865
30.75034638120448	2.8391614	1.6849811
30.768524083518756	2.8319833	1.6828498
30.786702579273673	2.8343143	1.6835423
30.80488186903069	2.9240627	1.7099891
30.82306195335144	3.0321925	1.7413192
30.841242832797782	3.239638	1.7998995
30.85942450793176	3.5178788	1.8756009
30.877606979315637	3.8285131	1.9566587
30.895790247511883	4.147103	2.0364437
30.913974313083134	4.5957203	2.143763
30.932159176592283	4.984551	2.2326107
30.95034483860237	5.0389714	2.2447653
30.968531299676698	4.7734966	2.1848333
30.98671856037873	4.3777766	2.0923138
31.00490662127215	4.039361	2.0098162
31.023095482920848	3.6305912	1.905411
31.04128514588892	3.176693	1.782328
31.059475610740662	2.7949774	1.6718186
31.07766687804056	2.5636356	1.6011357
31.09585894835335	2.5158813	1.586153
31.11405182224393	2.4778395	1.5741155
31.132245500277417	2.445027	1.5636582
31.15043998301914	2.4019797	1.5498321
31.168635271034628	2.4231877	1.5566591
31.18683136488964	2.4358506	1.5607212
31.20502826515008	2.4516013	1.5657591
31.223225972382135	2.4534924	1.5663627
31.241424487152155	2.48616	1.5767561
31.259623810026692	2.3963764	1.5480233
31.27782394157253	2.3974278	1.548363
31.296024882356644	2.403809	1.5504222
31.314226632946237	2.405966	1.5511177
31.332429193908684	2.500949	1.5814389
31.350632565811598	2.5241034	1.5887427
31.368836749222787	2.446124	1.564009
31.387041744710295	2.4657366	1.5702664
31.40524755284232	2.5525033	1.5976555
31.423454174187317	2.5826297	1.6070563
31.441661609313922	2.536326	1.5925847
31.459869858791002	2.478619	1.5743631
31.478078923187628	2.4408884	1.5623343
31.496288803073064	2.4474895	1.5644454
31.514499499016807	2.4517822	1.5658168
31.532711011588546	2.389979	1.5459557
31.550923341358178	2.3709464	1.5397878
31.56913648889584	2.4083104	1.5518732
31.587350454771844	2.4004357	1.5493339
31.605565239556732	2.3296936	1.5263333
31.62378084382127	2.232158	1.4940408
31.641997268136382	2.2226691	1.4908619
31.660214513073274	2.2192943	1.4897296
31.67843257920331	2.2274911	1.4924781
31.6966514670981	2.2399857	1.4966582
31.71487117732944	2.2813077	1.5103998
31.733091710469346	2.303174	1.5176212
31.751313067090052	2.344089	1.5310419
31.769535247764008	2.343124	1.5307266
31.787758253063878	2.315844	1.5217898
31.805982083562526	2.2885127	1.512783
31.824206739833024	2.2957742	1.5151813
31.84243222244869	2.2910335	1.5136161
31.860658531983013	2.2385669	1.4961841
31.878885669009737	2.2278576	1.4926009
31.897113634102784	2.1923099	1.4806451
31.91534242783632	2.1236746	1.4572833
31.933572050784694	2.1519744	1.4669609
31.951802503522508	2.1910536	1.4802208
31.970033786624548	2.2707372	1.5068965
31.988265900665834	2.2577658	1.5025864
32.006498846221575	2.2096407	1.4864861
32.02473262386724	2.2075984	1.485799
32.04296723417845	2.1591573	1.4694071
32.0612026777311	2.1190617	1.4556997
32.07943895510129	2.1480408	1.4656196
32.097676066865304	2.251395	1.5004649
32.115914013599685	2.2462397	1.498746
32.13415279588115	2.1207907	1.4562935
32.152392414286666	2.0738559	1.4400889
32.1706328693934	2.1702619	1.4731809
32.18887416177875	2.1647449	1.4713072
32.20711629202032	2.0731943	1.4398592
32.225359260695924	2.073569	1.4399892
32.243603068383614	2.110463	1.4527433
32.26184771566166	2.0869164	1.4446163
32.28009320310852	2.0164185	1.4200065
32.2983395313029	1.99136	1.4111556
32.31658670082372	2.0981543	1.4485008
32.33483471225012	2.1452403	1.4646639
32.35308356616143	2.1068487	1.4514987
32.371333263137245	2.0772207	1.4412566
32.38958380375734	2.122919	1.4570241
32.407835188601744	2.1456192	1.4647932
32.42608741825067	2.14609	1.4649539
32.444340493284585	2.1639745	1.4710454
32.46259441428416	2.103295	1.4502741
32.48084918183028	2.0075803	1.4168911
32.49910479650405	1.9846563	1.4087783
32.51736125888683	1.9857595	1.4091698
32.53561856956014	1.9973855	1.413289
32.5538767291058	2.040576	1.4284873
32.572135738105764	2.095135	1.4474581
32.59039559714228	2.0958278	1.4476974
32.608656306797776	2.0614915	1.4357895
32.62691786765491	2.0434117	1.4294795
32.645180280296586	2.0301616	1.4248374
32.663443545305896	2.0622633	1.4360583
32.68170766326619	2.0840018	1.4436072
32.69997263476099	2.0812118	1.4426405
32.7182384603741	2.1194475	1.4558322
32.7365051406895	2.0861213	1.4443412
32.75477267629144	2.0457966	1.4303135
32.77304106776434	2.0753	1.4405901
32.79131031569289	2.0778072	1.4414601
32.809580420661966	2.0383599	1.4277114
32.827851383256714	2.0027342	1.41518
32.84612320406245	2.0588143	1.4348569
32.86439588366476	2.152251	1.4670552
32.88266942264945	2.13908	1.4625595
32.9009438216025	2.0048234	1.4159179
32.9192190811102	2.0956783	1.4476458
32.937495201758985	2.0629044	1.4362814
32.95577218413556	2.0276875	1.4239689
32.974050028826866	2.008521	1.417223
32.992328736420035	1.9470172	1.3953556
33.010608307502444	1.9095823	1.3818763
33.02888874266169	1.8479315	1.3593864
33.047170042485604	1.7903556	1.3380417
33.06545220756225	1.891472	1.3753079
33.083735238479896	2.032751	1.4257458
33.10201913582707	2.0654929	1.4371823
33.12030390019248	1.9477482	1.3956175
33.138589532165135	1.8958417	1.3768957
33.15687603233419	1.8497711	1.360063
33.17516340128909	1.9498749	1.3963792
33.19345163961947	2.0785985	1.4417346
33.211740747915215	2.0395825	1.4281396
33.23003072676643	2.0086539	1.4172698
33.248321576763466	2.0378175	1.4275215
33.266613298496885	2.0632322	1.4363955
33.28490589255747	1.9129908	1.3831091
33.30319935953626	1.8862824	1.37342
33.32149370002451	1.9210792	1.38603
33.339788914613706	2.0235193	1.4225045
33.358085003895575	1.9530782	1.3975257
33.376381968462034	1.9914191	1.4111764
33.39467980890529	1.9947516	1.4123567
33.41297852581774	1.9459304	1.3949661
33.43127811979204	1.8636674	1.365162
33.44957859142105	1.9326727	1.390206
33.467879941297866	1.9565134	1.3987542
33.486182170015844	1.9370538	1.3917809
33.50448527816853	1.9410588	1.3932189
33.522789266349754	1.904763	1.3801315
33.541094135153514	1.919944	1.3856205
33.55939988517411	2.022515	1.4221516
33.57770651700602	2.0212312	1.4217001
33.59601403124398	1.9370217	1.3917693
33.61432242848296	1.9535755	1.3977036
33.632631709318154	1.9370883	1.3917931
33.650941874344994	1.9668761	1.4024537
33.66925292415916	1.9831295	1.4082363
33.68756485935654	2.0322514	1.4255705
33.70587768053328	2.0439973	1.4296843
33.724191388285746	1.9838283	1.4084845
33.74250598321054	1.909163	1.3817246
33.760821465904506	1.9319012	1.3899285
33.77913783696474	1.893791	1.3761507
33.79745509698852	1.914316	1.3835881
33.815773246573414	2.0531054	1.4328661
33.8340922863172	2.046497	1.4305583
33.852412216817896	1.9130648	1.3831359
33.87073303867377	1.763402	1.3279315
33.889054752483304	1.8110702	1.3457601
33.907377358845245	1.8721213	1.3682549
33.92570085835853	1.9149001	1.3837992
33.94402525162239	1.9643165	1.4015408
33.96235053923627	2.0078673	1.4169923
33.980676721799824	2.0168383	1.4201543
33.999003799912984	2.116019	1.4546542
34.01733177417592	2.0257425	1.4232858
34.03566064518901	1.9633292	1.4011885
34.0539904135529	2.0349028	1.4265002
34.07232107986846	1.9989574	1.413845
34.090652644736785	1.9303008	1.3893527
34.108985108759235	1.9216748	1.3862449
34.12731847253742	1.8830016	1.372225
34.14565273667313	1.8816569	1.371735
34.16398790176847	2.0483453	1.4312042
34.18232396842574	1.9954228	1.4125943
34.20066093724749	1.960922	1.4003292
34.21899880883651	2.0303223	1.4248937
34.23733758379583	1.9921302	1.4114285
34.25567726272874	1.8966764	1.3771988
34.27401784623872	1.9012828	1.3788701
34.29235933492957	2.0852711	1.4440467
34.31070172940526	2.0994103	1.4489342
34.32904503027003	2.0107715	1.4180168
34.347389238128386	1.9987901	1.4137857
34.36573435358502	1.9902803	1.4107729
34.38408037724492	1.9101534	1.3820829
34.402427309713296	2.0297143	1.4246805
34.42077515159559	2.0711644	1.439154
34.43912390349752	2.0852633	1.4440441
34.45747356602499	2.0942307	1.4471457
34.47582413978423	2.002482	1.4150908
34.49417562538163	1.9356064	1.3912607
34.51252802342388	1.9412551	1.3932893
34.53088133451789	1.881142	1.3715473
34.54923555927084	1.9989932	1.4138576
34.567590698290104	1.9634703	1.4012389
34.58594675218336	1.9809682	1.4074687
34.6043037215585	2.0245073	1.4228518
34.62266160702365	2.0903957	1.4458201
34.641020409187234	2.1223214	1.4568189
34.65938012865785	2.0331378	1.4258814
34.677740766044394	2.077678	1.4414153
34.69610232195598	2.226129	1.4920218
34.714464797002016	2.1670854	1.4721024
34.73282819179208	1.9586416	1.3995148
34.751192506936064	1.8734722	1.3687484
34.76955774304408	1.8687688	1.3670292
34.7879239007265	1.9395754	1.3926864
34.80629098059391	2.0970476	1.4481187
34.824658983257194	2.0563147	1.4339856
34.843027909327446	1.9003781	1.3785421
34.86139775941603	1.9332453	1.390412
34.879768534134534	1.930592	1.3894575
34.89814023409483	1.8350561	1.3546424
34.91651285990901	1.7188945	1.3110662
34.93488641218944	1.6299195	1.276683
34.95326089154871	1.7218666	1.3121991
34.97163629859967	1.818519	1.3485247
34.99001263395542	1.8739071	1.3689072
35.00838989822934	1.9773108	1.4061688
35.02676809203499	2.0848975	1.4439174
35.04514721598624	2.09656	1.4479502
35.063527270697215	1.9885002	1.410142
35.081908256782256	1.8507178	1.3604109
35.10029017485597	1.9512532	1.3968726
35.11867302553321	2.06193	1.4359422
35.137056809429104	1.9592142	1.3997194
35.155441527159006	1.828165	1.3520966
35.173827179338524	1.9121205	1.3827944
35.19221376658354	2.0579517	1.4345562
35.21060128951017	2.0586767	1.434809
35.2289897487348	1.7926027	1.3388811
35.24737914487405	1.7887415	1.3374383
35.26576947854479	2.0917156	1.4462764
35.28416075036418	2.084345	1.4437261
35.30255296094958	1.8908912	1.3750968
35.32094611091867	2.0252497	1.4231126
35.33934020088932	2.1255698	1.4579334
35.35773523147969	1.9681813	1.4029188
35.3761312033082	2.0509372	1.4321094
35.394528116993506	2.1514351	1.4667771
35.41292597315452	1.8576293	1.3629488
35.431324772410434	1.9974128	1.4132986
35.449724515380666	2.1436903	1.4641347
35.46812520268491	2.0799863	1.4422158
35.486526834943106	2.1284232	1.4589117
35.504929412775454	2.374679	1.5409994
35.52333293680242	2.1552057	1.4680619
35.54173740764471	1.6755751	1.29444
35.560142825923286	1.5977023	1.2640024
35.5785491922594	1.5200742	1.2329129
35.59695650727454	1.4517411	1.2048821
35.61536477159042	1.9100077	1.3820302
