0.008763373481513119	0.051685803	0.22734512
0.026290120649546365	0.18429624	0.4292974
0.043816868432600686	0.25537768	0.50534904
0.06134361724069026	0.23710851	0.48693788
0.07887036748382949	0.17029333	0.4126661
0.0963971195720331	0.1511572	0.38878942
0.11392387391531617	0.18326448	0.428094
0.1314506309236943	0.17072017	0.41318297
0.1489773910071836	0.13128431	0.36233178
0.16650415457580078	0.15788731	0.39735037
0.18403092203956356	0.16987534	0.41215935
0.20155769380849	0.1759411	0.41945332
0.2190844702925996	0.11623267	0.34092912
0.2366112519019124	0.09205019	0.30339774
0.2541380390464497	0.08082043	0.28428933
0.27166483213623416	0.103615195	0.32189316
0.28919163158128947	0.11160629	0.33407527
0.3067184377916406	0.12756775	0.3571663
0.324245251177314	0.09803046	0.31309816
0.34177207214833777	0.08073528	0.28413954
0.3592989011147415	0.08967727	0.29946163
0.37682573848655654	0.08073863	0.28414544
0.39435258467381573	0.115304165	0.33956468
0.41187944008655414	0.087835714	0.2963709
0.42940630513480854	0.10502522	0.32407594
0.446933180228618	0.119082116	0.34508276
0.4644600657780234	0.13469319	0.3670057
0.48198696219306775	0.14229178	0.37721583
0.49951386988379676	0.12000146	0.34641227
0.5170407892602581	0.11372548	0.33723208
0.5345677207325025	0.09079676	0.30132502
0.5520946647105822	0.10901691	0.3301771
0.5696216216045534	0.0842163	0.29020044
0.5871485918244737	0.09921581	0.31498542
0.6046755757804043	0.09537348	0.30882597
0.6222025738824094	0.13286841	0.3645112
0.6397295865405557	0.12222256	0.3496034
0.6572566141649129	0.14443368	0.3800443
0.6747836571655547	0.17448625	0.41771552
0.6923107159525568	0.23069341	0.48030555
0.7098377909359992	0.21711114	0.46595186
0.7273648825259653	0.23701498	0.48684183
0.7448919911325411	0.19555372	0.44221455
0.762419117165817	0.22411317	0.47340593
0.7799462610358868	0.21125172	0.45962128
0.7974734231528482	0.17961574	0.42381096
0.8150006039268024	0.1565407	0.39565226
0.8325278037678551	0.1434708	0.3787754
0.8500550230861152	0.17419711	0.41736928
0.8675822622916969	0.20139527	0.44877085
0.8851095217947171	0.20397255	0.45163321
0.9026368020052984	0.21772882	0.46661422
0.9201641033335665	0.19951221	0.4466679
0.9376914261896523	0.2034523	0.45105687
0.9552187709836915	0.18569201	0.43091998
0.9727461381258234	0.23599958	0.48579788
0.990273528026193	0.24052589	0.49043438
1.0078009410949496	0.2405663	0.4904756
1.0253283777422473	0.24124065	0.49116254
1.0428558383782454	0.25737047	0.50731695
1.0603833234131086	0.28852904	0.537149
1.0779108332570058	0.33883384	0.5820944
1.0954383683201119	0.35158104	0.5929427
1.112965929012607	0.37655792	0.61364317
1.1304935157446763	0.5121787	0.71566665
1.1480211289265108	0.5749366	0.75824577
1.1655487689683062	1.3207977	1.1492596
1.1830764362802655	1.6113559	1.2693919
1.200604131272596	2.0279338	1.4240555
1.2181318543555117	2.4904988	1.5781314
1.235659605939232	2.4587474	1.5680393
1.253187386433982	4.111843	2.027768
1.270715196249994	6.453463	2.5403666
1.2882430357975057	12.009253	3.465437
1.3057709054867608	16.675613	4.0835786
1.3232988057280106	22.379404	4.7306876
1.3408267369315112	27.627035	5.2561426
1.358354699507526	31.136906	5.580045
1.3758826938663256	35.379593	5.948075
1.3934107204181858	37.12521	6.093046
1.410938779573391	37.419548	6.1171517
1.4284668717422309	37.797707	6.147984
1.4459949973350033	37.36114	6.112376
1.4635231567620117	37.615376	6.1331377
1.4810513504335687	37.213253	6.1002665
1.4985795787599925	36.559994	6.046486
1.5161078421516088	36.10941	6.0091105
1.5336361410187505	35.054184	5.920657
1.5511644757717598	35.33903	5.944664
1.5686928468209842	36.20209	6.0168176
1.58622125457678	36.87151	6.0721917
1.6037496994495108	37.674274	6.1379375
1.621278181849548	37.280815	6.1058016
1.6388067021872719	37.816193	6.149487
1.6563352608730693	37.600033	6.1318865
1.673863858317336	36.58869	6.0488586
1.6913924949304753	36.07075	6.005893
1.7089211711228998	34.788097	5.898144
1.7264498873050296	33.885345	5.821112
1.7439786438872935	32.86539	5.7328343
1.7615074412801288	32.092743	5.6650457
1.779036279893981	31.456402	5.6086006
1.796565160139305	30.499546	5.5226393
1.814094082426564	29.514898	5.4327617
1.8316230471662298	28.676619	5.3550553
1.849152054768784	27.674023	5.2606106
1.8666811056447168	27.451115	5.2393813
1.8842102002045273	27.095001	5.205286
1.901739338858724	26.804249	5.177282
1.9192685220178245	26.03859	5.1028023
1.9367977500923557	25.096087	5.009599
1.9543270234928547	24.708977	4.9708123
1.971856342629867	24.051003	4.904182
1.9893857079139496	23.52725	4.8504896
2.006915119755667	22.926033	4.7881136
2.0244445785655945	22.21738	4.7135315
2.0419740847543175	21.65528	4.6535234
2.0595036387324317	21.138235	4.597634
2.0770332409105414	20.900272	4.5716815
2.094562891699263	20.834288	4.5644593
2.1120925915092217	20.302866	4.5058703
2.129622340751053	19.928598	4.4641457
2.1471521398354043	187.69247	13.70009
2.1646819891729323	444.12997	21.074392
2.182211889174303	440.33228	20.984097
2.1997418402501974	452.89044	21.281223
2.2172718428113023	432.9241	20.806828
2.234801897268317	320.80484	17.911026
2.2523320040319548	17.106623	4.1360154
2.269862163512935	16.811117	4.1001363
2.287392376121992	16.550201	4.068194
2.304922642269869	16.424746	4.0527453
2.322452962367322	16.13329	4.016627
2.3399833368251164	15.767013	3.97077
2.357513766054032	15.369385	3.9203806
2.3750442504648586	15.104127	3.8864028
2.3925747904683963	14.745031	3.839926
2.410105386475459	14.461513	3.8028295
2.4276360388968707	14.217149	3.7705634
2.445166748143469	14.173936	3.7648287
2.4626975146261025	13.822798	3.7179024
2.4802283387556323	13.480826	3.6716244
2.4977592209429305	13.284834	3.6448367
2.5152901615988825	13.0683365	3.6150155
2.5328211611343865	12.946688	3.5981505
2.5503522199603523	12.597618	3.5493124
2.5678833384877024	12.456508	3.5293777
2.5854145171273712	12.3697815	3.51707
2.6029457562903064	12.40174	3.5216105
2.620477056387469	12.242894	3.4989848
2.6380084178298326	11.920596	3.4526217
2.655539841028383	11.7063055	3.4214478
2.673071326394119	11.654067	3.4138052
2.6906028743380523	11.4511595	3.3839562
2.708134485271211	11.14985	3.339139
2.7256661596046325	10.801331	3.286538
2.743197897749369	10.608857	3.257124
2.760729700116486	10.536958	3.246068
2.778261567117063	10.501562	3.2406113
2.795793499162193	10.257492	3.202732
2.8133254966629817	10.059574	3.171683
2.830857560030551	9.742759	3.1213393
2.8483896896760337	9.711227	3.1162841
2.865921886010578	9.526743	3.0865421
2.883454149445347	9.485179	3.0798018
2.9009864803915177	9.248895	3.0411994
2.91851887926028	9.113662	3.0188842
2.9360513464628384	8.960649	2.9934342
2.953583882410413	8.850119	2.9749148
2.9711164875142373	8.707042	2.9507697
2.9886491621855606	8.739047	2.956188
3.0061819068356455	8.655498	2.9420228
3.023714721875769	8.64012	2.939408
3.041247607717225	8.529696	2.9205644
3.0587805647713213	8.365471	2.8923123
3.0763135934493806	8.258953	2.8738394
3.0938466941627407	8.162773	2.8570566
3.1113798673227544	8.077354	2.8420687
3.1289131133407904	7.9324026	2.816452
3.1464464326282315	7.7579045	2.7853014
3.1639798255964786	7.750454	2.7839637
3.1815132926569443	7.669516	2.7693892
3.1990468342210603	7.732026	2.780652
3.216580450700272	7.6607356	2.7678034
3.2341141425060416	7.599303	2.7566833
3.251647910049847	7.5350904	2.7450118
3.2691817537431813	7.390756	2.7185946
3.286715673997555	7.153867	2.6746714
3.3042496712244938	7.11532	2.6674557
3.32178374583554	6.992943	2.6444173
3.339317898242251	7.098575	2.6643152
3.3568521288562034	7.0479836	2.654804
3.3743864380889876	6.955486	2.6373255
3.3919208263522127	6.7678065	2.6015007
3.4094552940575023	6.687314	2.5859842
3.4269898416164972	6.6654425	2.5817518
3.444524469440858	6.648563	2.5784807
3.4620591779422587	6.517188	2.5528784
3.479593967532391	6.4343023	2.5365927
3.4971288386229658	6.330567	2.5160618
3.5146637916257086	6.351638	2.5202456
3.5321988269523628	6.2948995	2.5089638
3.5497339450146903	6.393777	2.5285919
3.5672691462244708	6.330271	2.516003
3.5848044309934988	6.282371	2.506466
3.60233979973359	6.1473913	2.4793932
3.619875252856575	6.2246413	2.494923
3.6374107907743034	6.239177	2.4978344
3.6549464138986427	6.180608	2.4860828
3.6724821226414788	6.1247854	2.4748304
3.690017917414714	6.188733	2.4877164
3.7075537986302702	6.2140746	2.4928045
3.7250897667000857	6.3048816	2.5109522
3.7426258220361235	6.3873897	2.5273285
3.7601619650503553	6.6848683	2.5855112
3.777698196154779	7.4179363	2.723589
3.7952345157614067	8.534917	2.921458
3.8127709242822716	9.366889	3.0605373
3.830307422129425	11.658902	3.4145133
3.847844009714936	30.535498	5.525893
3.8653806874508954	98.0247	9.900743
3.882917455749409	97.22504	9.860275
3.900454315022606	96.902336	9.843899
3.917991265682631	41.48815	6.4411297
3.9355283081416506	11.1855135	3.344475
3.9530654428118495	8.927804	2.9879432
3.970602670105433	7.5593843	2.7494335
3.9881399904346244	6.6317306	2.5752146
4.005677404211669	6.4180913	2.5333953
4.023214911848827	6.37838	2.5255454
4.0407525137583855	6.349676	2.5198565
4.058290210352644	6.338312	2.5176005
4.075828002043927	6.208605	2.4917073
4.0933658892445814	6.1552873	2.4809852
4.110903872366966	6.217517	2.493495
4.128441951823468	6.186939	2.4873557
4.145980128026488	6.227334	2.4954627
4.163518401388452	6.266165	2.5032308
4.181056772321807	6.2942405	2.5088325
4.1985952412390155	6.303249	2.5106273
4.216133808552567	6.3765206	2.5251772
4.233672474674966	6.38438	2.5267332
4.251211240018741	6.5206647	2.5535593
4.268750104996445	6.679669	2.5845056
4.286289070020643	7.583299	2.7537792
4.303828135503928	9.220283	3.0364919
4.3213673018589125	29.594757	5.4401064
4.3389065694982305	90.86487	9.532307
4.356445938834537	166.2322	12.893106
4.3739854102805085	171.8603	13.10955
4.391524984248844	172.59406	13.137506
4.409064661152262	136.51677	11.684039
4.426604441403504	96.67575	9.832383
4.444144325415337	75.78465	8.705438
4.461684313600543	21.862337	4.675718
4.47922440637193	22.333687	4.725853
4.496764604142329	20.576422	4.536124
4.5143049073245916	18.833704	4.3397818
4.531845316331589	16.75733	4.0935717
4.5493858315762195	13.807492	3.7158434
4.566926453471405	11.379547	3.3733585
4.584467182430081	9.408521	3.0673313
4.602008018865218	8.269116	2.8756073
4.619548963189798	7.5392437	2.7457683
4.637090015816834	6.9221234	2.630993
4.654631177159353	6.6866255	2.585851
4.672172447630417	6.491829	2.5479069
4.689713827643102	6.365682	2.5230303
4.7072553176105085	6.0715795	2.4640574
4.724796917945764	5.9245386	2.4340374
4.742338629062015	5.8137174	2.4111652
4.759880451372434	5.736678	2.3951364
4.777422385290215	5.6096053	2.3684607
4.794964431228581	5.4931874	2.343755
4.812506589600768	5.489735	2.3430183
4.830048860820047	5.484178	2.3418322
4.847591245299709	5.607677	2.3680534
4.8651337434530655	5.596051	2.3655975
4.882676355693457	5.53562	2.3527899
4.900219082434242	5.5198507	2.3494363
4.917761924088813	5.450517	2.3346343
4.935304881070575	5.4672227	2.3382094
4.952847953792969	5.4613204	2.3369467
4.970391142669449	5.5047364	2.3462174
4.9879344481135055	5.526479	2.3508463
5.005477870538642	5.5499578	2.3558347
5.023021410358394	5.5831556	2.3628702
5.040565067986324	5.519634	2.34939
5.05810884383601	5.4486113	2.3342261
5.075652738321066	5.426928	2.3295767
5.09319675185512	5.406031	2.3250873
5.110740884851836	5.4067917	2.3252509
5.128285137724894	5.4075985	2.3254244
5.145829510888007	5.3813457	2.3197727
5.163374004754908	5.400458	2.3238885
5.1809186197393595	5.338851	2.3105953
5.198463356255145	5.332948	2.3093176
5.216008214716077	5.305208	2.3033037
5.233553195535998	5.2961926	2.3013458
5.251098299128764	5.2680545	2.2952242
5.268643525908272	5.1893554	2.2780156
5.286188876288432	5.2012506	2.280625
5.3037343506831895	5.275766	2.2969036
5.32127994950651	5.308262	2.3039665
5.3388256731723915	5.315306	2.3054948
5.356371522094851	5.2394943	2.288994
5.373917496687938	5.2914658	2.3003187
5.391463597365729	5.328483	2.3083508
5.40900982454232	5.2361774	2.2882695
5.426556178631843	5.15063	2.2695
5.444102660048449	5.1022096	2.2588072
5.4616492692063225	5.150192	2.2694035
5.479196006519669	5.158847	2.2713096
5.496742872402727	5.1488757	2.2691133
5.514289867269756	5.1104884	2.260639
5.531836991535049	5.1249266	2.2638302
5.549384245612924	5.1717806	2.274155
5.566931629917724	5.2191987	2.2845566
5.584479144863822	5.240716	2.289261
5.6020267908656205	5.2359314	2.2882159
5.619574568337545	5.1812105	2.2762272
5.637122477694054	5.1568117	2.2708614
5.654670519349629	5.155867	2.2706535
5.672218693718784	5.2053185	2.2815168
5.689767001216059	5.196657	2.2796178
5.707315442256021	5.201388	2.2806551
5.724864017253266	5.156173	2.270721
5.7424127266224225	5.158495	2.2712321
5.75996157077814	5.1069055	2.2598464
5.777510550135105	5.13798	2.2667112
5.795059665108022	5.184612	2.2769742
5.812608916111639	5.1973934	2.2797792
5.830158303560715	5.3260036	2.3078136
5.847707827870055	5.3748927	2.3183815
5.86525748945448	5.4120936	2.3263907
5.8828072887288485	5.5036807	2.3459926
5.900357226108044	5.5312395	2.3518586
5.917907302006979	5.6003227	2.3665001
5.9354575168406	6.1879253	2.487554
5.9530078710238765	6.824347	2.6123452
5.970558364971812	7.423963	2.724695
5.988108999099438	7.7445292	2.7828994
6.005659773821818	8.26465	2.8748305
6.023210689554039	7.920531	2.8143437
6.040761746711227	8.252766	2.8727627
6.058312945708531	7.699191	2.7747416
6.075864286961132	7.2673674	2.6958055
6.093415770884244	6.7122164	2.5907946
6.1109673978931065	6.1428633	2.47848
6.128519168402993	5.6006947	2.3665786
6.146071082829204	5.399043	2.323584
6.163623141587075	5.240439	2.2892005
6.181175345091969	5.202055	2.2808013
6.198727693759281	5.2194133	2.2846036
6.216280188004435	5.2568226	2.292776
6.233832828242885	5.2658935	2.2947536
6.251385614890126	5.275923	2.2969377
6.268938548361669	5.158577	2.27125
6.286491629073067	5.0487595	2.2469444
6.304044857439898	5.029789	2.2427192
6.321598233877777	5.0118213	2.2387097
6.339151758802344	4.988515	2.2334983
6.356705432629277	4.972183	2.2298393
6.37425925577428	4.9203773	2.2181923
6.391813228653095	4.935944	2.2216985
6.409367351681486	4.8855243	2.2103221
6.426921625275259	4.9272113	2.2197323
6.44447604985025	5.014141	2.2392278
6.46203062582232	5.045036	2.2461157
6.47958535360737	5.1300206	2.2649548
6.497140233621328	5.1296897	2.2648818
6.514695266280161	5.071479	2.2519944
6.532250451999859	5.011497	2.2386372
6.549805791196454	4.9614606	2.2274337
6.567361284286002	4.9958267	2.2351346
6.584916931684597	5.0218883	2.240957
6.602472733808367	5.061906	2.249868
6.6200286910734665	5.014824	2.2393804
6.637584803896092	4.971964	2.2297902
6.655141072692462	4.968896	2.2291021
6.672697497878842	5.0250077	2.241653
6.690254079871514	5.0319333	2.2431972
6.707810819086808	5.05879	2.2491755
6.725367715941078	5.0155582	2.2395442
6.742924770850719	5.0236435	2.2413485
6.760481984232151	4.978208	2.2311897
6.778039356501836	4.959836	2.227069
6.795596888076266	4.966296	2.2285187
6.813154579371963	5.0057063	2.2373435
6.830712430805492	5.043518	2.2457778
6.84827044279344	5.099527	2.2582133
6.865828615752445	5.0690227	2.251449
6.883386950099159	5.091819	2.256506
6.900945446250287	5.1179943	2.2622983
6.918504104622553	5.1159477	2.261846
6.936062925632727	5.1338344	2.2657967
6.953621909697607	5.117091	2.2620988
6.971181057234028	5.1660786	2.2729008
6.988740368658859	5.154804	2.2704194
7.006299844389007	5.1100626	2.2605448
7.023859484841407	5.1675067	2.273215
7.041419290433036	5.294353	2.300946
7.058979261580902	5.498974	2.344989
7.0765393987020495	5.75712	2.3994
7.094099702213559	6.1711264	2.4841752
7.111660172532549	6.503012	2.5501003
7.129220810076164	6.821266	2.6117554
7.146781615261595	7.4045486	2.7211301
7.16434258850606	7.6604433	2.7677505
7.181903730226821	8.170362	2.8583846
7.1994650408411704	8.359047	2.8912017
7.217026520766437	8.4780855	2.9117153
7.234588170419983	8.663111	2.9433162
7.252149990219215	8.49639	2.914857
7.269711980581568	8.35852	2.8911104
7.2872741419245175	8.2482815	2.871982
7.304836474665574	7.897113	2.8101802
7.322398979222286	7.5793924	2.7530696
7.339961656012233	7.26728	2.6957893
7.357524505453039	6.9377627	2.6339633
7.375087527962357	6.6740146	2.5834115
7.392650723957886	6.3756056	2.524996
7.410214093857353	6.017659	2.4530919
7.427777638078528	5.7949033	2.4072604
7.445341357039213	5.634666	2.3737452
7.4629052511572525	5.4231553	2.3287668
7.480469320850524	5.350823	2.3131845
7.498033566536948	5.3273783	2.3081114
7.5155979886344735	5.2997007	2.3021078
7.5331625875610975	5.277452	2.2972705
7.550727363734844	5.255707	2.292533
7.568292317573788	5.241506	2.2894335
7.585857449496025	5.2566004	2.2927277
7.603422759919705	5.1824665	2.276503
7.620988249263007	5.1763215	2.2751532
7.638553917944147	5.170515	2.2738767
7.656119766381391	5.171862	2.2741728
7.673685794993023	5.193352	2.2788928
7.691252004197388	5.1817317	2.2763417
7.70881839441285	5.1825166	2.276514
7.726384966057826	5.2172513	2.2841303
7.743951719550762	5.201128	2.2805982
7.761518655310149	5.3053837	2.3033419
7.779085773754511	5.245815	2.2903743
7.796653075302419	5.2401514	2.2891376
7.814220560372475	5.205651	2.2815895
7.831788229383323	5.286053	2.299142
7.8493560827536495	5.3981924	2.323401
7.866924120902174	5.468334	2.3384469
7.884492344247663	5.476252	2.3401394
7.9020607532089135	5.4779673	2.3405058
7.919629348204771	5.4161763	2.327268
7.937198129654115	5.436551	2.3316412
7.954767097975865	5.414941	2.3270025
7.972336253588986	5.422263	2.3285754
7.989905596912472	5.412514	2.326481
8.007475128365371	5.445571	2.3335748
8.025044848366756	5.5051546	2.3463066
8.042614757335754	5.595225	2.3654227
8.060184855691523	5.648779	2.376716
8.07775514385327	5.7729897	2.4027047
8.095325622240228	5.820029	2.4124737
8.112896291271687	5.871679	2.4231548
8.130467151366968	5.8937325	2.427701
8.148038202945436	5.8467417	2.4180036
8.165609446426497	5.787312	2.4056833
8.183180882229594	5.9017134	2.4293442
8.200752510774217	5.944713	2.4381783
8.218324332479893	6.03627	2.4568822
8.235896347766193	6.043135	2.458279
8.253468557052724	5.9818664	2.4457855
8.27104096075914	5.959837	2.4412777
8.288613559305137	6.011828	2.4519029
8.306186353110448	6.119973	2.4738579
8.32375934259485	6.21286	2.4925609
8.341332528178162	6.281862	2.5063643
8.358905910280246	6.3132086	2.51261
8.376479489321003	6.3522716	2.5203712
8.394053265720377	6.3046484	2.510906
8.411627239898356	6.2394423	2.4978876
8.42920141227497	6.243829	2.4987655
8.44677578327029	6.302844	2.5105464
8.464350353304427	6.300512	2.510082
8.48192512279754	6.2337217	2.4967422
8.499500092169827	6.225711	2.4951375
8.51707526184153	6.152793	2.4804823
8.534650632232934	6.18066	2.4860933
8.552226203764365	6.098268	2.4694672
8.569801976856192	6.165372	2.4830167
8.587377951928834	6.2295747	2.4959116
8.60495412940274	6.3151464	2.5129955
8.622530509698416	6.3385196	2.5176418
8.6401070932364	6.3935695	2.5285509
8.657683880437283	6.427743	2.5352993
8.675260871721695	6.57522	2.5642192
8.692838067510303	6.7679777	2.6015337
8.710415468223834	6.98632	2.6431649
8.727993074283043	7.136832	2.671485
8.745570886108737	7.186544	2.680773
8.763148904121765	7.1644044	2.6766405
8.78072712874302	7.1479135	2.6735582
8.798305560393441	7.3334136	2.7080276
8.815884199494006	7.4958014	2.7378461
8.833463046465745	7.7490845	2.7837176
8.851042101729728	7.9058914	2.8117416
8.86862136570707	8.226946	2.8682654
8.886200838818924	8.386896	2.8960137
8.903780521486505	8.443565	2.9057813
8.921360414131055	8.535135	2.9214954
8.938940517173874	8.621317	2.936208
8.956520831036297	8.764033	2.960411
8.97410135613971	9.04711	3.0078413
8.99168209290554	9.189691	3.0314503
9.009263041755265	9.509772	3.083792
9.026844203110405	9.793258	3.1294181
9.044425577392525	10.025716	3.166341
9.062007165023239	10.038107	3.168297
9.079588966424197	10.151768	3.186184
9.097170982017108	10.232453	3.1988206
9.11475321222372	11.373421	3.3724504
9.132335657465825	12.342414	3.5131772
9.149918318165264	12.397147	3.5209582
9.167501194743924	13.002712	3.6059275
9.18508428762374	12.687701	3.56198
9.202667597226693	12.635449	3.5546377
9.220251123974803	12.347799	3.5139437
9.237834868290143	12.05324	3.4717777
9.255418830594836	11.81347	3.4370728
9.273003011311046	11.25512	3.354865
9.290587410860985	11.021475	3.3198607
9.308172029666911	10.501623	3.2406209
9.32575686815113	10.252433	3.201942
9.343341926735997	8.934099	2.9889963
9.360927205843916	8.676722	2.9456275
9.378512705897327	8.404103	2.8989832
9.396098427318728	8.099879	2.8460286
9.413684370530664	7.967843	2.8227367
9.431270535955722	7.9239445	2.8149502
9.448856924016539	7.8699465	2.8053424
9.466443535135806	7.7860703	2.790353
9.484030369736251	7.7420883	2.782461
9.501617428240658	7.726558	2.7796688
9.519204711071852	7.710578	2.7767928
9.536792218652714	7.7016273	2.7751806
9.55437995140617	7.722882	2.7790074
9.571967909755191	7.7397685	2.782044
9.589556094122802	7.816313	2.7957668
9.60714450493207	7.8744802	2.8061504
9.624733142606116	7.981432	2.8251429
9.642322007568108	8.003316	2.8290133
9.659911100241267	8.095516	2.845262
9.677500421048851	8.101561	2.846324
9.695089970414175	8.041543	2.8357615
9.712679748760609	8.010515	2.8302853
9.730269756511557	8.020617	2.8320694
9.747859994090492	8.095844	2.8453197
9.765450461920915	8.195562	2.8627892
9.78304116042639	8.207329	2.8648436
9.800632090030527	8.160383	2.8566384
9.81822325115699	8.180405	2.8601406
9.835814644229481	8.23707	2.8700297
9.853406269671762	8.246114	2.8716047
9.870998127907646	8.34495	2.8887627
9.888590219360985	8.34016	2.8879335
9.906182544455698	8.379671	2.894766
9.923775103615734	8.361602	2.8916435
9.941367897265108	8.388045	2.8962123
9.958960925827878	8.374448	2.893864
9.97655418972816	8.290949	2.8794007
9.994147689390106	8.270972	2.8759298
10.011741425237934	8.2137	2.8659554
10.029335397695904	8.255422	2.873225
10.04692960718833	8.291688	2.8795292
10.06452405413958	8.320861	2.8845901
10.082118738974064	8.347915	2.8892758
10.099713662116246	8.255747	2.8732815
10.117308823990651	8.255084	2.8731663
10.134904225021844	8.2740135	2.8764584
10.152499865634445	8.317639	2.8840318
10.170095746253125	8.288437	2.8789647
10.18769186730261	8.201723	2.8638651
10.205288229207675	8.172362	2.8587344
10.222884832393145	8.123519	2.8501787
10.2404816772839	8.11064	2.8479185
10.258078764304868	8.079785	2.8424964
10.275676093881035	8.050405	2.8373234
10.293273666437438	8.074352	2.8415406
10.310871482399158	8.183984	2.8607664
10.32846954219134	8.135927	2.8523548
10.346067846239173	8.151103	2.8550136
10.363666394967908	8.064774	2.8398545
10.38126518880283	8.178888	2.8598757
10.398864228169298	8.241982	2.8708854
10.416463513492713	8.28056	2.8775961
10.434063045198531	8.212441	2.8657358
10.451662823712262	8.212178	2.8656898
10.469262849459467	8.205418	2.86451
10.486863122865758	8.139143	2.8529184
10.504463644356806	8.097894	2.8456798
10.522064414358338	8.039513	2.8354034
10.539665433296118	8.069751	2.8407307
10.557266701595987	8.065641	2.8400073
10.574868219683818	7.9547153	2.8204105
10.592469987985552	7.736289	2.7814186
10.610072006927185	7.5660453	2.7506444
10.627674276934751	7.4726915	2.7336223
10.64527679843435	7.386916	2.717888
10.662879571852143	7.320804	2.7056985
10.680482597614331	7.223587	2.687673
10.698085876147173	7.1058154	2.6656735
10.715689407876988	6.9538703	2.6370192
10.733293193230146	6.9016347	2.6270962
10.750897232633072	6.7673535	2.6014137
10.76850152651225	6.6148233	2.57193
10.786106075294207	6.48946	2.547442
10.803710879405534	6.449761	2.539638
10.821315939272877	6.3980527	2.5294373
10.83892125532294	6.3381953	2.5175772
10.856526827982472	6.274704	2.504936
10.874132657678285	6.2303615	2.4960692
10.891738744837243	6.1945605	2.4888873
10.909345089886271	6.136179	2.4771311
10.926951693252343	6.131882	2.4762638
10.944558555362494	6.1167765	2.4732118
10.96216567664381	6.071702	2.4640825
10.979773057523436	5.993465	2.4481554
10.997380698428573	5.8584166	2.4204166
11.014988599786477	5.768688	2.4018095
11.032596762024461	5.7212696	2.3919175
11.050205185569892	5.6554585	2.378121
11.067813870850198	5.6100373	2.3685517
11.085422818292859	5.525427	2.3506227
11.10303202832541	5.4701185	2.3388286
11.120641501375454	5.400059	2.3238027
11.138251237870636	5.346996	2.3123572
11.155861238238671	5.3642135	2.3160772
11.173471502907317	5.318022	2.3060837
11.191082032304402	5.214975	2.283632
11.208692826857805	5.146886	2.2686749
11.226303886995465	5.0779443	2.2534294
11.243915213145371	4.9889865	2.233604
11.261526805735578	4.9540377	2.2257667
11.279138665194196	4.868368	2.2064378
11.296750791949393	4.823702	2.1962926
11.314363186429393	4.7129717	2.170938
11.331975849062479	4.650463	2.1564932
11.34958878027699	4.631394	2.1520674
11.36720198050133	4.5889177	2.142176
11.384815450163948	4.544013	2.131669
11.402429189693366	4.4841223	2.1175747
11.420043199518153	4.4770403	2.1159017
11.437657480066942	63.5012	7.9687643
11.455272031768422	85.251015	9.233148
11.472886855051353	107.63205	10.374587
11.490501950344528	99.239136	9.9618845
11.508117318076819	84.56735	9.196051
11.52573295867715	45.976433	6.7805924
11.543348872574514	4.252723	2.0622132
11.560965060197946	4.198609	2.0490508
11.57858152197655	4.109358	2.0271552
11.59619825833949	4.064552	2.0160735
11.613815269715985	4.0051427	2.0012853
11.631432556535323	38.519596	6.2064157
11.649050119226837	83.0765	9.114631
11.666667958219929	93.46715	9.667841
11.68428607394406	107.71181	10.37843
11.701904466828756	82.50332	9.083134
11.719523137303586	65.35172	8.084042
11.737142085798196	4.62422	2.1504
11.754761312742286	3.7744782	1.9428016
11.772380818565619	3.7563224	1.9381235
11.790000603698015	3.7012467	1.9238625
11.80762066856935	3.6109574	1.900252
11.825241013609572	3.5564463	1.8858542
11.842861639248683	3.5043197	1.8719828
11.860482545916748	3.5539916	1.8852034
11.878103734043883	3.545439	1.8829336
11.895725204060282	3.5584724	1.8863914
11.91334695639619	3.5020292	1.8713709
11.930968991481919	3.4547594	1.8586982
11.948591309747824	3.4145162	1.8478409
11.966213911624347	3.3203967	1.8221955
11.98383679754198	3.2750595	1.8097125
12.001459967931268	3.2648199	1.8068813
12.019083423222835	3.2909162	1.8140882
12.036707163847352	3.294615	1.8151075
12.05433119023556	3.2373507	1.799264
12.071955502818259	3.2132018	1.7925406
12.089580102026313	3.153793	1.7758921
12.107204988290643	3.1303349	1.7692752
12.12483016204224	3.1069179	1.7626451
12.142455623712152	3.1157856	1.7651588
12.16008137373149	3.1456647	1.7736021
12.177707412531431	3.123803	1.7674283
12.19533374054321	3.1243293	1.7675773
12.212960358198126	3.1040704	1.7618372
12.230587265927545	3.1136093	1.7645422
12.248214464162889	3.0763423	1.7539505
12.265841953335649	3.0503747	1.7465322
12.283469733877375	3.0116506	1.7354108
12.301097806219685	3.0038385	1.7331586
12.31872617079425	2.9752483	1.7248908
12.336354828032825	2.9536817	1.7186278
12.353983778367205	2.9360855	1.713501
12.371613022229262	2.9510174	1.7178526
12.389242560050928	2.901825	1.7034744
12.406872392264201	2.8687627	1.6937423
12.424502519301143	2.8192773	1.6790704
12.442132941593874	2.8333194	1.6832467
12.459763659574586	2.843705	1.6863289
12.477394673675532	2.8354986	1.6838939
12.49502598432903	2.844256	1.6864922
12.51265759196746	2.8217378	1.6798029
12.530289497023267	2.7913508	1.6707336
12.547921699928967	2.7623994	1.6620468
12.565554201117134	2.7472837	1.6574932
12.583187001020404	2.7686007	1.6639112
12.600820100071486	2.816999	1.6783918
12.618453498703152	2.8042233	1.6745815
12.636087197348235	2.8062353	1.6751822
12.65372119643964	2.7865596	1.6692991
12.671355496410326	2.7887003	1.6699402
12.68899009769333	2.8103502	1.67641
12.706625000721749	2.860516	1.691306
12.724260205928752	2.9674377	1.7226253
12.741895713747551	2.993559	1.7301904
12.759531524611454	3.0073214	1.734163
12.777167638953818	2.9906878	1.7293606
12.794804057208072	3.0091543	1.7346914
12.812440779807702	3.0920587	1.758425
12.830077807186271	3.282668	1.8118135
12.847715139777405	3.3303595	1.8249272
12.865352778014795	3.471915	1.8633076
12.882990722332197	3.5452614	1.8828864
12.90062897316344	3.632841	1.9060013
12.918267530942412	3.7643032	1.9401813
12.935906396103071	3.6690395	1.9154737
12.953545569079449	3.857253	1.963989
12.971185050305628	3.664557	1.9143033
12.988824840215775	3.6372802	1.9071655
13.006464939244115	3.6527703	1.9112222
13.024105347824943	3.516292	1.8751779
13.041746066392617	3.5873532	1.8940309
13.05938709538157	3.350911	1.8305494
13.077028435226296	3.3879209	1.8406305
13.094670086361363	3.3167033	1.8211819
13.112312049221401	3.2440333	1.80112
13.129954324241112	3.0903852	1.7579491
13.147596911855258	2.9032378	1.703889
13.165239812498685	2.8649292	1.6926101
13.182883026606293	2.7677674	1.6636609
13.200526554613058	2.6964328	1.6420819
13.218170396954017	2.6696086	1.6338937
13.235814554064284	2.691965	1.640721
13.253459026379034	2.7109177	1.6464865
13.271103814333523	2.687305	1.6393001
13.288748918363058	2.6927483	1.6409596
13.306394338903031	2.6652336	1.6325543
13.32404007638889	2.6642025	1.6322385
13.341686131256164	2.700693	1.6433785
13.359332503940449	2.674749	1.635466
13.376979194877402	2.665472	1.6326274
13.394626204502751	2.7052584	1.6447669
13.412273533252307	2.7332594	1.6532573
13.429921181561937	2.764394	1.6626467
13.447569149867581	2.7464707	1.6572479
13.465217438605247	2.724826	1.6507047
13.482866048211022	2.6860058	1.6389039
13.500514979121052	2.7155573	1.6478949
13.518164231771568	2.6952298	1.6417155
13.535813806598844	2.698775	1.6427948
13.553463704039254	2.6500666	1.6279025
13.571113924529229	2.6023674	1.6131855
13.588764468505275	2.5867224	1.608329
13.606415336403956	2.6422198	1.6254907
13.624066528661917	2.7021768	1.64383
13.641718045715882	2.806789	1.6753474
13.659369888002635	2.8512354	1.6885601
13.67702205595903	2.8971202	1.7020929
13.694674550021993	2.9567978	1.7195342
13.712327370628532	3.0431752	1.7444699
13.729980518215713	3.153117	1.7757018
13.747633993220681	3.198885	1.7885427
13.765287796080647	3.1985533	1.78845
13.7829419272329	3.2005424	1.789006
13.800596387114801	3.2568254	1.8046677
13.818251176163775	3.3026295	1.8173138
13.835906294817324	3.3704607	1.8358815
13.853561743513023	3.3956878	1.8427392
13.871217522688525	3.4477334	1.8568074
13.888873632781538	3.5044928	1.8720291
13.906530074229858	3.5545187	1.8853431
13.92418684747135	3.5379465	1.880943
13.941843952943948	3.5292103	1.8786193
13.959501391085665	3.5079618	1.8729553
13.977159162334578	3.4139094	1.8476768
13.994817267128846	3.3340828	1.8259472
14.012475705906693	3.2427804	1.8007722
14.030134479106424	3.1636043	1.7786524
14.047793587166414	3.1056604	1.7622885
14.065453030525108	3.047941	1.7458353
14.083112809621026	3.0112283	1.7352891
14.100772924892766	2.9354594	1.7133182
14.118433376778997	2.9356658	1.7133784
14.136094165718458	2.8900545	1.700016
14.153755292149969	2.8861418	1.6988648
14.171416756512416	2.7976093	1.6726055
14.189078559244768	2.7211165	1.6495807
14.20674070078606	2.6463313	1.6267549
14.224403181575408	2.6093035	1.6153339
14.242066002051999	2.5605242	1.6001638
14.259729162655093	2.471491	1.5720977
14.277392663824022	2.3945937	1.5474474
14.295056505998208	2.3762443	1.5415071
14.312720689617128	2.389342	1.5457497
14.330385215120348	2.403435	1.5503016
14.348050082947497	2.4103165	1.5525194
14.3657152935383	2.378247	1.5421566
14.383380847332528	2.3607438	1.5364712
14.401046744770051	2.3587105	1.5358094
14.418712986290798	2.3598795	1.5361899
14.436379572334793	2.35433	1.5343826
14.454046503342123	2.3334901	1.5275766
14.471713779752946	2.3385315	1.5292258
14.489381402007504	2.363405	1.537337
14.507049370546113	2.3614805	1.536711
14.524717685809168	2.3572989	1.5353497
14.542386348237134	2.3548715	1.534559
14.560055358270553	2.3822017	1.5434383
14.577724716350051	2.4521353	1.5659295
14.595394422916325	2.4403632	1.5621662
14.61306447841015	2.4046154	1.5506822
14.63073488327237	2.4053338	1.5509138
14.648405637943917	2.461872	1.5690354
14.6660767428658	2.5507407	1.5971038
14.683748198479094	2.5971835	1.611578
14.701420005224954	2.5896244	1.609231
14.719092163544628	2.6303217	1.6218266
14.73676467387942	2.6767228	1.6360693
14.754437536670727	2.7131405	1.6471614
14.772110752360014	2.696852	1.6422095
14.78978432138882	2.6902428	1.640196
14.807458244198777	2.6767282	1.636071
14.82513252123159	2.668651	1.6336007
14.842807152929028	2.6919272	1.6407094
14.860482139732962	2.6867826	1.6391408
14.87815748208531	2.6884453	1.639648
14.8958331804281	2.6483705	1.6273814
14.91350923520342	2.616623	1.6175979
14.931185646853438	2.6775997	1.6363373
14.948862415820408	2.7377083	1.6546022
14.966539542546656	2.7738616	1.6654915
14.98421702747459	2.7425153	1.6560541
15.001894871046696	2.6834142	1.638113
15.019573073705542	2.657445	1.6301671
15.037251635893766	2.6487765	1.6275063
15.054930558054092	2.6737506	1.6351607
15.072609840629323	2.7181835	1.6486914
15.090289484062351	2.8485622	1.6877685
15.107969488796124	3.1437862	1.7730725
15.125649855273691	3.5935204	1.8956583
15.14333058393817	4.0964856	2.0239778
15.161011675232768	5.0686717	2.2513711
15.17869312960076	6.4858155	2.5467265
15.196374947485506	8.403718	2.8989167
15.214057129330447	11.552925	3.3989594
15.231739675579114	16.16476	4.020542
15.249422586675102	21.209614	4.6053896
15.267105863062092	24.212027	4.920572
15.284789505183847	24.618505	4.961704
15.302473513484218	22.47959	4.7412643
15.320157888407127	18.85466	4.3421955
15.337842630396578	14.627462	3.8245866
15.355527739896656	11.407436	3.3774896
15.37321321735153	8.845335	2.9741108
15.39089906320545	6.4294004	2.5356262
15.408585277902748	4.7920346	2.1890717
15.42627186188783	3.732981	1.9320924
15.443958815605198	3.2086983	1.791284
15.461646139499424	2.925501	1.7104096
15.479333834015168	2.7817419	1.6678555
15.497021899597165	2.742395	1.6560178
15.514710336690234	2.6917937	1.6406686
15.53239914573928	2.638264	1.6242733
15.550088327189297	2.5837982	1.6074197
15.567777881485336	2.5402608	1.5938196
15.58546780907256	2.4751754	1.573269
15.6031581103962	2.4544892	1.5666809
15.620848785901568	2.467107	1.5707027
15.638539836034063	2.4753907	1.5733374
15.656231261239173	2.4708614	1.5718974
15.673923061962451	2.4671571	1.5707186
15.691615238649552	2.4743655	1.5730116
15.709307791746202	2.466478	1.5705025
15.727000721698221	2.4717765	1.5721885
15.744694028951498	2.459236	1.5681951
15.76238771395202	2.4403725	1.5621692
15.780081777145844	2.4016051	1.5497113
15.797776218979125	2.3862226	1.5447403
15.815471039898094	2.3802652	1.5428108
15.833166240349064	2.3611166	1.5365926
15.850861820778437	2.3455224	1.5315099
15.868557781632699	2.3541894	1.5343368
15.886254123358412	2.395948	1.547885
15.903950846402232	2.420039	1.5556475
15.921647951210897	2.4176688	1.5548855
15.939345438231225	2.4059007	1.5510966
15.957043307910133	2.4128103	1.5533223
15.974741560694602	2.3770115	1.541756
15.992440197031714	2.398199	1.548612
16.01013921736862	2.3908236	1.5462289
16.02783862215259	2.401019	1.5495222
16.045538411830933	2.4082823	1.5518641
16.06323858685107	2.398224	1.5486201
16.080939147660512	2.3949962	1.5475775
16.09864009470684	2.3887138	1.5455464
16.11634142843774	2.4144974	1.5538653
16.134043149300954	2.422851	1.556551
16.15174525774433	2.4093382	1.5522044
16.169447754215817	2.4189005	1.5552815
16.18715063916342	2.3898568	1.5459162
16.204853913035244	2.3850145	1.5443492
16.222557576279478	2.3990943	1.548901
16.240261629344403	22.398	4.7326527
16.257966072678386	42.969776	6.5551333
16.275670906729868	38.09769	6.172333
16.293376131947387	2.5448203	1.5952493
16.31108174877957	2.555722	1.5986626
16.328787757675133	2.5921779	1.6100242
16.34649415908287	2.6455636	1.6265188
16.364200953451657	2.6341715	1.6230131
16.38190814123048	2.6038725	1.6136519
16.39961572286839	2.5891721	1.6090904
16.41732369881455	2.6104627	1.6156926
16.43503206951817	2.6727982	1.6348695
16.45274083542859	2.7617176	1.6618416
16.47044999699522	2.832224	1.6829213
16.488159554667558	2.8482969	1.6876898
16.505869508895184	2.9024484	1.7036574
16.523579860127786	2.9329045	1.7125725
16.541290608815117	2.9934468	1.7301581
16.559001755407035	3.0389876	1.7432692
16.57671330035348	3.1305408	1.7693335
16.59442524410448	3.1684637	1.7800179
16.61213758711015	3.2421036	1.8005842
16.629850329820705	3.29449	1.815073
16.647563472686436	3.35367	1.8313028
16.665277016157724	3.3561318	1.8319749
16.682990960685053	3.3684928	1.8353454
16.70070530671898	3.4406638	1.8549026
16.718420054710155	3.5233128	1.877049
16.736135205109335	3.5664918	1.8885158
16.753850758367335	3.5957506	1.8962464
16.771566714935087	3.6566975	1.9122493
16.789283075263597	3.7556107	1.9379398
16.80699983980398	3.806581	1.9510461
16.82471700900741	3.867811	1.9666752
16.84243458332518	3.930316	1.9825025
16.860152563208665	3.9638805	1.9909496
16.87787094910932	4.0147038	2.0036726
16.89558974147871	4.0967937	2.0240538
16.913308940768466	4.1825128	2.0451193
16.931028547430333	4.2359843	2.0581508
16.94874856191613	4.2782345	2.0683894
16.966468984677785	4.336654	2.0824635
16.98418981616729	4.4643364	2.1128976
17.00191105683676	4.5497265	2.1330087
17.019632707138374	4.5855026	2.1413786
17.03735476752442	4.5654817	2.1366987
17.05507723844728	4.5738897	2.1386654
17.072800120359403	4.614514	2.1481419
17.090523413713353	4.64972	2.156321
17.108247118961785	4.647884	2.1558952
17.125971236557437	4.609985	2.1470876
17.143695766953133	4.5889864	2.142192
17.161420710601806	4.630472	2.151853
17.179146067956477	4.7332273	2.1755981
17.19687183947025	4.738034	2.1767025
17.21459802559634	4.744787	2.1782532
17.232324626788028	4.7426944	2.1777728
17.25005164349871	4.735763	2.1761808
17.267779076181863	4.680248	2.163388
17.285506925291074	4.6520963	2.1568718
17.30323519127999	4.6207957	2.1496036
17.320963874602384	4.6162376	2.1485431
17.33869297571211	4.5691743	2.1375628
17.356422495063114	4.5194726	2.125905
17.37415243310944	4.5118732	2.1241171
17.391882790305218	4.511676	2.1240706
17.40961356710468	4.524253	2.1270292
17.42734476396215	4.5377903	2.130209
17.445076381332044	4.5501328	2.133104
17.462808419668868	4.6063256	2.1462352
17.48054087942723	4.689163	2.1654475
17.498273761061835	4.944924	2.2237184
17.51600706502747	5.4623632	2.33717
17.533740791779024	6.2356462	2.4971275
17.551474941771485	7.670217	2.7695158
17.56920951545993	8.788282	2.9645038
17.586944513299528	10.955429	3.3098986
17.60467993574556	12.722615	3.5668776
17.622415783253373	14.509639	3.809152
17.64015205627843	15.977871	3.997233
17.657888755276293	16.974434	4.120004
17.675625880702604	17.370323	4.167772
17.69336343301311	17.20093	4.1474004
17.71110141266366	16.470633	4.0584025
17.728839820110178	15.531125	3.940955
17.746578655808705	14.5858	3.8191361
17.764317920215372	13.110157	3.620795
17.7820576137864	11.689467	3.4189863
17.79979773697811	9.624663	3.102364
17.81753829024692	7.6441035	2.7647972
17.835279274049356	5.8424854	2.4171233
17.85302068884201	4.774664	2.1851006
17.870762535081607	4.1392756	2.0345209
17.888504813224934	3.86758	1.9666164
17.90624752372891	3.7254071	1.9301313
17.923990667050536	3.630338	1.9053446
17.941734243646895	3.5439293	1.8825327
17.959478253975185	3.51539	1.8749373
17.9772226984927	3.4918573	1.8686512
17.994967577656833	3.4273572	1.8513123
18.01271289192506	3.3649895	1.8343908
18.030458641754965	3.3332088	1.8257078
18.04820482760425	3.3756	1.8372806
18.06595144993067	3.385186	1.8398875
18.083698509192125	3.3449733	1.8289268
18.101446005846576	3.2913103	1.8141968
18.119193940352105	3.290247	1.8139038
18.136942313166887	3.2788856	1.8107693
18.1546911247492	3.248778	1.8024367
18.1724403755574	3.1786873	1.7828873
18.19019006604997	3.140553	1.7721605
18.207940196685467	3.1481178	1.7742935
18.225690767922575	3.16077	1.7778554
18.243441780220046	3.1456053	1.7735854
18.261193234036764	3.080669	1.7551835
18.278945129831676	3.0404046	1.7436756
18.29669746806386	3.050163	1.7464716
18.314450249192483	3.0774436	1.7542644
18.3322034736768	3.0505896	1.7465937
18.349957141976184	3.0417483	1.7440609
18.3677112545501	3.029967	1.7406801
18.385465811858108	3.067343	1.7513832
18.403220814359884	3.0732656	1.7530732
18.420976262515172	3.106073	1.7624054
18.43873215678387	3.1186569	1.7659719
18.456488497625923	3.1277578	1.7685468
18.474245285501407	3.1813502	1.783634
18.492002520870486	3.3009195	1.8168433
18.50976020419343	3.4330463	1.8528482
18.527518335930615	3.752303	1.9370862
18.545276916542516	4.2557573	2.0629487
18.563035946489688	4.3725576	2.0910661
18.580795426232832	4.782488	2.18689
18.598555356232698	4.6870675	2.1649637
18.616315736950185	4.99576	2.2351196
18.63407656884626	4.6500063	2.1563873
18.65183785238201	4.791934	2.1890488
18.669599588018617	4.551563	2.1334393
18.68736177621737	4.6046047	2.1458342
18.705124417439652	4.6265717	2.1509466
18.72288751214696	4.4244485	2.1034372
18.740651060800886	4.514629	2.1247656
18.758415063863115	4.240286	2.0591955
18.77617952179546	4.407408	2.0993829
18.793944435059814	4.204544	2.0504985
18.811709804118184	4.261069	2.0642357
18.829475629432675	4.215219	2.0530999
18.8472419114655	3.9717555	1.9929264
18.86500865067897	4.050108	2.012488
18.88277584753551	3.733276	1.9321687
18.90054350249763	3.7520025	1.9370086
18.918311616027957	3.4169984	1.8485125
18.936080188589226	3.329624	1.8247257
18.953849220644265	3.062236	1.7499245
18.971618712656007	2.8789291	1.6967407
18.9893886650875	2.8317904	1.6827924
19.007159078401887	8.033163	2.8342836
19.024929953062408	32.932056	5.738646
19.042701289532435	32.857056	5.7321076
19.060473088275405	25.383284	5.0381827
19.07824534975489	2.6360855	1.6236026
19.096018074434568	2.6188967	1.6183006
19.113791262778197	2.6109073	1.6158302
19.13156491524966	2.6147888	1.6170309
19.149339032312945	2.6059942	1.6143092
19.167113614432136	2.618011	1.6180269
19.184888662071433	2.607536	1.6147867
19.202664175695123	2.5842094	1.6075476
19.220440155767623	2.5728755	1.6040186
19.238216602753447	2.5742543	1.6044483
19.2559935171172	2.539922	1.5937133
19.27377089932361	2.4854858	1.5765424
19.291548749837514	2.45448	1.566678
19.309327069123835	2.4796078	1.5746771
19.32710585764763	2.4696395	1.5715086
19.344885115874032	2.4787102	1.574392
19.362664844268313	2.5193052	1.587232
19.380445043295822	2.544147	1.5950383
19.39822571342203	2.533639	1.5917408
19.41600685511252	2.4936323	1.5791239
19.43378846883297	2.500735	1.5813713
19.451570555049173	2.5170846	1.5865322
19.469353114227037	2.5136943	1.5854634
19.48713614683254	2.485042	1.5764016
19.50491965333182	2.4675272	1.5708364
19.52270363419109	2.4600365	1.5684503
19.540488089876686	2.4849386	1.5763688
19.55827302085503	2.5110059	1.5846153
19.576058427592674	2.498255	1.5805869
19.593844310556282	2.4555054	1.5670053
19.611630670212598	2.4404783	1.562203
19.629417507028506	2.453138	1.5662497
19.64720482147098	2.5222273	1.5881522
19.6649926140071	2.506675	1.5832483
19.682780885104084	2.5020866	1.5817986
19.70056963522921	2.4891522	1.5777047
19.718358864849908	2.5178072	1.5867599
19.7361485744337	2.507724	1.5835795
19.753938764448215	2.5153365	1.5859812
19.771729435361202	2.5343723	1.5919712
19.789520587640506	2.5680192	1.602504
19.807312221754092	2.5793066	1.606022
19.825104338170043	2.5742965	1.6044614
19.842896937356517	2.53036	1.5907105
19.860690019781824	2.5404267	1.5938716
19.87848358591436	2.5017054	1.581678
19.896277636222635	2.503962	1.5823913
19.914072171175278	2.517627	1.5867032
19.931867191241015	2.553488	1.5979637
19.94966269688869	2.5108314	1.5845603
19.967458688587264	2.4755168	1.5733775
19.985255166805807	2.4668987	1.5706364
20.00305213201348	2.4768589	1.5738039
20.020849584679578	2.4753242	1.5733163
20.038647525273507	2.4978185	1.5804489
20.05644595426477	2.4879715	1.5773305
20.07424487212299	2.5002851	1.581229
20.092044279317903	2.4704607	1.57177
20.109844176319353	2.4643362	1.5698204
20.127644563597304	2.461892	1.5690417
20.145445441621817	2.4735956	1.5727669
20.16324681086307	2.4433756	1.56313
20.181048671791373	2.4075263	1.5516205
20.198851024877122	2.407641	1.5516574
20.216653870590836	2.3976085	1.5484213
20.234457209403146	2.4230766	1.5566235
20.252261041784802	2.4222653	1.5563629
20.270065368206662	2.4021072	1.5498734
20.287870189139685	2.3691692	1.5392106
20.305675505054968	2.3720381	1.5401423
20.323481316423702	2.3941925	1.5473179
20.341287623717207	2.3936906	1.5471556
20.359094427406884	2.391961	1.5465966
20.376901727964288	2.3828876	1.5436604
20.39470952586107	2.3307176	1.5266688
20.41251782156899	2.2952976	1.515024
20.430326615559935	2.3241065	1.524502
20.448135908305886	2.377993	1.5420743
20.465945700278965	2.4219882	1.5562738
20.483755991951384	2.4282699	1.5582907
20.50156678379548	2.4167619	1.5545938
20.519378076283708	2.3727427	1.540371
20.537189869888635	2.3409104	1.5300034
20.55500216508294	2.3514607	1.5334473
20.572814962339415	2.3517325	1.533536
20.59062826213098	2.346412	1.5318003
20.60844206493066	2.3156369	1.5217217
20.626256371211593	2.3186998	1.5227277
20.644071181447032	2.295166	1.5149806
20.66188649611036	2.3009756	1.5168967
20.67970231567506	2.3179746	1.5224895
20.697518640614742	2.3214178	1.52362
20.715335471403122	2.2949874	1.5149215
20.73315280851404	2.2731328	1.5076913
20.750970652421447	2.2915149	1.513775
20.768789003599412	2.315792	1.5217726
20.786607862522136	2.3352976	1.5281681
20.8044272296639	2.3225992	1.5240076
20.82224710549913	2.2624102	1.5041311
20.84006749050237	2.2477167	1.4992387
20.857888385148268	3.8201	1.9545076
20.8757097899116	45.935673	6.777586
20.893531705267254	64.794395	8.049497
20.911354131690224	83.8228	9.155479
20.92917706965566	69.11998	8.313843
20.94700051963877	50.17223	7.0832357
20.96482448211493	29.420876	5.4241014
20.982648957559622	4.128886	2.0319662
21.00047394644843	2.2619495	1.5039779
21.01829944925707	2.2822843	1.5107231
21.036125466461375	2.2470515	1.4990169
21.053951998537297	2.242064	1.4973524
21.071779045960906	2.2426322	1.497542
21.089606609208378	2.2561347	1.5020435
21.10743468875603	2.2487042	1.499568
21.12526328508028	2.2346833	1.4948857
21.143092398657675	2.2259026	1.4919459
21.16092202996488	2.219592	1.4898295
21.17875217947867	2.2124603	1.4874341
21.19658284767596	2.1958454	1.4818385
21.21441403503377	2.2171984	1.489026
21.232245742029225	2.2178133	1.4892324
21.2500779691396	2.208291	1.486032
21.26791071684227	2.2053041	1.4850266
21.28574398561475	2.189449	1.4796788
21.30357777593465	2.1747508	1.4747037
21.321412088279704	2.157695	1.4689095
21.339246923127792	2.1483665	1.4657307
21.357082280956888	2.1713297	1.4735433
21.3749181622451	2.1905901	1.4800643
21.392754567470647	2.1875408	1.4790337
21.41059149711187	2.1921325	1.4805852
21.42842895164726	2.1824253	1.4773034
21.446266931555378	2.1492412	1.466029
21.464105437314945	2.1125166	1.45345
21.481944469404798	2.1340113	1.4608256
21.49978402830388	2.133632	1.4606957
21.51762411449127	2.1169863	1.4549867
21.53546472844617	2.075565	1.4406822
21.553305870647876	2.090488	1.445852
21.571147541575865	2.1142387	1.4540422
21.58898974170967	2.0967338	1.4480103
21.60683247152899	2.0667543	1.4376211
21.62467573151363	2.0625052	1.4361424
21.642519522143523	2.096315	1.4478656
21.660363843898722	2.0806096	1.4424318
21.6782086972594	2.0892863	1.4454364
21.696054082705864	2.0398695	1.4282401
21.713900000718535	2.0286329	1.4243008
21.73174645177795	2.000007	1.414216
21.749593436364794	2.0175369	1.4204003
21.767440954959845	2.0262773	1.4234737
21.785289008044032	2.0361266	1.4269291
21.803137596098388	2.0573902	1.4343605
21.820986719604086	2.031761	1.4253985
21.838836379042412	2.0065598	1.416531
21.85668657489478	1.9847369	1.4088069
21.87453730764273	1.9648416	1.401728
21.892388577767914	1.9656919	1.4020313
21.91024038575213	1.9895332	1.4105082
21.928092732077285	2.02111	1.4216576
21.945945617225426	2.0335066	1.4260107
21.963799041678694	2.0209174	1.4215897
21.981653005919398	31.356985	5.599731
21.999507510429943	78.180305	8.841963
22.01736255569286	73.12192	8.551135
22.035218142190818	4.184145	2.0455182
22.05307427040661	2.0244863	1.4228444
22.07093094082315	2.0311313	1.4251776
22.088788153923474	2.0435648	1.4295331
22.106645910190746	2.0190063	1.4209174
22.12450421010827	2.0080104	1.4170429
22.142363054159464	1.9824446	1.4079931
22.16022244282787	1.9938163	1.4120256
22.178082376597164	2.00658	1.4165381
22.195942855951145	1.984994	1.4088981
22.213803881373742	1.952196	1.3972101
22.231665453349002	1.94248	1.3937289
22.24952757236111	1.9342858	1.390786
22.26739023889438	1.9283181	1.388639
22.28525345343323	1.9701673	1.4036264
22.30311721646225	2.0076897	1.4169297
22.320981528466113	2.0315921	1.4253393
22.33884638992964	1.9969217	1.4131248
22.356711801337788	1.9664315	1.4022951
22.37457776317561	1.9766049	1.4059179
22.392444275928337	2.006616	1.4165508
22.410311340081282	1.9572526	1.3990184
22.428178956119904	1.9292074	1.3889592
22.446047124529805	1.9206682	1.3858818
22.46391584579669	1.9338983	1.3906467
22.481785120406414	1.9598162	1.3999344
22.49965494884496	1.9870155	1.4096154
22.51752533159841	1.9875189	1.409794
22.53539626915302	1.9470226	1.3953575
22.553267761995137	1.9390805	1.3925087
22.571139810611264	1.9585412	1.3994789
22.589012415488025	1.9875873	1.4098182
22.60688557711216	1.9736693	1.4048734
22.624759295970566	1.9993672	1.4139898
22.642633572550263	1.9808351	1.4074215
22.660508407338362	1.9871958	1.4096793
22.67838380082217	1.9485904	1.3959192
22.696259753489077	1.9503642	1.3965545
22.714136265826614	1.96277	1.4009889
22.73201333832246	1.9626703	1.4009534
22.74989097146439	1.9572984	1.3990349
22.76776916574035	1.9699605	1.4035528
22.785647921638393	1.9601966	1.4000702
22.803527239646712	1.9688888	1.403171
22.82140712025363	1.9513845	1.3969196
22.839287563947593	1.9353241	1.3911593
22.85716857121719	1.9440894	1.3943061
22.875050142551135	1.9435228	1.3941028
22.892932278438277	1.9198031	1.3855696
22.910814979367604	1.8761191	1.369715
22.928698245828222	1.8347198	1.3545183
22.946582078309387	1.8322359	1.3536011
22.96446647730047	1.8764848	1.3698485
22.98235144329098	1.9352828	1.3911444
23.000236976770562	1.9536791	1.3977407
23.018123078229	1.9539893	1.3978517
23.03600974815619	1.9200099	1.3856442
23.053896987042194	1.9080062	1.3813059
23.071784795377173	1.9094901	1.381843
23.08967317365145	1.9188217	1.3852154
23.10756212235546	1.8798913	1.3710912
23.125451641979787	1.8552758	1.3620851
23.143341733015134	1.8961887	1.3770217
23.161232395952357	1.9416844	1.3934433
23.179123631282426	1.9639208	1.4013996
23.197015439496468	1.9411336	1.3932457
23.214907821085717	1.9702709	1.4036634
23.23280077654157	1.983226	1.4082706
23.250694306355538	1.9841559	1.4086007
23.268588411019277	1.9365337	1.3915939
23.28648309102458	1.9021406	1.3791811
23.304378346863356	1.9064945	1.3807586
23.322274179027676	1.9180098	1.3849223
23.340170588009723	1.9038675	1.379807
23.358067574301852	1.9084796	1.3814774
23.37596513839651	1.9320848	1.3899945
23.39386328078629	1.9355973	1.3912574
23.411762001963947	1.9084712	1.3814743
23.429661302422353	1.8887343	1.3743123
23.4475611826545	1.8759652	1.3696588
23.46546164315356	1.9158136	1.3841292
23.48336268441279	1.9175634	1.3847611
23.501264306925638	1.9533411	1.3976198
23.51916651118564	1.9311888	1.3896722
23.537069297686497	1.9081974	1.3813752
23.554972666922037	1.8772681	1.3701344
23.57287661938623	1.904177	1.3799192
23.59078115557318	1.9462874	1.395094
23.608686275977128	1.9686251	1.403077
23.62659198109246	1.9615736	1.4005619
23.6444982714137	1.9504102	1.3965709
23.66240514743549	1.9055587	1.3804197
23.68031260965263	1.9006612	1.3786447
23.698220658560068	1.9640547	1.4014474
23.716129294652845	1.9550682	1.3982376
23.7340385184262	1.8979843	1.3776735
23.75194833037546	1.8326021	1.3537364
23.769858730996123	1.8261625	1.3513558
23.78776972078382	1.8051758	1.3435683
23.80568130023431	1.8452224	1.3583896
23.823593469843495	1.8993671	1.3781753
23.841506230107424	1.9155812	1.3840452
23.859419581522275	1.8861123	1.373358
23.87733352458438	1.8785355	1.3705968
23.89524805979019	1.8697665	1.3673941
23.913163187636318	1.8738518	1.3688871
23.931078908619508	1.8850541	1.3729727
23.948995223236633	1.9323415	1.3900869
23.966912131984735	1.9830078	1.4081931
23.98482963536096	2.0157826	1.4197826
24.002747733862616	2.0047534	1.4158931
24.020666427987155	1.9919653	1.41137
24.038585718232156	1.9839916	1.4085424
24.056505605095353	1.9705737	1.4037713
24.074426089074617	1.9849737	1.408891
24.092347170667946	2.0192842	1.4210153
24.110268850373515	2.0499833	1.4317763
24.128191128689586	2.0302045	1.4248525
24.146114006114626	2.0110176	1.4181035
24.164037483147187	2.033869	1.4261378
24.181961560286005	2.0536637	1.433061
24.199886238029926	2.0423381	1.429104
24.21781151687797	2.0572014	1.4342947
24.235737397329274	2.0723934	1.439581
24.253663879883135	2.0832827	1.4433582
24.271590965038975	2.054436	1.4333304
24.289518653296376	2.0399287	1.4282607
24.30744694515505	2.0433545	1.4294596
24.32537584111486	2.0418952	1.428949
24.34330534167581	2.0364265	1.4270341
24.361235447338046	2.0176437	1.4204378
24.379166158601876	1.993082	1.4117656
24.39709747596772	2.0269918	1.4237247
24.41502939993615	2.0702386	1.4388324
24.432961931007917	2.0378776	1.4275424
24.450895069683856	1.9863573	1.4093819
24.468828816465	1.9412141	1.3932745
24.4867631718525	1.9264959	1.3879827
24.504698136347656	1.9040842	1.3798856
24.52263371045192	1.950616	1.3966446
24.540569894666874	1.9752942	1.4054517
24.558506689494266	1.9830546	1.4082097
24.57644409543597	1.9900818	1.4107026
24.594382112994012	1.9947655	1.4123617
24.61232074267057	1.9818705	1.4077892
24.630259984967953	1.9486974	1.3959576
24.64819984038863	1.9711691	1.4039834
24.66614030943522	1.9530616	1.3975198
24.684081392610462	1.9550147	1.3982184
24.702023090417274	1.9613605	1.4004858
24.7199654033587	2.0175643	1.4204099
24.737908331937927	2.044932	1.4300112
24.755851876658305	2.048466	1.4312463
24.773796038023324	2.0418422	1.4289304
24.79174081653661	2.0786278	1.4417447
24.809686212701962	2.1266708	1.458311
24.827632227023294	2.1673293	1.4721853
24.8455788600047	2.1579669	1.469002
24.8635261121504	2.169799	1.4730238
24.88147398396475	2.1329706	1.4604692
24.899422475952303	2.093905	1.4470332
24.917371588617698	2.0964258	1.4479039
24.935321322465768	2.1878402	1.4791349
24.953271678001478	2.3138602	1.5211378
24.97122265572994	2.5116494	1.5848184
24.989174256156414	2.8520656	1.6888059
25.00712647978632	3.3181543	1.8215802
25.02507932712521	3.852251	1.9627153
25.043032798678798	4.358224	2.087636
25.060986894952933	5.0420694	2.2454553
25.078941616453637	5.8281207	2.41415
25.096896963687055	6.788885	2.6055489
25.114852937159508	7.8240705	2.797154
25.132809537377444	8.206546	2.864707
25.150766764847468	8.2269535	2.8682666
25.168724620076347	7.6969233	2.774333
25.186683103570985	6.684128	2.585368
25.204642215838426	5.564569	2.358934
25.222601957385894	4.2121778	2.052359
25.24056232872074	3.2199414	1.7944195
25.25852333035048	2.6231637	1.6196184
25.276484962782778	2.2667782	1.5055823
25.294447226525435	2.0855627	1.4441477
25.312410122086423	1.9898038	1.410604
25.330373649973843	1.9700892	1.4035987
25.348337810695988	1.969887	1.4035267
25.366302604761245	1.9571128	1.3989685
25.384268032678207	1.9350715	1.3910685
25.40223409495558	1.9041163	1.3798972
25.420200792102257	1.8657465	1.3659233
25.438168124627246	1.8805918	1.3713467
25.45613609303974	1.9067096	1.3808365
25.474104697849057	1.8949778	1.3765819
25.492073939564698	1.8821291	1.3719071
25.510043818696285	1.8875365	1.3738765
25.528014335753614	1.866736	1.3662854
25.54598549124664	1.859854	1.3637646
25.56395728568544	1.8060976	1.3439113
25.58192971958028	1.779395	1.3339397
25.59990279344156	1.8023767	1.3425262
25.617876507779833	1.8480903	1.3594449
25.635850863105826	1.880575	1.3713405
25.653825859930386	1.8978938	1.3776406
25.671801498764548	1.8816842	1.371745
25.68977778011949	1.8439358	1.357916
25.707754704506524	1.8450557	1.3583282
25.725732272437153	1.8609327	1.3641601
25.743710484423012	1.8583071	1.3631974
25.761689340975888	1.8664849	1.3661935
25.77966884260774	1.8431174	1.3576146
25.797648989830662	1.8546654	1.361861
25.815629783156922	1.8894523	1.3745735
25.83361122309895	1.9119896	1.382747
25.85159331016929	1.9026107	1.3793515
25.869576044880695	1.8809618	1.3714817
25.887559427746034	1.8894118	1.3745588
25.90554345927836	1.8563462	1.362478
25.92352813999086	1.8537482	1.3615242
25.94151347039689	1.872525	1.3684024
25.959499451009965	1.8780001	1.3704015
25.97748608234374	1.8483484	1.3595397
25.995473364912062	1.8340129	1.3542573
26.013461299228904	1.8161597	1.3476497
26.03144988580839	1.8006978	1.3419008
26.04943912516483	1.8310462	1.3531616
26.067429017812675	1.8682983	1.366857
26.085419564266537	1.8736569	1.3688159
26.103410765041186	1.859975	1.363809
26.12140262065155	1.8732936	1.3686832
26.139395131612723	1.8377105	1.3556218
26.157388298439948	1.8030099	1.342762
26.17538212164861	1.8136324	1.3467116
26.193376601754295	1.8507326	1.3604163
26.211371739272714	1.8349869	1.3546169
26.229367534719746	1.7875196	1.3369815
26.247363988611433	1.775405	1.3324432
26.26536110146397	1.8132625	1.3465743
26.283358873793727	1.8674265	1.3665382
26.301357306117204	1.8400337	1.3564785
26.319356398951104	1.8091685	1.3450533
26.33735615281224	1.7359805	1.3175662
26.35535656821762	1.734394	1.3169639
26.373357645684404	1.7675356	1.329487
26.39135938572991	1.8546857	1.3618685
26.409361788871614	1.8485227	1.3596039
26.427364855627165	1.8137194	1.346744
26.445368586514352	1.7412376	1.3195597
26.46337298205115	1.749938	1.3228523
26.48137804275568	1.8051281	1.3435506
26.499383769146217	1.8740658	1.3689653
26.517390161741215	1.8690574	1.3671347
26.53539722105928	1.8244509	1.3507223
26.553404947619182	1.7883743	1.3373011
26.571413341939856	1.7910954	1.3383181
26.589422404540397	1.7868603	1.336735
26.60743213594006	1.8384757	1.355904
26.62544253665827	1.868739	1.3670183
26.64345360721459	1.8331647	1.3539442
26.66146534812879	1.7829843	1.3352844
26.679477759920758	1.7651107	1.3285747
26.69749084311057	1.7967372	1.3404243
26.71550459821847	1.800519	1.3418342
26.733519025764842	1.8023956	1.3425332
26.751534126270258	1.8060334	1.3438874
26.769549900255434	1.8154399	1.3473827
26.787566348241267	1.7971542	1.3405797
26.80558347074881	1.8592656	1.3635489
26.823601268299267	1.8969991	1.3773159
26.841619741414036	1.8704704	1.3676515
26.85963889061465	1.8206725	1.349323
26.877658716422832	1.8358176	1.3549235
26.89567921936045	1.8255793	1.35114
26.913700399949544	1.8376902	1.3556143
26.93172225871233	1.8167825	1.3478807
26.949744796171174	1.8478416	1.3593534
26.967768012848605	1.838169	1.3557909
26.98579190926733	1.7972811	1.3406272
27.003816485950225	1.728647	1.3147802
27.021841743420318	1.7579973	1.325895
27.039867682200814	1.797744	1.3407998
27.057894302815072	1.8222622	1.3499119
27.07592160578664	1.8076911	1.344504
27.0939495916392	1.7995973	1.3414907
27.111978260896635	1.809263	1.3450885
27.13000761408296	1.815454	1.3473878
27.148037651722397	1.8493149	1.3598952
27.166068374339304	1.8767431	1.3699428
27.184099782458215	1.8667663	1.3662965
27.20213187660384	1.8122674	1.3462049
27.22016465730105	1.8013867	1.3421575
27.23819812507487	1.814394	1.3469944
27.256232280450533	1.8147722	1.3471348
27.274267123953383	1.7971872	1.3405921
27.292302656108987	1.8087884	1.344912
27.31033887744306	1.8342792	1.3543556
27.32837578848146	1.8631345	1.3649669
27.34641338975026	1.8520601	1.3609041
27.364451681775673	1.8291998	1.3524791
27.382490665084074	1.8036633	1.3430053
27.400530340202046	1.8718402	1.3681521
27.41857070765629	1.9137553	1.3833854
27.436611767973726	1.8772402	1.3701241
27.454653521681404	1.8379335	1.3557041
27.472695969306564	1.8101964	1.3454354
27.490739111376627	1.8080895	1.3446522
27.508782948419153	1.8300611	1.3527975
27.526827480961902	1.8536346	1.3614825
27.54487270953279	1.8523041	1.3609937
27.562918634659898	1.8203456	1.3492018
27.580965256871508	1.8164715	1.3477653
27.599012576696026	1.8144556	1.3470173
27.617060594662068	1.8155082	1.3474079
27.63510931129842	1.78378	1.3355823
27.65315872713401	1.7895432	1.337738
27.67120884269797	1.7830417	1.3353058
27.68925965851958	1.8196031	1.3489267
27.707311175128307	1.828815	1.3523369
27.725363393053787	1.852852	1.3611951
27.74341631282583	1.8447886	1.3582299
27.7614699349744	1.8474936	1.3592254
27.77952426002968	1.998923	1.4138327
27.797579288521973	2.0566478	1.4341017
27.815635020981784	2.5147967	1.585811
27.83369145793979	2.552362	1.5976113
27.85174859992682	2.3702211	1.5395522
27.869806447473923	2.2760365	1.5086539
27.887865001112267	2.0695436	1.4385909
27.905924261373233	2.0143845	1.4192902
27.92398422878836	1.9661753	1.4022037
27.94204490388936	1.9156741	1.3840787
27.96010628720813	1.9194458	1.3854406
27.978168379276728	1.8822511	1.3719516
27.9962311806274	1.8796767	1.371013
28.014294691792568	1.8505005	1.360331
28.0323589133048	1.8596214	1.3636794
28.050423845696887	1.8874117	1.373831
28.068489489501758	1.8732632	1.368672
28.086555845252523	1.8644638	1.3654537
28.104622913482487	1.895574	1.3767984
28.122690694725115	1.9958875	1.4127588
28.14075918951405	2.0000174	1.4142197
28.15882839838312	1.9749246	1.40532
28.176898321866304	1.8850057	1.3729551
28.1949689604978	1.8985672	1.3778851
28.213040314811945	1.9476035	1.3955656
28.23111238534327	1.9562552	1.398662
28.249185172626493	1.9059758	1.3805709
28.267258677196473	1.9136407	1.383344
28.285332899588294	1.9095731	1.381873
28.303407840337172	1.934536	1.3908759
28.321483499978545	1.8931662	1.3759238
28.33955987904799	1.8817662	1.3717748
28.357636978081285	1.8707182	1.3677421
28.37571479761439	1.8727009	1.3684666
28.393793338183425	1.9218137	1.386295
28.41187260032469	1.9377908	1.3920455
28.429952584574686	1.9703301	1.4036845
28.448033291470065	1.9982638	1.4135996
28.46611472154769	1.978421	1.4065635
28.484196875344566	1.9845304	1.4087336
28.502279753397914	2.0009513	1.4145498
28.52036335624511	1.9803157	1.4072369
28.538447684423716	1.9514589	1.3969463
28.556532738471482	1.954867	1.3981656
28.574618518926325	1.9936558	1.4119688
28.59270502632635	2.0143943	1.4192936
28.61079226120985	2.088532	1.4451754
28.628880224115274	2.1101449	1.4526337
28.646968915581287	2.0473816	1.4308674
28.66505833614671	2.001574	1.41477
28.68314848635055	1.9830537	1.4082094
28.701239366732004	1.9749342	1.4053235
28.71933097783044	1.9930801	1.4117649
28.737423320185403	2.040572	1.4284859
28.75551639433665	2.1161594	1.4547025
28.773610200824074	2.1264076	1.4582207
28.791704740187793	2.1260126	1.4580852
28.80980001296809	2.1321206	1.4601783
28.827896019705413	2.1931245	1.4809202
28.845992760940433	2.2353494	1.4951085
28.86409023721397	2.274999	1.50831
28.88218844906704	2.2855098	1.5117903
28.900287397040845	2.2435694	1.497855
28.918387081676755	2.1847374	1.4780858
28.936487503516343	2.2194567	1.4897841
28.954588663101365	2.3053145	1.5183263
28.97269056097374	2.3373194	1.5288295
28.990793197675597	2.3410916	1.5300627
29.00889657374923	2.375811	1.5413666
29.027000689737125	2.4175737	1.5548549
29.04510554618196	2.427187	1.5579432
29.06321114362659	2.4409165	1.5623432
29.08131748261405	2.4237547	1.5568413
29.099424563687567	2.4907122	1.578199
29.11753238739057	2.5683668	1.6026125
29.13564095426663	2.6241527	1.6199237
29.15375026485954	2.6508214	1.6281344
29.171860319713275	2.6636846	1.6320798
29.18997111937199	2.686332	1.6390034
29.20808266438002	2.7238507	1.6504092
29.226194955281898	2.758192	1.6607805
29.244307992622335	2.7845592	1.6686999
29.26242177694624	2.7856836	1.6690367
29.2805363087987	2.772499	1.6650823
29.29865158872498	2.7791948	1.6670917
29.316767617270557	2.8108687	1.6765646
29.334884394981064	2.8674114	1.6933433
29.353001922402367	2.943939	1.7157911
29.37112020008047	3.0319376	1.741246
29.389239228561596	3.1861694	1.7849845
29.407359008392152	3.4178028	1.8487301
29.42547954011872	3.7860541	1.9457785
29.44360082428809	4.384284	2.0938683
29.46172286144722	5.516921	2.3488126
29.479845652143283	7.163369	2.6764472
29.497969196923606	9.384084	3.0633452
29.516093496335728	11.948121	3.4566054
29.5342185509274	14.779593	3.8444238
29.55234436124651	17.076847	4.1324143
29.570470927841175	18.363155	4.2852254
29.588598251259686	17.864132	4.2265983
29.60672633205055	16.391705	4.048667
29.624855170762405	14.158249	3.762745
29.642984767944146	11.436713	3.381821
29.66111512414481	8.666613	2.943911
29.67924623991366	6.4343324	2.5365987
29.697378115800138	4.9522986	2.2253761
29.71551075235387	4.096318	2.0239363
29.733644150124675	3.6854897	1.919763
29.751778309662576	3.442718	1.8554562
29.769913231517766	3.3716245	1.8361983
29.78804891624066	3.3627992	1.8337936
29.806185364381818	3.3497503	1.8302323
29.82432257649206	3.3431304	1.8284229
29.842460553122333	3.2142634	1.7928367
29.86059929482382	3.1826582	1.7840006
29.878738802147872	3.2178626	1.7938402
29.896879075646048	3.2932088	1.81472
29.915020115870114	3.3129666	1.8201556
29.933161923371976	3.242614	1.8007259
29.951304498703777	3.1307728	1.769399
29.969447842417857	3.1679995	1.7798876
29.987591955066733	3.258296	1.805075
30.005736837203123	3.3133235	1.8202537
30.023882489379943	3.2646213	1.8068264
30.04202891215028	3.2392616	1.7997949
30.060176106067455	3.2271357	1.796423
30.078324071684946	3.2109554	1.7919139
30.09647280955646	3.2262108	1.7961656
30.114622320235863	3.1785166	1.7828395
30.132772604277257	3.1379807	1.7714347
30.1509236622349	3.2319272	1.7977562
30.16907549466328	3.2600524	1.8055615
30.18722810211705	3.131986	1.7697418
30.205381485151097	3.0936477	1.7588768
30.22353564432045	3.0707881	1.7523664
30.241690580180403	3.043719	1.7446258
30.25984629328638	3.040889	1.7438145
30.278002784194037	2.9917402	1.7296648
30.296160053459246	3.0091174	1.7346808
30.314318101638033	2.9720418	1.7239611
30.332476929286646	2.9111588	1.7062118
30.35063653696153	2.9060874	1.704725
30.368796925219307	2.869387	1.6939265
30.386958094616844	2.8956301	1.7016551
30.40512004571115	2.8779757	1.6964598
30.423282779059463	2.883369	1.6980486
30.441446295219233	2.8659024	1.6928977
30.459610594748067	2.8430936	1.6861476
30.47777567820382	2.863425	1.6921657
30.495941546144504	2.8873951	1.6992337
30.51410819912835	2.8749998	1.6955824
30.532275637713795	2.8294659	1.6821016
30.55044386245946	2.828306	1.6817569
30.56861287392416	2.8359554	1.6840295
30.586782672666956	2.8254192	1.6808983
30.604953259247047	2.78588	1.6690956
30.623124634223885	2.7567627	1.6603502
30.641296798157075	2.7768629	1.6663922
30.659469751606462	2.8124077	1.6770235
30.677643495132074	2.768194	1.663789
30.695818029294152	2.7393603	1.6551013
30.713993354653116	2.766855	1.6633866
30.73216947176962	2.7902722	1.6704108
30.75034638120448	2.832542	1.6830157
30.768524083518756	2.7892435	1.6701028
30.786702579273673	2.8056533	1.6750084
30.80488186903069	2.8694766	1.6939529
30.82306195335144	2.9569588	1.719581
30.841242832797782	3.0958219	1.7594948
30.85942450793176	3.4535744	1.8583795
30.877606979315637	3.825554	1.9559023
30.895790247511883	4.2559075	2.0629852
30.913974313083134	4.5985384	2.1444204
30.932159176592283	4.8825884	2.209658
30.95034483860237	4.8798795	2.209045
30.968531299676698	4.6862783	2.1647813
30.98671856037873	4.437126	2.1064487
31.00490662127215	4.0278034	2.006939
31.023095482920848	3.5600872	1.8868194
31.04128514588892	3.1274078	1.7684479
31.059475610740662	2.748438	1.6578413
31.07766687804056	2.573483	1.6042079
31.09585894835335	2.4750438	1.5732272
31.11405182224393	2.4875586	1.5771996
31.132245500277417	2.5190263	1.587144
31.15043998301914	2.4340742	1.5601519
31.168635271034628	2.32967	1.5263256
31.18683136488964	2.2963293	1.5153644
31.20502826515008	2.3494747	1.5327996
31.223225972382135	2.4122036	1.553127
31.241424487152155	2.480244	1.574879
31.259623810026692	2.4686425	1.5711914
31.27782394157253	2.369677	1.5393755
31.296024882356644	2.3566751	1.5351466
31.314226632946237	2.3775735	1.5419382
31.332429193908684	2.4801345	1.5748442
31.350632565811598	2.4952755	1.5796441
31.368836749222787	2.4996908	1.5810411
31.387041744710295	2.5232725	1.5884812
31.40524755284232	2.6207829	1.6188833
31.423454174187317	2.6160696	1.6174269
31.441661609313922	2.5771518	1.605351
31.459869858791002	2.5638015	1.6011876
31.478078923187628	2.4703598	1.5717379
31.496288803073064	2.3719308	1.5401074
31.514499499016807	2.3369982	1.5287244
31.532711011588546	2.3488467	1.5325948
31.550923341358178	2.3327417	1.5273316
31.56913648889584	2.3946528	1.5474666
31.587350454771844	2.4162755	1.5544374
31.605565239556732	2.345666	1.5315567
31.62378084382127	2.2724383	1.5074608
31.641997268136382	2.2992933	1.516342
31.660214513073274	2.279075	1.5096605
31.67843257920331	2.2491486	1.4997162
31.6966514670981	2.2029567	1.484236
31.71487117732944	2.2697449	1.5065672
31.733091710469346	2.3286583	1.5259942
31.751313067090052	2.3862767	1.5447578
31.769535247764008	2.4792495	1.5745633
31.787758253063878	2.455389	1.5669681
31.805982083562526	2.3401453	1.5297533
31.824206739833024	2.2935157	1.5144358
31.84243222244869	2.2282887	1.4927454
31.860658531983013	2.1454206	1.4647254
31.878885669009737	2.171082	1.4734592
31.897113634102784	2.2330513	1.4943397
31.91534242783632	2.246765	1.4989213
31.933572050784694	2.238951	1.4963125
31.951802503522508	2.233207	1.4943918
31.970033786624548	2.1965625	1.4820805
31.988265900665834	2.1872585	1.4789383
32.006498846221575	2.2422557	1.4974164
32.02473262386724	2.2890906	1.5129741
32.04296723417845	2.2408838	1.4969581
32.0612026777311	2.1134002	1.4537538
32.07943895510129	2.1860633	1.4785342
32.097676066865304	2.3313856	1.5268875
32.115914013599685	2.3508809	1.5332582
32.13415279588115	2.211122	1.4869843
32.152392414286666	2.0958443	1.4477031
32.1706328693934	2.0186543	1.4207935
32.18887416177875	2.0629365	1.4362926
32.20711629202032	2.1801343	1.4765278
32.225359260695924	2.157839	1.4689585
32.243603068383614	2.0965056	1.4479315
32.26184771566166	2.1291506	1.4591609
32.28009320310852	2.176816	1.4754037
32.2983395313029	2.2042618	1.4846756
32.31658670082372	2.17534	1.4749033
32.33483471225012	2.1174295	1.455139
32.35308356616143	2.0647888	1.4369373
32.371333263137245	2.124091	1.4574261
32.38958380375734	2.1642494	1.4711388
32.407835188601744	2.135945	1.4614873
32.42608741825067	2.1101828	1.4526469
32.444340493284585	2.0701504	1.4388018
32.46259441428416	2.0505793	1.4319844
32.48084918183028	2.0762172	1.4409084
32.49910479650405	2.140623	1.4630868
32.51736125888683	2.1869879	1.4788468
32.53561856956014	2.1093996	1.4523772
32.5538767291058	2.0961754	1.4478174
32.572135738105764	2.1413639	1.4633399
32.59039559714228	2.142369	1.4636834
32.608656306797776	2.058616	1.4347878
32.62691786765491	2.011769	1.4183685
32.645180280296586	2.0224335	1.4221228
32.663443545305896	2.0498545	1.4317313
32.68170766326619	2.05415	1.4332306
32.69997263476099	1.9830159	1.408196
32.7182384603741	2.0492582	1.4315231
32.7365051406895	2.064686	1.4369016
32.75477267629144	1.9803001	1.4072313
32.77304106776434	1.8515631	1.3607216
32.79131031569289	1.9442583	1.3943666
32.809580420661966	2.077174	1.4412404
32.827851383256714	2.1024072	1.449968
32.84612320406245	2.03386	1.4261346
32.86439588366476	1.9832047	1.408263
32.88266942264945	1.9737126	1.4048887
32.9009438216025	1.9687732	1.4031298
32.9192190811102	1.9907807	1.4109503
32.937495201758985	1.947538	1.3955421
32.95577218413556	1.8793434	1.3708915
32.974050028826866	1.831553	1.3533489
32.992328736420035	1.8412751	1.356936
33.010608307502444	1.9890066	1.4103215
33.02888874266169	2.159934	1.4696714
33.047170042485604	2.0906625	1.4459124
33.06545220756225	1.9866251	1.4094769
33.083735238479896	1.9678489	1.4028003
33.10201913582707	1.9155648	1.3840393
33.12030390019248	1.8630018	1.3649182
33.138589532165135	2.001172	1.4146279
33.15687603233419	2.0452292	1.4301151
33.17516340128909	2.0306652	1.4250141
33.19345163961947	2.0962894	1.4478568
33.211740747915215	2.109162	1.4522954
33.23003072676643	1.9600105	1.4000038
33.248321576763466	1.8975909	1.3775307
33.266613298496885	1.9363112	1.3915141
33.28490589255747	1.910112	1.382068
33.30319935953626	1.8796723	1.3710114
33.32149370002451	1.8598957	1.3637799
33.339788914613706	1.8665539	1.3662188
33.358085003895575	1.8960415	1.3769683
33.376381968462034	1.9259065	1.3877703
33.39467980890529	1.9080464	1.3813205
33.41297852581774	1.9133453	1.3832372
33.43127811979204	1.9398023	1.3927679
33.44957859142105	1.8894228	1.3745627
33.467879941297866	1.7886943	1.3374207
33.486182170015844	1.8367817	1.3552792
33.50448527816853	1.9677267	1.4027568
33.522789266349754	1.9558023	1.3985001
33.541094135153514	1.9406487	1.3930717
33.55939988517411	1.9425277	1.3937459
33.57770651700602	1.8407139	1.3567291
33.59601403124398	1.772193	1.3312374
33.61432242848296	1.8197854	1.3489943
33.632631709318154	1.8414277	1.3569921
33.650941874344994	1.8314563	1.3533131
33.66925292415916	1.8825746	1.3720695
33.68756485935654	1.99647	1.4129649
33.70587768053328	2.0177119	1.4204619
33.724191388285746	1.9776961	1.4063058
33.74250598321054	1.9886824	1.4102066
33.760821465904506	1.9445795	1.3944818
33.77913783696474	1.902549	1.3793292
33.79745509698852	1.8742452	1.3690307
33.815773246573414	1.8476671	1.3592892
33.8340922863172	1.8475475	1.3592452
33.852412216817896	1.9051679	1.3802782
33.87073303867377	1.9162402	1.3842833
33.889054752483304	1.9748	1.4052758
33.907377358845245	1.9736642	1.4048716
33.92570085835853	1.9586049	1.3995017
33.94402525162239	1.9384519	1.392283
33.96235053923627	1.8617538	1.364461
33.980676721799824	1.9147642	1.3837501
33.999003799912984	1.9797807	1.4070468
34.01733177417592	1.8708847	1.3678029
34.03566064518901	1.7954403	1.3399404
34.0539904135529	1.7548659	1.3247135
34.07232107986846	1.775752	1.3325734
34.090652644736785	1.7753507	1.3324229
34.108985108759235	1.8172067	1.3480381
34.12731847253742	1.7948496	1.33972
34.14565273667313	1.8605881	1.3640337
34.16398790176847	1.9132378	1.3831984
34.18232396842574	2.0151682	1.4195662
34.20066093724749	2.0579088	1.4345413
34.21899880883651	2.0629349	1.436292
34.23733758379583	2.0796373	1.4420948
34.25567726272874	1.9788465	1.4067148
34.27401784623872	1.8144865	1.3470287
34.29235933492957	1.8920549	1.3755199
34.31070172940526	1.9991843	1.4139252
34.32904503027003	2.000648	1.4144427
34.347389238128386	1.9811149	1.4075208
34.36573435358502	2.0122378	1.4185337
34.38408037724492	2.0631237	1.4363577
34.402427309713296	1.9471902	1.3954176
34.42077515159559	1.9558378	1.3985127
34.43912390349752	1.9326872	1.3902112
34.45747356602499	1.8196664	1.3489501
34.47582413978423	1.7818673	1.334866
34.49417562538163	1.886449	1.3734806
34.51252802342388	1.9251235	1.3874881
34.53088133451789	2.0548313	1.4334682
34.54923555927084	1.9708315	1.4038631
34.567590698290104	1.8779045	1.3703666
34.58594675218336	1.8627589	1.3648293
34.6043037215585	1.966258	1.4022332
34.62266160702365	1.9731334	1.4046826
34.641020409187234	1.973206	1.4047085
34.65938012865785	1.946167	1.3950509
34.677740766044394	2.0454428	1.4301897
34.69610232195598	2.0571415	1.4342738
34.714464797002016	1.9663918	1.4022809
34.73282819179208	1.9104123	1.3821766
34.751192506936064	1.9262303	1.387887
34.76955774304408	1.9766498	1.4059337
34.7879239007265	1.8942142	1.3763045
34.80629098059391	2.0391526	1.427989
34.824658983257194	2.104801	1.4507933
34.843027909327446	2.070169	1.4388082
34.86139775941603	2.0488892	1.4313941
34.879768534134534	2.156823	1.4686126
34.89814023409483	2.3713884	1.5399313
34.91651285990901	2.2231264	1.4910152
34.93488641218944	1.917855	1.3848665
34.95326089154871	1.9030291	1.3795033
34.97163629859967	1.918004	1.3849202
34.99001263395542	1.9073151	1.3810558
35.00838989822934	2.079816	1.4421568
35.02676809203499	2.0808637	1.4425199
35.04514721598624	1.8955661	1.3767956
35.063527270697215	1.8256065	1.35115
35.081908256782256	1.9178872	1.384878
35.10029017485597	1.8251354	1.3509758
35.11867302553321	1.782497	1.3351018
35.137056809429104	1.836775	1.3552767
35.155441527159006	1.950087	1.3964552
35.173827179338524	1.9502727	1.3965217
35.19221376658354	1.9227191	1.3866215
35.21060128951017	2.0493846	1.4315672
35.2289897487348	2.0755517	1.4406775
35.24737914487405	2.03821	1.4276589
35.26576947854479	1.9236766	1.3869667
35.28416075036418	1.8470806	1.3590734
35.30255296094958	1.862528	1.3647447
35.32094611091867	1.768212	1.3297414
35.33934020088932	1.814605	1.3470727
35.35773523147969	1.8510685	1.3605398
35.3761312033082	1.7744477	1.332084
35.394528116993506	1.653736	1.2859766
35.41292597315452	2.051211	1.432205
35.431324772410434	2.373451	1.5406009
35.449724515380666	2.5346696	1.5920646
35.46812520268491	2.372006	1.5401318
35.486526834943106	2.3656392	1.5380634
35.504929412775454	2.6738837	1.6352015
35.52333293680242	2.448629	1.5648096
35.54173740764471	2.2002468	1.4833229
35.560142825923286	2.0672517	1.4377941
35.5785491922594	2.091689	1.4462672
35.59695650727454	2.0452445	1.4301205
35.61536477159042	1.5075935	1.227841
