0.008763373481513119	0.0	0.0
0.026290120649546365	0.0	0.0
0.043816868432600686	0.0	0.0
0.06134361724069026	0.0	0.0
0.07887036748382949	0.026025042	0.16132279
0.0963971195720331	0.13378716	0.36576927
0.11392387391531617	0.25469837	0.5046765
0.1314506309236943	0.25960505	0.5095145
0.1489773910071836	0.15467384	0.39328596
0.16650415457580078	0.057511043	0.2398146
0.18403092203956356	0.047057845	0.2169282
0.20155769380849	0.059353463	0.24362566
0.2190844702925996	0.12141165	0.34844175
0.2366112519019124	0.123700775	0.3517112
0.2541380390464497	0.14589751	0.3819653
0.27166483213623416	0.16108577	0.4013549
0.28919163158128947	0.12989679	0.36041197
0.3067184377916406	0.14860207	0.38548937
0.324245251177314	0.14681531	0.38316485
0.34177207214833777	0.15885139	0.39856166
0.3592989011147415	0.16200529	0.4024988
0.37682573848655654	0.125647	0.35446718
0.39435258467381573	0.13942666	0.3733988
0.41187944008655414	0.17814837	0.42207626
0.42940630513480854	0.19603196	0.44275495
0.446933180228618	0.18580776	0.43105423
0.4644600657780234	0.14644192	0.38267732
0.48198696219306775	0.132527	0.36404258
0.49951386988379676	0.117115535	0.34222147
0.5170407892602581	0.12738839	0.3569151
0.5345677207325025	0.11382657	0.33738193
0.5520946647105822	0.118812196	0.34469146
0.5696216216045534	0.10400991	0.32250568
0.5871485918244737	0.10554641	0.32487908
0.6046755757804043	0.1335458	0.36543918
0.6222025738824094	0.14039165	0.37468874
0.6397295865405557	0.16993885	0.4122364
0.6572566141649129	0.16651265	0.40805963
0.6747836571655547	0.17017728	0.4125255
0.6923107159525568	0.16439475	0.40545622
0.7098377909359992	0.13640088	0.3693249
0.7273648825259653	0.13967432	0.37373027
0.7448919911325411	0.14957218	0.38674563
0.762419117165817	0.16064267	0.40080252
0.7799462610358868	0.15462965	0.39322975
0.7974734231528482	0.15815605	0.3976884
0.8150006039268024	0.17429307	0.41748422
0.8325278037678551	0.23140857	0.48104945
0.8500550230861152	0.2102158	0.45849296
0.8675822622916969	0.22281231	0.47202998
0.8851095217947171	0.21207216	0.46051294
0.9026368020052984	0.21243776	0.46090972
0.9201641033335665	0.21731278	0.4661682
0.9376914261896523	0.20026271	0.44750723
0.9552187709836915	0.18104023	0.42548823
0.9727461381258234	0.1808064	0.42521337
0.990273528026193	0.16919428	0.41133234
1.0078009410949496	0.19934797	0.446484
1.0253283777422473	0.19644845	0.44322506
1.0428558383782454	0.2249703	0.47431034
1.0603833234131086	0.26875788	0.5184186
1.0779108332570058	0.29960132	0.5473585
1.0954383683201119	0.28624824	0.5350217
1.112965929012607	0.3183017	0.56418234
1.1304935157446763	0.48331276	0.695207
1.1480211289265108	0.58196604	0.762867
1.1655487689683062	1.4935036	1.2220899
1.1830764362802655	1.819455	1.3488717
1.200604131272596	2.1305647	1.4596454
1.2181318543555117	2.3712394	1.5398829
1.235659605939232	2.3897905	1.5458947
1.253187386433982	4.0008345	2.0002086
1.270715196249994	6.2187285	2.493738
1.2882430357975057	11.453945	3.3843677
1.3057709054867608	16.112185	4.0139985
1.3232988057280106	22.007318	4.691196
1.3408267369315112	27.215029	5.2168026
1.358354699507526	30.932957	5.5617404
1.3758826938663256	34.9005	5.907665
1.3934107204181858	37.070282	6.0885367
1.410938779573391	37.523598	6.125651
1.4284668717422309	37.924774	6.1583095
1.4459949973350033	37.41979	6.117172
1.4635231567620117	37.60314	6.13214
1.4810513504335687	37.035564	6.0856853
1.4985795787599925	36.535908	6.044494
1.5161078421516088	36.25538	6.021244
1.5336361410187505	35.306545	5.9419312
1.5511644757717598	34.84052	5.902586
1.5686928468209842	34.678818	5.888872
1.58622125457678	35.066242	5.9216757
1.6037496994495108	36.360706	6.029984
1.621278181849548	36.830246	6.068793
1.6388067021872719	37.700768	6.140095
1.6563352608730693	37.114666	6.0921807
1.673863858317336	35.987442	5.9989533
1.6913924949304753	35.44128	5.953258
1.7089211711228998	34.534515	5.8766074
1.7264498873050296	33.595497	5.796162
1.7439786438872935	32.267975	5.6804905
1.7615074412801288	31.032074	5.570644
1.779036279893981	30.301712	5.504699
1.796565160139305	29.315578	5.4143863
1.814094082426564	28.799484	5.366515
1.8316230471662298	28.503695	5.3388853
1.849152054768784	28.03237	5.2945604
1.8666811056447168	27.912401	5.283219
1.8842102002045273	27.043816	5.200367
1.901739338858724	26.289791	5.127357
1.9192685220178245	25.339968	5.033882
1.9367977500923557	24.637356	4.963603
1.9543270234928547	24.037569	4.9028125
1.971856342629867	23.49046	4.846696
1.9893857079139496	23.055923	4.8016586
2.006915119755667	22.621838	4.756242
2.0244445785655945	22.009853	4.691466
2.0419740847543175	21.651335	4.6530995
2.0595036387324317	21.1664	4.6006956
2.0770332409105414	20.63177	4.5422206
2.094562891699263	20.185537	4.4928317
2.1120925915092217	19.491123	4.414875
2.129622340751053	19.116217	4.3722095
2.1471521398354043	187.2418	13.683633
2.1646819891729323	443.61508	21.062172
2.182211889174303	439.97794	20.97565
2.1997418402501974	452.56174	21.273499
2.2172718428113023	432.59875	20.79901
2.234801897268317	320.4458	17.901
2.2523320040319548	16.772816	4.095463
2.269862163512935	16.267324	4.033277
2.287392376121992	16.05746	4.0071764
2.304922642269869	15.913467	3.9891686
2.322452962367322	15.751667	3.968837
2.3399833368251164	15.329382	3.9152756
2.357513766054032	15.101979	3.8861265
2.3750442504648586	14.865122	3.8555312
2.3925747904683963	14.567352	3.81672
2.410105386475459	14.44947	3.8012457
2.4276360388968707	13.966793	3.7372172
2.445166748143469	13.705576	3.7021043
2.4626975146261025	13.47108	3.670297
2.4802283387556323	13.324341	3.650252
2.4977592209429305	13.134379	3.6241384
2.5152901615988825	12.949479	3.5985384
2.5328211611343865	12.913596	3.5935493
2.5503522199603523	12.531861	3.540037
2.5678833384877024	12.318209	3.5097306
2.5854145171273712	11.930136	3.4540029
2.6029457562903064	11.6653185	3.415453
2.620477056387469	11.424579	3.3800263
2.6380084178298326	11.280308	3.3586168
2.655539841028383	11.144959	3.3384068
2.673071326394119	11.114061	3.3337758
2.6906028743380523	10.9842	3.314242
2.708134485271211	10.726275	3.2750993
2.7256661596046325	10.609576	3.2572343
2.743197897749369	10.3549185	3.217906
2.760729700116486	10.350574	3.2172308
2.778261567117063	10.133338	3.1832905
2.795793499162193	10.003581	3.1628437
2.8133254966629817	9.96212	3.1562827
2.830857560030551	9.876667	3.1427164
2.8483896896760337	9.807038	3.1316192
2.865921886010578	9.706513	3.1155279
2.883454149445347	9.496291	3.0816052
2.9009864803915177	9.355085	3.0586083
2.91851887926028	9.245616	3.0406604
2.9360513464628384	9.023955	3.00399
2.953583882410413	8.825449	2.9707658
2.9711164875142373	8.615434	2.935206
2.9886491621855606	8.528257	2.9203181
3.0061819068356455	8.452705	2.9073536
3.023714721875769	8.460068	2.9086196
3.041247607717225	8.411313	2.9002264
3.0587805647713213	8.323219	2.884999
3.0763135934493806	8.217895	2.866687
3.0938466941627407	8.159176	2.8564272
3.1113798673227544	8.067257	2.8402917
3.1289131133407904	7.821571	2.7967072
3.1464464326282315	7.732007	2.7806487
3.1639798255964786	7.649172	2.7657137
3.1815132926569443	7.610823	2.7587721
3.1990468342210603	7.589721	2.7549448
3.216580450700272	7.435977	2.7268987
3.2341141425060416	7.3514066	2.7113478
3.251647910049847	7.257897	2.6940484
3.2691817537431813	7.142185	2.6724868
3.286715673997555	7.0697103	2.6588926
3.3042496712244938	6.983428	2.6426177
3.32178374583554	6.932823	2.6330254
3.339317898242251	6.8917723	2.6252186
3.3568521288562034	6.794787	2.606681
3.3743864380889876	6.727846	2.5938091
3.3919208263522127	6.5434265	2.5580122
3.4094552940575023	6.4927807	2.5480936
3.4269898416164972	6.4693656	2.5434947
3.444524469440858	6.3847246	2.5268013
3.4620591779422587	6.374236	2.524725
3.479593967532391	6.3007774	2.510135
3.4971288386229658	6.300344	2.5100486
3.5146637916257086	6.3145375	2.5128744
3.5321988269523628	6.2305064	2.4960983
3.5497339450146903	6.1074963	2.471335
3.5672691462244708	6.120499	2.4739642
3.5848044309934988	6.147741	2.4794638
3.60233979973359	6.1420245	2.4783108
3.619875252856575	6.2670465	2.503407
3.6374107907743034	6.199431	2.4898655
3.6549464138986427	6.2362347	2.4972453
3.6724821226414788	6.22358	2.4947104
3.690017917414714	6.135575	2.4770093
3.7075537986302702	6.211179	2.4922237
3.7250897667000857	6.1958675	2.48915
3.7426258220361235	6.307434	2.5114605
3.7601619650503553	6.642918	2.577386
3.777698196154779	7.1953645	2.6824176
3.7952345157614067	8.170081	2.8583355
3.8127709242822716	8.909831	2.984934
3.830307422129425	11.018612	3.3194294
3.847844009714936	29.791227	5.458134
3.8653806874508954	97.40113	9.869201
3.882917455749409	96.74221	9.835762
3.900454315022606	96.58096	9.827561
3.917991265682631	41.15441	6.41517
3.9355283081416506	10.749083	3.2785792
3.9530654428118495	8.66083	2.9429288
3.970602670105433	7.413603	2.722793
3.9881399904346244	6.521664	2.5537548
4.005677404211669	6.359064	2.5217185
4.023214911848827	6.319343	2.5138304
4.0407525137583855	6.355299	2.5209718
4.058290210352644	6.3366265	2.5172658
4.075828002043927	6.2902536	2.5080378
4.0933658892445814	6.166171	2.4831777
4.110903872366966	6.0712523	2.4639912
4.128441951823468	6.102872	2.4703991
4.145980128026488	6.107834	2.4714031
4.163518401388452	6.151573	2.4802365
4.181056772321807	6.163228	2.482585
4.1985952412390155	6.102204	2.470264
4.216133808552567	6.0447383	2.458605
4.233672474674966	6.0938373	2.46857
4.251211240018741	6.3212533	2.5142102
4.268750104996445	6.5684156	2.562892
4.286289070020643	7.5490484	2.747553
4.303828135503928	9.283898	3.046949
4.3213673018589125	29.468256	5.4284673
4.3389065694982305	90.56684	9.516662
4.356445938834537	165.64745	12.87041
4.3739854102805085	171.21233	13.084813
4.391524984248844	172.26213	13.1248665
4.409064661152262	136.41965	11.679882
4.426604441403504	96.862274	9.841864
4.444144325415337	75.746376	8.703239
4.461684313600543	21.680613	4.6562443
4.47922440637193	21.930744	4.6830273
4.496764604142329	20.174835	4.4916406
4.5143049073245916	18.244904	4.271405
4.531845316331589	16.106722	4.013318
4.5493858315762195	13.353162	3.654198
4.566926453471405	11.263617	3.356131
4.584467182430081	9.359633	3.0593517
4.602008018865218	8.243897	2.871219
4.619548963189798	7.525863	2.7433307
4.637090015816834	6.9685006	2.6397917
4.654631177159353	6.612333	2.5714457
4.672172447630417	6.3394976	2.5178359
4.689713827643102	6.1820083	2.4863644
4.7072553176105085	5.968922	2.4431376
4.724796917945764	5.774204	2.4029572
4.742338629062015	5.7197146	2.3915925
4.759880451372434	5.7565737	2.399286
4.777422385290215	5.7188716	2.3914163
4.794964431228581	5.6396127	2.3747869
4.812506589600768	5.590785	2.364484
4.830048860820047	5.4544296	2.335472
4.847591245299709	5.5487266	2.3555734
4.8651337434530655	5.589866	2.3642898
4.882676355693457	5.6620097	2.3794978
4.900219082434242	5.5969896	2.3657959
4.917761924088813	5.488436	2.3427413
4.935304881070575	5.4010177	2.324009
4.952847953792969	5.370153	2.317359
4.970391142669449	5.3872795	2.3210514
4.9879344481135055	5.3907104	2.3217902
5.005477870538642	5.4281964	2.329849
5.023021410358394	5.384568	2.3204672
5.040565067986324	5.437178	2.3317757
5.05810884383601	5.4241633	2.3289833
5.075652738321066	5.4332004	2.3309226
5.09319675185512	5.372405	2.3178449
5.110740884851836	5.32442	2.3074706
5.128285137724894	5.26238	2.2939878
5.145829510888007	5.249929	2.2912724
5.163374004754908	5.2217674	2.2851186
5.1809186197393595	5.217793	2.2842488
5.198463356255145	5.247761	2.2907991
5.216008214716077	5.1755505	2.2749836
5.233553195535998	5.141597	2.267509
5.251098299128764	5.128474	2.2646134
5.268643525908272	5.078236	2.2534943
5.286188876288432	5.1614776	2.2718885
5.3037343506831895	5.1660223	2.2728884
5.32127994950651	5.232075	2.287373
5.3388256731723915	5.1408567	2.2673457
5.356371522094851	5.1352143	2.2661011
5.373917496687938	5.135391	2.2661402
5.391463597365729	5.144419	2.2681313
5.40900982454232	5.148971	2.2691345
5.426556178631843	5.1595645	2.2714674
5.444102660048449	5.2183847	2.2843785
5.4616492692063225	5.1729765	2.2744179
5.479196006519669	5.0645924	2.250465
5.496742872402727	5.0309887	2.2429864
5.514289867269756	5.039812	2.2449527
5.531836991535049	5.090136	2.256133
5.549384245612924	5.0722156	2.252158
5.566931629917724	5.007431	2.237729
5.584479144863822	4.993615	2.23464
5.6020267908656205	4.9903345	2.2339056
5.619574568337545	5.011125	2.2385542
5.637122477694054	5.031232	2.2430408
5.654670519349629	5.0592527	2.2492783
5.672218693718784	5.1192536	2.2625768
5.689767001216059	5.174871	2.2748342
5.707315442256021	5.1019835	2.258757
5.724864017253266	5.075032	2.2527833
5.7424127266224225	5.060661	2.2495914
5.75996157077814	5.1337705	2.2657826
5.777510550135105	5.190758	2.2783237
5.795059665108022	5.221943	2.2851572
5.812608916111639	5.2857037	2.2990658
5.830158303560715	5.347216	2.3124049
5.847707827870055	5.295923	2.3012874
5.86525748945448	5.3192854	2.3063576
5.8828072887288485	5.4007173	2.3239443
5.900357226108044	5.4736457	2.3395824
5.917907302006979	5.5994067	2.3663065
5.9354575168406	6.1875787	2.4874845
5.9530078710238765	6.807882	2.609192
5.970558364971812	7.2177854	2.6865935
5.988108999099438	7.4669533	2.7325726
6.005659773821818	7.975381	2.8240716
6.023210689554039	7.8183722	2.7961352
6.040761746711227	8.250967	2.8724496
6.058312945708531	7.607895	2.7582412
6.075864286961132	7.1482186	2.6736152
6.093415770884244	6.477058	2.5450065
6.1109673978931065	5.9799976	2.4454033
6.128519168402993	5.508113	2.346937
6.146071082829204	5.402215	2.3242664
6.163623141587075	5.2484016	2.290939
6.181175345091969	5.1171465	2.2621112
6.198727693759281	5.0609717	2.2496603
6.216280188004435	5.045031	2.2461147
6.233832828242885	5.0452385	2.2461607
6.251385614890126	5.0750084	2.2527778
6.268938548361669	5.0241165	2.2414541
6.286491629073067	5.0459676	2.246323
6.304044857439898	5.0010715	2.2363076
6.321598233877777	4.9277425	2.219852
6.339151758802344	4.8439136	2.2008893
6.356705432629277	4.8571005	2.203883
6.37425925577428	4.861235	2.2048209
6.391813228653095	4.862502	2.2051082
6.409367351681486	4.8922486	2.2118428
6.426921625275259	4.968054	2.228913
6.44447604985025	5.078324	2.2535136
6.46203062582232	5.113279	2.261256
6.47958535360737	5.0721784	2.2521498
6.497140233621328	5.027003	2.2420979
6.514695266280161	5.0196953	2.2404675
6.532250451999859	4.9890656	2.2336216
6.549805791196454	4.9649916	2.2282262
6.567361284286002	4.9425144	2.2231767
6.584916931684597	4.9980936	2.2356417
6.602472733808367	5.079028	2.25367
6.6200286910734665	5.0697412	2.2516086
6.637584803896092	5.0582085	2.249046
6.655141072692462	4.9536405	2.2256775
6.672697497878842	4.9284635	2.2200143
6.690254079871514	4.8550024	2.203407
6.707810819086808	4.922501	2.218671
6.725367715941078	4.963556	2.2279038
6.742924770850719	4.9271865	2.2197266
6.760481984232151	4.886364	2.2105122
6.778039356501836	4.795675	2.189903
6.795596888076266	4.8120427	2.193637
6.813154579371963	4.8992085	2.2134156
6.830712430805492	4.913881	2.2167275
6.84827044279344	4.959874	2.2270775
6.865828615752445	4.9415536	2.2229605
6.883386950099159	4.934831	2.221448
6.900945446250287	4.8776336	2.2085366
6.918504104622553	4.9077325	2.2153404
6.936062925632727	4.9508157	2.2250428
6.953621909697607	4.9895797	2.2337368
6.971181057234028	4.996131	2.2352026
6.988740368658859	4.9366655	2.221861
7.006299844389007	4.948059	2.2244234
7.023859484841407	5.037424	2.2444208
7.041419290433036	5.199172	2.2801692
7.058979261580902	5.4624186	2.3371818
7.0765393987020495	5.700363	2.3875434
7.094099702213559	6.0391316	2.4574645
7.111660172532549	6.312208	2.5124109
7.129220810076164	6.5908656	2.5672681
7.146781615261595	7.2453113	2.6917117
7.16434258850606	7.5114775	2.7407074
7.181903730226821	8.114235	2.8485496
7.1994650408411704	8.226515	2.86819
7.217026520766437	8.301235	2.8811865
7.234588170419983	8.415754	2.900992
7.252149990219215	8.293557	2.8798537
7.269711980581568	8.216026	2.8663611
7.2872741419245175	8.07034	2.8408344
7.304836474665574	7.644385	2.764848
7.322398979222286	7.3267636	2.7067995
7.339961656012233	7.0402565	2.6533482
7.357524505453039	6.692641	2.587014
7.375087527962357	6.456065	2.5408788
7.392650723957886	6.2136	2.4927094
7.410214093857353	5.9117913	2.4314175
7.427777638078528	5.6569138	2.3784268
7.445341357039213	5.472955	2.3394349
7.4629052511572525	5.2936378	2.3007908
7.480469320850524	5.2430687	2.289775
7.498033566536948	5.196865	2.2796633
7.5155979886344735	5.159821	2.271524
7.5331625875610975	5.105164	2.259461
7.550727363734844	5.0689373	2.25143
7.568292317573788	5.1256475	2.2639892
7.585857449496025	5.11577	2.2618067
7.603422759919705	5.0874457	2.2555368
7.620988249263007	5.0897894	2.256056
7.638553917944147	5.0934515	2.2568676
7.656119766381391	5.1053777	2.2595084
7.673685794993023	5.1116285	2.2608912
7.691252004197388	5.0956063	2.257345
7.70881839441285	5.166989	2.273101
7.726384966057826	5.1648	2.2726197
7.743951719550762	5.171036	2.273991
7.761518655310149	5.1238127	2.2635841
7.779085773754511	5.1179647	2.262292
7.796653075302419	5.1844883	2.2769473
7.814220560372475	5.211027	2.2827675
7.831788229383323	5.1991067	2.280155
7.8493560827536495	5.2083216	2.2821748
7.866924120902174	5.230108	2.286943
7.884492344247663	5.285904	2.2991095
7.9020607532089135	5.3313346	2.3089683
7.919629348204771	5.3453693	2.3120055
7.937198129654115	5.3546705	2.314016
7.954767097975865	5.3754163	2.3184943
7.972336253588986	5.296228	2.3013535
7.989905596912472	5.2685137	2.2953243
8.007475128365371	5.2928076	2.3006103
8.025044848366756	5.396797	2.3231008
8.042614757335754	5.592985	2.3649492
8.060184855691523	5.6173625	2.3700976
8.07775514385327	5.737884	2.3953881
8.095325622240228	5.752875	2.3985152
8.112896291271687	5.7986116	2.4080307
8.130467151366968	5.857645	2.4202573
8.148038202945436	5.848853	2.4184403
8.165609446426497	5.776995	2.403538
8.183180882229594	5.814389	2.4113045
8.200752510774217	5.863621	2.4214916
8.218324332479893	5.91639	2.432363
8.235896347766193	5.9300814	2.435176
8.253468557052724	5.9047027	2.4299593
8.27104096075914	5.9332776	2.435832
8.288613559305137	6.0274105	2.4550786
8.306186353110448	6.038285	2.457292
8.32375934259485	6.0365043	2.45693
8.341332528178162	5.9778423	2.4449627
8.358905910280246	5.977894	2.4449732
8.376479489321003	6.0313363	2.455878
8.394053265720377	6.0994196	2.4697003
8.411627239898356	6.173188	2.48459
8.42920141227497	6.197282	2.489434
8.44677578327029	6.1786366	2.4856863
8.464350353304427	6.1532154	2.4805675
8.48192512279754	6.1057615	2.470984
8.499500092169827	6.111335	2.4721115
8.51707526184153	6.0875854	2.4673033
8.534650632232934	6.0960765	2.4690235
8.552226203764365	6.1206794	2.4740007
8.569801976856192	6.1349087	2.4768748
8.587377951928834	6.191901	2.488353
8.60495412940274	6.2436824	2.4987361
8.622530509698416	6.313784	2.5127244
8.6401070932364	6.405108	2.5308316
8.657683880437283	6.5063443	2.5507536
8.675260871721695	6.674191	2.5834455
8.692838067510303	6.850632	2.6173713
8.710415468223834	7.0019617	2.646122
8.727993074283043	7.1161876	2.6676183
8.745570886108737	7.0854654	2.6618538
8.763148904121765	7.1100264	2.6664634
8.78072712874302	7.0404983	2.6533937
8.798305560393441	7.248124	2.692234
8.815884199494006	7.3717	2.7150874
8.833463046465745	7.583514	2.753818
8.851042101729728	7.716885	2.777928
8.86862136570707	8.029457	2.8336296
8.886200838818924	8.121	2.849737
8.903780521486505	8.233133	2.8693438
8.921360414131055	8.3646965	2.8921785
8.938940517173874	8.545821	2.9233236
8.956520831036297	8.71951	2.9528816
8.97410135613971	8.980031	2.99667
8.99168209290554	9.037345	3.0062177
9.009263041755265	9.281681	3.046585
9.026844203110405	9.535875	3.0880213
9.044425577392525	9.780884	3.1274405
9.062007165023239	9.918425	3.149353
9.079588966424197	10.209859	3.195287
9.097170982017108	10.258109	3.2028284
9.11475321222372	11.170461	3.342224
9.132335657465825	11.973613	3.460291
9.149918318165264	11.989065	3.462523
9.167501194743924	12.507373	3.5365765
9.18508428762374	12.246112	3.4994445
9.202667597226693	12.304137	3.5077255
9.220251123974803	12.014322	3.4661682
9.237834868290143	11.752209	3.4281495
9.255418830594836	11.5736475	3.4020064
9.273003011311046	11.093204	3.330646
9.290587410860985	10.853492	3.2944639
9.308172029666911	10.259576	3.2030573
9.32575686815113	9.9544325	3.1550646
9.343341926735997	8.589924	2.9308572
9.360927205843916	8.345885	2.8889246
9.378512705897327	8.1991005	2.8634071
9.396098427318728	8.012824	2.8306932
9.413684370530664	7.9189215	2.8140578
9.431270535955722	7.7872357	2.790562
9.448856924016539	7.753262	2.784468
9.466443535135806	7.633274	2.7628381
9.484030369736251	7.6428046	2.7645624
9.501617428240658	7.601637	2.7571065
9.519204711071852	7.6133013	2.759221
9.536792218652714	7.6167493	2.759846
9.55437995140617	7.691033	2.773271
9.571967909755191	7.758433	2.7853963
9.589556094122802	7.8588753	2.8033686
9.60714450493207	7.828941	2.7980244
9.624733142606116	7.8175645	2.7959907
9.642322007568108	7.7930727	2.7916076
9.659911100241267	7.801079	2.7930412
9.677500421048851	7.84544	2.8009713
9.695089970414175	7.975517	2.8240957
9.712679748760609	8.0808525	2.842684
9.730269756511557	8.119896	2.849543
9.747859994090492	8.104538	2.846847
9.765450461920915	8.049022	2.8370798
9.78304116042639	8.052713	2.8377304
9.800632090030527	8.119789	2.8495243
9.81822325115699	8.208062	2.8649716
9.835814644229481	8.198655	2.8633294
9.853406269671762	8.162929	2.857084
9.870998127907646	8.214453	2.8660867
9.888590219360985	8.284297	2.8782454
9.906182544455698	8.346307	2.8889976
9.923775103615734	8.361522	2.8916297
9.941367897265108	8.289595	2.8791656
9.958960925827878	8.249822	2.8722503
9.97655418972816	8.281775	2.8778074
9.994147689390106	8.308418	2.8824327
10.011741425237934	8.28596	2.8785343
10.029335397695904	8.177409	2.859617
10.04692960718833	8.192892	2.8623228
10.06452405413958	8.177352	2.859607
10.082118738974064	8.254408	2.8730485
10.099713662116246	8.19476	2.8626492
10.117308823990651	8.117662	2.8491511
10.134904225021844	8.114541	2.8486032
10.152499865634445	8.11085	2.8479555
10.170095746253125	8.130387	2.8513834
10.18769186730261	8.112356	2.8482199
10.205288229207675	8.0722065	2.841163
10.222884832393145	8.049736	2.8372056
10.2404816772839	7.935193	2.8169475
10.258078764304868	7.9777594	2.8244927
10.275676093881035	8.020343	2.832021
10.293273666437438	7.9610124	2.8215265
10.310871482399158	7.9036393	2.8113413
10.32846954219134	7.9141164	2.813204
10.346067846239173	8.050877	2.8374066
10.363666394967908	8.067803	2.8403878
10.38126518880283	8.03709	2.8349762
10.398864228169298	8.0187645	2.8317423
10.416463513492713	8.089433	2.8441927
10.434063045198531	8.1308775	2.8514693
10.451662823712262	8.158918	2.8563821
10.469262849459467	8.141781	2.8533807
10.486863122865758	8.01944	2.8318615
10.504463644356806	7.9139824	2.8131802
10.522064414358338	7.831766	2.7985294
10.539665433296118	7.8038273	2.793533
10.557266701595987	7.8157163	2.7956603
10.574868219683818	7.7401443	2.7821114
10.592469987985552	7.629631	2.7621787
10.610072006927185	7.5604053	2.749619
10.627674276934751	7.4726276	2.7336106
10.64527679843435	7.4365087	2.7269962
10.662879571852143	7.261489	2.694715
10.680482597614331	7.1255126	2.6693656
10.698085876147173	6.9757648	2.6411674
10.715689407876988	6.846219	2.616528
10.733293193230146	6.8013067	2.6079316
10.750897232633072	6.674686	2.5835414
10.76850152651225	6.6048703	2.5699942
10.786106075294207	6.510434	2.5515552
10.803710879405534	6.3750587	2.5248878
10.821315939272877	6.2809887	2.50619
10.83892125532294	6.230291	2.4960551
10.856526827982472	6.2142463	2.492839
10.874132657678285	6.2456512	2.49913
10.891738744837243	6.216429	2.4932768
10.909345089886271	6.125235	2.4749212
10.926951693252343	6.035501	2.4567256
10.944558555362494	5.965031	2.4423413
10.96216567664381	5.9322815	2.4356275
10.979773057523436	5.9191804	2.4329367
10.997380698428573	5.785703	2.4053488
11.014988599786477	5.6900015	2.3853724
11.032596762024461	5.610809	2.3687146
11.050205185569892	5.639677	2.3748004
11.067813870850198	5.617729	2.370175
11.085422818292859	5.5449452	2.3547707
11.10303202832541	5.4255853	2.3292885
11.120641501375454	5.3265944	2.3079417
11.138251237870636	5.206936	2.281871
11.155861238238671	5.177599	2.2754338
11.173471502907317	5.13079	2.2651248
11.191082032304402	5.0936046	2.2569015
11.208692826857805	4.991718	2.2342153
11.226303886995465	4.9355674	2.2216136
11.243915213145371	4.8969746	2.212911
11.261526805735578	4.8974743	2.213024
11.279138665194196	4.9044585	2.2146013
11.296750791949393	4.836674	2.199244
11.314363186429393	4.775231	2.1852303
11.331975849062479	4.633074	2.1524577
11.34958878027699	4.6097007	2.1470213
11.36720198050133	4.5701475	2.1377904
11.384815450163948	4.5452967	2.1319702
11.402429189693366	4.442965	2.107834
11.420043199518153	4.395304	2.096498
11.437657480066942	63.352905	7.959454
11.455272031768422	85.066666	9.223159
11.472886855051353	107.46319	10.366446
11.490501950344528	98.9975	9.949749
11.508117318076819	84.35522	9.184509
11.52573295867715	45.748463	6.763761
11.543348872574514	4.0837746	2.0208352
11.560965060197946	4.0783787	2.0194995
11.57858152197655	4.0163713	2.0040886
11.59619825833949	4.0071635	2.00179
11.613815269715985	3.9942524	1.9985626
11.631432556535323	38.54745	6.208659
11.649050119226837	83.09023	9.115384
11.666667958219929	93.43	9.665919
11.68428607394406	107.63788	10.374867
11.701904466828756	82.407974	9.077884
11.719523137303586	65.27303	8.079173
11.737142085798196	4.5061274	2.122764
11.754761312742286	3.649211	1.9102908
11.772380818565619	3.6176457	1.9020109
11.790000603698015	3.5751176	1.8907981
11.80762066856935	3.5823855	1.892719
11.825241013609572	3.5156026	1.874994
11.842861639248683	3.4798481	1.8654351
11.860482545916748	3.3904438	1.8413157
11.878103734043883	3.3836703	1.8394755
11.895725204060282	3.3679278	1.8351915
11.91334695639619	3.3547814	1.8316063
11.930968991481919	3.3532777	1.8311957
11.948591309747824	3.3411288	1.8278755
11.966213911624347	3.3065674	1.8183969
11.98383679754198	3.2681606	1.8078054
12.001459967931268	3.2287755	1.7968794
12.019083423222835	3.2043996	1.7900836
12.036707163847352	3.150077	1.7748456
12.05433119023556	3.136093	1.7709017
12.071955502818259	3.1357863	1.7708151
12.089580102026313	3.1722538	1.7810822
12.107204988290643	3.1415892	1.7724528
12.12483016204224	3.1231358	1.7672396
12.142455623712152	3.043378	1.744528
12.16008137373149	2.992144	1.7297815
12.177707412531431	2.986311	1.7280946
12.19533374054321	3.032393	1.7413768
12.212960358198126	3.0603216	1.7493775
12.230587265927545	3.0571213	1.7484626
12.248214464162889	3.0130074	1.7358017
12.265841953335649	2.9873886	1.7284064
12.283469733877375	2.9600341	1.720475
12.301097806219685	2.9679337	1.7227691
12.31872617079425	2.95821	1.7199447
12.336354828032825	2.9545352	1.7188761
12.353983778367205	2.9218984	1.7093561
12.371613022229262	2.8864675	1.6989607
12.389242560050928	2.8451228	1.6867492
12.406872392264201	2.8683197	1.6936115
12.424502519301143	2.8893225	1.6998007
12.442132941593874	2.8758295	1.6958271
12.459763659574586	2.8429468	1.686104
12.477394673675532	2.8216543	1.6797781
12.49502598432903	2.8307061	1.6824702
12.51265759196746	2.8071117	1.6754438
12.530289497023267	2.7978995	1.6726923
12.547921699928967	2.7647607	1.6627569
12.565554201117134	2.7495031	1.6581626
12.583187001020404	2.7183652	1.6487466
12.600820100071486	2.7332985	1.653269
12.618453498703152	2.7451596	1.6568524
12.636087197348235	2.7262685	1.6511415
12.65372119643964	2.722424	1.649977
12.671355496410326	2.728517	1.6518223
12.68899009769333	2.7607875	1.6615617
12.706625000721749	2.794653	1.6717216
12.724260205928752	2.883464	1.6980766
12.741895713747551	2.9163985	1.7077466
12.759531524611454	2.9691834	1.7231319
12.777167638953818	2.9232285	1.7097452
12.794804057208072	2.9313953	1.7121317
12.812440779807702	2.984582	1.7275943
12.830077807186271	3.1291	1.7689263
12.847715139777405	3.1513014	1.7751905
12.865352778014795	3.348599	1.8299178
12.882990722332197	3.4895654	1.8680378
12.90062897316344	3.5836036	1.8930409
12.918267530942412	3.6806908	1.9185127
12.935906396103071	3.601986	1.8978899
12.953545569079449	3.7578392	1.9385147
12.971185050305628	3.5200422	1.8761775
12.988824840215775	3.4950345	1.8695011
13.006464939244115	3.4826617	1.8661891
13.024105347824943	3.3606734	1.8332139
13.041746066392617	3.474292	1.8639452
13.05938709538157	3.3152745	1.8207896
13.077028435226296	3.327067	1.8240249
13.094670086361363	3.19579	1.7876773
13.112312049221401	3.0954015	1.7593753
13.129954324241112	3.0292454	1.7404728
13.147596911855258	2.9033463	1.7039208
13.165239812498685	2.9016633	1.703427
13.182883026606293	2.8287103	1.681877
13.200526554613058	2.7736983	1.6654423
13.218170396954017	2.7615163	1.6617811
13.235814554064284	2.7565253	1.6602787
13.253459026379034	2.7019358	1.6437566
13.271103814333523	2.6567514	1.6299545
13.288748918363058	2.6277308	1.6210277
13.306394338903031	2.6294467	1.6215569
13.32404007638889	2.6352503	1.6233454
13.341686131256164	2.6496062	1.6277611
13.359332503940449	2.629768	1.621656
13.376979194877402	2.6489978	1.6275742
13.394626204502751	2.7003968	1.6432884
13.412273533252307	2.7502666	1.6583928
13.429921181561937	2.732302	1.6529676
13.447569149867581	2.7174327	1.6484637
13.465217438605247	2.6919484	1.6407158
13.482866048211022	2.6817644	1.6376094
13.500514979121052	2.6990829	1.6428885
13.518164231771568	2.6660006	1.6327893
13.535813806598844	2.6515667	1.6283633
13.553463704039254	2.646608	1.6268399
13.571113924529229	2.687844	1.6394646
13.588764468505275	2.7079158	1.6455746
13.606415336403956	2.7202237	1.6493101
13.624066528661917	2.743545	1.656365
13.641718045715882	2.769797	1.6642708
13.659369888002635	2.8067715	1.6753422
13.67702205595903	2.8515983	1.6886677
13.694674550021993	2.94189	1.7151939
13.712327370628532	3.0055244	1.7336448
13.729980518215713	3.0751913	1.7536223
13.747633993220681	3.1427176	1.7727711
13.765287796080647	3.1858048	1.7848823
13.7829419272329	3.2206936	1.7946291
13.800596387114801	3.2671595	1.8075285
13.818251176163775	3.3246098	1.8233513
13.835906294817324	3.3806822	1.8386632
13.853561743513023	3.398754	1.843571
13.871217522688525	3.3994048	1.8437475
13.888873632781538	3.380257	1.8385475
13.906530074229858	3.39387	1.8422459
13.92418684747135	3.3924904	1.8418714
13.941843952943948	3.3852441	1.8399032
13.959501391085665	3.3426523	1.8282921
13.977159162334578	3.3340883	1.8259486
13.994817267128846	3.3542316	1.8314562
14.012475705906693	3.31474	1.8206427
14.030134479106424	3.1969018	1.7879882
14.047793587166414	3.0729403	1.7529805
14.065453030525108	2.9809194	1.7265339
14.083112809621026	2.950416	1.7176775
14.100772924892766	2.9414177	1.7150562
14.118433376778997	2.9129927	1.7067492
14.136094165718458	2.8227413	1.6801015
14.153755292149969	2.719411	1.6490636
14.171416756512416	2.6871462	1.6392517
14.189078559244768	2.6338139	1.6229029
14.20674070078606	2.5893438	1.6091439
14.224403181575408	2.526469	1.5894871
14.242066002051999	2.4760208	1.5735377
14.259729162655093	2.4512682	1.5656526
14.277392663824022	2.4240093	1.556923
14.295056505998208	2.4126081	1.5532572
14.312720689617128	2.365266	1.5379422
14.330385215120348	2.3450246	1.5313473
14.348050082947497	2.3132854	1.5209489
14.3657152935383	2.3276894	1.5256767
14.383380847332528	2.3224282	1.5239515
14.401046744770051	2.365006	1.5378575
14.418712986290798	2.376673	1.5416462
14.436379572334793	2.379061	1.5424205
14.454046503342123	2.3793385	1.5425105
14.471713779752946	2.3676162	1.5387061
14.489381402007504	2.3748415	1.5410521
14.507049370546113	2.3953204	1.5476823
14.524717685809168	2.3836744	1.5439153
14.542386348237134	2.3839812	1.5440147
14.560055358270553	2.3757608	1.5413504
14.577724716350051	2.4250076	1.5572436
14.595394422916325	2.4411104	1.5624053
14.61306447841015	2.4673872	1.570792
14.63073488327237	2.4183178	1.5550941
14.648405637943917	2.4268513	1.5578355
14.6660767428658	2.435801	1.5607053
14.683748198479094	2.4672174	1.5707378
14.701420005224954	2.5328143	1.5914818
14.719092163544628	2.5771601	1.6053536
14.73676467387942	2.6155474	1.6172655
14.754437536670727	2.6385798	1.6243706
14.772110752360014	2.658951	1.6306291
14.78978432138882	2.6664102	1.6329147
14.807458244198777	2.6665041	1.6329434
14.82513252123159	2.623133	1.6196089
14.842807152929028	2.6552587	1.6294965
14.860482139732962	2.6642518	1.6322536
14.87815748208531	2.6707313	1.6342372
14.8958331804281	2.6279888	1.6211073
14.91350923520342	2.5895886	1.6092199
14.931185646853438	2.6568604	1.6299878
14.948862415820408	2.682678	1.6378883
14.966539542546656	2.6863186	1.6389992
14.98421702747459	2.643738	1.6259576
15.001894871046696	2.5961974	1.611272
15.019573073705542	2.5941908	1.6106492
15.037251635893766	2.5918598	1.6099254
15.054930558054092	2.660881	1.6312207
15.072609840629323	2.716355	1.6481369
15.090289484062351	2.789159	1.6700776
15.107969488796124	2.9081547	1.7053312
15.125649855273691	3.1121285	1.7641226
15.14333058393817	3.493856	1.8691859
15.161011675232768	4.08944	2.0222363
15.17869312960076	4.7528663	2.1801069
15.196374947485506	5.46287	2.3372784
15.214057129330447	6.9031363	2.627382
15.231739675579114	9.039917	3.0066454
15.249422586675102	13.553941	3.6815677
15.267105863062092	17.930595	4.234453
15.284789505183847	24.986183	4.998618
15.302473513484218	29.50077	5.4314613
15.320157888407127	33.3008	5.7706847
15.337842630396578	32.143684	5.66954
15.355527739896656	29.527088	5.433883
15.37321321735153	23.229427	4.8196917
15.39089906320545	15.938433	3.9922967
15.408585277902748	10.243705	3.200579
15.42627186188783	6.3959136	2.5290143
15.443958815605198	4.6260195	2.1508183
15.461646139499424	3.8822684	1.9703473
15.479333834015168	3.4482784	1.8569541
15.497021899597165	3.0906181	1.7580154
15.514710336690234	2.8141122	1.6775316
15.53239914573928	2.6907775	1.6403589
15.550088327189297	2.592506	1.610126
15.567777881485336	2.5545657	1.5983008
15.58546780907256	2.5319712	1.5912169
15.6031581103962	2.5287006	1.5901889
15.620848785901568	2.507422	1.5834842
15.638539836034063	2.4923394	1.5787145
15.656231261239173	2.4588134	1.5680604
15.673923061962451	2.4197965	1.5555695
15.691615238649552	2.373174	1.5405109
15.709307791746202	2.3585675	1.5357628
15.727000721698221	2.4106474	1.552626
15.744694028951498	2.4420815	1.562716
15.76238771395202	2.4453404	1.5637584
15.780081777145844	2.4057996	1.551064
15.797776218979125	2.3716054	1.5400017
15.815471039898094	2.3812435	1.5431278
15.833166240349064	2.3731608	1.5405067
15.850861820778437	2.393859	1.5472101
15.868557781632699	2.3972986	1.5483212
15.886254123358412	2.4468427	1.5642387
15.903950846402232	2.4818072	1.5753753
15.921647951210897	2.5038831	1.5823663
15.939345438231225	2.4972243	1.5802609
15.957043307910133	2.4945674	1.57942
15.974741560694602	2.488918	1.5776305
15.992440197031714	2.4978065	1.580445
16.01013921736862	2.4713554	1.5720545
16.02783862215259	2.4470825	1.5643153
16.045538411830933	2.4240756	1.5569444
16.06323858685107	2.4173028	1.5547677
16.080939147660512	2.4115424	1.5529141
16.09864009470684	2.4245434	1.5570946
16.11634142843774	2.4386582	1.5616204
16.134043149300954	2.4401543	1.5620993
16.15174525774433	2.4078228	1.5517161
16.169447754215817	2.3707564	1.539726
16.18715063916342	2.3545737	1.534462
16.204853913035244	2.3632138	1.5372748
16.222557576279478	2.385623	1.5445462
16.240261629344403	22.381386	4.730897
16.257966072678386	42.95351	6.5538926
16.275670906729868	38.105556	6.17297
16.293376131947387	2.5416808	1.594265
16.31108174877957	2.5542226	1.5981935
16.328787757675133	2.5621443	1.60067
16.34649415908287	2.5832798	1.6072584
16.364200953451657	2.6277757	1.6210415
16.38190814123048	2.6618166	1.6315075
16.39961572286839	2.64149	1.6252661
16.41732369881455	2.6745791	1.635414
16.43503206951817	2.6811178	1.637412
16.45274083542859	2.7157612	1.6479567
16.47044999699522	2.7634287	1.6623564
16.488159554667558	2.8451173	1.6867476
16.505869508895184	2.9285204	1.711292
16.523579860127786	3.0016325	1.732522
16.541290608815117	3.054198	1.7476264
16.559001755407035	3.0986254	1.7602913
16.57671330035348	3.152194	1.7754419
16.59442524410448	3.2898264	1.8137878
16.61213758711015	3.4812844	1.86582
16.629850329820705	3.506262	1.8725016
16.647563472686436	3.4850788	1.8668365
16.665277016157724	3.3877876	1.8405944
16.682990960685053	3.4312136	1.8523536
16.70070530671898	3.441558	1.8551437
16.718420054710155	3.4688742	1.8624914
16.736135205109335	3.539029	1.8812307
16.753850758367335	3.5947556	1.895984
16.771566714935087	3.640773	1.9080809
16.789283075263597	3.7192688	1.9285406
16.80699983980398	3.7736442	1.942587
16.82471700900741	3.774008	1.9426806
16.84243458332518	3.8319073	1.9575258
16.860152563208665	3.931159	1.982715
16.87787094910932	4.053462	2.0133212
16.89558974147871	4.0821815	2.0204408
16.913308940768466	4.118864	2.0294986
16.931028547430333	4.183825	2.04544
16.94874856191613	4.3254075	2.0797615
16.966468984677785	4.3850594	2.0940533
16.98418981616729	4.392499	2.095829
17.00191105683676	4.369093	2.0902376
17.019632707138374	4.3943095	2.0962608
17.03735476752442	4.4255123	2.1036901
17.05507723844728	4.473458	2.115055
17.072800120359403	4.5248556	2.1271708
17.090523413713353	4.566687	2.1369808
17.108247118961785	4.598327	2.144371
17.125971236557437	4.637978	2.1535966
17.143695766953133	4.661398	2.159027
17.161420710601806	4.675165	2.162213
17.179146067956477	4.6768537	2.1626034
17.19687183947025	4.67144	2.1613514
17.21459802559634	4.6036468	2.145611
17.232324626788028	4.578101	2.1396499
17.25005164349871	4.6187224	2.1491213
17.267779076181863	4.6320825	2.1522274
17.285506925291074	4.5721064	2.1382484
17.30323519127999	4.5438523	2.1316314
17.320963874602384	4.542855	2.1313975
17.33869297571211	4.5105824	2.1238132
17.356422495063114	4.5233293	2.126812
17.37415243310944	4.5484138	2.1327012
17.391882790305218	4.560621	2.135561
17.40961356710468	4.5789313	2.1398437
17.42734476396215	4.597176	2.1441026
17.445076381332044	4.6375566	2.1534986
17.462808419668868	4.645932	2.1554425
17.48054087942723	4.7244325	2.1735759
17.498273761061835	4.8632216	2.2052712
17.51600706502747	5.208117	2.28213
17.533740791779024	5.778043	2.403756
17.551474941771485	6.665332	2.5817304
17.56920951545993	8.550675	2.9241538
17.586944513299528	9.824773	3.1344495
17.60467993574556	12.6632395	3.5585446
17.622415783253373	15.205121	3.8993745
17.64015205627843	17.78784	4.217563
17.657888755276293	19.986528	4.4706297
17.675625880702604	21.460583	4.632557
17.69336343301311	20.095087	4.482754
17.71110141266366	18.093332	4.253626
17.728839820110178	15.483168	3.9348657
17.746578655808705	12.392946	3.5203617
17.764317920215372	10.256304	3.2025464
17.7820576137864	8.536903	2.921798
17.79979773697811	7.188845	2.6812022
17.81753829024692	5.940823	2.4373803
17.835279274049356	5.163885	2.2724183
17.85302068884201	4.491861	2.119401
17.870762535081607	4.081145	2.0201843
17.888504813224934	3.8266256	1.9561763
17.90624752372891	3.6979077	1.9229945
17.923990667050536	3.620289	1.9027057
17.941734243646895	3.5186896	1.8758171
17.959478253975185	3.4524555	1.8580785
17.9772226984927	3.4518504	1.8579156
17.994967577656833	3.4711308	1.8630971
18.01271289192506	3.4459803	1.8563352
18.030458641754965	3.3877294	1.8405786
18.04820482760425	3.3172522	1.8213326
18.06595144993067	3.2815628	1.8115084
18.083698509192125	3.2848701	1.8124211
18.101446005846576	3.264155	1.8066972
18.119193940352105	3.1954658	1.7875866
18.136942313166887	3.1136665	1.7645584
18.1546911247492	3.0937037	1.7588928
18.1724403755574	3.0802424	1.755062
18.19019006604997	3.087822	1.7572199
18.207940196685467	3.0750253	1.753575
18.225690767922575	3.0537014	1.7474843
18.243441780220046	3.0558279	1.7480927
18.261193234036764	3.0874305	1.7571086
18.278945129831676	3.0946329	1.7591568
18.29669746806386	3.0240138	1.7389692
18.314450249192483	2.9858415	1.7279588
18.3322034736768	2.9842472	1.7274973
18.349957141976184	2.9793177	1.72607
18.3677112545501	2.9430368	1.7155281
18.385465811858108	2.9642184	1.7216905
18.403220814359884	3.0314379	1.7411025
18.420976262515172	3.0869837	1.7569814
18.43873215678387	3.082931	1.7558278
18.456488497625923	3.0622425	1.7499264
18.474245285501407	3.1429179	1.7728276
18.492002520870486	3.2505898	1.8029392
18.50976020419343	3.332042	1.8253882
18.527518335930615	3.6045656	1.8985693
18.545276916542516	4.1501064	2.037181
18.563035946489688	4.28616	2.0703044
18.580795426232832	4.6593127	2.158544
18.598555356232698	4.6027527	2.1454027
18.616315736950185	4.948876	2.224607
18.63407656884626	4.650299	2.1564553
18.65183785238201	4.779748	2.1862636
18.669599588018617	4.60331	2.1455326
18.68736177621737	4.597344	2.1441417
18.705124417439652	4.5866833	2.1416543
18.72288751214696	4.4262047	2.1038547
18.740651060800886	4.524406	2.1270652
18.758415063863115	4.272568	2.0670192
18.77617952179546	4.3981004	2.0971649
18.793944435059814	4.1440086	2.0356839
18.811709804118184	4.09828	2.024421
18.829475629432675	4.0323277	2.0080657
18.8472419114655	3.8798182	1.9697254
18.86500865067897	4.026706	2.0066655
18.88277584753551	3.7363017	1.9329516
18.90054350249763	3.7796686	1.944137
18.918311616027957	3.4612415	1.8604412
18.936080188589226	3.3237193	1.823107
18.953849220644265	2.990014	1.7291657
18.971618712656007	2.8034618	1.6743542
18.9893886650875	2.7618263	1.6618743
19.007159078401887	7.938607	2.8175535
19.024929953062408	32.83985	5.7306066
19.042701289532435	32.78789	5.7260714
19.060473088275405	25.35684	5.0355577
19.07824534975489	2.660087	1.6309774
19.096018074434568	2.6631916	1.6319288
19.113791262778197	2.6556187	1.629607
19.13156491524966	2.5991309	1.612182
19.149339032312945	2.5623298	1.6007279
19.167113614432136	2.5768235	1.6052487
19.184888662071433	2.5403697	1.5938537
19.202664175695123	2.5190847	1.5871625
19.220440155767623	2.488306	1.5774366
19.238216602753447	2.4972103	1.5802563
19.2559935171172	2.5209877	1.5877619
19.27377089932361	2.5136113	1.5854373
19.291548749837514	2.4929101	1.5788952
19.309327069123835	2.4883947	1.5774647
19.32710585764763	2.5403013	1.5938323
19.344885115874032	2.548568	1.5964235
19.362664844268313	2.501664	1.5816649
19.380445043295822	2.486547	1.5768789
19.39822571342203	2.4706323	1.5718246
19.41600685511252	2.479867	1.5747594
19.43378846883297	2.4621742	1.5691316
19.451570555049173	2.4651597	1.5700827
19.469353114227037	2.4523585	1.5660008
19.48713614683254	2.4607477	1.5686771
19.50491965333182	2.4464917	1.5641265
19.52270363419109	2.4755688	1.5733941
19.540488089876686	2.5048056	1.5826577
19.55827302085503	2.5007892	1.5813884
19.576058427592674	2.469302	1.5714012
19.593844310556282	2.4509492	1.5655508
19.611630670212598	2.4458654	1.5639262
19.629417507028506	2.4876652	1.5772334
19.64720482147098	2.5224912	1.5882353
19.6649926140071	2.5278378	1.5899175
19.682780885104084	2.4744208	1.5730292
19.70056963522921	2.4403865	1.5621736
19.718358864849908	2.4305398	1.5590189
19.7361485744337	2.420748	1.5558753
19.753938764448215	2.4454248	1.5637854
19.771729435361202	2.4496732	1.5651432
19.789520587640506	2.4524214	1.5660208
19.807312221754092	2.4583473	1.5679117
19.825104338170043	2.4755492	1.5733879
19.842896937356517	2.4870574	1.5770407
19.860690019781824	2.4876	1.5772128
19.87848358591436	2.4517856	1.5658178
19.896277636222635	2.4337027	1.560033
19.914072171175278	2.4393995	1.5618577
19.931867191241015	2.4456916	1.5638707
19.94966269688869	2.4533908	1.5663303
19.967458688587264	2.481486	1.5752734
19.985255166805807	2.4693744	1.5714244
20.00305213201348	2.4164982	1.554509
20.020849584679578	2.3751228	1.5411433
20.038647525273507	2.3322601	1.5271739
20.05644595426477	2.331587	1.5269536
20.07424487212299	2.3869846	1.544987
20.092044279317903	2.4167156	1.5545789
20.109844176319353	2.4292638	1.5586096
20.127644563597304	2.4287598	1.5584478
20.145445441621817	2.402731	1.5500745
20.16324681086307	2.338643	1.5292623
20.181048671791373	2.3288274	1.5260496
20.198851024877122	2.3686175	1.5390314
20.216653870590836	2.3832355	1.5437732
20.234457209403146	2.3969972	1.5482239
20.252261041784802	2.3620667	1.5369017
20.270065368206662	2.3307667	1.5266849
20.287870189139685	2.3080423	1.5192243
20.305675505054968	2.297152	1.5156358
20.323481316423702	2.3378377	1.528999
20.341287623717207	2.348821	1.5325863
20.359094427406884	2.3725286	1.5403014
20.376901727964288	2.3462527	1.5317483
20.39470952586107	2.32201	1.5238143
20.41251782156899	2.362496	1.5370413
20.430326615559935	2.3768027	1.5416882
20.448135908305886	2.348381	1.5324428
20.465945700278965	2.3487005	1.5325471
20.483755991951384	2.397172	1.5482804
20.50156678379548	2.4079034	1.5517421
20.519378076283708	2.365639	1.5380634
20.537189869888635	2.312842	1.5208031
20.55500216508294	2.2927866	1.5141951
20.572814962339415	2.3090684	1.5195619
20.59062826213098	2.3192623	1.5229124
20.60844206493066	2.337426	1.5288643
20.626256371211593	2.3378587	1.5290058
20.644071181447032	2.3123572	1.5206437
20.66188649611036	2.2989526	1.5162297
20.67970231567506	2.294047	1.5146112
20.697518640614742	2.3265183	1.5252929
20.715335471403122	2.336262	1.5284835
20.73315280851404	2.3162105	1.5219102
20.750970652421447	2.2973979	1.5157169
20.768789003599412	2.2935145	1.5144354
20.786607862522136	2.3075464	1.519061
20.8044272296639	2.3303657	1.5265535
20.82224710549913	2.3348773	1.5280305
20.84006749050237	2.3100958	1.5199
20.857888385148268	3.852784	1.9628509
20.8757097899116	45.956764	6.779142
20.893531705267254	64.792366	8.049371
20.911354131690224	83.78747	9.153549
20.92917706965566	69.03391	8.308665
20.94700051963877	50.10836	7.078726
20.96482448211493	29.40109	5.4222775
20.982648957559622	4.114085	2.0283208
21.00047394644843	2.2042994	1.4846883
21.01829944925707	2.2261088	1.492015
21.036125466461375	2.2626877	1.5042232
21.053951998537297	2.249193	1.499731
21.071779045960906	2.201973	1.4839046
21.089606609208378	2.1991205	1.4829432
21.10743468875603	2.1869345	1.4788288
21.12526328508028	2.1975763	1.4824225
21.143092398657675	2.1728458	1.4740576
21.16092202996488	2.1644268	1.4711992
21.17875217947867	2.1803849	1.4766127
21.19658284767596	2.1849368	1.4781531
21.21441403503377	2.1697748	1.4730155
21.232245742029225	2.1654239	1.471538
21.2500779691396	2.135137	1.4612108
21.26791071684227	2.1253827	1.4578692
21.28574398561475	2.129006	1.4591113
21.30357777593465	2.1413217	1.4633255
21.321412088279704	2.1194875	1.455846
21.339246923127792	2.113288	1.4537152
21.357082280956888	2.1438997	1.4642062
21.3749181622451	2.157589	1.4688734
21.392754567470647	2.1463397	1.4650391
21.41059149711187	2.136808	1.4617825
21.42842895164726	2.1058114	1.4511414
21.446266931555378	2.0889623	1.4453243
21.464105437314945	2.0926619	1.4466035
21.481944469404798	2.1136792	1.4538498
21.49978402830388	2.0958571	1.4477075
21.51762411449127	2.074022	1.4401466
21.53546472844617	2.062076	1.4359931
21.553305870647876	2.067741	1.4379642
21.571147541575865	2.0463088	1.4304925
21.58898974170967	2.0335774	1.4260355
21.60683247152899	2.0435421	1.4295251
21.62467573151363	2.0732121	1.4398654
21.642519522143523	2.0770392	1.4411937
21.660363843898722	2.067784	1.4379792
21.6782086972594	2.0240202	1.4226806
21.696054082705864	2.0112445	1.4181836
21.713900000718535	2.0095468	1.4175848
21.73174645177795	2.020262	1.4213592
21.749593436364794	2.002754	1.4151869
21.767440954959845	2.0273144	1.4238379
21.785289008044032	2.0322082	1.4255553
21.803137596098388	2.0363271	1.4269993
21.820986719604086	2.0294697	1.4245946
21.838836379042412	2.006546	1.4165261
21.85668657489478	2.0118318	1.4183905
21.87453730764273	2.0023048	1.4150282
21.892388577767914	2.0114548	1.4182577
21.91024038575213	1.9982723	1.4136026
21.928092732077285	2.0281317	1.424125
21.945945617225426	2.006127	1.4163781
21.963799041678694	1.977141	1.4061085
21.981653005919398	31.28954	5.593705
21.999507510429943	78.07868	8.836214
22.01736255569286	73.032005	8.5458765
22.035218142190818	4.1349382	2.0334547
22.05307427040661	1.9900218	1.4106814
22.07093094082315	1.9836088	1.4084065
22.088788153923474	1.9351014	1.3910792
22.106645910190746	1.9327412	1.3902307
22.12450421010827	1.9461596	1.3950483
22.142363054159464	1.9476186	1.3955711
22.16022244282787	1.9698597	1.4035169
22.178082376597164	1.9707946	1.40385
22.195942855951145	1.9696363	1.4034374
22.213803881373742	1.944492	1.3944504
22.231665453349002	1.9095436	1.3818624
22.24952757236111	1.893458	1.3760298
22.26739023889438	1.909149	1.3817196
22.28525345343323	1.9538716	1.3978096
22.30311721646225	1.9862311	1.4093372
22.320981528466113	1.9954424	1.4126012
22.33884638992964	1.9707541	1.4038355
22.356711801337788	1.9774578	1.4062212
22.37457776317561	1.9725956	1.4044912
22.392444275928337	1.9655614	1.4019848
22.410311340081282	1.9614779	1.4005277
22.428178956119904	1.9814789	1.4076501
22.446047124529805	1.9598014	1.399929
22.46391584579669	1.9775144	1.4062412
22.481785120406414	1.9750533	1.405366
22.49965494884496	1.9502685	1.3965201
22.51752533159841	1.902461	1.3792973
22.53539626915302	1.907404	1.3810879
22.553267761995137	1.935276	1.391142
22.571139810611264	1.9532169	1.3975754
22.589012415488025	1.9688798	1.4031677
22.60688557711216	2.007044	1.4167018
22.624759295970566	2.0300484	1.4247977
22.642633572550263	2.0232596	1.4224133
22.660508407338362	2.0170403	1.4202254
22.67838380082217	1.9727292	1.4045388
22.696259753489077	1.9465657	1.3951938
22.714136265826614	1.9340855	1.390714
22.73201333832246	1.8939515	1.3762091
22.74989097146439	1.8612571	1.3642789
22.76776916574035	1.8834616	1.3723927
22.785647921638393	1.9090022	1.3816664
22.803527239646712	1.9137052	1.3833673
22.82140712025363	1.9342406	1.3907697
22.839287563947593	1.9453512	1.3947585
22.85716857121719	1.9224024	1.3865073
22.875050142551135	1.9157915	1.3841212
22.892932278438277	1.9250365	1.3874569
22.910814979367604	1.9200166	1.3856467
22.928698245828222	1.891653	1.3753737
22.946582078309387	1.8529752	1.3612404
22.96446647730047	1.8535897	1.361466
22.98235144329098	1.8571019	1.3627553
23.000236976770562	1.9091471	1.3817189
23.018123078229	1.8990538	1.3780617
23.03600974815619	1.9362233	1.3914824
23.053896987042194	1.9412403	1.393284
23.071784795377173	1.9613472	1.4004811
23.08967317365145	1.9546577	1.3980907
23.10756212235546	1.9250942	1.3874776
23.125451641979787	1.9050792	1.380246
23.143341733015134	1.8924619	1.3756678
23.161232395952357	1.9166126	1.3844178
23.179123631282426	1.9249605	1.3874295
23.197015439496468	1.9265	1.3879842
23.214907821085717	1.9188626	1.3852302
23.23280077654157	1.9069526	1.3809246
23.250694306355538	1.8946503	1.3764629
23.268588411019277	1.885143	1.3730052
23.28648309102458	1.909951	1.3820097
23.304378346863356	1.9208118	1.3859335
23.322274179027676	1.9561191	1.3986132
23.340170588009723	1.9427935	1.3938413
23.358067574301852	1.9272399	1.3882507
23.37596513839651	1.9108897	1.3823494
23.39386328078629	1.9326137	1.3901848
23.411762001963947	1.9591333	1.3996904
23.429661302422353	1.9318432	1.3899076
23.4475611826545	1.9313586	1.3897333
23.46546164315356	1.8892301	1.3744926
23.48336268441279	1.8523803	1.3610218
23.501264306925638	1.8383241	1.3558481
23.51916651118564	1.904079	1.3798836
23.537069297686497	1.9346611	1.390921
23.554972666922037	1.9148902	1.3837956
23.57287661938623	1.8967533	1.3772267
23.59078115557318	1.9116328	1.3826181
23.608686275977128	1.9273268	1.388282
23.62659198109246	1.9058489	1.3805249
23.6444982714137	1.9120619	1.3827733
23.66240514743549	1.9317052	1.389858
23.68031260965263	1.9395597	1.3926808
23.698220658560068	1.9029517	1.3794751
23.716129294652845	1.8970145	1.3773215
23.7340385184262	1.8978462	1.3776234
23.75194833037546	1.9035054	1.3796759
23.769858730996123	1.8721795	1.3682761
23.78776972078382	1.8821787	1.3719251
23.80568130023431	1.8908691	1.3750888
23.823593469843495	1.8976601	1.3775558
23.841506230107424	1.8831922	1.3722945
23.859419581522275	1.8688041	1.3670421
23.87733352458438	1.8676077	1.3666044
23.89524805979019	1.9014522	1.3789315
23.913163187636318	1.9063	1.3806882
23.931078908619508	1.9472741	1.3954476
23.948995223236633	1.9911174	1.4110696
23.966912131984735	2.019836	1.4212093
23.98482963536096	2.0246737	1.4229103
24.002747733862616	1.994563	1.41229
24.020666427987155	1.993416	1.4118838
24.038585718232156	2.0063396	1.4164531
24.056505605095353	2.0717807	1.4393681
24.074426089074617	2.1063914	1.4513413
24.092347170667946	2.0984797	1.448613
24.110268850373515	2.109668	1.4524696
24.128191128689586	2.1160989	1.4546818
24.146114006114626	2.0509932	1.4321289
24.164037483147187	2.0038834	1.4155859
24.181961560286005	1.9911295	1.4110739
24.199886238029926	2.0165217	1.4200429
24.21781151687797	2.0352557	1.4266238
24.235737397329274	2.0086613	1.4172724
24.253663879883135	2.0019455	1.4149013
24.271590965038975	2.001586	1.4147742
24.289518653296376	1.9737425	1.4048995
24.30744694515505	1.9650662	1.4018081
24.32537584111486	1.9841338	1.4085928
24.34330534167581	2.0446444	1.4299107
24.361235447338046	2.0698292	1.4386901
24.379166158601876	2.0636733	1.4365491
24.39709747596772	2.0454683	1.4301987
24.41502939993615	2.0398705	1.4282403
24.432961931007917	2.0093617	1.4175196
24.450895069683856	2.005259	1.4160717
24.468828816465	2.0325298	1.4256682
24.4867631718525	2.0231729	1.4223828
24.504698136347656	2.0108743	1.418053
24.52263371045192	1.9645038	1.4016075
24.540569894666874	1.9497176	1.3963228
24.558506689494266	1.8906494	1.375009
24.57644409543597	1.8811327	1.3715439
24.594382112994012	1.8884801	1.3742198
24.61232074267057	1.9383459	1.3922449
24.630259984967953	1.959174	1.3997049
24.64819984038863	1.9613031	1.4004654
24.66614030943522	1.9544303	1.3980094
24.684081392610462	1.9709826	1.4039168
24.702023090417274	1.9808791	1.4074371
24.7199654033587	2.019799	1.4211963
24.737908331937927	2.0537515	1.4330915
24.755851876658305	2.0310912	1.4251636
24.773796038023324	2.0472765	1.4308307
24.79174081653661	2.0905266	1.4458654
24.809686212701962	2.1532547	1.4673972
24.827632227023294	2.125425	1.4578837
24.8455788600047	2.1019583	1.4498131
24.8635261121504	2.0600498	1.4352874
24.88147398396475	2.0558949	1.4338392
24.899422475952303	2.0765877	1.441037
24.917371588617698	2.1088288	1.4521807
24.935321322465768	2.1019425	1.4498078
24.953271678001478	2.2275233	1.492489
24.97122265572994	2.4479022	1.5645773
24.989174256156414	2.8641877	1.6923912
25.00712647978632	3.4627197	1.8608384
25.02507932712521	4.4333653	2.1055558
25.043032798678798	5.921895	2.4334943
25.060986894952933	7.5595737	2.7494678
25.078941616453637	8.979686	2.9966123
25.096896963687055	9.918958	3.1494377
25.114852937159508	10.611955	3.2575996
25.132809537377444	10.452272	3.2329974
25.150766764847468	9.699826	3.1144545
25.168724620076347	8.324685	2.885253
25.186683103570985	7.1109633	2.6666389
25.204642215838426	5.747779	2.3974526
25.222601957385894	4.642379	2.154618
25.24056232872074	3.6224384	1.9032705
25.25852333035048	2.874988	1.6955789
25.276484962782778	2.4071333	1.5514939
25.294447226525435	2.1879508	1.4791723
25.312410122086423	2.1190343	1.4556903
25.330373649973843	2.0299067	1.424748
25.348337810695988	1.9531537	1.3975527
25.366302604761245	1.9211966	1.3860724
25.384268032678207	1.918682	1.385165
25.40223409495558	1.9117724	1.3826686
25.420200792102257	1.9111793	1.382454
25.438168124627246	1.9048299	1.3801557
25.45613609303974	1.8811438	1.3715479
25.474104697849057	1.8844811	1.372764
25.492073939564698	1.8771619	1.3700956
25.510043818696285	1.875524	1.3694978
25.528014335753614	1.9116614	1.3826284
25.54598549124664	1.9248387	1.3873856
25.56395728568544	1.899992	1.378402
25.58192971958028	1.8951713	1.3766522
25.59990279344156	1.8871135	1.3737224
25.617876507779833	1.8868603	1.3736303
25.635850863105826	1.9057088	1.3804741
25.653825859930386	1.9071755	1.3810053
25.671801498764548	1.9014338	1.3789248
25.68977778011949	1.8286666	1.3522819
25.707754704506524	1.7863964	1.3365614
25.725732272437153	1.7802261	1.3342512
25.743710484423012	1.8310108	1.3531485
25.761689340975888	1.8950635	1.376613
25.77966884260774	1.894739	1.3764952
25.797648989830662	1.834852	1.354567
25.815629783156922	1.8217119	1.3497081
25.83361122309895	1.8128816	1.3464329
25.85159331016929	1.825479	1.351103
25.869576044880695	1.8125297	1.3463023
25.887559427746034	1.8243554	1.350687
25.90554345927836	1.847838	1.3593521
25.92352813999086	1.875693	1.3695594
25.94151347039689	1.8456684	1.3585538
25.959499451009965	1.7873113	1.3369036
25.97748608234374	1.8141559	1.3469061
25.995473364912062	1.8075318	1.3444448
26.013461299228904	1.7942394	1.3394922
26.03144988580839	1.8041606	1.3431904
26.04943912516483	1.7874324	1.3369489
26.067429017812675	1.7588618	1.3262209
26.085419564266537	1.7831709	1.3353542
26.103410765041186	1.8191297	1.3487512
26.12140262065155	1.8502717	1.3602469
26.139395131612723	1.8496934	1.3600343
26.157388298439948	1.8651671	1.3657112
26.17538212164861	1.8620471	1.3645685
26.193376601754295	1.8383498	1.3558576
26.211371739272714	1.8663657	1.3661499
26.229367534719746	1.8228275	1.3501213
26.247363988611433	1.7661111	1.3289511
26.26536110146397	1.762993	1.3277775
26.283358873793727	1.8189873	1.3486984
26.301357306117204	1.8153448	1.3473474
26.319356398951104	1.8045883	1.3433497
26.33735615281224	1.7738392	1.3318555
26.35535656821762	1.806807	1.3441752
26.373357645684404	1.818958	1.3486875
26.39135938572991	1.7856158	1.3362694
26.409361788871614	1.7546446	1.32463
26.427364855627165	1.774508	1.3321066
26.445368586514352	1.8080798	1.3446486
26.46337298205115	1.8167135	1.3478551
26.48137804275568	1.7742003	1.3319911
26.499383769146217	1.7601016	1.3266882
26.517390161741215	1.763399	1.3279303
26.53539722105928	1.8060086	1.3438781
26.553404947619182	1.7782729	1.333519
26.571413341939856	1.7721293	1.3312135
26.589422404540397	1.7605832	1.3268697
26.60743213594006	1.8235874	1.3504027
26.62544253665827	1.8761034	1.3697093
26.64345360721459	1.8983626	1.3778108
26.66146534812879	1.8402566	1.3565606
26.679477759920758	1.8113091	1.3458488
26.69749084311057	1.8073785	1.3443878
26.71550459821847	1.7682815	1.3297675
26.733519025764842	1.7548971	1.3247253
26.751534126270258	1.829291	1.3525128
26.769549900255434	1.831506	1.3533314
26.787566348241267	1.7835624	1.3355008
26.80558347074881	1.7653044	1.3286476
26.823601268299267	1.7776264	1.3332765
26.841619741414036	1.8115257	1.3459293
26.85963889061465	1.8172631	1.348059
26.877658716422832	1.817604	1.3481854
26.89567921936045	1.7899423	1.3378873
26.913700399949544	1.7572168	1.3256005
26.93172225871233	1.7154689	1.3097591
26.949744796171174	1.7472894	1.3218508
26.967768012848605	1.7810148	1.3345467
26.98579190926733	1.7712064	1.3308668
27.003816485950225	1.7894825	1.3377154
27.021841743420318	1.7707473	1.3306943
27.039867682200814	1.7497584	1.3227843
27.057894302815072	1.7670529	1.3293054
27.07592160578664	1.7685324	1.3298618
27.0939495916392	1.7570852	1.3255509
27.111978260896635	1.7762886	1.3327748
27.13000761408296	1.7932243	1.3391132
27.148037651722397	1.7853432	1.3361673
27.166068374339304	1.7792782	1.3338958
27.184099782458215	1.8002882	1.3417482
27.20213187660384	1.8074393	1.3444104
27.22016465730105	1.8090819	1.3450211
27.23819812507487	1.7663603	1.3290448
27.256232280450533	1.7491612	1.3225586
27.274267123953383	1.7577031	1.325784
27.292302656108987	1.8141822	1.3469158
27.31033887744306	1.8271866	1.3517346
27.32837578848146	1.812054	1.3461256
27.34641338975026	1.7965873	1.3403684
27.364451681775673	1.8003649	1.3417767
27.382490665084074	1.8179216	1.3483032
27.400530340202046	1.8287345	1.3523071
27.41857070765629	1.8327426	1.3537883
27.436611767973726	1.8326279	1.3537458
27.454653521681404	1.8158455	1.3475331
27.472695969306564	1.8267072	1.3515574
27.490739111376627	1.815437	1.3473815
27.508782948419153	1.8120639	1.3461293
27.526827480961902	1.837276	1.3554616
27.54487270953279	1.8508705	1.360467
27.562918634659898	1.8545682	1.3618253
27.580965256871508	1.8054613	1.3436745
27.599012576696026	1.807631	1.3444817
27.617060594662068	1.8172385	1.3480499
27.63510931129842	1.8031799	1.3428253
27.65315872713401	1.7468603	1.3216884
27.67120884269797	1.7657549	1.3288171
27.68925965851958	1.8040963	1.3431666
27.707311175128307	1.8453854	1.3584497
27.725363393053787	1.8252887	1.3510325
27.74341631282583	1.8559356	1.3623272
27.7614699349744	1.9286338	1.3887526
27.77952426002968	2.116279	1.4547436
27.797579288521973	2.1222196	1.456784
27.815635020981784	2.5402212	1.5938071
27.83369145793979	2.6212018	1.6190126
27.85174859992682	2.4439616	1.5633175
27.869806447473923	2.361332	1.5366626
27.887865001112267	2.0735664	1.4399884
27.905924261373233	1.951756	1.3970526
27.92398422878836	1.8854841	1.3731294
27.94204490388936	1.9160781	1.3842248
27.96010628720813	1.9151294	1.383882
27.978168379276728	1.8576769	1.3629662
27.9962311806274	1.8154092	1.3473712
28.014294691792568	1.8638132	1.3652154
28.0323589133048	1.9081696	1.3813652
28.050423845696887	1.9102588	1.3821211
28.068489489501758	1.8803078	1.3712431
28.086555845252523	1.8515413	1.3607135
28.104622913482487	1.793822	1.3393364
28.122690694725115	1.8036517	1.343001
28.14075918951405	1.8882488	1.3741356
28.15882839838312	1.9168774	1.3845134
28.176898321866304	1.8885279	1.3742372
28.1949689604978	1.9189328	1.3852555
28.213040314811945	1.9839709	1.408535
28.23111238534327	1.9949899	1.4124411
28.249185172626493	1.9842682	1.4086405
28.267258677196473	1.9799639	1.4071119
28.285332899588294	1.9281776	1.3885883
28.303407840337172	1.917349	1.3846837
28.321483499978545	1.9374167	1.3919111
28.33955987904799	2.0027807	1.4151963
28.357636978081285	2.0007885	1.4144922
28.37571479761439	2.0301769	1.4248427
28.393793338183425	2.009442	1.417548
28.41187260032469	1.9940404	1.412105
28.429952584574686	2.0311549	1.4251859
28.448033291470065	2.0474942	1.4309068
28.46611472154769	2.0309844	1.4251261
28.484196875344566	1.9943744	1.4122232
28.502279753397914	1.9783293	1.406531
28.52036335624511	1.9508617	1.3967324
28.538447684423716	1.9261438	1.3878558
28.556532738471482	1.9813926	1.4076195
28.574618518926325	2.021358	1.4217447
28.59270502632635	2.020302	1.4213732
28.61079226120985	2.0295095	1.4246086
28.628880224115274	2.040365	1.4284134
28.646968915581287	1.9986281	1.4137285
28.66505833614671	1.9698534	1.4035146
28.68314848635055	1.9837058	1.408441
28.701239366732004	1.9776267	1.4062811
28.71933097783044	2.01827	1.4206583
28.737423320185403	2.1091213	1.4522815
28.75551639433665	2.1250136	1.4577427
28.773610200824074	2.0983527	1.4485692
28.791704740187793	2.0748007	1.4404168
28.80980001296809	2.0776722	1.4414133
28.827896019705413	2.0929816	1.446714
28.845992760940433	2.078548	1.441717
28.86409023721397	2.0503883	1.4319177
28.88218844906704	2.094227	1.4471445
28.900287397040845	2.1833875	1.4776291
28.918387081676755	2.2192087	1.4897009
28.936487503516343	2.244623	1.4982066
28.954588663101365	2.296429	1.5153973
28.97269056097374	2.2963068	1.515357
28.990793197675597	2.2571437	1.5023794
29.00889657374923	2.3183208	1.5226033
29.027000689737125	2.388371	1.5454355
29.04510554618196	2.3869762	1.5449842
29.06321114362659	2.4162514	1.5544297
29.08131748261405	2.4419518	1.5626745
29.099424563687567	2.4827347	1.5756696
29.11753238739057	2.5020897	1.5817995
29.13564095426663	2.5366447	1.5926847
29.15375026485954	2.5870025	1.6084162
29.171860319713275	2.6478834	1.6272318
29.18997111937199	2.6991694	1.6429149
29.20808266438002	2.7173545	1.64844
29.226194955281898	2.762165	1.6619762
29.244307992622335	2.760928	1.661604
29.26242177694624	2.7949567	1.6718124
29.2805363087987	2.86121	1.6915112
29.29865158872498	2.8822875	1.6977301
29.316767617270557	2.9187076	1.7084225
29.334884394981064	2.999477	1.7318997
29.353001922402367	3.0045702	1.7333696
29.37112020008047	3.0358326	1.742364
29.389239228561596	3.1232455	1.7672707
29.407359008392152	3.2759614	1.8099617
29.42547954011872	3.5251348	1.8775343
29.44360082428809	4.068418	2.017032
29.46172286144722	4.9558144	2.2261658
29.479845652143283	6.602404	2.5695143
29.497969196923606	9.4264555	3.0702534
29.516093496335728	13.321454	3.6498568
29.5342185509274	16.975964	4.1201897
29.55234436124651	20.167042	4.4907727
29.570470927841175	21.534483	4.6405263
29.588598251259686	21.352535	4.62088
29.60672633205055	19.591063	4.4261794
29.624855170762405	16.608547	4.0753584
29.642984767944146	12.926217	3.595305
29.66111512414481	9.448728	3.0738783
29.67924623991366	6.994261	2.6446664
29.697378115800138	5.248159	2.2908862
29.71551075235387	4.342744	2.083925
29.733644150124675	3.8660076	1.9662166
29.751778309662576	3.58474	1.893341
29.769913231517766	3.4082198	1.8461365
29.78804891624066	3.317052	1.8212775
29.806185364381818	3.2885716	1.8134419
29.82432257649206	3.3527079	1.8310401
29.842460553122333	3.3865507	1.8402584
29.86059929482382	3.3966699	1.8430057
29.878738802147872	3.3715613	1.8361812
29.896879075646048	3.3618126	1.8335246
29.915020115870114	3.3385992	1.8271834
29.933161923371976	3.306132	1.8182772
29.951304498703777	3.2237048	1.7954679
29.969447842417857	3.182286	1.7838963
29.987591955066733	3.1456807	1.7736067
30.005736837203123	3.1797435	1.7831836
30.023882489379943	3.2193587	1.7942572
30.04202891215028	3.2151012	1.7930703
30.060176106067455	3.2378705	1.7994083
30.078324071684946	3.2493634	1.8025991
30.09647280955646	3.1949315	1.7874371
30.114622320235863	3.136073	1.7708961
30.132772604277257	3.1125593	1.7642447
30.1509236622349	3.0993114	1.7604861
30.16907549466328	3.1365998	1.7710449
30.18722810211705	3.1283348	1.7687099
30.205381485151097	3.0899463	1.7578243
30.22353564432045	3.1076856	1.7628629
30.241690580180403	3.0200987	1.7378432
30.25984629328638	2.8961833	1.7018176
30.278002784194037	2.9261086	1.7105873
30.296160053459246	2.99246	1.7298728
30.314318101638033	3.0011928	1.732395
30.332476929286646	2.990049	1.7291758
30.35063653696153	2.9526055	1.7183148
30.368796925219307	2.909889	1.7058396
30.386958094616844	2.8723645	1.6948051
30.40512004571115	2.9186277	1.7083992
30.423282779059463	2.936843	1.713722
30.441446295219233	2.8928838	1.700848
30.459610594748067	2.888518	1.6995641
30.47777567820382	2.8844516	1.6983674
30.495941546144504	2.861605	1.6916279
30.51410819912835	2.8733854	1.6951063
30.532275637713795	2.8649163	1.6926063
30.55044386245946	2.8573897	1.6903815
30.56861287392416	2.8611078	1.691481
30.586782672666956	2.908635	1.705472
30.604953259247047	2.9097803	1.7058078
30.623124634223885	2.8098311	1.6762551
30.641296798157075	2.715713	1.6479421
30.659469751606462	2.7190206	1.6489453
30.677643495132074	2.7594242	1.6611515
30.695818029294152	2.75301	1.6592197
30.713993354653116	2.7505348	1.6584736
30.73216947176962	2.763991	1.6625255
30.75034638120448	2.747549	1.6575732
30.768524083518756	2.7194967	1.6490897
30.786702579273673	2.7472322	1.6574776
30.80488186903069	2.8339174	1.6834244
30.82306195335144	3.001782	1.7325652
30.841242832797782	3.2087793	1.7913066
30.85942450793176	3.4778051	1.8648875
30.877606979315637	3.9170783	1.979161
30.895790247511883	4.3316526	2.0812624
30.913974313083134	4.7512364	2.179733
30.932159176592283	5.1964526	2.279573
30.95034483860237	5.4885426	2.342764
30.968531299676698	5.4969068	2.3445482
30.98671856037873	5.224366	2.2856872
31.00490662127215	4.836097	2.1991127
31.023095482920848	4.2917743	2.0716598
31.04128514588892	3.7224042	1.9293534
31.059475610740662	3.2269309	1.796366
31.07766687804056	2.8357859	1.6839792
31.09585894835335	2.5627937	1.6008728
31.11405182224393	2.4948792	1.5795187
31.132245500277417	2.5131977	1.5853068
31.15043998301914	2.4865186	1.5768698
31.168635271034628	2.4425683	1.5628718
31.18683136488964	2.4180644	1.5550127
31.20502826515008	2.3784802	1.5422322
31.223225972382135	2.392773	1.546859
31.241424487152155	2.4247258	1.5571531
31.259623810026692	2.455514	1.567008
31.27782394157253	2.439496	1.5618886
31.296024882356644	2.4151556	1.5540771
31.314226632946237	2.42981	1.5587848
31.332429193908684	2.4784307	1.5743033
31.350632565811598	2.489933	1.5779521
31.368836749222787	2.4872348	1.5770969
31.387041744710295	2.4809527	1.575104
31.40524755284232	2.4699316	1.5716016
31.423454174187317	2.4703856	1.571746
31.441661609313922	2.516112	1.5862257
31.459869858791002	2.4623287	1.5691808
31.478078923187628	2.3905709	1.5461471
31.496288803073064	2.407727	1.5516852
31.514499499016807	2.437154	1.5611387
31.532711011588546	2.4917214	1.5785187
31.550923341358178	2.4768941	1.5738151
31.56913648889584	2.4534132	1.5663376
31.587350454771844	2.3461163	1.5317037
31.605565239556732	2.3727803	1.5403832
31.62378084382127	2.3738265	1.5407227
31.641997268136382	2.3269007	1.5254182
31.660214513073274	2.2568374	1.5022774
31.67843257920331	2.32566	1.5250114
31.6966514670981	2.3765743	1.5416142
31.71487117732944	2.3227983	1.5240729
31.733091710469346	2.3161097	1.521877
31.751313067090052	2.300973	1.5168958
31.769535247764008	2.2995257	1.5164187
31.787758253063878	2.3033683	1.5176852
31.805982083562526	2.3218122	1.5237494
31.824206739833024	2.3656116	1.5380545
31.84243222244869	2.3652718	1.5379441
31.860658531983013	2.3019867	1.5172299
31.878885669009737	2.2487478	1.4995825
31.897113634102784	2.282763	1.5108815
31.91534242783632	2.2015274	1.4837545
31.933572050784694	2.1342447	1.4609054
31.951802503522508	2.1583383	1.4691284
31.970033786624548	2.1957662	1.4818118
31.988265900665834	2.1854196	1.4783164
32.006498846221575	2.188308	1.4792931
32.02473262386724	2.206107	1.485297
32.04296723417845	2.1960726	1.4819151
32.0612026777311	2.1470177	1.4652705
32.07943895510129	2.1122499	1.4533582
32.097676066865304	2.1377764	1.4621136
32.115914013599685	2.1617458	1.4702877
32.13415279588115	2.1883047	1.4792919
32.152392414286666	2.1842875	1.4779335
32.1706328693934	2.156584	1.4685313
32.18887416177875	2.108967	1.4522283
32.20711629202032	2.1511846	1.4666917
32.225359260695924	2.1271136	1.4584627
32.243603068383614	2.1243634	1.4575197
32.26184771566166	2.133584	1.4606793
32.28009320310852	2.22388	1.4912679
32.2983395313029	2.2723343	1.5074264
32.31658670082372	2.2358978	1.4952918
32.33483471225012	2.0851479	1.444004
32.35308356616143	2.0961096	1.4477948
32.371333263137245	2.1219487	1.456691
32.38958380375734	2.069593	1.438608
32.407835188601744	2.0012786	1.4146656
32.42608741825067	2.0230756	1.4223486
32.444340493284585	2.0404575	1.4284458
32.46259441428416	2.0798693	1.4421751
32.48084918183028	2.1252189	1.457813
32.49910479650405	2.1695771	1.4729484
32.51736125888683	2.1577015	1.4689116
32.53561856956014	2.154552	1.4678392
32.5538767291058	2.1383204	1.4622997
32.572135738105764	2.1535542	1.4674993
32.59039559714228	2.1294515	1.459264
32.608656306797776	2.1299794	1.4594449
32.62691786765491	2.1159246	1.4546218
32.645180280296586	2.0586145	1.4347873
32.663443545305896	2.073927	1.4401135
32.68170766326619	2.102305	1.4499327
32.69997263476099	2.0853398	1.4440706
32.7182384603741	1.9908955	1.410991
32.7365051406895	2.010086	1.417775
32.75477267629144	2.0543327	1.4332944
32.77304106776434	2.090907	1.4459969
32.79131031569289	2.038243	1.4276705
32.809580420661966	2.0368478	1.4271817
32.827851383256714	2.0330176	1.4258393
32.84612320406245	2.0625446	1.4361562
32.86439588366476	1.9897258	1.4105765
32.88266942264945	1.9548942	1.3981754
32.9009438216025	1.9939378	1.4120686
32.9192190811102	2.0552282	1.4336067
32.937495201758985	2.0641973	1.4367315
32.95577218413556	2.0110629	1.4181194
32.974050028826866	1.953956	1.3978398
32.992328736420035	1.9225326	1.3865542
33.010608307502444	1.9214317	1.3861572
33.02888874266169	1.9162878	1.3843005
33.047170042485604	1.9272599	1.3882579
33.06545220756225	1.9647963	1.401712
33.083735238479896	1.9226832	1.3866085
33.10201913582707	1.9234804	1.386896
33.12030390019248	2.0448453	1.4299809
33.138589532165135	2.0362115	1.4269588
33.15687603233419	1.9103531	1.3821552
33.17516340128909	1.8935703	1.3760706
33.19345163961947	1.9447964	1.3945596
33.211740747915215	1.9961127	1.4128386
33.23003072676643	2.036269	1.426979
33.248321576763466	2.005324	1.4160945
33.266613298496885	1.8862123	1.3733945
33.28490589255747	1.8146689	1.3470964
33.30319935953626	1.8731251	1.3686216
33.32149370002451	1.9175261	1.3847476
33.339788914613706	1.9299841	1.3892387
33.358085003895575	1.9158971	1.3841593
33.376381968462034	1.9920269	1.4113919
33.39467980890529	2.0163581	1.4199853
33.41297852581774	1.9900566	1.4106936
33.43127811979204	1.9147358	1.3837398
33.44957859142105	1.8417865	1.3571243
33.467879941297866	1.8840888	1.3726212
33.486182170015844	1.904114	1.3798964
33.50448527816853	1.8800586	1.3711523
33.522789266349754	1.8677193	1.3666452
33.541094135153514	1.9378756	1.392076
33.55939988517411	1.9391019	1.3925164
33.57770651700602	1.9428426	1.3938589
33.59601403124398	1.9702082	1.403641
33.61432242848296	2.0333688	1.4259624
33.632631709318154	2.0413141	1.4287456
33.650941874344994	1.9822067	1.4079087
33.66925292415916	1.941952	1.3935394
33.68756485935654	1.8783311	1.3705221
33.70587768053328	1.8887664	1.374324
33.724191388285746	1.9266294	1.3880308
33.74250598321054	1.9556754	1.3984547
33.760821465904506	1.9104489	1.3821899
33.77913783696474	1.8362885	1.3550972
33.79745509698852	1.8365811	1.3552052
33.815773246573414	1.8782375	1.370488
33.8340922863172	1.8281416	1.3520879
33.852412216817896	1.8443496	1.3580683
33.87073303867377	1.9886879	1.4102085
33.889054752483304	2.0080187	1.4170458
33.907377358845245	1.994483	1.4122616
33.92570085835853	1.9441636	1.3943326
33.94402525162239	2.034118	1.4262251
33.96235053923627	2.0864763	1.444464
33.980676721799824	2.00845	1.417198
33.999003799912984	1.9689422	1.40319
34.01733177417592	1.938407	1.3922669
34.03566064518901	1.858919	1.3634218
34.0539904135529	1.7647055	1.3284222
34.07232107986846	1.9036407	1.3797249
34.090652644736785	1.9897432	1.4105825
34.108985108759235	2.0682702	1.4381481
34.12731847253742	2.1102026	1.4526536
34.14565273667313	2.0368621	1.4271868
34.16398790176847	1.9640801	1.4014565
34.18232396842574	1.9676048	1.4027133
34.20066093724749	1.9866223	1.4094759
34.21899880883651	1.9590919	1.3996756
34.23733758379583	1.9866065	1.4094703
34.25567726272874	1.9311852	1.389671
34.27401784623872	2.0034347	1.4154273
34.29235933492957	2.0612833	1.435717
34.31070172940526	2.1340613	1.4608427
34.32904503027003	2.1746995	1.4746863
34.347389238128386	1.9912916	1.4111314
34.36573435358502	1.9805447	1.4073182
34.38408037724492	2.0915287	1.4462118
34.402427309713296	2.1510797	1.466656
34.42077515159559	2.0491147	1.4314729
34.43912390349752	1.9347218	1.3909428
34.45747356602499	1.941387	1.3933367
34.47582413978423	1.8821614	1.3719189
34.49417562538163	1.872448	1.3683742
34.51252802342388	1.9587901	1.3995678
34.53088133451789	2.0994384	1.4489439
34.54923555927084	2.08195	1.4428964
34.567590698290104	2.0752385	1.4405688
34.58594675218336	2.0530083	1.4328322
34.6043037215585	2.0482233	1.4311615
34.62266160702365	1.9570397	1.3989424
34.641020409187234	1.9497862	1.3963474
34.65938012865785	1.9653803	1.4019202
34.677740766044394	2.0462403	1.4304686
34.69610232195598	2.0034146	1.4154203
34.714464797002016	2.078849	1.4418215
34.73282819179208	2.0883052	1.445097
34.751192506936064	2.0161014	1.4198948
34.76955774304408	1.8603302	1.3639393
34.7879239007265	1.8591858	1.3635197
34.80629098059391	1.9913836	1.4111639
34.824658983257194	2.0721567	1.4394988
34.843027909327446	1.9543787	1.397991
34.86139775941603	1.8445166	1.3581299
34.879768534134534	1.9944612	1.412254
34.89814023409483	2.1052678	1.4509541
34.91651285990901	1.9634176	1.4012201
34.93488641218944	1.9917271	1.4112856
34.95326089154871	1.9075512	1.3811413
34.97163629859967	1.7966822	1.3404038
34.99001263395542	1.6739762	1.2938223
35.00838989822934	1.8188425	1.3486447
35.02676809203499	1.8712356	1.3679311
35.04514721598624	1.8148992	1.3471819
35.063527270697215	1.8464289	1.3588337
35.081908256782256	1.9914113	1.4111737
35.10029017485597	2.084652	1.4438324
35.11867302553321	1.953895	1.397818
35.137056809429104	1.8545952	1.3618352
35.155441527159006	1.8551147	1.362026
35.173827179338524	1.8856175	1.3731779
35.19221376658354	2.0295014	1.4246057
35.21060128951017	2.056618	1.4340913
35.2289897487348	1.8354292	1.3547801
35.24737914487405	1.8626026	1.364772
35.26576947854479	2.0245144	1.4228543
35.28416075036418	1.8740208	1.3689488
35.30255296094958	1.8396868	1.3563505
35.32094611091867	2.1378443	1.4621369
35.33934020088932	2.1878302	1.4791316
35.35773523147969	2.0188653	1.4208678
35.3761312033082	1.8843044	1.3726996
35.394528116993506	1.7481519	1.3221769
35.41292597315452	1.9428551	1.3938633
35.431324772410434	2.2408788	1.4969565
35.449724515380666	2.330369	1.5265546
35.46812520268491	2.1048646	1.4508152
35.486526834943106	1.9624727	1.4008828
35.504929412775454	1.7648005	1.328458
35.52333293680242	1.5479728	1.2441756
35.54173740764471	1.4952488	1.2228037
35.560142825923286	1.676118	1.2946497
35.5785491922594	1.8192528	1.3487968
35.59695650727454	2.1961663	1.4819468
35.61536477159042	2.9491389	1.7173057
