0.008763373481513119	0.051685803	0.22734512
0.026290120649546365	0.18429624	0.4292974
0.043816868432600686	0.25537768	0.50534904
0.06134361724069026	0.25585026	0.5058164
0.07887036748382949	0.18642329	0.43176764
0.0963971195720331	0.12443878	0.3527588
0.11392387391531617	0.13962533	0.37366474
0.1314506309236943	0.16218418	0.40272096
0.1489773910071836	0.15135488	0.38904354
0.16650415457580078	0.11162103	0.33409733
0.18403092203956356	0.053323317	0.23091842
0.20155769380849	0.06358086	0.25215247
0.2190844702925996	0.118523635	0.3442726
0.2366112519019124	0.1396279	0.37366816
0.2541380390464497	0.19453739	0.4410639
0.27166483213623416	0.1369275	0.37003717
0.28919163158128947	0.17731534	0.42108828
0.3067184377916406	0.16786276	0.4097106
0.324245251177314	0.18636048	0.4316949
0.34177207214833777	0.19893122	0.44601706
0.3592989011147415	0.17368604	0.41675657
0.37682573848655654	0.20057748	0.44785878
0.39435258467381573	0.17353036	0.41656974
0.41187944008655414	0.14797862	0.38467988
0.42940630513480854	0.15829183	0.39785907
0.446933180228618	0.1701563	0.41250005
0.4644600657780234	0.20648696	0.45440835
0.48198696219306775	0.213795	0.46237972
0.49951386988379676	0.22369441	0.47296345
0.5170407892602581	0.1838599	0.42878887
0.5345677207325025	0.14430873	0.3798799
0.5520946647105822	0.09478898	0.3078782
0.5696216216045534	0.09894085	0.31454864
0.5871485918244737	0.16451871	0.40560907
0.6046755757804043	0.19021873	0.43614072
0.6222025738824094	0.19204289	0.43822697
0.6397295865405557	0.16977939	0.41204295
0.6572566141649129	0.15505531	0.39377064
0.6747836571655547	0.20717594	0.45516583
0.6923107159525568	0.18251617	0.42721912
0.7098377909359992	0.18168809	0.42624885
0.7273648825259653	0.15952745	0.39940888
0.7448919911325411	0.16745944	0.40921807
0.762419117165817	0.18829274	0.43392712
0.7799462610358868	0.19805433	0.44503295
0.7974734231528482	0.210929	0.4592701
0.8150006039268024	0.21427993	0.4629038
0.8325278037678551	0.23680922	0.48663047
0.8500550230861152	0.21928558	0.4682794
0.8675822622916969	0.22603951	0.47543612
0.8851095217947171	0.19581267	0.44250727
0.9026368020052984	0.19970994	0.4468892
0.9201641033335665	0.17319083	0.416162
0.9376914261896523	0.18826881	0.43389955
0.9552187709836915	0.22478542	0.4741154
0.9727461381258234	0.26014328	0.5100424
0.990273528026193	0.26230514	0.5121573
1.0078009410949496	0.25633574	0.5062961
1.0253283777422473	0.27253112	0.52204514
1.0428558383782454	0.29579514	0.5438705
1.0603833234131086	0.2973901	0.5453349
1.0779108332570058	0.32112	0.56667453
1.0954383683201119	0.3194212	0.5651736
1.112965929012607	0.35719556	0.5976584
1.1304935157446763	0.484302	0.6959181
1.1480211289265108	0.5598784	0.74825025
1.1655487689683062	1.5177915	1.2319868
1.1830764362802655	1.7916853	1.3385385
1.200604131272596	2.1619706	1.4703641
1.2181318543555117	2.3986537	1.5487587
1.235659605939232	2.4171999	1.5547347
1.253187386433982	3.7473426	1.9358054
1.270715196249994	6.139533	2.477808
1.2882430357975057	11.518418	3.3938797
1.3057709054867608	16.325745	4.040513
1.3232988057280106	22.385708	4.7313538
1.3408267369315112	27.456789	5.2399225
1.358354699507526	31.204412	5.586091
1.3758826938663256	35.07826	5.92269
1.3934107204181858	36.729477	6.060485
1.410938779573391	36.9487	6.078544
1.4284668717422309	37.501446	6.1238422
1.4459949973350033	37.37844	6.113791
1.4635231567620117	37.37254	6.1133084
1.4810513504335687	36.61592	6.051109
1.4985795787599925	35.72082	5.97669
1.5161078421516088	35.51915	5.9597945
1.5336361410187505	34.689945	5.889817
1.5511644757717598	34.80469	5.89955
1.5686928468209842	35.4806	5.956559
1.58622125457678	35.99671	5.999726
1.6037496994495108	36.95376	6.0789604
1.621278181849548	36.880764	6.0729537
1.6388067021872719	37.719967	6.1416583
1.6563352608730693	37.070812	6.0885806
1.673863858317336	35.86605	5.988827
1.6913924949304753	35.315105	5.9426513
1.7089211711228998	34.461235	5.8703694
1.7264498873050296	34.063164	5.8363657
1.7439786438872935	32.82303	5.7291384
1.7615074412801288	31.47771	5.6105
1.779036279893981	30.614532	5.53304
1.796565160139305	29.887	5.4669003
1.814094082426564	29.51447	5.432722
1.8316230471662298	28.842525	5.370524
1.849152054768784	28.00785	5.2922444
1.8666811056447168	27.396303	5.234148
1.8842102002045273	26.552776	5.152939
1.901739338858724	25.905237	5.089719
1.9192685220178245	25.55451	5.0551467
1.9367977500923557	24.962357	4.9962344
1.9543270234928547	24.500622	4.9498105
1.971856342629867	23.707127	4.8689966
1.9893857079139496	22.918453	4.787322
2.006915119755667	22.353758	4.7279763
2.0244445785655945	21.919079	4.681782
2.0419740847543175	21.783707	4.6673017
2.0595036387324317	21.532328	4.640294
2.0770332409105414	20.953083	4.5774536
2.094562891699263	20.39058	4.515593
2.1120925915092217	19.58863	4.4259043
2.129622340751053	19.325619	4.3960915
2.1471521398354043	187.76537	13.70275
2.1646819891729323	444.1558	21.075005
2.182211889174303	440.44803	20.986855
2.1997418402501974	452.661	21.275831
2.2172718428113023	432.3804	20.793758
2.234801897268317	320.25558	17.895687
2.2523320040319548	16.706476	4.0873556
2.269862163512935	16.498644	4.0618525
2.287392376121992	16.141903	4.017699
2.304922642269869	15.843712	3.980416
2.322452962367322	15.661392	3.9574478
2.3399833368251164	15.562519	3.9449358
2.357513766054032	15.419904	3.9268186
2.3750442504648586	15.134119	3.8902595
2.3925747904683963	14.891634	3.858968
2.410105386475459	14.687423	3.8324172
2.4276360388968707	14.435136	3.79936
2.445166748143469	13.994371	3.740905
2.4626975146261025	13.519436	3.6768785
2.4802283387556323	13.206736	3.6341074
2.4977592209429305	12.9492235	3.5985029
2.5152901615988825	12.933238	3.596281
2.5328211611343865	12.907363	3.592682
2.5503522199603523	12.76819	3.5732605
2.5678833384877024	12.520795	3.5384736
2.5854145171273712	12.234032	3.497718
2.6029457562903064	12.085441	3.476412
2.620477056387469	11.773762	3.4312916
2.6380084178298326	11.593139	3.4048698
2.655539841028383	11.377357	3.3730338
2.673071326394119	11.3550415	3.3697243
2.6906028743380523	11.035783	3.3220148
2.708134485271211	10.774131	3.282397
2.7256661596046325	10.567335	3.2507439
2.743197897749369	10.499362	3.2402718
2.760729700116486	10.565966	3.250533
2.778261567117063	10.439228	3.2309794
2.795793499162193	10.340162	3.2156122
2.8133254966629817	10.209181	3.195181
2.830857560030551	9.993826	3.1613014
2.8483896896760337	9.83659	3.1363337
2.865921886010578	9.525103	3.0862765
2.883454149445347	9.458459	3.0754607
2.9009864803915177	9.249095	3.0412326
2.91851887926028	9.044856	3.0074668
2.9360513464628384	8.965743	2.994285
2.953583882410413	8.737892	2.9559927
2.9711164875142373	8.649728	2.941042
2.9886491621855606	8.532748	2.9210868
3.0061819068356455	8.5344925	2.9213853
3.023714721875769	8.563725	2.9263844
3.041247607717225	8.5141535	2.9179022
3.0587805647713213	8.320146	2.8844662
3.0763135934493806	8.131315	2.851546
3.0938466941627407	8.041755	2.8357987
3.1113798673227544	7.9613748	2.821591
3.1289131133407904	7.915393	2.8134308
3.1464464326282315	7.814915	2.795517
3.1639798255964786	7.846179	2.801103
3.1815132926569443	7.766449	2.786835
3.1990468342210603	7.627724	2.7618334
3.216580450700272	7.475492	2.7341347
3.2341141425060416	7.347986	2.710717
3.251647910049847	7.238322	2.690413
3.2691817537431813	7.1720667	2.6780715
3.286715673997555	7.1169176	2.6677551
3.3042496712244938	7.193165	2.6820076
3.32178374583554	7.1193137	2.6682043
3.339317898242251	6.934486	2.6333413
3.3568521288562034	6.7557063	2.5991743
3.3743864380889876	6.6315517	2.57518
3.3919208263522127	6.578251	2.56481
3.4094552940575023	6.5339484	2.556159
3.4269898416164972	6.5640016	2.5620308
3.444524469440858	6.5261645	2.554636
3.4620591779422587	6.4769607	2.5449874
3.479593967532391	6.515061	2.5524616
3.4971288386229658	6.412261	2.5322442
3.5146637916257086	6.447327	2.5391588
3.5321988269523628	6.376784	2.5252295
3.5497339450146903	6.367583	2.523407
3.5672691462244708	6.3036084	2.5106988
3.5848044309934988	6.3101516	2.5120015
3.60233979973359	6.301001	2.5101795
3.619875252856575	6.30671	2.5113163
3.6374107907743034	6.234959	2.49699
3.6549464138986427	6.300709	2.5101213
3.6724821226414788	6.1846666	2.486899
3.690017917414714	6.219294	2.4938512
3.7075537986302702	6.2178683	2.4935653
3.7250897667000857	6.262041	2.502407
3.7426258220361235	6.400589	2.5299385
3.7601619650503553	6.6417494	2.5771592
3.777698196154779	7.2813497	2.6983976
3.7952345157614067	8.39284	2.89704
3.8127709242822716	9.157181	3.0260835
3.830307422129425	11.228636	3.3509157
3.847844009714936	30.047924	5.481599
3.8653806874508954	97.56367	9.877432
3.882917455749409	96.9334	9.845476
3.900454315022606	96.66242	9.831705
3.917991265682631	41.200066	6.418728
3.9355283081416506	10.942858	3.3079991
3.9530654428118495	8.804007	2.9671547
3.970602670105433	7.611686	2.7589285
3.9881399904346244	6.6631317	2.5813043
4.005677404211669	6.5243134	2.5542736
4.023214911848827	6.454298	2.5405312
4.0407525137583855	6.4526505	2.540207
4.058290210352644	6.380282	2.525922
4.075828002043927	6.2552085	2.5010414
4.0933658892445814	6.1345825	2.476809
4.110903872366966	6.1624	2.482418
4.128441951823468	6.1688647	2.4837198
4.145980128026488	6.170524	2.4840539
4.163518401388452	6.1834826	2.486661
4.181056772321807	6.0981317	2.4694395
4.1985952412390155	6.108297	2.4714968
4.216133808552567	6.171969	2.4843447
4.233672474674966	6.3291254	2.5157752
4.251211240018741	6.4651494	2.5426657
4.268750104996445	6.662939	2.5812669
4.286289070020643	7.5432677	2.746501
4.303828135503928	9.113758	3.0189002
4.3213673018589125	29.335115	5.41619
4.3389065694982305	90.561966	9.516405
4.356445938834537	165.82126	12.87716
4.3739854102805085	171.10202	13.080597
4.391524984248844	171.89677	13.110941
4.409064661152262	135.7699	11.652034
4.426604441403504	96.23797	9.810095
4.444144325415337	75.638115	8.697018
4.461684313600543	21.765717	4.6653743
4.47922440637193	22.15979	4.7074184
4.496764604142329	20.299143	4.505457
4.5143049073245916	18.40358	4.2899394
4.531845316331589	16.421932	4.052398
4.5493858315762195	13.575617	3.6845105
4.566926453471405	11.1587715	3.3404748
4.584467182430081	9.191789	3.0317962
4.602008018865218	7.9569182	2.820801
4.619548963189798	7.3504167	2.7111652
4.637090015816834	6.914149	2.629477
4.654631177159353	6.715517	2.5914314
4.672172447630417	6.452796	2.5402355
4.689713827643102	6.245446	2.499089
4.7072553176105085	5.9567447	2.4406443
4.724796917945764	5.7451777	2.39691
4.742338629062015	5.672379	2.3816757
4.759880451372434	5.707843	2.3891091
4.777422385290215	5.696414	2.3867161
4.794964431228581	5.6956034	2.3865464
4.812506589600768	5.6197805	2.3706076
4.830048860820047	5.6098785	2.368518
4.847591245299709	5.591749	2.364688
4.8651337434530655	5.6316404	2.3731077
4.882676355693457	5.627687	2.3722746
4.900219082434242	5.600556	2.3665493
4.917761924088813	5.508236	2.3469632
4.935304881070575	5.57349	2.360824
4.952847953792969	5.479277	2.3407855
4.970391142669449	5.4472294	2.33393
4.9879344481135055	5.3418055	2.3112347
5.005477870538642	5.3176627	2.3060057
5.023021410358394	5.3969975	2.323144
5.040565067986324	5.490437	2.3431683
5.05810884383601	5.484418	2.3418834
5.075652738321066	5.4804077	2.341027
5.09319675185512	5.3717756	2.3177092
5.110740884851836	5.3287334	2.308405
5.128285137724894	5.364718	2.3161862
5.145829510888007	5.3560023	2.3143039
5.163374004754908	5.409446	2.3258216
5.1809186197393595	5.3548827	2.3140619
5.198463356255145	5.2653713	2.2946396
5.216008214716077	5.2011786	2.2806091
5.233553195535998	5.1661053	2.2729068
5.251098299128764	5.2438993	2.289956
5.268643525908272	5.2601004	2.293491
5.286188876288432	5.3388824	2.3106022
5.3037343506831895	5.3582993	2.3148
5.32127994950651	5.3204184	2.3066032
5.3388256731723915	5.265962	2.2947683
5.356371522094851	5.1732693	2.2744823
5.373917496687938	5.150998	2.269581
5.391463597365729	5.118628	2.2624385
5.40900982454232	5.228173	2.2865198
5.426556178631843	5.250298	2.291353
5.444102660048449	5.2117515	2.282926
5.4616492692063225	5.138702	2.2668705
5.479196006519669	5.072659	2.2522564
5.496742872402727	5.082109	2.2543533
5.514289867269756	5.1121945	2.2610164
5.531836991535049	5.1611853	2.2718241
5.549384245612924	5.223695	2.2855403
5.566931629917724	5.2293296	2.2867727
5.584479144863822	5.1954494	2.279353
5.6020267908656205	5.1726003	2.2743351
5.619574568337545	5.1846914	2.2769918
5.637122477694054	5.173707	2.2745783
5.654670519349629	5.1276317	2.2644274
5.672218693718784	5.1155753	2.2617638
5.689767001216059	5.0955706	2.257337
5.707315442256021	5.1168976	2.262056
5.724864017253266	5.1075435	2.2599876
5.7424127266224225	5.150203	2.2694058
5.75996157077814	5.130252	2.2650058
5.777510550135105	5.100492	2.258427
5.795059665108022	5.0514336	2.2475395
5.812608916111639	5.102289	2.2588248
5.830158303560715	5.243821	2.2899392
5.847707827870055	5.2255135	2.2859383
5.86525748945448	5.2610855	2.2937057
5.8828072887288485	5.3891387	2.321452
5.900357226108044	5.461052	2.3368893
5.917907302006979	5.5993743	2.3662996
5.9354575168406	6.1577306	2.4814775
5.9530078710238765	6.789688	2.605703
5.970558364971812	7.2956905	2.7010536
5.988108999099438	7.6959667	2.7741606
6.005659773821818	8.340994	2.888078
6.023210689554039	8.057929	2.8386493
6.040761746711227	8.535502	2.9215581
6.058312945708531	7.8121023	2.795014
6.075864286961132	7.295302	2.7009816
6.093415770884244	6.59523	2.568118
6.1109673978931065	6.016021	2.4527578
6.128519168402993	5.4275293	2.329706
6.146071082829204	5.2616596	2.2938309
6.163623141587075	5.1333504	2.2656898
6.181175345091969	5.068141	2.2512531
6.198727693759281	5.0109363	2.238512
6.216280188004435	5.025936	2.24186
6.233832828242885	4.9841585	2.232523
6.251385614890126	5.020495	2.2406461
6.268938548361669	5.0675154	2.2511144
6.286491629073067	5.045427	2.2462027
6.304044857439898	5.043626	2.245802
6.321598233877777	4.947329	2.2242591
6.339151758802344	4.933826	2.2212217
6.356705432629277	5.0257134	2.2418103
6.37425925577428	5.0408745	2.2451892
6.391813228653095	5.0246754	2.2415788
6.409367351681486	4.977736	2.231084
6.426921625275259	4.927107	2.2197087
6.44447604985025	4.835907	2.1990695
6.46203062582232	4.818327	2.1950688
6.47958535360737	4.8878093	2.210839
6.497140233621328	4.9356594	2.2216344
6.514695266280161	4.951749	2.2252526
6.532250451999859	4.9750795	2.2304885
6.549805791196454	5.0615067	2.2497792
6.567361284286002	5.0849013	2.2549727
6.584916931684597	5.0635104	2.2502246
6.602472733808367	5.0320945	2.243233
6.6200286910734665	5.018134	2.2401192
6.637584803896092	5.037981	2.2445447
6.655141072692462	5.0008197	2.2362514
6.672697497878842	5.0375414	2.2444468
6.690254079871514	4.9978933	2.235597
6.707810819086808	4.9998207	2.236028
6.725367715941078	4.921692	2.2184887
6.742924770850719	4.8548636	2.2033756
6.760481984232151	4.8131247	2.1938834
6.778039356501836	4.857742	2.2040286
6.795596888076266	4.9169016	2.2174087
6.813154579371963	4.9634924	2.2278898
6.830712430805492	4.9375124	2.2220514
6.84827044279344	4.9669914	2.228675
6.865828615752445	4.982194	2.2320828
6.883386950099159	4.931689	2.2207406
6.900945446250287	4.9105124	2.2159677
6.918504104622553	4.883384	2.2098382
6.936062925632727	4.928298	2.2199771
6.953621909697607	5.011114	2.2385519
6.971181057234028	5.035715	2.24404
6.988740368658859	5.0528984	2.2478652
7.006299844389007	5.1311984	2.265215
7.023859484841407	5.2550874	2.2923977
7.041419290433036	5.356656	2.314445
7.058979261580902	5.411353	2.3262315
7.0765393987020495	5.544335	2.3546412
7.094099702213559	5.8647947	2.4217339
7.111660172532549	6.2208757	2.4941683
7.129220810076164	6.6766815	2.5839276
7.146781615261595	7.234744	2.689748
7.16434258850606	7.6062512	2.7579434
7.181903730226821	7.9509664	2.8197458
7.1994650408411704	8.12168	2.8498561
7.217026520766437	8.22005	2.867063
7.234588170419983	8.412956	2.9005096
7.252149990219215	8.439323	2.9050515
7.269711980581568	8.34772	2.8892422
7.2872741419245175	8.169726	2.8582733
7.304836474665574	7.770852	2.7876248
7.322398979222286	7.4033527	2.7209103
7.339961656012233	7.1499343	2.6739361
7.357524505453039	6.821985	2.611893
7.375087527962357	6.539814	2.557306
7.392650723957886	6.266713	2.5033405
7.410214093857353	5.9904504	2.4475396
7.427777638078528	5.7010384	2.3876848
7.445341357039213	5.4831705	2.341617
7.4629052511572525	5.2986965	2.3018897
7.480469320850524	5.2933497	2.300728
7.498033566536948	5.2222157	2.2852168
7.5155979886344735	5.1304193	2.2650428
7.5331625875610975	5.035646	2.2440245
7.550727363734844	5.0076084	2.2377687
7.568292317573788	4.9965053	2.2352865
7.585857449496025	5.0455904	2.2462392
7.603422759919705	5.1387463	2.2668803
7.620988249263007	5.1907883	2.27833
7.638553917944147	5.1833634	2.2767
7.656119766381391	5.175845	2.2750485
7.673685794993023	5.2077937	2.2820592
7.691252004197388	5.2738543	2.2964873
7.70881839441285	5.258544	2.2931516
7.726384966057826	5.2607784	2.2936387
7.743951719550762	5.2550373	2.2923868
7.761518655310149	5.2578764	2.293006
7.779085773754511	5.3170214	2.3058667
7.796653075302419	5.3230357	2.3071704
7.814220560372475	5.356427	2.3143957
7.831788229383323	5.25471	2.2923155
7.8493560827536495	5.214583	2.2835462
7.866924120902174	5.256707	2.292751
7.884492344247663	5.3001204	2.3021991
7.9020607532089135	5.3311677	2.308932
7.919629348204771	5.3604856	2.3152723
7.937198129654115	5.3726287	2.3178933
7.954767097975865	5.3949356	2.3227
7.972336253588986	5.4075212	2.3254077
7.989905596912472	5.4233775	2.3288145
8.007475128365371	5.396708	2.3230815
8.025044848366756	5.408108	2.3255339
8.042614757335754	5.517028	2.3488355
8.060184855691523	5.5586843	2.3576863
8.07775514385327	5.6529455	2.3775923
8.095325622240228	5.6748095	2.382186
8.112896291271687	5.7277174	2.393265
8.130467151366968	5.7778707	2.4037201
8.148038202945436	5.7377315	2.3953562
8.165609446426497	5.804837	2.409323
8.183180882229594	5.948998	2.4390569
8.200752510774217	6.036961	2.457023
8.218324332479893	5.9896355	2.4473732
8.235896347766193	5.9392138	2.43705
8.253468557052724	5.9401603	2.4372444
8.27104096075914	5.949385	2.4391363
8.288613559305137	6.0640917	2.4625378
8.306186353110448	6.216514	2.4932938
8.32375934259485	6.267527	2.503503
8.341332528178162	6.257311	2.5014617
8.358905910280246	6.210644	2.4921162
8.376479489321003	6.1864486	2.4872572
8.394053265720377	6.1586943	2.4816716
8.411627239898356	6.1770697	2.485371
8.42920141227497	6.203876	2.4907582
8.44677578327029	6.2677097	2.5035393
8.464350353304427	6.238368	2.4976726
8.48192512279754	6.1952767	2.4890313
8.499500092169827	6.125722	2.4750197
8.51707526184153	6.083875	2.4665513
8.534650632232934	6.0824146	2.4662552
8.552226203764365	6.0773454	2.4652271
8.569801976856192	6.1748543	2.4849255
8.587377951928834	6.2427034	2.4985402
8.60495412940274	6.2786446	2.5057223
8.622530509698416	6.2559447	2.5011888
8.6401070932364	6.377352	2.525342
8.657683880437283	6.5343757	2.5562425
8.675260871721695	6.69426	2.5873268
8.692838067510303	6.830064	2.613439
8.710415468223834	6.950152	2.6363142
8.727993074283043	7.0645657	2.6579251
8.745570886108737	7.0670667	2.6583955
8.763148904121765	7.1293054	2.670076
8.78072712874302	7.181389	2.6798112
8.798305560393441	7.477469	2.734496
8.815884199494006	7.6175194	2.7599854
8.833463046465745	7.7986846	2.7926126
8.851042101729728	7.9362545	2.8171358
8.86862136570707	8.221432	2.8673038
8.886200838818924	8.391518	2.8968117
8.903780521486505	8.41711	2.9012256
8.921360414131055	8.436996	2.904651
8.938940517173874	8.567334	2.927001
8.956520831036297	8.663844	2.943441
8.97410135613971	8.914474	2.9857116
8.99168209290554	9.043789	3.0072894
9.009263041755265	9.356254	3.0587993
9.026844203110405	9.621449	3.1018462
9.044425577392525	9.854914	3.1392536
9.062007165023239	9.973575	3.1580968
9.079588966424197	10.321906	3.2127724
9.097170982017108	10.395782	3.2242491
9.11475321222372	11.390252	3.3749447
9.132335657465825	12.251535	3.5002193
9.149918318165264	12.359096	3.5155506
9.167501194743924	12.946977	3.5981908
9.18508428762374	12.584741	3.5474977
9.202667597226693	12.513225	3.5374036
9.220251123974803	12.205609	3.4936528
9.237834868290143	11.950255	3.4569142
9.255418830594836	11.8379135	3.4406269
9.273003011311046	11.333865	3.3665807
9.290587410860985	11.023471	3.3201613
9.308172029666911	10.336134	3.2149858
9.32575686815113	9.992893	3.1611538
9.343341926735997	8.614501	2.935047
9.360927205843916	8.385985	2.8958566
9.378512705897327	8.263162	2.8745716
9.396098427318728	8.229297	2.868675
9.413684370530664	8.150374	2.854886
9.431270535955722	8.0711	2.8409681
9.448856924016539	7.954465	2.8203661
9.466443535135806	7.8050203	2.7937467
9.484030369736251	7.761937	2.7860253
9.501617428240658	7.7393556	2.7819698
9.519204711071852	7.7623763	2.7861042
9.536792218652714	7.7627063	2.7861633
9.55437995140617	7.8132386	2.795217
9.571967909755191	7.8072386	2.7941437
9.589556094122802	7.819168	2.7962775
9.60714450493207	7.901232	2.810913
9.624733142606116	7.9314113	2.816276
9.642322007568108	8.03393	2.8344188
9.659911100241267	8.063406	2.8396137
9.677500421048851	7.995754	2.8276763
9.695089970414175	7.94966	2.819514
9.712679748760609	7.994511	2.8274567
9.730269756511557	8.112047	2.8481655
9.747859994090492	8.234889	2.8696496
9.765450461920915	8.288132	2.8789115
9.78304116042639	8.289305	2.8791153
9.800632090030527	8.274444	2.8765333
9.81822325115699	8.239183	2.8703978
9.835814644229481	8.25249	2.8727148
9.853406269671762	8.31179	2.8830175
9.870998127907646	8.314336	2.883459
9.888590219360985	8.303598	2.8815966
9.906182544455698	8.236959	2.8700104
9.923775103615734	8.192908	2.8623257
9.941367897265108	8.234265	2.869541
9.958960925827878	8.302774	2.8814535
9.97655418972816	8.400397	2.8983438
9.994147689390106	8.397094	2.897774
10.011741425237934	8.351456	2.8898885
10.029335397695904	8.247003	2.8717594
10.04692960718833	8.122106	2.8499308
10.06452405413958	8.076699	2.8419535
10.082118738974064	8.152217	2.8552086
10.099713662116246	8.184141	2.8607938
10.117308823990651	8.200337	2.8636231
10.134904225021844	8.214759	2.8661401
10.152499865634445	8.15061	2.8549273
10.170095746253125	8.183485	2.8606791
10.18769186730261	8.088143	2.8439662
10.205288229207675	8.1122875	2.8482077
10.222884832393145	8.115807	2.8488255
10.2404816772839	8.130717	2.8514411
10.258078764304868	8.160916	2.8567317
10.275676093881035	8.125884	2.8505936
10.293273666437438	8.101426	2.8463004
10.310871482399158	8.141271	2.8532913
10.32846954219134	8.097014	2.8455253
10.346067846239173	8.128282	2.8510141
10.363666394967908	8.107433	2.8473556
10.38126518880283	8.185807	2.861085
10.398864228169298	8.186284	2.8611684
10.416463513492713	8.125199	2.8504736
10.434063045198531	8.007646	2.8297784
10.451662823712262	7.912509	2.8129182
10.469262849459467	8.000768	2.8285627
10.486863122865758	7.983762	2.825555
10.504463644356806	8.063581	2.8396447
10.522064414358338	7.9923277	2.8270705
10.539665433296118	7.8422523	2.8004022
10.557266701595987	7.7312727	2.7805166
10.574868219683818	7.663452	2.768294
10.592469987985552	7.6664796	2.7688408
10.610072006927185	7.6033087	2.7574098
10.627674276934751	7.5510936	2.7479253
10.64527679843435	7.377031	2.716069
10.662879571852143	7.2224884	2.6874688
10.680482597614331	7.130009	2.6702077
10.698085876147173	7.0260572	2.650671
10.715689407876988	6.959348	2.6380577
10.733293193230146	6.8686247	2.6208062
10.750897232633072	6.807574	2.6091328
10.76850152651225	6.7050824	2.5894175
10.786106075294207	6.5786285	2.5648837
10.803710879405534	6.478363	2.5452628
10.821315939272877	6.396861	2.5292017
10.83892125532294	6.2868395	2.5073571
10.856526827982472	6.2177725	2.4935462
10.874132657678285	6.16584	2.483111
10.891738744837243	6.1801586	2.4859924
10.909345089886271	6.1492343	2.479765
10.926951693252343	6.0816913	2.4661086
10.944558555362494	5.977691	2.4449317
10.96216567664381	5.879479	2.4247637
10.979773057523436	5.851949	2.4190803
10.997380698428573	5.8101807	2.4104316
11.014988599786477	5.7671404	2.401487
11.032596762024461	5.676608	2.3825634
11.050205185569892	5.632897	2.3733726
11.067813870850198	5.5801253	2.3622289
11.085422818292859	5.505201	2.3463163
11.10303202832541	5.4261823	2.3294168
11.120641501375454	5.3951793	2.3227525
11.138251237870636	5.370485	2.3174307
11.155861238238671	5.327398	2.3081157
11.173471502907317	5.2755604	2.2968588
11.191082032304402	5.206257	2.2817223
11.208692826857805	5.1045876	2.2593334
11.226303886995465	5.0381184	2.2445753
11.243915213145371	5.000751	2.2362359
11.261526805735578	4.913579	2.2166593
11.279138665194196	4.831126	2.1979823
11.296750791949393	4.751426	2.1797767
11.314363186429393	4.708869	2.169993
11.331975849062479	4.674197	2.1619892
11.34958878027699	4.6274242	2.151145
11.36720198050133	4.581921	2.1405423
11.384815450163948	4.5277596	2.1278532
11.402429189693366	4.4658833	2.1132636
11.420043199518153	4.404702	2.0987382
11.437657480066942	63.391396	7.961871
11.455272031768422	85.09447	9.224667
11.472886855051353	107.52988	10.369661
11.490501950344528	99.11095	9.955448
11.508117318076819	84.441536	9.189208
11.52573295867715	45.81028	6.768329
11.543348872574514	4.105671	2.0262456
11.560965060197946	4.1455493	2.0360622
11.57858152197655	4.0781226	2.0194361
11.59619825833949	3.9754422	1.9938511
11.613815269715985	3.9305801	1.9825691
11.631432556535323	38.442852	6.20023
11.649050119226837	82.99359	9.110082
11.666667958219929	93.38657	9.663672
11.68428607394406	107.6409	10.375013
11.701904466828756	82.42698	9.078931
11.719523137303586	65.29379	8.080458
11.737142085798196	4.5570607	2.1347272
11.754761312742286	3.7210178	1.9289939
11.772380818565619	3.7124774	1.926779
11.790000603698015	3.667772	1.9151428
11.80762066856935	3.6312582	1.9055861
11.825241013609572	3.641031	1.9081485
11.842861639248683	3.5874212	1.8940489
11.860482545916748	3.5609517	1.8870484
11.878103734043883	3.5120668	1.874051
11.895725204060282	3.4523199	1.858042
11.91334695639619	3.4119277	1.8471404
11.930968991481919	3.4138858	1.8476704
11.948591309747824	3.331706	1.8252962
11.966213911624347	3.2778852	1.8104931
11.98383679754198	3.1992097	1.7886335
12.001459967931268	3.1963892	1.7878449
12.019083423222835	3.237367	1.7992685
12.036707163847352	3.2264493	1.796232
12.05433119023556	3.193054	1.7869118
12.071955502818259	3.1715102	1.7808734
12.089580102026313	3.1435828	1.7730151
12.107204988290643	3.1344311	1.7704325
12.12483016204224	3.1092083	1.7632947
12.142455623712152	3.0817416	1.755489
12.16008137373149	3.0325673	1.7414268
12.177707412531431	3.0641675	1.7504764
12.19533374054321	3.0741715	1.7533315
12.212960358198126	3.081653	1.7554638
12.230587265927545	3.0556889	1.7480528
12.248214464162889	3.00048	1.7321893
12.265841953335649	3.0067585	1.7340007
12.283469733877375	2.9639874	1.7216234
12.301097806219685	2.9884322	1.7287083
12.31872617079425	2.9409695	1.7149255
12.336354828032825	2.9127183	1.7066687
12.353983778367205	2.940778	1.7148697
12.371613022229262	2.957529	1.7197468
12.389242560050928	2.9694614	1.7232125
12.406872392264201	2.9480891	1.717
12.424502519301143	2.941524	1.7150872
12.442132941593874	2.9452934	1.7161857
12.459763659574586	2.9009612	1.7032208
12.477394673675532	2.8735147	1.6951444
12.49502598432903	2.8264444	1.6812032
12.51265759196746	2.8586395	1.6907512
12.530289497023267	2.8587525	1.6907846
12.547921699928967	2.8559194	1.6899465
12.565554201117134	2.7944043	1.6716472
12.583187001020404	2.764115	1.6625628
12.600820100071486	2.804019	1.6745205
12.618453498703152	2.8090308	1.6760163
12.636087197348235	2.796741	1.672346
12.65372119643964	2.7731977	1.665292
12.671355496410326	2.7590735	1.6610459
12.68899009769333	2.753753	1.6594436
12.706625000721749	2.7942572	1.6716032
12.724260205928752	2.8672516	1.6932961
12.741895713747551	2.9245584	1.710134
12.759531524611454	2.9462023	1.7164505
12.777167638953818	2.9452305	1.7161673
12.794804057208072	2.9116583	1.7063582
12.812440779807702	2.9627104	1.7212526
12.830077807186271	3.1266563	1.7682353
12.847715139777405	3.1745713	1.7817327
12.865352778014795	3.4109004	1.8468623
12.882990722332197	3.5480716	1.8836325
12.90062897316344	3.6755755	1.917179
12.918267530942412	3.7608125	1.9392815
12.935906396103071	3.6367698	1.9070317
12.953545569079449	3.8266814	1.9561905
12.971185050305628	3.6349862	1.906564
12.988824840215775	3.6241179	1.9037116
13.006464939244115	3.5541797	1.8852532
13.024105347824943	3.3900433	1.841207
13.041746066392617	3.4941616	1.8692677
13.05938709538157	3.3093855	1.8191717
13.077028435226296	3.358603	1.8326492
13.094670086361363	3.309554	1.819218
13.112312049221401	3.255721	1.8043617
13.129954324241112	3.1489131	1.7745178
13.147596911855258	2.9155746	1.7075053
13.165239812498685	2.8854368	1.6986574
13.182883026606293	2.8246064	1.6806566
13.200526554613058	2.7556715	1.6600215
13.218170396954017	2.6991405	1.6429061
13.235814554064284	2.661418	1.6313853
13.253459026379034	2.6920638	1.640751
13.271103814333523	2.6626701	1.6317691
13.288748918363058	2.6670265	1.6331034
13.306394338903031	2.6673808	1.6332119
13.32404007638889	2.6891673	1.639868
13.341686131256164	2.6974695	1.6423975
13.359332503940449	2.6585073	1.6304929
13.376979194877402	2.6266599	1.6206974
13.394626204502751	2.6474257	1.6270912
13.412273533252307	2.6624992	1.6317166
13.429921181561937	2.6764803	1.6359951
13.447569149867581	2.6777244	1.6363754
13.465217438605247	2.6606135	1.6311387
13.482866048211022	2.664267	1.6322583
13.500514979121052	2.7143593	1.6475313
13.518164231771568	2.729067	1.6519889
13.535813806598844	2.7178507	1.6485906
13.553463704039254	2.6832407	1.63806
13.571113924529229	2.62951	1.6215764
13.588764468505275	2.6548507	1.6293713
13.606415336403956	2.6923964	1.6408523
13.624066528661917	2.7183554	1.6487436
13.641718045715882	2.787576	1.6696036
13.659369888002635	2.854209	1.6894404
13.67702205595903	2.94391	1.7157826
13.694674550021993	3.0129528	1.735786
13.712327370628532	3.0259168	1.7395163
13.729980518215713	3.0829213	1.7558249
13.747633993220681	3.147939	1.7742432
13.765287796080647	3.241125	1.8003125
13.7829419272329	3.3059156	1.8182178
13.800596387114801	3.346635	1.8293811
13.818251176163775	3.3775752	1.837818
13.835906294817324	3.411265	1.846961
13.853561743513023	3.4412334	1.8550562
13.871217522688525	3.4857152	1.867007
13.888873632781538	3.5115962	1.8739253
13.906530074229858	3.5241873	1.8772819
13.92418684747135	3.5266483	1.8779372
13.941843952943948	3.5113046	1.8738475
13.959501391085665	3.4192157	1.8491122
13.977159162334578	3.352243	1.8309132
13.994817267128846	3.342896	1.8283588
14.012475705906693	3.3119953	1.8198888
14.030134479106424	3.2789445	1.8107857
14.047793587166414	3.1338422	1.7702662
14.065453030525108	3.1084702	1.7630854
14.083112809621026	3.001951	1.7326139
14.100772924892766	2.9767268	1.7253193
14.118433376778997	2.9114716	1.7063035
14.136094165718458	2.8805165	1.6972084
14.153755292149969	2.7901819	1.6703837
14.171416756512416	2.7193406	1.6490424
14.189078559244768	2.657636	1.6302258
14.20674070078606	2.616676	1.6176143
14.224403181575408	2.5566971	1.5989676
14.242066002051999	2.4967322	1.5801052
14.259729162655093	2.4508586	1.5655218
14.277392663824022	2.469386	1.5714281
14.295056505998208	2.456164	1.5672153
14.312720689617128	2.4541855	1.566584
14.330385215120348	2.442991	1.563007
14.348050082947497	2.4221268	1.5563183
14.3657152935383	2.4152641	1.554112
14.383380847332528	2.4142575	1.5537881
14.401046744770051	2.422476	1.5564306
14.418712986290798	2.4426744	1.5629058
14.436379572334793	2.4493785	1.565049
14.454046503342123	2.428814	1.5584652
14.471713779752946	2.4048164	1.550747
14.489381402007504	2.404926	1.5507824
14.507049370546113	2.3878047	1.5452523
14.524717685809168	2.4015365	1.5496892
14.542386348237134	2.4234955	1.556758
14.560055358270553	2.4445949	1.5635201
14.577724716350051	2.4454408	1.5637906
14.595394422916325	2.460046	1.5684534
14.61306447841015	2.4717443	1.5721782
14.63073488327237	2.5066154	1.5832294
14.648405637943917	2.536718	1.5927078
14.6660767428658	2.5290582	1.5903013
14.683748198479094	2.5364294	1.5926172
14.701420005224954	2.5689685	1.6028003
14.719092163544628	2.644491	1.6261891
14.73676467387942	2.6793175	1.636862
14.754437536670727	2.687791	1.6394484
14.772110752360014	2.7055895	1.6448677
14.78978432138882	2.7015243	1.6436315
14.807458244198777	2.7214797	1.6496907
14.82513252123159	2.6785593	1.6366304
14.842807152929028	2.7518806	1.6588793
14.860482139732962	2.7289968	1.6519675
14.87815748208531	2.7112498	1.6465874
14.8958331804281	2.694928	1.6416236
14.91350923520342	2.6701493	1.6340592
14.931185646853438	2.7131977	1.6471788
14.948862415820408	2.7158237	1.6479756
14.966539542546656	2.721595	1.6497258
14.98421702747459	2.6666102	1.6329759
15.001894871046696	2.6655939	1.6326647
15.019573073705542	2.6904247	1.6402514
15.037251635893766	2.7107055	1.646422
15.054930558054092	2.752832	1.659166
15.072609840629323	2.8625088	1.691895
15.090289484062351	3.068623	1.7517486
15.107969488796124	3.6446517	1.9090971
15.125649855273691	4.5059695	2.122727
15.14333058393817	5.7862763	2.405468
15.161011675232768	7.3825774	2.71709
15.17869312960076	10.032641	3.1674345
15.196374947485506	14.148277	3.7614195
15.214057129330447	18.843971	4.3409643
15.231739675579114	23.065437	4.802649
15.249422586675102	25.231232	5.02307
15.267105863062092	24.215725	4.9209476
15.284789505183847	20.841743	4.5652757
15.302473513484218	16.79715	4.0984325
15.320157888407127	13.76013	3.709465
15.337842630396578	10.248304	3.2012973
15.355527739896656	7.411665	2.7224374
15.37321321735153	5.3416333	2.3111973
15.39089906320545	4.00698	2.0017443
15.408585277902748	3.342967	1.8283782
15.42627186188783	2.950163	1.7176038
15.443958815605198	2.7752233	1.6659001
15.461646139499424	2.7199574	1.6492293
15.479333834015168	2.7065039	1.6451455
15.497021899597165	2.6635475	1.6320379
15.514710336690234	2.5940096	1.610593
15.53239914573928	2.5403535	1.5938487
15.550088327189297	2.521377	1.5878844
15.567777881485336	2.5126355	1.5851295
15.58546780907256	2.510341	1.5844055
15.6031581103962	2.5039582	1.5823901
15.620848785901568	2.5191643	1.5871875
15.638539836034063	2.5320823	1.5912519
15.656231261239173	2.5421095	1.5943995
15.673923061962451	2.502752	1.5820088
15.691615238649552	2.4834063	1.5758827
15.709307791746202	2.4588978	1.5680873
15.727000721698221	2.408027	1.5517819
15.744694028951498	2.3743746	1.5409006
15.76238771395202	2.3700836	1.5395076
15.780081777145844	2.3983135	1.548649
15.797776218979125	2.4028702	1.5501194
15.815471039898094	2.435345	1.5605592
15.833166240349064	2.4281676	1.5582578
15.850861820778437	2.4348664	1.5604059
15.868557781632699	2.413342	1.5534935
15.886254123358412	2.4320178	1.5594928
15.903950846402232	2.4075866	1.5516399
15.921647951210897	2.4005213	1.5493616
15.939345438231225	2.3706467	1.5396905
15.957043307910133	2.376755	1.5416728
15.974741560694602	2.4328928	1.5597733
15.992440197031714	2.4136128	1.5535806
16.01013921736862	2.4063537	1.5512426
16.02783862215259	2.3701062	1.5395149
16.045538411830933	2.3919067	1.546579
16.06323858685107	2.3937247	1.5471667
16.080939147660512	2.4047306	1.5507194
16.09864009470684	2.4194422	1.5554556
16.11634142843774	2.4481452	1.564655
16.134043149300954	2.4438577	1.5632843
16.15174525774433	2.444724	1.5635613
16.169447754215817	2.4248085	1.5571797
16.18715063916342	2.4515898	1.5657554
16.204853913035244	2.4685593	1.571165
16.222557576279478	2.4712172	1.5720105
16.240261629344403	22.438263	4.736904
16.257966072678386	42.979225	6.5558543
16.275670906729868	38.071976	6.1702495
16.293376131947387	2.4882488	1.5774184
16.31108174877957	2.4835947	1.5759425
16.328787757675133	2.5537925	1.5980589
16.34649415908287	2.5985918	1.6120148
16.364200953451657	2.6323397	1.6224487
16.38190814123048	2.6614308	1.6313893
16.39961572286839	2.6922662	1.6408126
16.41732369881455	2.7177906	1.6485723
16.43503206951817	2.7698512	1.664287
16.45274083542859	2.7937624	1.6714551
16.47044999699522	2.828755	1.6818902
16.488159554667558	2.8749812	1.6955769
16.505869508895184	2.907105	1.7050234
16.523579860127786	2.9445693	1.7159748
16.541290608815117	2.9143298	1.7071408
16.559001755407035	2.9409132	1.7149091
16.57671330035348	3.0435503	1.7445774
16.59442524410448	3.1954656	1.7875866
16.61213758711015	3.288051	1.8132983
16.629850329820705	3.3511808	1.830623
16.647563472686436	3.422258	1.8499346
16.665277016157724	3.4729056	1.8635733
16.682990960685053	3.5076418	1.87287
16.70070530671898	3.5051734	1.8722109
16.718420054710155	3.5196269	1.8760668
16.736135205109335	3.5366576	1.8806003
16.753850758367335	3.5717034	1.8898951
16.771566714935087	3.6298182	1.9052082
16.789283075263597	3.6880474	1.920429
16.80699983980398	3.7558658	1.9380057
16.82471700900741	3.8461092	1.9611499
16.84243458332518	3.9126983	1.9780542
16.860152563208665	3.9915802	1.9978939
16.87787094910932	4.0259624	2.00648
16.89558974147871	4.0983667	2.0244424
16.913308940768466	4.1472087	2.0364697
16.931028547430333	4.2068815	2.0510683
16.94874856191613	4.2232885	2.0550642
16.966468984677785	4.293693	2.0721228
16.98418981616729	4.336868	2.0825148
17.00191105683676	4.405442	2.0989146
17.019632707138374	4.479441	2.1164691
17.03735476752442	4.5455065	2.1320193
17.05507723844728	4.580063	2.140108
17.072800120359403	4.627763	2.1512237
17.090523413713353	4.642866	2.154731
17.108247118961785	4.6345773	2.1528068
17.125971236557437	4.6758676	2.1623755
17.143695766953133	4.7118936	2.1706896
17.161420710601806	4.7261972	2.173982
17.179146067956477	4.6989493	2.167706
17.19687183947025	4.660207	2.1587512
17.21459802559634	4.6821885	2.1638365
17.232324626788028	4.6378326	2.1535628
17.25005164349871	4.645932	2.1554425
17.267779076181863	4.6594625	2.1585789
17.285506925291074	4.640297	2.1541348
17.30323519127999	4.6002054	2.144809
17.320963874602384	4.559488	2.1352956
17.33869297571211	4.575819	2.1391165
17.356422495063114	4.562277	2.1359487
17.37415243310944	4.547528	2.1324933
17.391882790305218	4.534446	2.1294239
17.40961356710468	4.5585093	2.1350665
17.42734476396215	4.6547723	2.1574922
17.445076381332044	4.7806354	2.1864665
17.462808419668868	5.1472	2.2687442
17.48054087942723	5.6739097	2.381997
17.498273761061835	6.8132396	2.6102183
17.51600706502747	8.348039	2.8892972
17.533740791779024	10.5493965	3.2479835
17.551474941771485	13.517365	3.6765969
17.56920951545993	15.63477	3.9540827
17.586944513299528	16.96869	4.119307
17.60467993574556	18.010025	4.243822
17.622415783253373	18.486872	4.2996364
17.64015205627843	18.564152	4.308614
17.657888755276293	17.90601	4.2315493
17.675625880702604	16.442156	4.054893
17.69336343301311	14.944506	3.8658125
17.71110141266366	12.994374	3.6047711
17.728839820110178	11.3509445	3.3691163
17.746578655808705	9.857058	3.139595
17.764317920215372	8.38695	2.896023
17.7820576137864	6.867827	2.6206539
17.79979773697811	5.578744	2.3619366
17.81753829024692	4.722692	2.1731756
17.835279274049356	4.1634083	2.0404432
17.85302068884201	3.9062812	1.9764315
17.870762535081607	3.7611578	1.9393704
17.888504813224934	3.6855068	1.9197674
17.90624752372891	3.6491003	1.9102619
17.923990667050536	3.6086996	1.8996577
17.941734243646895	3.6146498	1.9012232
17.959478253975185	3.5923562	1.8953512
17.9772226984927	3.5233264	1.8770525
17.994967577656833	3.4396641	1.8546331
18.01271289192506	3.4105935	1.8467792
18.030458641754965	3.3836288	1.8394643
18.04820482760425	3.373208	1.8366295
18.06595144993067	3.311709	1.8198102
18.083698509192125	3.3011925	1.8169184
18.101446005846576	3.3037047	1.8176097
18.119193940352105	3.2701538	1.8083566
18.136942313166887	3.2579546	1.8049805
18.1546911247492	3.253841	1.8038406
18.1724403755574	3.2748303	1.8096492
18.19019006604997	3.251241	1.8031198
18.207940196685467	3.2329912	1.7980521
18.225690767922575	3.181718	1.7837371
18.243441780220046	3.1641092	1.7787943
18.261193234036764	3.1435452	1.7730045
18.278945129831676	3.1331003	1.7700566
18.29669746806386	3.1230147	1.7672054
18.314450249192483	3.1155019	1.7650784
18.3322034736768	3.0785663	1.7545843
18.349957141976184	3.0284624	1.7402478
18.3677112545501	3.0093093	1.7347361
18.385465811858108	3.036089	1.7424376
18.403220814359884	3.0567973	1.7483699
18.420976262515172	3.0809097	1.755252
18.43873215678387	3.1426108	1.7727411
18.456488497625923	3.1869404	1.7852004
18.474245285501407	3.2467756	1.8018812
18.492002520870486	3.2829435	1.8118895
18.50976020419343	3.3541346	1.8314296
18.527518335930615	3.7048542	1.9247998
18.545276916542516	4.4001393	2.097651
18.563035946489688	4.6191354	2.1492174
18.580795426232832	5.102678	2.2589107
18.598555356232698	4.959213	2.226929
18.616315736950185	5.233663	2.28772
18.63407656884626	4.8448453	2.2011008
18.65183785238201	5.0117683	2.238698
18.669599588018617	4.7044716	2.1689794
18.68736177621737	4.693184	2.1663756
18.705124417439652	4.6377187	2.1535363
18.72288751214696	4.480193	2.1166468
18.740651060800886	4.6116447	2.147474
18.758415063863115	4.348328	2.0852644
18.77617952179546	4.4849076	2.11776
18.793944435059814	4.208055	2.0513544
18.811709804118184	4.2402625	2.0591898
18.829475629432675	4.2106137	2.051978
18.8472419114655	3.9758208	1.9939461
18.86500865067897	4.079434	2.0197608
18.88277584753551	3.7612033	1.9393822
18.90054350249763	3.8016465	1.9497812
18.918311616027957	3.5191813	1.8759481
18.936080188589226	3.4205713	1.8494787
18.953849220644265	3.0464046	1.7453953
18.971618712656007	2.8578863	1.6905284
18.9893886650875	2.7992609	1.6730992
19.007159078401887	7.979499	2.8248007
19.024929953062408	32.857124	5.7321134
19.042701289532435	32.815628	5.7284927
19.060473088275405	25.365446	5.0364122
19.07824534975489	2.6171772	1.6177692
19.096018074434568	2.6028922	1.6133481
19.113791262778197	2.5990553	1.6121585
19.13156491524966	2.5813642	1.6066624
19.149339032312945	2.5662248	1.6019441
19.167113614432136	2.5935242	1.6104423
19.184888662071433	2.5819526	1.6068455
19.202664175695123	2.5495558	1.5967329
19.220440155767623	2.5408096	1.5939918
19.238216602753447	2.5188093	1.5870757
19.2559935171172	2.5424304	1.5945001
19.27377089932361	2.563417	1.6010674
19.291548749837514	2.5259044	1.5893095
19.309327069123835	2.488588	1.577526
19.32710585764763	2.4625728	1.5692587
19.344885115874032	2.4664922	1.5705069
19.362664844268313	2.5027733	1.5820156
19.380445043295822	2.4730434	1.5725913
19.39822571342203	2.4702063	1.571689
19.41600685511252	2.454685	1.5667434
19.43378846883297	2.5105782	1.5844804
19.451570555049173	2.5326488	1.5914298
19.469353114227037	2.521051	1.5877818
19.48713614683254	2.5048215	1.5826628
19.50491965333182	2.4575312	1.5676515
19.52270363419109	2.465741	1.5702678
19.540488089876686	2.5044825	1.5825557
19.55827302085503	2.539327	1.5935266
19.576058427592674	2.5449872	1.5953016
19.593844310556282	2.5384421	1.593249
19.611630670212598	2.489471	1.5778058
19.629417507028506	2.4723895	1.5723834
19.64720482147098	2.4810061	1.575121
19.6649926140071	2.509773	1.5842264
19.682780885104084	2.5208557	1.5877203
19.70056963522921	2.5151389	1.5859189
19.718358864849908	2.5005143	1.5813015
19.7361485744337	2.4519293	1.5658637
19.753938764448215	2.4745295	1.5730637
19.771729435361202	2.4715474	1.5721155
19.789520587640506	2.5009458	1.581438
19.807312221754092	2.519754	1.5873733
19.825104338170043	2.5559304	1.5987277
19.842896937356517	2.5962095	1.6112758
19.860690019781824	2.5475783	1.5961136
19.87848358591436	2.4880402	1.5773523
19.896277636222635	2.4386942	1.5616319
19.914072171175278	2.4239075	1.5568904
19.931867191241015	2.4199607	1.5556223
19.94966269688869	2.4522421	1.5659636
19.967458688587264	2.483261	1.5758367
19.985255166805807	2.527096	1.5896842
20.00305213201348	2.523807	1.5886494
20.020849584679578	2.4938567	1.5791949
20.038647525273507	2.4668646	1.5706255
20.05644595426477	2.4989412	1.580804
20.07424487212299	2.4441288	1.563371
20.092044279317903	2.4209998	1.5559562
20.109844176319353	2.4011922	1.5495781
20.127644563597304	2.3989925	1.5488682
20.145445441621817	2.4225302	1.556448
20.16324681086307	2.4601507	1.5684868
20.181048671791373	2.4610841	1.5687842
20.198851024877122	2.4116843	1.5529598
20.216653870590836	2.424158	1.5569708
20.234457209403146	2.3900867	1.5459905
20.252261041784802	2.3674064	1.5386379
20.270065368206662	2.3939302	1.5472331
20.287870189139685	2.3974378	1.5483662
20.305675505054968	2.403869	1.5504415
20.323481316423702	2.3893535	1.5457534
20.341287623717207	2.394795	1.5475125
20.359094427406884	2.3794632	1.5425509
20.376901727964288	2.379776	1.5426522
20.39470952586107	2.363557	1.5373864
20.41251782156899	2.3563654	1.5350457
20.430326615559935	2.3704793	1.5396361
20.448135908305886	2.3523	1.533721
20.465945700278965	2.3337178	1.5276511
20.483755991951384	2.328935	1.5260848
20.50156678379548	2.3337066	1.5276474
20.519378076283708	2.316974	1.5221609
20.537189869888635	2.3280857	1.5258065
20.55500216508294	2.3500872	1.5329994
20.572814962339415	2.3694344	1.5392967
20.59062826213098	2.3943207	1.5473592
20.60844206493066	2.3976266	1.5484271
20.626256371211593	2.3757057	1.5413325
20.644071181447032	2.338527	1.5292243
20.66188649611036	2.3562942	1.5350225
20.67970231567506	2.3437762	1.5309397
20.697518640614742	2.313732	1.5210956
20.715335471403122	2.2734656	1.5078015
20.73315280851404	2.2911837	1.5136657
20.750970652421447	2.313915	1.5211558
20.768789003599412	2.3225744	1.5239995
20.786607862522136	2.3126283	1.5207328
20.8044272296639	2.3127503	1.5207729
20.82224710549913	2.3072047	1.5189486
20.84006749050237	2.3143106	1.5212858
20.857888385148268	3.8606846	1.9648625
20.8757097899116	45.954113	6.7789464
20.893531705267254	64.771484	8.048074
20.911354131690224	83.7863	9.153485
20.92917706965566	69.04983	8.309623
20.94700051963877	50.144444	7.081274
20.96482448211493	29.417599	5.4237995
20.982648957559622	4.1450453	2.0359385
21.00047394644843	2.2240224	1.4913156
21.01829944925707	2.1979349	1.4825433
21.036125466461375	2.2095602	1.4864589
21.053951998537297	2.196075	1.481916
21.071779045960906	2.2017066	1.483815
21.089606609208378	2.2269464	1.4922956
21.10743468875603	2.2349143	1.4949629
21.12526328508028	2.219878	1.4899255
21.143092398657675	2.197059	1.482248
21.16092202996488	2.17844	1.4759539
21.17875217947867	2.1825244	1.4773369
21.19658284767596	2.1920211	1.4805475
21.21441403503377	2.2221744	1.490696
21.232245742029225	2.2014747	1.4837368
21.2500779691396	2.207261	1.4856853
21.26791071684227	2.175157	1.4748414
21.28574398561475	2.1583939	1.4691473
21.30357777593465	2.152446	1.4671217
21.321412088279704	2.1523032	1.467073
21.339246923127792	2.1599302	1.46967
21.357082280956888	2.1253753	1.4578667
21.3749181622451	2.1153345	1.454419
21.392754567470647	2.1123555	1.4533944
21.41059149711187	2.140625	1.4630874
21.42842895164726	2.129631	1.4593256
21.446266931555378	2.1060815	1.4512345
21.464105437314945	2.1103997	1.4527215
21.481944469404798	2.1311843	1.4598577
21.49978402830388	2.1212337	1.4564456
21.51762411449127	2.120293	1.4561225
21.53546472844617	2.1171558	1.455045
21.553305870647876	2.0992928	1.4488937
21.571147541575865	2.0818014	1.4428449
21.58898974170967	2.0596557	1.43515
21.60683247152899	2.0730855	1.4398214
21.62467573151363	2.0729716	1.4397818
21.642519522143523	2.0793667	1.442001
21.660363843898722	2.0958638	1.4477098
21.6782086972594	2.0983565	1.4485705
21.696054082705864	2.0637517	1.4365764
21.713900000718535	2.036937	1.4272131
21.73174645177795	2.024011	1.4226774
21.749593436364794	1.9968888	1.4131131
21.767440954959845	1.9883964	1.4101051
21.785289008044032	2.0177696	1.4204822
21.803137596098388	2.0593863	1.4350562
21.820986719604086	2.0643194	1.4367739
21.838836379042412	2.0514448	1.4322865
21.85668657489478	2.0406935	1.4285284
21.87453730764273	2.032551	1.4256756
21.892388577767914	2.022423	1.4221193
21.91024038575213	1.9992433	1.413946
21.928092732077285	1.9852066	1.4089736
21.945945617225426	1.9925675	1.4115833
21.963799041678694	2.0046864	1.4158695
21.981653005919398	31.30551	5.595133
21.999507510429943	78.101494	8.837505
22.01736255569286	73.068985	8.548039
22.035218142190818	4.193506	2.047805
22.05307427040661	2.0135272	1.4189881
22.07093094082315	2.0338888	1.4261447
22.088788153923474	2.02831	1.4241875
22.106645910190746	2.0311606	1.425188
22.12450421010827	2.0030715	1.415299
22.142363054159464	1.9930956	1.4117703
22.16022244282787	1.9978582	1.4134561
22.178082376597164	2.016802	1.4201416
22.195942855951145	2.0015385	1.4147574
22.213803881373742	1.9846655	1.4087815
22.231665453349002	1.9838637	1.408497
22.24952757236111	2.0004325	1.4143665
22.26739023889438	1.9942664	1.412185
22.28525345343323	1.9767629	1.405974
22.30311721646225	1.9921114	1.4114218
22.320981528466113	1.9883832	1.4101005
22.33884638992964	1.9716091	1.40414
22.356711801337788	1.9751797	1.4054109
22.37457776317561	1.9870102	1.4096135
22.392444275928337	2.0057542	1.4162465
22.410311340081282	2.011252	1.4181862
22.428178956119904	1.9846169	1.4087644
22.446047124529805	1.992751	1.4116483
22.46391584579669	1.999261	1.4139522
22.481785120406414	1.9832026	1.4082623
22.49965494884496	1.9453124	1.3947445
22.51752533159841	1.9408954	1.3931602
22.53539626915302	1.9433279	1.394033
22.553267761995137	1.9826684	1.4080726
22.571139810611264	2.0094638	1.4175556
22.589012415488025	2.020152	1.4213206
22.60688557711216	2.013207	1.4188752
22.624759295970566	1.9794306	1.4069223
22.642633572550263	1.9627162	1.4009697
22.660508407338362	1.9121522	1.382806
22.67838380082217	1.9011654	1.3788276
22.696259753489077	1.9215437	1.3861976
22.714136265826614	1.9273207	1.3882798
22.73201333832246	1.9160291	1.384207
22.74989097146439	1.9314018	1.3897488
22.76776916574035	1.9252338	1.387528
22.785647921638393	1.8864269	1.3734726
22.803527239646712	1.890012	1.3747771
22.82140712025363	1.898798	1.3779688
22.839287563947593	1.9327815	1.3902451
22.85716857121719	1.9225533	1.3865616
22.875050142551135	1.9401329	1.3928865
22.892932278438277	1.9294585	1.3890495
22.910814979367604	1.8569008	1.3626815
22.928698245828222	1.8157693	1.3475049
22.946582078309387	1.837207	1.3554361
22.96446647730047	1.8973777	1.3774533
22.98235144329098	1.9433012	1.3940234
23.000236976770562	1.9431926	1.3939844
23.018123078229	1.9171356	1.3846066
23.03600974815619	1.91812	1.3849621
23.053896987042194	1.9642001	1.4014993
23.071784795377173	1.955553	1.3984109
23.08967317365145	1.9379311	1.3920959
23.10756212235546	1.8930742	1.3758903
23.125451641979787	1.9095762	1.3818742
23.143341733015134	1.926902	1.388129
23.161232395952357	1.9176446	1.3847904
23.179123631282426	1.9172812	1.3846592
23.197015439496468	1.900611	1.3786265
23.214907821085717	1.9520096	1.3971434
23.23280077654157	1.9601868	1.4000667
23.250694306355538	1.9356531	1.3912776
23.268588411019277	1.8843497	1.3727162
23.28648309102458	1.9036763	1.3797377
23.304378346863356	1.9300237	1.3892529
23.322274179027676	1.9609818	1.4003506
23.340170588009723	1.966952	1.4024806
23.358067574301852	1.9932287	1.4118176
23.37596513839651	2.0179071	1.4205306
23.39386328078629	1.99023	1.4107552
23.411762001963947	1.9792595	1.4068615
23.429661302422353	1.9699187	1.403538
23.4475611826545	1.9887443	1.4102285
23.46546164315356	1.9778441	1.4063585
23.48336268441279	1.9738628	1.4049423
23.501264306925638	1.9490048	1.3960676
23.51916651118564	1.9421989	1.393628
23.537069297686497	1.8974739	1.3774883
23.554972666922037	1.9066006	1.380797
23.57287661938623	1.9096961	1.3819176
23.59078115557318	1.8839343	1.3725648
23.608686275977128	1.8988167	1.3779756
23.62659198109246	1.8899643	1.3747598
23.6444982714137	1.8805289	1.3713238
23.66240514743549	1.8793502	1.370894
23.68031260965263	1.9132886	1.3832167
23.698220658560068	1.9207855	1.3859241
23.716129294652845	1.9195977	1.3854955
23.7340385184262	1.9203702	1.3857743
23.75194833037546	1.9304197	1.3893955
23.769858730996123	1.9561589	1.3986275
23.78776972078382	1.9571613	1.3989859
23.80568130023431	1.9390974	1.3925148
23.823593469843495	1.8963456	1.3770787
23.841506230107424	1.9164405	1.3843557
23.859419581522275	1.9399039	1.3928043
23.87733352458438	1.9345111	1.390867
23.89524805979019	1.909746	1.3819356
23.913163187636318	1.9323272	1.3900818
23.931078908619508	1.9549444	1.3981932
23.948995223236633	1.9773362	1.4061779
23.966912131984735	1.9873579	1.4097368
23.98482963536096	2.0552466	1.4336132
24.002747733862616	2.0622697	1.4360604
24.020666427987155	2.066851	1.4376546
24.038585718232156	2.0565236	1.4340584
24.056505605095353	2.0631666	1.4363728
24.074426089074617	2.0822499	1.4430003
24.092347170667946	2.1340792	1.4608488
24.110268850373515	2.1252022	1.4578073
24.128191128689586	2.0969987	1.4481018
24.146114006114626	2.009139	1.417441
24.164037483147187	1.9989588	1.4138454
24.181961560286005	2.0352464	1.4266206
24.199886238029926	2.0801098	1.4422586
24.21781151687797	2.0671563	1.4377608
24.235737397329274	2.038707	1.427833
24.253663879883135	2.023382	1.4224563
24.271590965038975	2.0721118	1.4394832
24.289518653296376	2.113053	1.4536344
24.30744694515505	2.106442	1.4513587
24.32537584111486	2.0771976	1.4412487
24.34330534167581	2.0736814	1.4400282
24.361235447338046	2.1045918	1.4507211
24.379166158601876	2.093677	1.4469544
24.39709747596772	2.091368	1.4461563
24.41502939993615	2.0643876	1.4367976
24.432961931007917	2.0521126	1.4325197
24.450895069683856	2.0448296	1.4299754
24.468828816465	2.0146987	1.4194008
24.4867631718525	1.9754158	1.4054948
24.504698136347656	1.9702003	1.4036382
24.52263371045192	1.9459856	1.3949859
24.540569894666874	1.9133583	1.383242
24.558506689494266	1.9271711	1.3882259
24.57644409543597	1.9781784	1.4064773
24.594382112994012	2.0179071	1.4205306
24.61232074267057	1.9965156	1.4129812
24.630259984967953	1.9537013	1.3977486
24.64819984038863	1.9305027	1.3894253
24.66614030943522	1.9617629	1.4006295
24.684081392610462	1.9986031	1.4137197
24.702023090417274	2.0480852	1.4311132
24.7199654033587	2.082111	1.4429522
24.737908331937927	2.096173	1.4478166
24.755851876658305	2.1234498	1.4572061
24.773796038023324	2.097592	1.4483067
24.79174081653661	2.143431	1.4640461
24.809686212701962	2.181604	1.4770254
24.827632227023294	2.2265854	1.4921747
24.8455788600047	2.2409978	1.4969963
24.8635261121504	2.2763424	1.5087552
24.88147398396475	2.2809076	1.5102674
24.899422475952303	2.2819946	1.5106273
24.917371588617698	2.4040513	1.5505004
24.935321322465768	2.6933262	1.6411357
24.953271678001478	3.165959	1.7793142
24.97122265572994	3.645956	1.9094387
24.989174256156414	4.138795	2.0344028
25.00712647978632	4.7346168	2.1759174
25.02507932712521	5.346207	2.3121867
25.043032798678798	6.1853995	2.4870462
25.060986894952933	7.264317	2.6952398
25.078941616453637	7.9041176	2.8114262
25.096896963687055	8.117662	2.8491511
25.114852937159508	7.7470884	2.7833593
25.132809537377444	6.892043	2.6252701
25.150766764847468	5.7781963	2.4037879
25.168724620076347	4.3565917	2.087245
25.186683103570985	3.3976793	1.8432795
25.204642215838426	2.715057	1.647743
25.222601957385894	2.2977529	1.5158341
25.24056232872074	2.1358683	1.4614611
25.25852333035048	2.0784645	1.4416881
25.276484962782778	2.0330398	1.425847
25.294447226525435	1.9719272	1.4042532
25.312410122086423	1.9408308	1.3931371
25.330373649973843	1.9492294	1.3961481
25.348337810695988	1.9390838	1.3925099
25.366302604761245	1.9566747	1.3988119
25.384268032678207	1.971965	1.4042667
25.40223409495558	1.988744	1.4102284
25.420200792102257	1.9570543	1.3989476
25.438168124627246	1.9743928	1.4051309
25.45613609303974	1.9637973	1.4013555
25.474104697849057	1.9610317	1.4003685
25.492073939564698	1.9327512	1.3902342
25.510043818696285	1.9582256	1.3993661
25.528014335753614	1.9609616	1.4003434
25.54598549124664	1.9730791	1.4046633
25.56395728568544	1.9192299	1.3853627
25.58192971958028	1.847176	1.3591086
25.59990279344156	1.8485188	1.3596025
25.617876507779833	1.8865968	1.3735344
25.635850863105826	1.90508	1.3802463
25.653825859930386	1.9024822	1.379305
25.671801498764548	1.8804811	1.3713063
25.68977778011949	1.9098164	1.3819611
25.707754704506524	1.9405323	1.3930299
25.725732272437153	1.9301319	1.3892919
25.743710484423012	1.9377198	1.3920201
25.761689340975888	1.9181678	1.3849794
25.77966884260774	1.8930743	1.3758904
25.797648989830662	1.9485906	1.3959193
25.815629783156922	1.9775589	1.406257
25.83361122309895	1.9887555	1.4102324
25.85159331016929	1.9916842	1.4112704
25.869576044880695	1.9412417	1.3932846
25.887559427746034	1.8636769	1.3651655
25.90554345927836	1.8206984	1.3493326
25.92352813999086	1.8503563	1.360278
25.94151347039689	1.8649907	1.3656466
25.959499451009965	1.9022536	1.3792222
25.97748608234374	1.8837354	1.3724924
25.995473364912062	1.8329784	1.3538753
26.013461299228904	1.8411407	1.3568864
26.03144988580839	1.8437384	1.3578433
26.04943912516483	1.8620694	1.3645766
26.067429017812675	1.8433691	1.3577073
26.085419564266537	1.8399043	1.3564308
26.103410765041186	1.8302137	1.3528539
26.12140262065155	1.8120886	1.3461384
26.139395131612723	1.762482	1.3275851
26.157388298439948	1.7984309	1.3410559
26.17538212164861	1.8360951	1.3550259
26.193376601754295	1.8271198	1.35171
26.211371739272714	1.7994798	1.3414469
26.229367534719746	1.8567792	1.3626368
26.247363988611433	1.8756857	1.3695568
26.26536110146397	1.8407979	1.35676
26.283358873793727	1.8147148	1.3471135
26.301357306117204	1.8271083	1.3517057
26.319356398951104	1.8837941	1.3725138
26.33735615281224	1.8594084	1.3636012
26.35535656821762	1.8343089	1.3543665
26.373357645684404	1.8539708	1.361606
26.39135938572991	1.839219	1.356178
26.409361788871614	1.8385799	1.3559425
26.427364855627165	1.8047377	1.3434052
26.445368586514352	1.809223	1.3450736
26.46337298205115	1.825182	1.3509929
26.48137804275568	1.8196942	1.3489604
26.499383769146217	1.8032607	1.3428555
26.517390161741215	1.8180524	1.3483517
26.53539722105928	1.812859	1.3464246
26.553404947619182	1.854176	1.3616813
26.571413341939856	1.8780037	1.3704028
26.589422404540397	1.9258842	1.3877623
26.60743213594006	1.9176836	1.3848045
26.62544253665827	1.9123805	1.3828884
26.64345360721459	1.8969028	1.377281
26.66146534812879	1.8643663	1.365418
26.679477759920758	1.8465407	1.3588748
26.69749084311057	1.8439251	1.3579121
26.71550459821847	1.853693	1.361504
26.733519025764842	1.88615	1.3733717
26.751534126270258	1.8994863	1.3782185
26.769549900255434	1.8763309	1.3697922
26.787566348241267	1.8065767	1.3440895
26.80558347074881	1.8050988	1.3435396
26.823601268299267	1.8339698	1.3542414
26.841619741414036	1.8473586	1.3591757
26.85963889061465	1.856024	1.3623598
26.877658716422832	1.8589365	1.3634282
26.89567921936045	1.866736	1.3662854
26.913700399949544	1.846323	1.3587947
26.93172225871233	1.8727558	1.3684866
26.949744796171174	1.8968384	1.3772576
26.967768012848605	1.8611059	1.3642236
26.98579190926733	1.8665184	1.3662058
27.003816485950225	1.8540252	1.3616259
27.021841743420318	1.8545594	1.3618221
27.039867682200814	1.829473	1.3525802
27.057894302815072	1.8811744	1.3715591
27.07592160578664	1.8995743	1.3782505
27.0939495916392	1.8793235	1.3708842
27.111978260896635	1.8584834	1.363262
27.13000761408296	1.8530132	1.3612542
27.148037651722397	1.8536433	1.3614857
27.166068374339304	1.8798541	1.3710777
27.184099782458215	1.9470814	1.3953786
27.20213187660384	1.9907768	1.4109489
27.22016465730105	1.9465562	1.3951904
27.23819812507487	1.9170319	1.3845692
27.256232280450533	1.8885372	1.3742406
27.274267123953383	1.8359883	1.3549864
27.292302656108987	1.7951443	1.3398299
27.31033887744306	1.8122243	1.3461888
27.32837578848146	1.8236448	1.3504239
27.34641338975026	1.8154833	1.3473988
27.364451681775673	1.7914366	1.3384455
27.382490665084074	1.7985747	1.3411095
27.400530340202046	1.8381454	1.3557822
27.41857070765629	1.871564	1.3680512
27.436611767973726	1.8521208	1.3609264
27.454653521681404	1.851986	1.3608769
27.472695969306564	1.814042	1.3468637
27.490739111376627	1.803419	1.3429143
27.508782948419153	1.7910376	1.3382965
27.526827480961902	1.8110143	1.3457394
27.54487270953279	1.7935063	1.3392185
27.562918634659898	1.842445	1.3573669
27.580965256871508	1.8687625	1.3670269
27.599012576696026	1.8418456	1.3571461
27.617060594662068	1.8298565	1.3527219
27.63510931129842	1.7988032	1.3411947
27.65315872713401	1.8014758	1.3421906
27.67120884269797	1.8319017	1.3534776
27.68925965851958	1.8177472	1.3482386
27.707311175128307	1.8562797	1.3624536
27.725363393053787	1.8822517	1.3719518
27.74341631282583	1.8811315	1.3715435
27.7614699349744	1.917533	1.3847501
27.77952426002968	2.12723	1.4585027
27.797579288521973	2.1905937	1.4800655
27.815635020981784	2.5642471	1.6013267
27.83369145793979	2.6424394	1.6255581
27.85174859992682	2.5065527	1.5832096
27.869806447473923	2.3455105	1.531506
27.887865001112267	2.0832863	1.4433594
27.905924261373233	1.9931257	1.4117811
27.92398422878836	1.9536717	1.3977381
27.94204490388936	1.9542546	1.3979466
27.96010628720813	1.9841368	1.4085939
27.978168379276728	1.9171166	1.3845998
27.9962311806274	1.8913072	1.3752481
28.014294691792568	1.8968307	1.3772547
28.0323589133048	1.8961948	1.3770239
28.050423845696887	1.8850317	1.3729646
28.068489489501758	1.8808892	1.3714551
28.086555845252523	1.8179976	1.3483315
28.104622913482487	1.8128921	1.3464369
28.122690694725115	1.844816	1.35824
28.14075918951405	1.8887612	1.374322
28.15882839838312	1.8909642	1.3751233
28.176898321866304	1.9310082	1.3896072
28.1949689604978	1.9664123	1.4022882
28.213040314811945	1.957956	1.3992698
28.23111238534327	1.8827548	1.3721352
28.249185172626493	1.8440293	1.3579504
28.267258677196473	1.9056077	1.3804375
28.285332899588294	1.9756817	1.4055895
28.303407840337172	1.991132	1.4110748
28.321483499978545	2.0190878	1.4209461
28.33955987904799	1.9613677	1.4004884
28.357636978081285	1.9768493	1.4060048
28.37571479761439	2.0324078	1.4256254
28.393793338183425	2.0368361	1.4271777
28.41187260032469	2.0165565	1.4200552
28.429952584574686	1.9968047	1.4130834
28.448033291470065	2.019431	1.4210669
28.46611472154769	2.0652456	1.4370962
28.484196875344566	2.103706	1.4504157
28.502279753397914	2.0517612	1.432397
28.52036335624511	2.0106297	1.4179667
28.538447684423716	1.9878838	1.4099233
28.556532738471482	2.014828	1.4194463
28.574618518926325	2.0304444	1.4249367
28.59270502632635	2.0655696	1.437209
28.61079226120985	2.0276113	1.4239422
28.628880224115274	2.031785	1.4254069
28.646968915581287	2.0167465	1.420122
28.66505833614671	2.081557	1.4427602
28.68314848635055	2.1404085	1.4630135
28.701239366732004	2.1087666	1.4521593
28.71933097783044	2.0865161	1.4444778
28.737423320185403	2.1446822	1.4644734
28.75551639433665	2.1900256	1.4798735
28.773610200824074	2.180899	1.4767867
28.791704740187793	2.1570942	1.4687049
28.80980001296809	2.1691594	1.4728067
28.827896019705413	2.1481392	1.4656532
28.845992760940433	2.137467	1.4620079
28.86409023721397	2.2163856	1.4887531
28.88218844906704	2.2901378	1.5133201
28.900287397040845	2.3051603	1.5182754
28.918387081676755	2.2833009	1.5110595
28.936487503516343	2.2689567	1.5063056
28.954588663101365	2.2460256	1.4986746
28.97269056097374	2.2790678	1.5096582
28.990793197675597	2.3478303	1.5322632
29.00889657374923	2.3985126	1.5487132
29.027000689737125	2.418965	1.5553023
29.04510554618196	2.4943554	1.5793529
29.06321114362659	2.4824653	1.575584
29.08131748261405	2.5069892	1.5833474
29.099424563687567	2.5667238	1.6020998
29.11753238739057	2.6118119	1.6161101
29.13564095426663	2.5672593	1.6022669
29.15375026485954	2.6103334	1.6156527
29.171860319713275	2.6977384	1.6424793
29.18997111937199	2.7888	1.66997
29.20808266438002	2.8479989	1.6876016
29.226194955281898	2.9545455	1.7188791
29.244307992622335	3.0163815	1.7367733
29.26242177694624	3.0219686	1.738381
29.2805363087987	3.000434	1.7321761
29.29865158872498	2.9759178	1.7250849
29.316767617270557	3.0739093	1.7532568
29.334884394981064	3.1969137	1.7879915
29.353001922402367	3.455547	1.8589102
29.37112020008047	3.833393	1.9579053
29.389239228561596	4.5175815	2.1254604
29.407359008392152	5.617139	2.3700504
29.42547954011872	7.1933417	2.6820407
29.44360082428809	9.254215	3.0420742
29.46172286144722	11.921347	3.4527304
29.479845652143283	14.687236	3.832393
29.497969196923606	17.243122	4.152484
29.516093496335728	18.199286	4.2660623
29.5342185509274	17.762253	4.2145286
29.55234436124651	15.935885	3.9919777
29.570470927841175	13.481762	3.671752
29.588598251259686	10.918661	3.3043396
29.60672633205055	8.367863	2.892726
29.624855170762405	6.1868773	2.4873433
29.642984767944146	4.7558784	2.1807976
29.66111512414481	4.122017	2.030275
29.67924623991366	3.7067811	1.9253002
29.697378115800138	3.5814502	1.892472
29.71551075235387	3.4935727	1.8691101
29.733644150124675	3.4881074	1.8676475
29.751778309662576	3.4939024	1.8691983
29.769913231517766	3.4124851	1.8472914
29.78804891624066	3.3413804	1.8279443
29.806185364381818	3.2776873	1.8104384
29.82432257649206	3.2466571	1.8018483
29.842460553122333	3.3278573	1.8242415
29.86059929482382	3.3572803	1.8322883
29.878738802147872	3.3100374	1.8193508
29.896879075646048	3.2243729	1.7956539
29.915020115870114	3.3005638	1.8167454
29.933161923371976	3.3746536	1.837023
29.951304498703777	3.383373	1.8393947
29.969447842417857	3.279941	1.8110608
29.987591955066733	3.3023062	1.8172249
30.005736837203123	3.368437	1.8353302
30.023882489379943	3.3542433	1.8314593
30.04202891215028	3.221458	1.794842
30.060176106067455	3.129905	1.7691537
30.078324071684946	3.1372142	1.7712183
30.09647280955646	3.1715088	1.7808731
30.114622320235863	3.1413403	1.7723826
30.132772604277257	3.1772804	1.7824928
30.1509236622349	3.225602	1.7959961
30.16907549466328	3.1786811	1.7828857
30.18722810211705	3.1079147	1.7629279
30.205381485151097	3.0834963	1.7559887
30.22353564432045	3.037869	1.7429484
30.241690580180403	3.0680583	1.7515874
30.25984629328638	3.0772336	1.7542045
30.278002784194037	3.0542939	1.7476538
30.296160053459246	2.9651964	1.7219746
30.314318101638033	2.964391	1.7217407
30.332476929286646	3.003744	1.7331313
30.35063653696153	3.0281994	1.7401723
30.368796925219307	2.9688723	1.7230415
30.386958094616844	2.914993	1.7073351
30.40512004571115	2.8319383	1.6828364
30.423282779059463	2.865399	1.6927489
30.441446295219233	2.9029481	1.703804
30.459610594748067	2.873228	1.6950599
30.47777567820382	2.9128897	1.706719
30.495941546144504	3.001412	1.7324584
30.51410819912835	3.0522032	1.7470555
30.532275637713795	3.0137243	1.7360082
30.55044386245946	2.9763	1.7251956
30.56861287392416	2.9403982	1.714759
30.586782672666956	2.92483	1.7102134
30.604953259247047	2.8948874	1.7014369
30.623124634223885	2.8719692	1.6946886
30.641296798157075	2.8606718	1.691352
30.659469751606462	2.8487463	1.6878229
30.677643495132074	2.822809	1.6801217
30.695818029294152	2.7709856	1.6646278
30.713993354653116	2.736178	1.6541396
30.73216947176962	2.7702456	1.6644055
30.75034638120448	2.8881893	1.6994674
30.768524083518756	2.9550471	1.719025
30.786702579273673	3.1338172	1.770259
30.80488186903069	3.5313494	1.8791885
30.82306195335144	3.920691	1.9800735
30.841242832797782	4.3400726	2.0832841
30.85942450793176	4.6509247	2.1566002
30.877606979315637	4.873951	2.2077026
30.895790247511883	4.825605	2.1967258
30.913974313083134	4.528634	2.1280587
30.932159176592283	4.1132975	2.0281265
30.95034483860237	3.7567494	1.9382336
30.968531299676698	3.3414686	1.8279685
30.98671856037873	3.0149572	1.7363632
31.00490662127215	2.815715	1.6780093
31.023095482920848	2.6532996	1.6288952
31.04128514588892	2.5567935	1.5989976
31.059475610740662	2.5528095	1.5977514
31.07766687804056	2.4885526	1.5775146
31.09585894835335	2.4346974	1.5603517
31.11405182224393	2.5667045	1.6020938
31.132245500277417	2.6235318	1.619732
31.15043998301914	2.5623496	1.6007341
31.168635271034628	2.5310266	1.5909201
31.18683136488964	2.5016296	1.5816541
31.20502826515008	2.4929197	1.5788982
31.223225972382135	2.4835775	1.575937
31.241424487152155	2.4656847	1.5702499
31.259623810026692	2.4563336	1.5672694
31.27782394157253	2.5007925	1.5813894
31.296024882356644	2.4635687	1.5695759
31.314226632946237	2.3976417	1.548432
31.332429193908684	2.403149	1.5502093
31.350632565811598	2.4230561	1.5566169
31.368836749222787	2.4173658	1.554788
31.387041744710295	2.5246313	1.5889088
31.40524755284232	2.6299312	1.6217062
31.423454174187317	2.5746138	1.6045604
31.441661609313922	2.516606	1.5863814
31.459869858791002	2.4901123	1.578009
31.478078923187628	2.4678025	1.570924
31.496288803073064	2.431298	1.559262
31.514499499016807	2.429682	1.5587437
31.532711011588546	2.4284208	1.5583391
31.550923341358178	2.4314687	1.5593168
31.56913648889584	2.4452462	1.5637283
31.587350454771844	2.3899844	1.5459574
31.605565239556732	2.2790956	1.5096674
31.62378084382127	2.2140875	1.487981
31.641997268136382	2.2865891	1.5121472
31.660214513073274	2.3650777	1.5378809
31.67843257920331	2.4269774	1.5578759
31.6966514670981	2.4007254	1.5494274
31.71487117732944	2.328108	1.5258139
31.733091710469346	2.358876	1.5358633
31.751313067090052	2.3734097	1.5405874
31.769535247764008	2.436913	1.5610615
31.787758253063878	2.4010386	1.5495285
31.805982083562526	2.3414714	1.5301868
31.824206739833024	2.2785501	1.5094867
31.84243222244869	2.3012297	1.5169804
31.860658531983013	2.3843558	1.5441359
31.878885669009737	2.4424732	1.5628414
31.897113634102784	2.4711099	1.5719764
31.91534242783632	2.362807	1.5371425
31.933572050784694	2.224515	1.4914808
31.951802503522508	2.1990051	1.4829043
31.970033786624548	2.1955097	1.4817252
31.988265900665834	2.2360682	1.4953489
32.006498846221575	2.315689	1.5217389
32.02473262386724	2.3798208	1.5426668
32.04296723417845	2.355126	1.534642
32.0612026777311	2.2607412	1.5035762
32.07943895510129	2.180115	1.4765213
32.097676066865304	2.2109203	1.4869164
32.115914013599685	2.2122614	1.4873673
32.13415279588115	2.1993988	1.483037
32.152392414286666	2.2338798	1.494617
32.1706328693934	2.1723964	1.4739052
32.18887416177875	2.1476	1.4654692
32.20711629202032	2.1999595	1.4832261
32.225359260695924	2.2372885	1.4957569
32.243603068383614	2.227614	1.4925194
32.26184771566166	2.2462463	1.4987483
32.28009320310852	2.2663522	1.5054408
32.2983395313029	2.2079046	1.485902
32.31658670082372	2.169914	1.4730628
32.33483471225012	2.184116	1.4778755
32.35308356616143	2.1726751	1.4739997
32.371333263137245	2.092939	1.4466993
32.38958380375734	2.0480623	1.4311053
32.407835188601744	2.0654497	1.4371673
32.42608741825067	2.0847316	1.4438599
32.444340493284585	2.0090475	1.4174087
32.46259441428416	1.9919116	1.411351
32.48084918183028	2.112305	1.4533771
32.49910479650405	2.1592307	1.4694321
32.51736125888683	2.0872056	1.4447165
32.53561856956014	1.9891862	1.4103851
32.5538767291058	1.9819566	1.4078197
32.572135738105764	2.0455198	1.4302167
32.59039559714228	2.0066032	1.4165462
32.608656306797776	2.0270483	1.4237444
32.62691786765491	2.0703206	1.4388609
32.645180280296586	2.1128526	1.4535655
32.663443545305896	2.2154408	1.4884356
32.68170766326619	2.2111084	1.4869796
32.69997263476099	2.1559784	1.468325
32.7182384603741	2.1073709	1.4516786
32.7365051406895	2.1582735	1.4691063
32.75477267629144	2.0905337	1.4458678
32.77304106776434	2.044672	1.4299203
32.79131031569289	2.048899	1.4313976
32.809580420661966	2.0002844	1.4143142
32.827851383256714	2.0047145	1.4158794
32.84612320406245	2.0132883	1.418904
32.86439588366476	1.9903933	1.410813
32.88266942264945	2.0457022	1.4302804
32.9009438216025	1.9836254	1.4084123
32.9192190811102	1.9194354	1.3854369
32.937495201758985	1.9527035	1.3973917
32.95577218413556	2.065895	1.4373221
32.974050028826866	2.0490701	1.4314574
32.992328736420035	1.9585661	1.3994877
33.010608307502444	1.9394276	1.3926333
33.02888874266169	2.0108588	1.4180475
33.047170042485604	2.0375075	1.4274129
33.06545220756225	2.0706322	1.4389691
33.083735238479896	1.9898167	1.4106086
33.10201913582707	1.9336724	1.3905655
33.12030390019248	1.9532183	1.3975759
33.138589532165135	1.9417733	1.3934753
33.15687603233419	1.9407954	1.3931243
33.17516340128909	2.0028174	1.4152093
33.19345163961947	1.9657049	1.402036
33.211740747915215	1.9254998	1.3876238
33.23003072676643	1.9658651	1.4020932
33.248321576763466	1.974234	1.4050744
33.266613298496885	1.9824376	1.4079906
33.28490589255747	2.01141	1.4182419
33.30319935953626	2.0540915	1.4332101
33.32149370002451	2.0184777	1.4207314
33.339788914613706	1.9719834	1.4042733
33.358085003895575	1.9669044	1.4024637
33.376381968462034	1.8979839	1.3776734
33.39467980890529	1.9369048	1.3917272
33.41297852581774	2.0681255	1.4380978
33.43127811979204	2.0580335	1.4345847
33.44957859142105	2.0008326	1.4145079
33.467879941297866	1.9193691	1.3854129
33.486182170015844	1.9688476	1.4031563
33.50448527816853	2.0268958	1.4236909
33.522789266349754	2.091973	1.4463655
33.541094135153514	2.0816581	1.4427953
33.55939988517411	1.9874933	1.4097848
33.57770651700602	1.9678655	1.4028063
33.59601403124398	1.9314208	1.3897556
33.61432242848296	1.8732928	1.3686829
33.632631709318154	1.8825068	1.3720448
33.650941874344994	1.8508773	1.3604695
33.66925292415916	1.8728963	1.368538
33.68756485935654	1.9638672	1.4013804
33.70587768053328	2.0677018	1.4379506
33.724191388285746	2.0471709	1.4307938
33.74250598321054	1.9791187	1.4068116
33.760821465904506	2.0351942	1.4266024
33.77913783696474	2.0726583	1.439673
33.79745509698852	2.0572813	1.4343226
33.815773246573414	2.007341	1.4168066
33.8340922863172	1.945041	1.3946472
33.852412216817896	1.8760545	1.3696914
33.87073303867377	1.9367163	1.3916595
33.889054752483304	2.0133805	1.4189364
33.907377358845245	1.9850633	1.4089228
33.92570085835853	1.9459003	1.3949553
33.94402525162239	1.9625146	1.4008977
33.96235053923627	2.1015394	1.4496688
33.980676721799824	2.0269628	1.4237144
33.999003799912984	2.0550256	1.433536
34.01733177417592	2.0895762	1.4455366
34.03566064518901	2.0559824	1.4338697
34.0539904135529	2.0144784	1.4193232
34.07232107986846	1.9006155	1.3786281
34.090652644736785	1.9309162	1.389574
34.108985108759235	1.9754633	1.4055117
34.12731847253742	2.0140684	1.4191787
34.14565273667313	2.0026793	1.4151605
34.16398790176847	1.9465386	1.395184
34.18232396842574	2.0120556	1.4184694
34.20066093724749	2.022642	1.4221961
34.21899880883651	2.0200675	1.4212908
34.23733758379583	1.9923227	1.4114966
34.25567726272874	2.0449	1.43
34.27401784623872	1.9598908	1.399961
34.29235933492957	1.8779371	1.3703785
34.31070172940526	1.8551743	1.3620478
34.32904503027003	1.926696	1.3880547
34.347389238128386	1.9436034	1.3941318
34.36573435358502	1.8194712	1.3488778
34.38408037724492	1.8215481	1.3496474
34.402427309713296	1.9487821	1.3959879
34.42077515159559	2.1061845	1.45127
34.43912390349752	2.2092938	1.4863694
34.45747356602499	2.1850324	1.4781855
34.47582413978423	2.155651	1.4682136
34.49417562538163	2.1178873	1.4552963
34.51252802342388	2.097606	1.4483114
34.53088133451789	2.1321192	1.4601778
34.54923555927084	2.1125453	1.4534597
34.567590698290104	2.0168266	1.4201502
34.58594675218336	1.9513456	1.3969057
34.6043037215585	2.110219	1.4526592
34.62266160702365	2.1786327	1.4760193
34.641020409187234	2.0657864	1.4372844
34.65938012865785	1.9139282	1.3834479
34.677740766044394	1.8806493	1.3713677
34.69610232195598	1.9198843	1.3855989
34.714464797002016	1.9082984	1.3814118
34.73282819179208	1.9110059	1.3823913
34.751192506936064	1.9164172	1.3843472
34.76955774304408	1.9465966	1.3952049
34.7879239007265	1.9737746	1.4049109
34.80629098059391	2.0283747	1.4242102
34.824658983257194	2.1058989	1.4511715
34.843027909327446	2.203542	1.4844332
34.86139775941603	2.0998182	1.449075
34.879768534134534	1.9507489	1.3966922
34.89814023409483	1.9581754	1.3993483
34.91651285990901	2.0873818	1.4447775
34.93488641218944	2.1216068	1.4565736
34.95326089154871	2.1361876	1.4615703
34.97163629859967	2.1029146	1.450143
34.99001263395542	2.0423813	1.4291191
35.00838989822934	2.0338502	1.4261312
35.02676809203499	2.0585902	1.4347788
35.04514721598624	1.9239603	1.387069
35.063527270697215	1.8649753	1.365641
35.081908256782256	2.126695	1.4583192
35.10029017485597	2.213474	1.4877748
35.11867302553321	2.1474986	1.4654347
35.137056809429104	1.9765077	1.4058832
35.155441527159006	1.8102783	1.3454658
35.173827179338524	1.9594309	1.3997967
35.19221376658354	2.278308	1.5094064
35.21060128951017	2.3236682	1.5243583
35.2289897487348	2.101159	1.4495375
35.24737914487405	1.8610966	1.3642201
35.26576947854479	1.820687	1.3493284
35.28416075036418	2.001855	1.4148692
35.30255296094958	2.2307143	1.4935576
35.32094611091867	2.191437	1.4803503
35.33934020088932	2.0990834	1.4488214
35.35773523147969	2.1762724	1.4752195
35.3761312033082	2.1532924	1.4674101
35.394528116993506	2.1060371	1.4512192
35.41292597315452	2.1769438	1.4754469
35.431324772410434	2.2379382	1.495974
35.449724515380666	1.975002	1.4053477
35.46812520268491	1.4766452	1.2151729
35.486526834943106	2.076227	1.4409119
35.504929412775454	2.476676	1.5737458
35.52333293680242	2.2132578	1.4877021
35.54173740764471	2.2728584	1.5076002
35.560142825923286	2.0885913	1.4451959
35.5785491922594	1.6242115	1.2744455
35.59695650727454	1.6966594	1.3025588
35.61536477159042	1.8569168	1.3626873
