0.008763373481513119	0.0	0.0
0.026290120649546365	0.25869247	0.5086182
0.043816868432600686	0.3016857	0.54925925
0.06134361724069026	0.31573832	0.561906
0.07887036748382949	0.29940116	0.54717565
0.0963971195720331	0.2661103	0.5158588
0.11392387391531617	0.28299573	0.5319734
0.1314506309236943	0.2807698	0.5298771
0.1489773910071836	0.17887148	0.422932
0.16650415457580078	0.15725304	0.39655143
0.18403092203956356	0.0797288	0.28236288
0.20155769380849	0.12891775	0.3590512
0.2190844702925996	0.12498699	0.353535
0.2366112519019124	0.113925576	0.33752862
0.2541380390464497	0.11233098	0.33515814
0.27166483213623416	0.076138355	0.2759318
0.28919163158128947	0.09556555	0.30913678
0.3067184377916406	0.14653805	0.38280287
0.324245251177314	0.18783978	0.43340486
0.34177207214833777	0.25434157	0.5043229
0.3592989011147415	0.23091878	0.4805401
0.37682573848655654	0.18092524	0.42535308
0.39435258467381573	0.1266501	0.35587934
0.41187944008655414	0.14441897	0.38002497
0.42940630513480854	0.123804115	0.35185808
0.446933180228618	0.094447166	0.30732256
0.4644600657780234	0.09151792	0.3025193
0.48198696219306775	0.10038091	0.31682947
0.49951386988379676	0.14203176	0.37687102
0.5170407892602581	0.16573162	0.40710148
0.5345677207325025	0.2174031	0.46626505
0.5520946647105822	0.25750285	0.50744736
0.5696216216045534	0.2764529	0.5257879
0.5871485918244737	0.22778413	0.47726735
0.6046755757804043	0.19739296	0.44428927
0.6222025738824094	0.18193689	0.4265406
0.6397295865405557	0.19194677	0.4381173
0.6572566141649129	0.15733443	0.39665404
0.6747836571655547	0.18135664	0.42585987
0.6923107159525568	0.15463378	0.393235
0.7098377909359992	0.12101449	0.34787136
0.7273648825259653	0.108363606	0.3291863
0.7448919911325411	0.15641475	0.39549303
0.762419117165817	0.18862467	0.43430942
0.7799462610358868	0.1799678	0.42422614
0.7974734231528482	0.15180756	0.3896249
0.8150006039268024	0.15041718	0.38783655
0.8325278037678551	0.164228	0.40525055
0.8500550230861152	0.19305204	0.43937686
0.8675822622916969	0.18228348	0.4269467
0.8851095217947171	0.185698	0.43092692
0.9026368020052984	0.2081126	0.4561936
0.9201641033335665	0.19931278	0.4464446
0.9376914261896523	0.23177798	0.48143324
0.9552187709836915	0.22170775	0.4708585
0.9727461381258234	0.23525357	0.48502946
0.990273528026193	0.22450912	0.47382393
1.0078009410949496	0.22750533	0.47697517
1.0253283777422473	0.28891823	0.53751117
1.0428558383782454	0.35692325	0.5974305
1.0603833234131086	0.32116637	0.5667154
1.0779108332570058	0.35103938	0.5924858
1.0954383683201119	0.34402913	0.58654
1.112965929012607	0.41040233	0.6406265
1.1304935157446763	0.53966135	0.73461646
1.1480211289265108	0.56694657	0.75295854
1.1655487689683062	1.4365574	1.1985648
1.1830764362802655	1.7438039	1.3205316
1.200604131272596	2.155642	1.4682105
1.2181318543555117	2.426859	1.5578378
1.235659605939232	2.4116347	1.5529438
1.253187386433982	4.044357	2.0110586
1.270715196249994	6.6163797	2.5722325
1.2882430357975057	12.13589	3.4836605
1.3057709054867608	16.850924	4.1049876
1.3232988057280106	22.499472	4.743361
1.3408267369315112	27.365776	5.2312307
1.358354699507526	31.008125	5.568494
1.3758826938663256	35.094257	5.924041
1.3934107204181858	36.859627	6.071213
1.410938779573391	37.207054	6.0997586
1.4284668717422309	38.184143	6.179332
1.4459949973350033	37.812885	6.149218
1.4635231567620117	38.2208	6.182297
1.4810513504335687	37.60919	6.132633
1.4985795787599925	37.206577	6.0997195
1.5161078421516088	36.84525	6.070029
1.5336361410187505	35.954617	5.996217
1.5511644757717598	36.075817	6.0063148
1.5686928468209842	36.45066	6.0374384
1.58622125457678	37.030563	6.085274
1.6037496994495108	37.995438	6.164044
1.621278181849548	37.931114	6.158824
1.6388067021872719	38.608734	6.2135925
1.6563352608730693	37.820354	6.1498256
1.673863858317336	36.66328	6.0550213
1.6913924949304753	35.87683	5.989727
1.7089211711228998	34.700745	5.8907337
1.7264498873050296	34.07536	5.8374104
1.7439786438872935	32.91292	5.7369785
1.7615074412801288	32.209248	5.675319
1.779036279893981	31.45569	5.608537
1.796565160139305	30.8657	5.555691
1.814094082426564	30.253788	5.5003443
1.8316230471662298	29.47575	5.4291573
1.849152054768784	28.666103	5.3540735
1.8666811056447168	27.861723	5.2784204
1.8842102002045273	27.05931	5.2018566
1.901739338858724	26.561436	5.1537786
1.9192685220178245	26.24807	5.123287
1.9367977500923557	25.586807	5.0583405
1.9543270234928547	24.969387	4.9969378
1.971856342629867	24.238636	4.923275
1.9893857079139496	23.778654	4.876336
2.006915119755667	23.418358	4.839252
2.0244445785655945	22.812956	4.776291
2.0419740847543175	22.253765	4.7173896
2.0595036387324317	21.596746	4.64723
2.0770332409105414	21.260742	4.610937
2.094562891699263	20.899794	4.571629
2.1120925915092217	20.31797	4.507546
2.129622340751053	20.096582	4.482921
2.1471521398354043	188.24364	13.720191
2.1646819891729323	444.5937	21.08539
2.182211889174303	440.74567	20.993944
2.1997418402501974	453.1306	21.286865
2.2172718428113023	433.13358	20.811861
2.234801897268317	320.98505	17.916056
2.2523320040319548	17.200092	4.1472993
2.269862163512935	16.770027	4.0951223
2.287392376121992	16.32279	4.0401473
2.304922642269869	16.339748	4.0422454
2.322452962367322	16.414274	4.051453
2.3399833368251164	16.123224	4.0153737
2.357513766054032	15.748117	3.9683897
2.3750442504648586	15.238809	3.9036918
2.3925747904683963	14.817713	3.8493783
2.410105386475459	14.447587	3.8009982
2.4276360388968707	14.169505	3.7642403
2.445166748143469	14.024097	3.7448761
2.4626975146261025	13.953025	3.7353747
2.4802283387556323	13.794788	3.7141335
2.4977592209429305	13.410034	3.6619713
2.5152901615988825	12.971969	3.601662
2.5328211611343865	12.877922	3.5885823
2.5503522199603523	12.754489	3.5713427
2.5678833384877024	12.7698	3.5734856
2.5854145171273712	12.653639	3.5571954
2.6029457562903064	12.425585	3.5249944
2.620477056387469	12.236298	3.4980419
2.6380084178298326	12.010768	3.4656556
2.655539841028383	11.695223	3.419828
2.673071326394119	11.427126	3.3804033
2.6906028743380523	11.037213	3.32223
2.708134485271211	10.927678	3.3057039
2.7256661596046325	10.851658	3.2941854
2.743197897749369	10.9194565	3.30446
2.760729700116486	10.918341	3.3042912
2.778261567117063	10.70782	3.2722805
2.795793499162193	10.456674	3.233678
2.8133254966629817	10.201199	3.1939316
2.830857560030551	9.972435	3.1579163
2.8483896896760337	9.898299	3.1461563
2.865921886010578	9.8074875	3.1316907
2.883454149445347	9.696377	3.1139007
2.9009864803915177	9.545456	3.0895722
2.91851887926028	9.355513	3.0586782
2.9360513464628384	9.382461	3.0630803
2.953583882410413	9.145378	3.0241327
2.9711164875142373	8.893917	2.9822671
2.9886491621855606	8.625427	2.9369078
3.0061819068356455	8.455924	2.9079072
3.023714721875769	8.468153	2.9100091
3.041247607717225	8.481075	2.9122286
3.0587805647713213	8.429447	2.903351
3.0763135934493806	8.445934	2.906189
3.0938466941627407	8.411018	2.9001756
3.1113798673227544	8.267849	2.8753867
3.1289131133407904	8.136838	2.8525143
3.1464464326282315	7.9656367	2.822346
3.1639798255964786	7.9573584	2.820879
3.1815132926569443	7.863387	2.8041732
3.1990468342210603	7.7740173	2.7881925
3.216580450700272	7.48064	2.735076
3.2341141425060416	7.315539	2.7047253
3.251647910049847	7.19512	2.682372
3.2691817537431813	7.1594863	2.6757216
3.286715673997555	7.169886	2.6776643
3.3042496712244938	7.1826487	2.6800463
3.32178374583554	7.1276064	2.6697578
3.339317898242251	7.0743403	2.659763
3.3568521288562034	6.916165	2.6298602
3.3743864380889876	6.9525065	2.6367607
3.3919208263522127	6.9582844	2.637856
3.4094552940575023	6.784337	2.604676
3.4269898416164972	6.691984	2.586887
3.444524469440858	6.597165	2.5684948
3.4620591779422587	6.570835	2.563364
3.479593967532391	6.601735	2.569384
3.4971288386229658	6.5854874	2.5662205
3.5146637916257086	6.5557466	2.5604193
3.5321988269523628	6.490179	2.547583
3.5497339450146903	6.483677	2.5463066
3.5672691462244708	6.535264	2.5564163
3.5848044309934988	6.497655	2.5490499
3.60233979973359	6.373527	2.5245845
3.619875252856575	6.3051276	2.5110013
3.6374107907743034	6.365681	2.52303
3.6549464138986427	6.467006	2.543031
3.6724821226414788	6.4938965	2.5483124
3.690017917414714	6.4130073	2.5323915
3.7075537986302702	6.37307	2.524494
3.7250897667000857	6.397991	2.5294251
3.7426258220361235	6.5579023	2.5608401
3.7601619650503553	6.880078	2.6229901
3.777698196154779	7.39122	2.71868
3.7952345157614067	8.474201	2.9110482
3.8127709242822716	9.187019	3.0310097
3.830307422129425	11.142276	3.3380048
3.847844009714936	29.982552	5.4756327
3.8653806874508954	97.5915	9.878841
3.882917455749409	97.10808	9.854343
3.900454315022606	97.049416	9.851366
3.917991265682631	41.604244	6.450135
3.9355283081416506	11.254037	3.3547037
3.9530654428118495	9.025508	3.0042484
3.970602670105433	7.7550883	2.784796
3.9881399904346244	6.7429485	2.5967188
4.005677404211669	6.6160874	2.5721757
4.023214911848827	6.6256785	2.5740395
4.0407525137583855	6.70842	2.5900617
4.058290210352644	6.6783857	2.5842574
4.075828002043927	6.5064263	2.5507698
4.0933658892445814	6.373858	2.52465
4.110903872366966	6.305887	2.5111525
4.128441951823468	6.3449717	2.5189228
4.145980128026488	6.309519	2.5118756
4.163518401388452	6.311487	2.5122674
4.181056772321807	6.1924896	2.4884713
4.1985952412390155	6.146232	2.4791596
4.216133808552567	6.1472297	2.4793608
4.233672474674966	6.256177	2.501235
4.251211240018741	6.4935536	2.5482452
4.268750104996445	6.6720076	2.5830228
4.286289070020643	7.605612	2.7578273
4.303828135503928	9.26581	3.0439794
4.3213673018589125	29.605688	5.441111
4.3389065694982305	90.86206	9.532159
4.356445938834537	166.17323	12.89082
4.3739854102805085	172.24475	13.124205
4.391524984248844	173.16284	13.159135
4.409064661152262	137.29897	11.717464
4.426604441403504	97.49453	9.873932
4.444144325415337	76.26764	8.733134
4.461684313600543	22.31811	4.7242045
4.47922440637193	22.435425	4.7366047
4.496764604142329	20.60453	4.5392213
4.5143049073245916	18.733097	4.3281746
4.531845316331589	16.675604	4.083577
4.5493858315762195	13.946244	3.734467
4.566926453471405	11.649265	3.413102
4.584467182430081	9.812543	3.1324978
4.602008018865218	8.5440235	2.923016
4.619548963189798	7.6794577	2.7711835
4.637090015816834	7.081041	2.6610224
4.654631177159353	6.8350205	2.6143873
4.672172447630417	6.607035	2.5704153
4.689713827643102	6.3648887	2.5228732
4.7072553176105085	6.076563	2.4650686
4.724796917945764	5.9185004	2.4327967
4.742338629062015	5.8311353	2.4147744
4.759880451372434	5.8774853	2.4243526
4.777422385290215	5.820955	2.4126656
4.794964431228581	5.788165	2.4058607
4.812506589600768	5.69415	2.386242
4.830048860820047	5.6865635	2.3846517
4.847591245299709	5.6826515	2.3838313
4.8651337434530655	5.7142854	2.3904572
4.882676355693457	5.6656227	2.380257
4.900219082434242	5.579358	2.3620665
4.917761924088813	5.498024	2.3447866
4.935304881070575	5.5644717	2.3589132
4.952847953792969	5.586063	2.3634853
4.970391142669449	5.6705327	2.381288
4.9879344481135055	5.645028	2.3759267
5.005477870538642	5.6879225	2.3849366
5.023021410358394	5.6713796	2.381466
5.040565067986324	5.5646744	2.358956
5.05810884383601	5.493437	2.3438082
5.075652738321066	5.4364777	2.3316255
5.09319675185512	5.4717536	2.339178
5.110740884851836	5.5047073	2.3462112
5.128285137724894	5.514685	2.3483367
5.145829510888007	5.4178634	2.3276305
5.163374004754908	5.458435	2.3363295
5.1809186197393595	5.4555836	2.335719
5.198463356255145	5.4674053	2.3382483
5.216008214716077	5.4936643	2.3438568
5.233553195535998	5.4625626	2.3372126
5.251098299128764	5.4073014	2.3253605
5.268643525908272	5.3369975	2.3101943
5.286188876288432	5.2881994	2.2996085
5.3037343506831895	5.2954507	2.3011847
5.32127994950651	5.387723	2.321147
5.3388256731723915	5.402146	2.3242517
5.356371522094851	5.308997	2.304126
5.373917496687938	5.242959	2.2897508
5.391463597365729	5.313335	2.3050673
5.40900982454232	5.3195953	2.3064249
5.426556178631843	5.3904667	2.3217378
5.444102660048449	5.426782	2.3295455
5.4616492692063225	5.3595877	2.3150783
5.479196006519669	5.2927885	2.300606
5.496742872402727	5.2002754	2.2804112
5.514289867269756	5.1780457	2.275532
5.531836991535049	5.1791034	2.2757645
5.549384245612924	5.1679745	2.273318
5.566931629917724	5.1410584	2.2673903
5.584479144863822	5.1039786	2.2591987
5.6020267908656205	5.117061	2.262092
5.619574568337545	5.1935782	2.2789423
5.637122477694054	5.280838	2.2980075
5.654670519349629	5.242794	2.2897148
5.672218693718784	5.2051787	2.281486
5.689767001216059	5.1880717	2.2777338
5.707315442256021	5.2154064	2.2837265
5.724864017253266	5.203203	2.281053
5.7424127266224225	5.1933146	2.2788844
5.75996157077814	5.185238	2.2771118
5.777510550135105	5.2940288	2.3008757
5.795059665108022	5.3214817	2.3068337
5.812608916111639	5.2767873	2.2971258
5.830158303560715	5.308203	2.303954
5.847707827870055	5.313466	2.3050957
5.86525748945448	5.450176	2.334561
5.8828072887288485	5.7005086	2.3875737
5.900357226108044	5.759262	2.3998463
5.917907302006979	5.804486	2.40925
5.9354575168406	6.2874813	2.5074852
5.9530078710238765	6.9103217	2.6287491
5.970558364971812	7.4593954	2.7311895
5.988108999099438	7.7461333	2.7831876
6.005659773821818	8.157975	2.856217
6.023210689554039	7.9425845	2.8182592
6.040761746711227	8.334677	2.886984
6.058312945708531	7.7719555	2.7878227
6.075864286961132	7.282575	2.6986246
6.093415770884244	6.6410832	2.57703
6.1109673978931065	6.127045	2.475287
6.128519168402993	5.65971	2.3790145
6.146071082829204	5.565042	2.359034
6.163623141587075	5.4494157	2.3343983
6.181175345091969	5.428482	2.3299103
6.198727693759281	5.35542	2.314178
6.216280188004435	5.3433948	2.3115785
6.233832828242885	5.223691	2.2855396
6.251385614890126	5.1517167	2.2697394
6.268938548361669	5.122767	2.263353
6.286491629073067	5.116838	2.2620428
6.304044857439898	5.106997	2.2598665
6.321598233877777	5.042267	2.2454991
6.339151758802344	5.029518	2.2426586
6.356705432629277	4.9943023	2.2347937
6.37425925577428	4.9936147	2.2346396
6.391813228653095	4.9983697	2.2357035
6.409367351681486	4.990249	2.2338865
6.426921625275259	4.974055	2.230259
6.44447604985025	5.029716	2.2427027
6.46203062582232	5.0655904	2.2506866
6.47958535360737	5.117796	2.2622547
6.497140233621328	5.1567836	2.2708552
6.514695266280161	5.1342344	2.2658849
6.532250451999859	5.1137195	2.2613535
6.549805791196454	5.112788	2.2611475
6.567361284286002	5.116524	2.2619736
6.584916931684597	5.111003	2.2607527
6.602472733808367	5.0853453	2.255071
6.6200286910734665	5.0421205	2.2454667
6.637584803896092	5.027809	2.2422776
6.655141072692462	5.094736	2.2571523
6.672697497878842	5.077284	2.253283
6.690254079871514	5.1168795	2.262052
6.707810819086808	5.1822386	2.276453
6.725367715941078	5.1588454	2.2713091
6.742924770850719	5.164144	2.2724752
6.760481984232151	5.081344	2.2541838
6.778039356501836	5.091641	2.2564664
6.795596888076266	5.117371	2.2621608
6.813154579371963	5.1091604	2.2603452
6.830712430805492	5.0988145	2.2580554
6.84827044279344	5.0776286	2.2533593
6.865828615752445	5.0556307	2.248473
6.883386950099159	5.0723453	2.2521868
6.900945446250287	5.0116773	2.2386775
6.918504104622553	5.033524	2.2435517
6.936062925632727	5.0475683	2.2466793
6.953621909697607	5.090197	2.2561464
6.971181057234028	5.1440206	2.2680433
6.988740368658859	5.161583	2.2719116
7.006299844389007	5.2428527	2.2897277
7.023859484841407	5.374319	2.3182578
7.041419290433036	5.473734	2.3396013
7.058979261580902	5.5687947	2.3598294
7.0765393987020495	5.763289	2.400685
7.094099702213559	6.1115046	2.4721458
7.111660172532549	6.596191	2.568305
7.129220810076164	7.025782	2.6506193
7.146781615261595	7.668636	2.7692301
7.16434258850606	7.845688	2.8010156
7.181903730226821	8.269404	2.8756573
7.1994650408411704	8.369646	2.893034
7.217026520766437	8.464183	2.9093268
7.234588170419983	8.681501	2.9464388
7.252149990219215	8.568159	2.927142
7.269711980581568	8.493369	2.9143386
7.2872741419245175	8.256425	2.8733995
7.304836474665574	7.8219314	2.7967715
7.322398979222286	7.5088916	2.7402356
7.339961656012233	7.304335	2.7026534
7.357524505453039	6.9904923	2.643954
7.375087527962357	6.7269874	2.5936437
7.392650723957886	6.394084	2.5286527
7.410214093857353	6.0383215	2.4572997
7.427777638078528	5.7952633	2.4073353
7.445341357039213	5.5624285	2.3584802
7.4629052511572525	5.442467	2.3329096
7.480469320850524	5.4168477	2.3274121
7.498033566536948	5.398325	2.3234296
7.5155979886344735	5.3044977	2.3031495
7.5331625875610975	5.21983	2.2846947
7.550727363734844	5.2321773	2.2873952
7.568292317573788	5.2888155	2.2997425
7.585857449496025	5.2780766	2.2974064
7.603422759919705	5.244889	2.290172
7.620988249263007	5.180472	2.276065
7.638553917944147	5.145434	2.268355
7.656119766381391	5.1573744	2.2709854
7.673685794993023	5.2155695	2.2837622
7.691252004197388	5.246833	2.2905967
7.70881839441285	5.2435555	2.2898812
7.726384966057826	5.2313924	2.2872238
7.743951719550762	5.285175	2.298951
7.761518655310149	5.3313503	2.3089716
7.779085773754511	5.323782	2.3073323
7.796653075302419	5.30813	2.303938
7.814220560372475	5.282995	2.2984767
7.831788229383323	5.234655	2.287937
7.8493560827536495	5.2211103	2.2849748
7.866924120902174	5.2478647	2.2908218
7.884492344247663	5.336534	2.3100939
7.9020607532089135	5.357102	2.3145413
7.919629348204771	5.366097	2.3164837
7.937198129654115	5.3297524	2.3086257
7.954767097975865	5.386526	2.320889
7.972336253588986	5.423322	2.3288028
7.989905596912472	5.4444175	2.3333275
8.007475128365371	5.4378157	2.3319125
8.025044848366756	5.457241	2.3360739
8.042614757335754	5.680112	2.3832986
8.060184855691523	5.7963037	2.4075513
8.07775514385327	5.9669437	2.4427328
8.095325622240228	6.0186524	2.4532943
8.112896291271687	6.0307937	2.4557674
8.130467151366968	6.050848	2.4598472
8.148038202945436	6.0930057	2.4684014
8.165609446426497	6.122466	2.4743617
8.183180882229594	6.1879497	2.487559
8.200752510774217	6.152493	2.480422
8.218324332479893	6.1556225	2.4810526
8.235896347766193	6.138515	2.4776027
8.253468557052724	6.149963	2.4799118
8.27104096075914	6.1364226	2.4771805
8.288613559305137	6.1616936	2.482276
8.306186353110448	6.258304	2.5016603
8.32375934259485	6.3245935	2.5148745
8.341332528178162	6.3529906	2.520514
8.358905910280246	6.286719	2.507333
8.376479489321003	6.253854	2.5007706
8.394053265720377	6.304315	2.5108395
8.411627239898356	6.377361	2.5253437
8.42920141227497	6.470819	2.5437806
8.44677578327029	6.5255084	2.5545075
8.464350353304427	6.5073647	2.5509536
8.48192512279754	6.3914766	2.528137
8.499500092169827	6.2911506	2.5082166
8.51707526184153	6.239498	2.4978988
8.534650632232934	6.245281	2.499056
8.552226203764365	6.244039	2.4988074
8.569801976856192	6.2616806	2.502335
8.587377951928834	6.386147	2.5270827
8.60495412940274	6.4439588	2.5384953
8.622530509698416	6.461248	2.5418985
8.6401070932364	6.513913	2.5522368
8.657683880437283	6.6271076	2.574317
8.675260871721695	6.811808	2.609944
8.692838067510303	6.97311	2.6406648
8.710415468223834	7.0893683	2.6625867
8.727993074283043	7.2168264	2.6864152
8.745570886108737	7.298497	2.7015731
8.763148904121765	7.350341	2.7111511
8.78072712874302	7.3610053	2.7131174
8.798305560393441	7.524623	2.7431047
8.815884199494006	7.625062	2.7613516
8.833463046465745	7.790613	2.791167
8.851042101729728	7.997868	2.8280501
8.86862136570707	8.354319	2.8903837
8.886200838818924	8.493044	2.9142828
8.903780521486505	8.45277	2.9073648
8.921360414131055	8.5643	2.9264824
8.938940517173874	8.727072	2.954162
8.956520831036297	8.922351	2.9870305
8.97410135613971	9.213288	3.0353398
8.99168209290554	9.33799	3.0558124
9.009263041755265	9.611442	3.1002326
9.026844203110405	9.85418	3.1391368
9.044425577392525	10.039167	3.1684644
9.062007165023239	10.153742	3.1864936
9.079588966424197	10.37617	3.2212064
9.097170982017108	10.420401	3.2280645
9.11475321222372	11.33641	3.3669586
9.132335657465825	12.238625	3.4983745
9.149918318165264	12.283148	3.5047321
9.167501194743924	12.720124	3.5665283
9.18508428762374	12.39078	3.520054
9.202667597226693	12.397367	3.5209894
9.220251123974803	12.112888	3.4803574
9.237834868290143	11.824865	3.4387302
9.255418830594836	11.646688	3.4127245
9.273003011311046	11.171187	3.3423326
9.290587410860985	11.067939	3.3268511
9.308172029666911	10.490412	3.2388904
9.32575686815113	10.158509	3.1872416
9.343341926735997	8.84684	2.9743638
9.360927205843916	8.569507	2.927372
9.378512705897327	8.415751	2.9009914
9.396098427318728	8.189067	2.8616545
9.413684370530664	8.1105	2.847894
9.431270535955722	7.998834	2.828221
9.448856924016539	7.976932	2.8243463
9.466443535135806	7.910781	2.812611
9.484030369736251	7.87302	2.8058903
9.501617428240658	7.861305	2.803802
9.519204711071852	7.8542914	2.8025508
9.536792218652714	7.8927145	2.8093975
9.55437995140617	7.8753386	2.8063033
9.571967909755191	7.9248657	2.8151138
9.589556094122802	7.9072576	2.8119845
9.60714450493207	7.9546046	2.820391
9.624733142606116	7.9879766	2.8263009
9.642322007568108	8.0379	2.835119
9.659911100241267	8.044616	2.8363032
9.677500421048851	8.010919	2.8303566
9.695089970414175	8.064677	2.8398376
9.712679748760609	8.0979595	2.8456914
9.730269756511557	8.176118	2.8593912
9.747859994090492	8.209894	2.8652914
9.765450461920915	8.2836275	2.8781292
9.78304116042639	8.318313	2.8841486
9.800632090030527	8.377929	2.8944652
9.81822325115699	8.3795805	2.8947506
9.835814644229481	8.350801	2.8897753
9.853406269671762	8.278567	2.87725
9.870998127907646	8.350871	2.8897874
9.888590219360985	8.383851	2.895488
9.906182544455698	8.5181875	2.9185934
9.923775103615734	8.494342	2.9145055
9.941367897265108	8.468909	2.910139
9.958960925827878	8.4298935	2.9034278
9.97655418972816	8.417879	2.9013581
9.994147689390106	8.394936	2.8974016
10.011741425237934	8.345049	2.8887799
10.029335397695904	8.301361	2.8812082
10.04692960718833	8.27749	2.8770628
10.06452405413958	8.341788	2.8882153
10.082118738974064	8.361715	2.891663
10.099713662116246	8.3495455	2.889558
10.117308823990651	8.376177	2.8941627
10.134904225021844	8.412567	2.9004426
10.152499865634445	8.405734	2.8992643
10.170095746253125	8.435931	2.9044673
10.18769186730261	8.343605	2.88853
10.205288229207675	8.2568	2.8734648
10.222884832393145	8.162281	2.8569705
10.2404816772839	8.120355	2.8496237
10.258078764304868	8.102612	2.8465087
10.275676093881035	8.047181	2.8367553
10.293273666437438	8.091928	2.8446314
10.310871482399158	8.221747	2.867359
10.32846954219134	8.26197	2.8743641
10.346067846239173	8.264705	2.87484
10.363666394967908	8.228825	2.8685927
10.38126518880283	8.280328	2.8775558
10.398864228169298	8.304413	2.8817377
10.416463513492713	8.249434	2.8721828
10.434063045198531	8.1221	2.8499298
10.451662823712262	8.157827	2.8561912
10.469262849459467	8.174847	2.8591688
10.486863122865758	8.055015	2.8381357
10.504463644356806	8.015035	2.8310838
10.522064414358338	8.048344	2.8369603
10.539665433296118	8.124561	2.8503616
10.557266701595987	8.142868	2.8535712
10.574868219683818	7.9982653	2.8281205
10.592469987985552	7.836447	2.7993655
10.610072006927185	7.74869	2.7836468
10.627674276934751	7.608398	2.7583325
10.64527679843435	7.461174	2.731515
10.662879571852143	7.3233395	2.706167
10.680482597614331	7.244404	2.691543
10.698085876147173	7.164141	2.6765914
10.715689407876988	6.953726	2.6369917
10.733293193230146	6.836084	2.6145906
10.750897232633072	6.739905	2.5961328
10.76850152651225	6.6947474	2.587421
10.786106075294207	6.635427	2.5759323
10.803710879405534	6.557043	2.5606723
10.821315939272877	6.4482374	2.5393379
10.83892125532294	6.3338842	2.516721
10.856526827982472	6.263544	2.5027072
10.874132657678285	6.295286	2.5090408
10.891738744837243	6.317218	2.5134077
10.909345089886271	6.233881	2.4967742
10.926951693252343	6.1500916	2.4799378
10.944558555362494	6.0448523	2.4586282
10.96216567664381	6.068418	2.4634159
10.979773057523436	6.068754	2.463484
10.997380698428573	6.0083017	2.4511838
11.014988599786477	5.8694158	2.4226878
11.032596762024461	5.814074	2.4112391
11.050205185569892	5.731408	2.394036
11.067813870850198	5.6694593	2.3810627
11.085422818292859	5.6275296	2.3722415
11.10303202832541	5.525297	2.350595
11.120641501375454	5.48267	2.34151
11.138251237870636	5.4267554	2.3295398
11.155861238238671	5.3692584	2.317166
11.173471502907317	5.297504	2.3016307
11.191082032304402	5.2798	2.2977815
11.208692826857805	5.225943	2.2860322
11.226303886995465	5.141463	2.2674794
11.243915213145371	5.089098	2.255903
11.261526805735578	5.0596075	2.2493572
11.279138665194196	5.0076365	2.2377748
11.296750791949393	4.9496946	2.2247908
11.314363186429393	4.841689	2.200384
11.331975849062479	4.769651	2.183953
11.34958878027699	4.649358	2.156237
11.36720198050133	4.633133	2.1524713
11.384815450163948	4.6450562	2.1552393
11.402429189693366	4.593713	2.1432948
11.420043199518153	4.5650063	2.1365876
11.437657480066942	63.516357	7.969715
11.455272031768422	85.246635	9.23291
11.472886855051353	107.60943	10.373496
11.490501950344528	99.18128	9.95898
11.508117318076819	84.52455	9.193724
11.52573295867715	45.930157	6.7771792
11.543348872574514	4.2194853	2.0541387
11.560965060197946	4.176599	2.043673
11.57858152197655	4.129782	2.0321865
11.59619825833949	4.096992	2.0241027
11.613815269715985	4.0546947	2.0136273
11.631432556535323	38.58507	6.2116885
11.649050119226837	83.14815	9.118561
11.666667958219929	93.544235	9.671827
11.68428607394406	107.76525	10.381004
11.701904466828756	82.56283	9.086409
11.719523137303586	65.39697	8.08684
11.737142085798196	4.6271906	2.1510906
11.754761312742286	3.723945	1.9297526
11.772380818565619	3.6608326	1.9133302
11.790000603698015	3.639916	1.9078563
11.80762066856935	3.6202242	1.9026887
11.825241013609572	3.5869951	1.8939364
11.842861639248683	3.535489	1.8802897
11.860482545916748	3.517499	1.8754996
11.878103734043883	3.4768407	1.8646288
11.895725204060282	3.4717011	1.8632501
11.91334695639619	3.4449785	1.8560653
11.930968991481919	3.438911	1.8544301
11.948591309747824	3.3808277	1.8387027
11.966213911624347	3.3468466	1.8294389
11.98383679754198	3.308431	1.8189093
12.001459967931268	3.3062868	1.8183198
12.019083423222835	3.3060637	1.8182584
12.036707163847352	3.2697585	1.8082473
12.05433119023556	3.2800376	1.8110874
12.071955502818259	3.27287	1.8091075
12.089580102026313	3.2402313	1.8000642
12.107204988290643	3.1939473	1.7871618
12.12483016204224	3.1300273	1.7691883
12.142455623712152	3.0847018	1.7563319
12.16008137373149	3.0585003	1.7488569
12.177707412531431	3.06908	1.751879
12.19533374054321	3.0873199	1.7570771
12.212960358198126	3.0957208	1.759466
12.230587265927545	3.141857	1.7725284
12.248214464162889	3.114061	1.7646703
12.265841953335649	3.1140165	1.7646576
12.283469733877375	3.0712423	1.752496
12.301097806219685	3.0418231	1.7440823
12.31872617079425	3.0188177	1.7374746
12.336354828032825	2.9722953	1.7240345
12.353983778367205	2.9453063	1.7161895
12.371613022229262	2.9233131	1.70977
12.389242560050928	2.9663777	1.7223176
12.406872392264201	2.987294	1.728379
12.424502519301143	3.0013871	1.7324512
12.442132941593874	2.9110532	1.7061809
12.459763659574586	2.890428	1.7001259
12.477394673675532	2.874061	1.6953056
12.49502598432903	2.8997316	1.7028599
12.51265759196746	2.860626	1.6913385
12.530289497023267	2.788634	1.6699203
12.547921699928967	2.7718642	1.6648916
12.565554201117134	2.7824874	1.6680789
12.583187001020404	2.7982192	1.6727879
12.600820100071486	2.808014	1.675713
12.618453498703152	2.8184988	1.6788385
12.636087197348235	2.8649204	1.6926075
12.65372119643964	2.8294127	1.6820859
12.671355496410326	2.82146	1.6797202
12.68899009769333	2.801837	1.6738689
12.706625000721749	2.8249	1.6807438
12.724260205928752	2.9085875	1.7054582
12.741895713747551	2.9510741	1.717869
12.759531524611454	3.0159967	1.7366625
12.777167638953818	3.0367658	1.7426319
12.794804057208072	3.0249243	1.739231
12.812440779807702	3.0538309	1.7475214
12.830077807186271	3.2172172	1.7936603
12.847715139777405	3.244255	1.8011816
12.865352778014795	3.4851298	1.8668503
12.882990722332197	3.6002412	1.8974302
12.90062897316344	3.7205963	1.9288847
12.918267530942412	3.7752702	1.9430054
12.935906396103071	3.6844862	1.9195015
12.953545569079449	3.8471692	1.9614202
12.971185050305628	3.6902332	1.920998
12.988824840215775	3.6754782	1.9171537
13.006464939244115	3.6424174	1.9085119
13.024105347824943	3.4927678	1.8688948
13.041746066392617	3.599869	1.8973321
13.05938709538157	3.437071	1.8539339
13.077028435226296	3.4216285	1.8497645
13.094670086361363	3.2801518	1.811119
13.112312049221401	3.1766593	1.7823185
13.129954324241112	3.078607	1.754596
13.147596911855258	2.920439	1.7089292
13.165239812498685	2.9118247	1.706407
13.182883026606293	2.8708065	1.6943455
13.200526554613058	2.7596989	1.6612341
13.218170396954017	2.7028487	1.6440343
13.235814554064284	2.691018	1.6404322
13.253459026379034	2.7140403	1.6474345
13.271103814333523	2.726145	1.6511042
13.288748918363058	2.725519	1.6509145
13.306394338903031	2.7158794	1.6479925
13.32404007638889	2.7124944	1.6469651
13.341686131256164	2.7041497	1.6444299
13.359332503940449	2.6599767	1.6309435
13.376979194877402	2.6617668	1.6314921
13.394626204502751	2.731146	1.6526179
13.412273533252307	2.7636902	1.662435
13.429921181561937	2.6946638	1.6415431
13.447569149867581	2.688194	1.6395713
13.465217438605247	2.739852	1.6552498
13.482866048211022	2.7680292	1.6637396
13.500514979121052	2.7391574	1.65504
13.518164231771568	2.6832573	1.6380651
13.535813806598844	2.6935077	1.6411909
13.553463704039254	2.7109654	1.646501
13.571113924529229	2.7464056	1.6572282
13.588764468505275	2.727392	1.6514817
13.606415336403956	2.7467523	1.6573329
13.624066528661917	2.760117	1.66136
13.641718045715882	2.8449538	1.686699
13.659369888002635	2.910041	1.7058842
13.67702205595903	2.9622161	1.721109
13.694674550021993	2.994304	1.7304057
13.712327370628532	3.0692794	1.751936
13.729980518215713	3.1982546	1.7883664
13.747633993220681	3.2850456	1.8124695
13.765287796080647	3.346387	1.8293133
13.7829419272329	3.343876	1.8286268
13.800596387114801	3.3929145	1.8419865
13.818251176163775	3.4110205	1.8468949
13.835906294817324	3.4321797	1.8526143
13.853561743513023	3.4749303	1.8641164
13.871217522688525	3.5147007	1.8747535
13.888873632781538	3.5263624	1.8778611
13.906530074229858	3.5534208	1.885052
13.92418684747135	3.537971	1.8809495
13.941843952943948	3.5530639	1.8849573
13.959501391085665	3.5290177	1.8785679
13.977159162334578	3.4479637	1.8568693
13.994817267128846	3.4038622	1.8449559
14.012475705906693	3.2889168	1.8135371
14.030134479106424	3.2475421	1.8020939
14.047793587166414	3.2200541	1.7944509
14.065453030525108	3.1413991	1.7723993
14.083112809621026	3.020104	1.7378446
14.100772924892766	2.9197176	1.7087181
14.118433376778997	2.895371	1.701579
14.136094165718458	2.8411403	1.6855682
14.153755292149969	2.7771082	1.6664658
14.171416756512416	2.6983895	1.6426775
14.189078559244768	2.6458552	1.6266085
14.20674070078606	2.5913298	1.6097608
14.224403181575408	2.5543478	1.5982327
14.242066002051999	2.5627778	1.6008679
14.259729162655093	2.5462422	1.5956949
14.277392663824022	2.5171318	1.5865471
14.295056505998208	2.4840598	1.5760901
14.312720689617128	2.465073	1.5700551
14.330385215120348	2.4296021	1.5587181
14.348050082947497	2.4305093	1.5590091
14.3657152935383	2.4268723	1.5578421
14.383380847332528	2.4255903	1.5574306
14.401046744770051	2.4425268	1.5628586
14.418712986290798	2.445714	1.5638778
14.436379572334793	2.423137	1.5566429
14.454046503342123	2.4431608	1.5630614
14.471713779752946	2.4504652	1.5653962
14.489381402007504	2.447567	1.5644702
14.507049370546113	2.4178624	1.5549477
14.524717685809168	2.4233656	1.5567163
14.542386348237134	2.433503	1.5599688
14.560055358270553	2.437951	1.561394
14.577724716350051	2.4599109	1.5684103
14.595394422916325	2.458171	1.5678555
14.61306447841015	2.517954	1.5868063
14.63073488327237	2.5138178	1.5855024
14.648405637943917	2.492264	1.5786906
14.6660767428658	2.4693232	1.571408
14.683748198479094	2.4863694	1.5768225
14.701420005224954	2.5617595	1.6005497
14.719092163544628	2.6820083	1.6376839
14.73676467387942	2.7822719	1.6680143
14.754437536670727	2.795345	1.6719285
14.772110752360014	2.7490036	1.6580119
14.78978432138882	2.6992848	1.64295
14.807458244198777	2.7158663	1.6479886
14.82513252123159	2.7385447	1.6548549
14.842807152929028	2.7645519	1.6626942
14.860482139732962	2.7577808	1.6606567
14.87815748208531	2.7364507	1.6542221
14.8958331804281	2.7601233	1.6613618
14.91350923520342	2.705485	1.644836
14.931185646853438	2.712891	1.6470857
14.948862415820408	2.6585226	1.6304977
14.966539542546656	2.6385465	1.6243603
14.98421702747459	2.5898898	1.6093135
15.001894871046696	2.6432745	1.625815
15.019573073705542	2.6641953	1.6322362
15.037251635893766	2.6990943	1.642892
15.054930558054092	2.6929426	1.6410187
15.072609840629323	2.7279334	1.6516457
15.090289484062351	2.9243011	1.7100588
15.107969488796124	3.2451205	1.8014218
15.125649855273691	3.7125456	1.9267967
15.14333058393817	4.24484	2.060301
15.161011675232768	5.2484365	2.2909467
15.17869312960076	6.521214	2.5536668
15.196374947485506	8.281802	2.8778121
15.214057129330447	11.310078	3.363046
15.231739675579114	15.961241	3.9951522
15.249422586675102	21.032703	4.5861425
15.267105863062092	24.069517	4.9060693
15.284789505183847	24.260487	4.9254937
15.302473513484218	22.023323	4.692901
15.320157888407127	18.467716	4.297408
15.337842630396578	14.409907	3.7960384
15.355527739896656	11.184615	3.3443408
15.37321321735153	8.667953	2.9441388
15.39089906320545	6.357227	2.5213542
15.408585277902748	4.816686	2.194695
15.42627186188783	3.7780921	1.9437315
15.443958815605198	3.2942517	1.8150073
15.461646139499424	3.0026221	1.7328076
15.479333834015168	2.8725433	1.694858
15.497021899597165	2.8002944	1.673408
15.514710336690234	2.7453148	1.6568992
15.53239914573928	2.6958637	1.6419085
15.550088327189297	2.638208	1.6242561
15.567777881485336	2.5704627	1.6032662
15.58546780907256	2.5160575	1.5862086
15.6031581103962	2.4983895	1.5806295
15.620848785901568	2.5108051	1.584552
15.638539836034063	2.5081742	1.5837216
15.656231261239173	2.5148518	1.5858284
15.673923061962451	2.5026183	1.5819666
15.691615238649552	2.488018	1.5773453
15.709307791746202	2.4586473	1.5680075
15.727000721698221	2.461357	1.5688713
15.744694028951498	2.4714043	1.5720701
15.76238771395202	2.435076	1.560473
15.780081777145844	2.38617	1.5447233
15.797776218979125	2.3840234	1.5440283
15.815471039898094	2.4022791	1.5499288
15.833166240349064	2.4532452	1.5662838
15.850861820778437	2.4333289	1.559913
15.868557781632699	2.3672774	1.5385959
15.886254123358412	2.3051434	1.5182699
15.903950846402232	2.3216882	1.5237087
15.921647951210897	2.3714225	1.5399424
15.939345438231225	2.3716934	1.5400304
15.957043307910133	2.3951395	1.5476238
15.974741560694602	2.387444	1.5451356
15.992440197031714	2.3818846	1.5433356
16.01013921736862	2.3311658	1.5268155
16.02783862215259	2.3067877	1.5188113
16.045538411830933	2.3109696	1.5201874
16.06323858685107	2.368539	1.5390059
16.080939147660512	2.4473362	1.5643964
16.09864009470684	2.454697	1.5667472
16.11634142843774	2.4685097	1.5711491
16.134043149300954	2.4728096	1.5725169
16.15174525774433	2.4688878	1.5712695
16.169447754215817	2.435871	1.5607277
16.18715063916342	2.436187	1.5608289
16.204853913035244	2.4578154	1.5677421
16.222557576279478	2.5106666	1.5845083
16.240261629344403	22.520012	4.7455254
16.257966072678386	43.029537	6.5596905
16.275670906729868	38.083447	6.171179
16.293376131947387	2.483814	1.576012
16.31108174877957	2.5220766	1.5881047
16.328787757675133	2.6049435	1.6139838
16.34649415908287	2.6287885	1.6213539
16.364200953451657	2.633276	1.6227372
16.38190814123048	2.6415415	1.6252819
16.39961572286839	2.7006598	1.6433684
16.41732369881455	2.7243533	1.6505616
16.43503206951817	2.7576091	1.6606051
16.45274083542859	2.7926536	1.6711234
16.47044999699522	2.8362966	1.6841308
16.488159554667558	2.835684	1.683949
16.505869508895184	2.846063	1.6870278
16.523579860127786	2.884551	1.6983966
16.541290608815117	2.910354	1.7059759
16.559001755407035	3.0001311	1.7320887
16.57671330035348	3.065951	1.7509857
16.59442524410448	3.1532292	1.7757335
16.61213758711015	3.232536	1.7979255
16.629850329820705	3.288653	1.8134643
16.647563472686436	3.332488	1.8255104
16.665277016157724	3.3477705	1.8296914
16.682990960685053	3.3889844	1.8409195
16.70070530671898	3.4265716	1.8511001
16.718420054710155	3.4635708	1.8610672
16.736135205109335	3.5225222	1.8768383
16.753850758367335	3.614603	1.9012109
16.771566714935087	3.7128882	1.9268856
16.789283075263597	3.778481	1.9438316
16.80699983980398	3.8020537	1.9498856
16.82471700900741	3.8413823	1.9599445
16.84243458332518	3.9322102	1.9829801
16.860152563208665	4.0398393	2.0099351
16.87787094910932	4.0958123	2.0238113
16.89558974147871	4.145507	2.0360518
16.913308940768466	4.167237	2.0413811
16.931028547430333	4.2069635	2.0510883
16.94874856191613	4.2841954	2.0698297
16.966468984677785	4.4197006	2.1023085
16.98418981616729	4.5088997	2.123417
17.00191105683676	4.4910645	2.119213
17.019632707138374	4.473035	2.114955
17.03735476752442	4.508045	2.1232157
17.05507723844728	4.538581	2.1303945
17.072800120359403	4.5998583	2.144728
17.090523413713353	4.614959	2.1482456
17.108247118961785	4.6937227	2.1665
17.125971236557437	4.7035675	2.168771
17.143695766953133	4.750065	2.1794643
17.161420710601806	4.7271214	2.1741943
17.179146067956477	4.697063	2.167271
17.19687183947025	4.656708	2.1579406
17.21459802559634	4.6313663	2.152061
17.232324626788028	4.6731057	2.1617367
17.25005164349871	4.708979	2.1700182
17.267779076181863	4.6974072	2.1673503
17.285506925291074	4.683418	2.1641207
17.30323519127999	4.6694455	2.1608899
17.320963874602384	4.6360025	2.153138
17.33869297571211	4.5949264	2.143578
17.356422495063114	4.551187	2.133351
17.37415243310944	4.5412436	2.1310194
17.391882790305218	4.5404305	2.1308286
17.40961356710468	4.5481553	2.1326404
17.42734476396215	4.497511	2.1207335
17.445076381332044	4.4978514	2.1208138
17.462808419668868	4.6236796	2.1502743
17.48054087942723	4.7871976	2.1879666
17.498273761061835	5.078529	2.253559
17.51600706502747	5.5360627	2.3528838
17.533740791779024	6.2569776	2.5013952
17.551474941771485	7.653943	2.766576
17.56920951545993	8.720155	2.9529908
17.586944513299528	10.772543	3.2821553
17.60467993574556	12.34908	3.5141258
17.622415783253373	13.947288	3.7346067
17.64015205627843	15.245246	3.904516
17.657888755276293	16.311249	4.0387187
17.675625880702604	16.78407	4.0968366
17.69336343301311	16.63542	4.0786543
17.71110141266366	15.964629	3.9955761
17.728839820110178	15.1448965	3.8916445
17.746578655808705	14.367317	3.7904243
17.764317920215372	12.982689	3.60315
17.7820576137864	11.525584	3.3949351
17.79979773697811	9.549852	3.0902836
17.81753829024692	7.670114	2.7694972
17.835279274049356	6.003199	2.4501426
17.85302068884201	4.939464	2.2224905
17.870762535081607	4.282607	2.069446
17.888504813224934	3.9602854	1.9900466
17.90624752372891	3.7468853	1.9356873
17.923990667050536	3.6462545	1.9095168
17.941734243646895	3.539174	1.8812692
17.959478253975185	3.521892	1.8766705
17.9772226984927	3.4968321	1.8699819
17.994967577656833	3.4841394	1.866585
18.01271289192506	3.4409785	1.8549875
18.030458641754965	3.3726482	1.8364772
18.04820482760425	3.322091	1.8226604
18.06595144993067	3.2867682	1.8129447
18.083698509192125	3.2811666	1.8113991
18.101446005846576	3.2986817	1.8162273
18.119193940352105	3.2987447	1.8162447
18.136942313166887	3.2872434	1.8130757
18.1546911247492	3.2315748	1.7976581
18.1724403755574	3.1868072	1.785163
18.19019006604997	3.175971	1.7821255
18.207940196685467	3.1660798	1.7793481
18.225690767922575	3.1091306	1.7632726
18.243441780220046	3.103273	1.7616109
18.261193234036764	3.1159527	1.7652061
18.278945129831676	3.1432245	1.7729142
18.29669746806386	3.1367588	1.7710897
18.314450249192483	3.1318152	1.7696935
18.3322034736768	3.1033535	1.7616338
18.349957141976184	3.0562985	1.7482272
18.3677112545501	3.036101	1.7424412
18.385465811858108	3.0681484	1.751613
18.403220814359884	3.0819266	1.7555417
18.420976262515172	3.0914006	1.758238
18.43873215678387	3.1401002	1.7720329
18.456488497625923	3.1674318	1.779728
18.474245285501407	3.2216015	1.794882
18.492002520870486	3.2639685	1.8066456
18.50976020419343	3.3473308	1.8295712
18.527518335930615	3.6857772	1.9198378
18.545276916542516	4.2579665	2.0634842
18.563035946489688	4.4241915	2.1033762
18.580795426232832	4.8547654	2.2033532
18.598555356232698	4.7640653	2.182674
18.616315736950185	5.1760335	2.2750897
18.63407656884626	4.8308167	2.197912
18.65183785238201	5.027802	2.2422762
18.669599588018617	4.7340717	2.1757922
18.68736177621737	4.7157106	2.1715686
18.705124417439652	4.6683517	2.160637
18.72288751214696	4.509619	2.1235864
18.740651060800886	4.7135816	2.1710784
18.758415063863115	4.4252863	2.1036365
18.77617952179546	4.5556107	2.1343877
18.793944435059814	4.229926	2.0566785
18.811709804118184	4.302622	2.0742762
18.829475629432675	4.310928	2.0762775
18.8472419114655	4.101481	2.0252113
18.86500865067897	4.1280503	2.0317605
18.88277584753551	3.7598727	1.9390391
18.90054350249763	3.8242583	1.955571
18.918311616027957	3.5042682	1.8719691
18.936080188589226	3.386205	1.8401644
18.953849220644265	3.0477898	1.745792
18.971618712656007	2.8953574	1.7015749
18.9893886650875	2.8379202	1.6846128
19.007159078401887	8.023865	2.8326428
19.024929953062408	32.8955	5.73546
19.042701289532435	32.828518	5.7296176
19.060473088275405	25.400394	5.0398803
19.07824534975489	2.683739	1.6382121
19.096018074434568	2.6234381	1.619703
19.113791262778197	2.588959	1.6090243
19.13156491524966	2.6268451	1.6207545
19.149339032312945	2.660724	1.6311725
19.167113614432136	2.6224382	1.6193944
19.184888662071433	2.597123	1.6115592
19.202664175695123	2.5336359	1.5917399
19.220440155767623	2.4994233	1.5809565
19.238216602753447	2.4823136	1.575536
19.2559935171172	2.489792	1.5779076
19.27377089932361	2.4978127	1.580447
19.291548749837514	2.5208328	1.5877131
19.309327069123835	2.5411527	1.5940994
19.32710585764763	2.552562	1.5976739
19.344885115874032	2.5392678	1.593508
19.362664844268313	2.5383239	1.5932118
19.380445043295822	2.526609	1.5895311
19.39822571342203	2.51859	1.5870066
19.41600685511252	2.5113087	1.584711
19.43378846883297	2.5082126	1.5837338
19.451570555049173	2.5061867	1.583094
19.469353114227037	2.5136054	1.5854354
19.48713614683254	2.503412	1.5822175
19.50491965333182	2.4788368	1.5744323
19.52270363419109	2.4616406	1.5689616
19.540488089876686	2.4756436	1.5734178
19.55827302085503	2.5094013	1.584109
19.576058427592674	2.4999766	1.5811315
19.593844310556282	2.4785259	1.5743334
19.611630670212598	2.4553897	1.5669683
19.629417507028506	2.4780264	1.5741749
19.64720482147098	2.542845	1.59463
19.6649926140071	2.5624645	1.60077
19.682780885104084	2.545545	1.5954765
19.70056963522921	2.520789	1.5876993
19.718358864849908	2.5107465	1.5845336
19.7361485744337	2.5003648	1.5812541
19.753938764448215	2.4575896	1.5676701
19.771729435361202	2.4492786	1.5650171
19.789520587640506	2.466929	1.570646
19.807312221754092	2.4887407	1.5775743
19.825104338170043	2.5386174	1.5933039
19.842896937356517	2.5678754	1.6024592
19.860690019781824	2.5892453	1.6091132
19.87848358591436	2.5414164	1.594182
19.896277636222635	2.566086	1.6019008
19.914072171175278	2.5636036	1.6011257
19.931867191241015	2.5867321	1.6083322
19.94966269688869	2.548486	1.5963979
19.967458688587264	2.5392213	1.5934935
19.985255166805807	2.5313313	1.5910158
20.00305213201348	2.5148354	1.5858233
20.020849584679578	2.4790099	1.5744872
20.038647525273507	2.4553425	1.5669533
20.05644595426477	2.4393215	1.5618328
20.07424487212299	2.451615	1.5657635
20.092044279317903	2.4622374	1.5691518
20.109844176319353	2.4323134	1.5595876
20.127644563597304	2.4058897	1.5510931
20.145445441621817	2.4181905	1.5550532
20.16324681086307	2.4305658	1.5590272
20.181048671791373	2.418968	1.5553032
20.198851024877122	2.3974185	1.54836
20.216653870590836	2.4194746	1.555466
20.234457209403146	2.412254	1.5531433
20.252261041784802	2.3906615	1.5461764
20.270065368206662	2.3984702	1.5486995
20.287870189139685	2.3895211	1.5458076
20.305675505054968	2.384872	1.544303
20.323481316423702	2.3802216	1.5427967
20.341287623717207	2.3714497	1.5399512
20.359094427406884	2.377713	1.5419835
20.376901727964288	2.3705003	1.5396429
20.39470952586107	2.3622792	1.5369707
20.41251782156899	2.3481731	1.532375
20.430326615559935	2.3618355	1.5368264
20.448135908305886	2.3815625	1.5432311
20.465945700278965	2.3978424	1.5484968
20.483755991951384	2.3793902	1.5425272
20.50156678379548	2.3843002	1.5441179
20.519378076283708	2.3876822	1.5452126
20.537189869888635	2.3771574	1.5418034
20.55500216508294	2.360126	1.5362701
20.572814962339415	2.334461	1.5278943
20.59062826213098	2.3444405	1.5311565
20.60844206493066	2.342152	1.5304091
20.626256371211593	2.3494656	1.5327966
20.644071181447032	2.334833	1.528016
20.66188649611036	2.3208058	1.5234191
20.67970231567506	2.2987466	1.5161618
20.697518640614742	2.2847464	1.5115378
20.715335471403122	2.273252	1.5077307
20.73315280851404	2.2713687	1.5071061
20.750970652421447	2.296932	1.5155632
20.768789003599412	2.3697486	1.5393988
20.786607862522136	2.4078832	1.5517355
20.8044272296639	2.4056964	1.5510308
20.82224710549913	2.360665	1.5364456
20.84006749050237	2.3260093	1.525126
20.857888385148268	3.8086395	1.9515736
20.8757097899116	45.902058	6.775106
20.893531705267254	64.75965	8.0473385
20.911354131690224	83.7995	9.154206
20.92917706965566	69.0654	8.310559
20.94700051963877	50.106483	7.0785933
20.96482448211493	29.375486	5.4199157
20.982648957559622	4.1129546	2.028042
21.00047394644843	2.2213845	1.490431
21.01829944925707	2.214565	1.4881414
21.036125466461375	2.2660675	1.5053463
21.053951998537297	2.3273492	1.5255651
21.071779045960906	2.313048	1.5208708
21.089606609208378	2.2365243	1.4955014
21.10743468875603	2.1609318	1.4700109
21.12526328508028	2.1701887	1.473156
21.143092398657675	2.169985	1.473087
21.16092202996488	2.1741405	1.4744967
21.17875217947867	2.1787193	1.4760486
21.19658284767596	2.2021644	1.4839691
21.21441403503377	2.1942828	1.4813112
21.232245742029225	2.1790574	1.476163
21.2500779691396	2.1503105	1.4663937
21.26791071684227	2.1602888	1.4697921
21.28574398561475	2.1772308	1.4755442
21.30357777593465	2.2029815	1.4842445
21.321412088279704	2.1990967	1.4829352
21.339246923127792	2.168931	1.4727291
21.357082280956888	2.138115	1.4622295
21.3749181622451	2.1323757	1.4602656
21.392754567470647	2.132479	1.4603009
21.41059149711187	2.1346142	1.4610319
21.42842895164726	2.1647334	1.4713033
21.446266931555378	2.172509	1.4739434
21.464105437314945	2.170891	1.4733944
21.481944469404798	2.1371653	1.4619046
21.49978402830388	2.1164877	1.4548154
21.51762411449127	2.1003952	1.4492741
21.53546472844617	2.115263	1.4543943
21.553305870647876	2.124123	1.4574372
21.571147541575865	2.1302054	1.4595224
21.58898974170967	2.1232853	1.4571497
21.60683247152899	2.0626774	1.4362024
21.62467573151363	2.046174	1.4304454
21.642519522143523	2.0341194	1.4262255
21.660363843898722	2.0477128	1.4309832
21.6782086972594	2.0535548	1.433023
21.696054082705864	2.0416317	1.4288567
21.713900000718535	2.0231228	1.4223652
21.73174645177795	2.0165477	1.420052
21.749593436364794	2.0379088	1.4275534
21.767440954959845	2.0284278	1.4242289
21.785289008044032	1.996546	1.4129919
21.803137596098388	2.0211213	1.4216615
21.820986719604086	2.0625956	1.4361739
21.838836379042412	2.0597494	1.4351827
21.85668657489478	2.0395303	1.4281212
21.87453730764273	2.0192657	1.4210087
21.892388577767914	2.0609305	1.4355941
21.91024038575213	2.0411892	1.4287019
21.928092732077285	2.0175629	1.4204094
21.945945617225426	1.9894857	1.4104913
21.963799041678694	1.9900869	1.4107044
21.981653005919398	31.339895	5.5982046
21.999507510429943	78.13335	8.839307
22.01736255569286	73.06583	8.547855
22.035218142190818	4.117743	2.0292222
22.05307427040661	1.957635	1.3991551
22.07093094082315	1.9761901	1.4057703
22.088788153923474	2.002667	1.4151561
22.106645910190746	1.9869268	1.4095839
22.12450421010827	2.0028486	1.4152204
22.142363054159464	1.9840089	1.4085485
22.16022244282787	1.9840779	1.408573
22.178082376597164	1.9841133	1.4085855
22.195942855951145	2.0091355	1.4174398
22.213803881373742	1.9800528	1.4071435
22.231665453349002	1.9812046	1.4075527
22.24952757236111	2.0023763	1.4150535
22.26739023889438	1.9940374	1.4121039
22.28525345343323	1.9748293	1.4052862
22.30311721646225	1.9755231	1.4055331
22.320981528466113	1.9736598	1.40487
22.33884638992964	1.9668679	1.4024507
22.356711801337788	1.9678706	1.4028081
22.37457776317561	1.9529276	1.3974719
22.392444275928337	1.9535376	1.39769
22.410311340081282	1.9416772	1.3934407
22.428178956119904	1.9407923	1.3931233
22.446047124529805	1.9321748	1.3900269
22.46391584579669	1.9269168	1.3881344
22.481785120406414	1.9356791	1.3912868
22.49965494884496	1.9566636	1.3988079
22.51752533159841	1.9384886	1.3922962
22.53539626915302	1.93606	1.3914237
22.553267761995137	1.9302322	1.389328
22.571139810611264	1.9453138	1.3947451
22.589012415488025	1.954847	1.3981584
22.60688557711216	1.9450152	1.3946381
22.624759295970566	1.9415098	1.3933808
22.642633572550263	1.9565995	1.398785
22.660508407338362	1.9635677	1.4012736
22.67838380082217	1.9816979	1.407728
22.696259753489077	1.960737	1.4002632
22.714136265826614	1.9516426	1.397012
22.73201333832246	1.9220223	1.3863702
22.74989097146439	1.907305	1.3810521
22.76776916574035	1.8979541	1.3776625
22.785647921638393	1.9078963	1.3812662
22.803527239646712	1.9118373	1.3826921
22.82140712025363	1.9126742	1.3829947
22.839287563947593	1.9411393	1.3932477
22.85716857121719	1.9265506	1.3880024
22.875050142551135	1.8938684	1.376179
22.892932278438277	1.9086493	1.3815387
22.910814979367604	1.9310555	1.3896242
22.928698245828222	1.946203	1.3950638
22.946582078309387	1.9668602	1.4024479
22.96446647730047	1.9622039	1.4007869
22.98235144329098	1.9557272	1.3984731
23.000236976770562	1.9676212	1.4027193
23.018123078229	1.9795934	1.4069803
23.03600974815619	1.9254495	1.3876057
23.053896987042194	1.8857936	1.373242
23.071784795377173	1.9169834	1.3845516
23.08967317365145	1.9768893	1.406019
23.10756212235546	1.991725	1.4112849
23.125451641979787	1.9977217	1.4134078
23.143341733015134	1.9768938	1.4060205
23.161232395952357	1.9552389	1.3982986
23.179123631282426	1.9112612	1.3824837
23.197015439496468	1.8857042	1.3732095
23.214907821085717	1.9087985	1.3815928
23.23280077654157	1.9591935	1.399712
23.250694306355538	1.9422499	1.3936462
23.268588411019277	1.9272867	1.3882675
23.28648309102458	1.9194856	1.385455
23.304378346863356	1.9156451	1.3840684
23.322274179027676	1.907137	1.3809913
23.340170588009723	1.8905005	1.3749547
23.358067574301852	1.9236028	1.3869401
23.37596513839651	1.9413229	1.3933136
23.39386328078629	1.9425734	1.3937624
23.411762001963947	1.9065012	1.380761
23.429661302422353	1.8828126	1.3721561
23.4475611826545	1.8630306	1.3649287
23.46546164315356	1.8744795	1.3691163
23.48336268441279	1.8753662	1.3694401
23.501264306925638	1.9084063	1.3814508
23.51916651118564	1.9208483	1.3859468
23.537069297686497	1.9097623	1.3819414
23.554972666922037	1.9489084	1.3960332
23.57287661938623	1.9843894	1.4086835
23.59078115557318	1.9824252	1.4079863
23.608686275977128	1.9287684	1.3888011
23.62659198109246	1.919787	1.3855639
23.6444982714137	1.9318748	1.3899189
23.66240514743549	1.964962	1.4017711
23.68031260965263	1.9756769	1.4055878
23.698220658560068	1.9608015	1.4002862
23.716129294652845	1.9152764	1.3839351
23.7340385184262	1.8865421	1.3735145
23.75194833037546	1.8763505	1.3697995
23.769858730996123	1.9241767	1.387147
23.78776972078382	1.9571468	1.3989806
23.80568130023431	1.9599919	1.3999971
23.823593469843495	1.9333749	1.3904585
23.841506230107424	1.8843793	1.3727269
23.859419581522275	1.8872368	1.3737674
23.87733352458438	1.902755	1.3794038
23.89524805979019	1.9499415	1.3964031
23.913163187636318	1.9593079	1.3997529
23.931078908619508	1.9997005	1.4141077
23.948995223236633	2.00931	1.4175013
23.966912131984735	2.0022898	1.4150229
23.98482963536096	2.042435	1.4291378
24.002747733862616	2.0404313	1.4284366
24.020666427987155	2.0803118	1.4423286
24.038585718232156	2.0544615	1.4333392
24.056505605095353	2.0407176	1.4285369
24.074426089074617	2.0830605	1.4432812
24.092347170667946	2.1083596	1.4520191
24.110268850373515	2.114934	1.4542812
24.128191128689586	2.132591	1.4603393
24.146114006114626	2.1099007	1.4525497
24.164037483147187	2.098889	1.4487543
24.181961560286005	2.059793	1.435198
24.199886238029926	2.0501022	1.4318178
24.21781151687797	2.030366	1.4249091
24.235737397329274	2.019086	1.4209454
24.253663879883135	2.0593212	1.4350336
24.271590965038975	2.0956209	1.447626
24.289518653296376	2.077486	1.4413487
24.30744694515505	2.0436425	1.4295603
24.32537584111486	2.0263526	1.4235002
24.34330534167581	2.0626621	1.4361972
24.361235447338046	2.0802357	1.4423022
24.379166158601876	2.0337865	1.4261088
24.39709747596772	2.0305936	1.424989
24.41502939993615	2.0229173	1.422293
24.432961931007917	1.9917939	1.4113092
24.450895069683856	1.9562199	1.3986493
24.468828816465	1.9150821	1.3838649
24.4867631718525	1.9006033	1.3786237
24.504698136347656	1.9171304	1.3846048
24.52263371045192	1.9573654	1.3990587
24.540569894666874	2.0151436	1.4195576
24.558506689494266	1.9978911	1.4134678
24.57644409543597	1.993755	1.4120039
24.594382112994012	2.0014486	1.4147257
24.61232074267057	1.9940964	1.4121248
24.630259984967953	1.9917665	1.4112996
24.64819984038863	1.9685119	1.4030367
24.66614030943522	1.959178	1.3997064
24.684081392610462	1.9445802	1.394482
24.702023090417274	1.947448	1.39551
24.7199654033587	1.9631932	1.40114
24.737908331937927	1.9507154	1.3966801
24.755851876658305	1.9857817	1.4091777
24.773796038023324	1.9774661	1.406224
24.79174081653661	2.0191953	1.4209839
24.809686212701962	2.0833554	1.4433833
24.827632227023294	2.1164021	1.454786
24.8455788600047	2.0953221	1.4475228
24.8635261121504	2.0973687	1.4482296
24.88147398396475	2.1178024	1.4552671
24.899422475952303	2.133468	1.4606396
24.917371588617698	2.1428	1.4638306
24.935321322465768	2.1693993	1.4728881
24.953271678001478	2.2683594	1.5061073
24.97122265572994	2.4366732	1.5609847
24.989174256156414	2.7654827	1.662974
25.00712647978632	3.1616747	1.7781099
25.02507932712521	3.7100692	1.926154
25.043032798678798	4.2444263	2.0602005
25.060986894952933	4.9060874	2.214969
25.078941616453637	5.6495004	2.3768678
25.096896963687055	6.490814	2.5477076
25.114852937159508	7.549169	2.747575
25.132809537377444	8.019654	2.8318994
25.150766764847468	8.170775	2.8584569
25.168724620076347	7.646814	2.7652874
25.186683103570985	6.6214867	2.573225
25.204642215838426	5.4528775	2.3351398
25.222601957385894	4.1681285	2.0415995
25.24056232872074	3.223991	1.7955475
25.25852333035048	2.659551	1.630813
25.276484962782778	2.341808	1.5302967
25.294447226525435	2.1147323	1.454212
25.312410122086423	1.9958075	1.4127306
25.330373649973843	1.8951998	1.3766625
25.348337810695988	1.8879796	1.3740377
25.366302604761245	1.8785658	1.3706079
25.384268032678207	1.9119161	1.3827206
25.40223409495558	1.9160753	1.3842237
25.420200792102257	1.9071412	1.3809929
25.438168124627246	1.884197	1.3726605
25.45613609303974	1.8604884	1.3639972
25.474104697849057	1.861231	1.3642694
25.492073939564698	1.8774556	1.3702028
25.510043818696285	1.9091052	1.3817037
25.528014335753614	1.9078395	1.3812456
25.54598549124664	1.8720307	1.3682218
25.56395728568544	1.8721108	1.368251
25.58192971958028	1.8973861	1.3774564
25.59990279344156	1.9191254	1.3853251
25.617876507779833	1.8979399	1.3776574
25.635850863105826	1.8883259	1.3741637
25.653825859930386	1.9402425	1.3929259
25.671801498764548	1.986542	1.4094474
25.68977778011949	1.9646403	1.4016563
25.707754704506524	1.9467957	1.3952762
25.725732272437153	1.9245586	1.3872846
25.743710484423012	1.9207085	1.3858963
25.761689340975888	1.896938	1.3772937
25.77966884260774	1.8741043	1.3689793
25.797648989830662	1.8747811	1.3692265
25.815629783156922	1.899066	1.3780661
25.83361122309895	1.8431602	1.3576304
25.85159331016929	1.7773527	1.3331739
25.869576044880695	1.7968078	1.3404505
25.887559427746034	1.8177233	1.3482296
25.90554345927836	1.8635035	1.365102
25.92352813999086	1.854381	1.3617566
25.94151347039689	1.8465389	1.3588741
25.959499451009965	1.7957137	1.3400424
25.97748608234374	1.7938678	1.3393536
25.995473364912062	1.8209758	1.3494353
26.013461299228904	1.8696823	1.3673632
26.03144988580839	1.8544642	1.3617871
26.04943912516483	1.827828	1.3519719
26.067429017812675	1.8387334	1.3559991
26.085419564266537	1.8371593	1.3554184
26.103410765041186	1.8732146	1.3686543
26.12140262065155	1.8671937	1.3664529
26.139395131612723	1.8650249	1.3656591
26.157388298439948	1.851532	1.3607101
26.17538212164861	1.8546621	1.3618598
26.193376601754295	1.8472854	1.3591487
26.211371739272714	1.8603851	1.3639593
26.229367534719746	1.8701882	1.3675482
26.247363988611433	1.8536214	1.3614776
26.26536110146397	1.8460346	1.3586886
26.283358873793727	1.8403912	1.3566102
26.301357306117204	1.841298	1.3569443
26.319356398951104	1.8078078	1.3445474
26.33735615281224	1.8206638	1.3493198
26.35535656821762	1.8293525	1.3525356
26.373357645684404	1.7919612	1.3386415
26.39135938572991	1.7886658	1.3374101
26.409361788871614	1.7777624	1.3333275
26.427364855627165	1.7930137	1.3390346
26.445368586514352	1.7923708	1.3387946
26.46337298205115	1.8192607	1.3487997
26.48137804275568	1.8546013	1.3618375
26.499383769146217	1.8797783	1.37105
26.517390161741215	1.894758	1.376502
26.53539722105928	1.8773975	1.3701816
26.553404947619182	1.8781065	1.3704402
26.571413341939856	1.8730719	1.3686022
26.589422404540397	1.8298438	1.3527172
26.60743213594006	1.7998338	1.3415788
26.62544253665827	1.8248044	1.3508532
26.64345360721459	1.8585298	1.3632791
26.66146534812879	1.8531079	1.361289
26.679477759920758	1.8577858	1.3630061
26.69749084311057	1.8771083	1.3700761
26.71550459821847	1.8386906	1.3559833
26.733519025764842	1.7983568	1.3410282
26.751534126270258	1.7670451	1.3293025
26.769549900255434	1.7616166	1.3272591
26.787566348241267	1.7640061	1.328159
26.80558347074881	1.8120561	1.3461263
26.823601268299267	1.8363714	1.3551278
26.841619741414036	1.847721	1.359309
26.85963889061465	1.8415611	1.3570412
26.877658716422832	1.8326503	1.3537542
26.89567921936045	1.819191	1.3487738
26.913700399949544	1.8265514	1.3514997
26.93172225871233	1.8665619	1.3662218
26.949744796171174	1.8890471	1.3744261
26.967768012848605	1.9084536	1.3814679
26.98579190926733	1.8455827	1.3585223
27.003816485950225	1.8048674	1.3434535
27.021841743420318	1.8067238	1.3441442
27.039867682200814	1.8540069	1.3616192
27.057894302815072	1.8535186	1.36144
27.07592160578664	1.832799	1.353809
27.0939495916392	1.817837	1.3482718
27.111978260896635	1.8372978	1.3554696
27.13000761408296	1.8224529	1.3499825
27.148037651722397	1.776688	1.3329246
27.166068374339304	1.7651718	1.3285977
27.184099782458215	1.7759819	1.3326597
27.20213187660384	1.765587	1.328754
27.22016465730105	1.7920461	1.3386732
27.23819812507487	1.7823639	1.335052
27.256232280450533	1.7702737	1.3305163
27.274267123953383	1.7935716	1.3392429
27.292302656108987	1.8317026	1.353404
27.31033887744306	1.8515816	1.3607284
27.32837578848146	1.870356	1.3676096
27.34641338975026	1.8259304	1.35127
27.364451681775673	1.8211747	1.3495091
27.382490665084074	1.7964259	1.3403082
27.400530340202046	1.8113471	1.345863
27.41857070765629	1.8142915	1.3469564
27.436611767973726	1.788168	1.337224
27.454653521681404	1.8212001	1.3495185
27.472695969306564	1.898328	1.3777982
27.490739111376627	1.9004967	1.3785851
27.508782948419153	1.8492849	1.3598841
27.526827480961902	1.8080908	1.3446527
27.54487270953279	1.8312063	1.3532207
27.562918634659898	1.8511859	1.360583
27.580965256871508	1.8476887	1.3592972
27.599012576696026	1.8766155	1.3698962
27.617060594662068	1.9109895	1.3823855
27.63510931129842	1.8993528	1.3781701
27.65315872713401	1.8733433	1.3687013
27.67120884269797	1.8471186	1.3590875
27.68925965851958	1.7924545	1.3388258
27.707311175128307	1.7875025	1.3369751
27.725363393053787	1.8478338	1.3593504
27.74341631282583	1.8961623	1.3770121
27.7614699349744	1.898455	1.3778443
27.77952426002968	2.0899568	1.4456682
27.797579288521973	2.16291	1.4706835
27.815635020981784	2.6796815	1.6369733
27.83369145793979	2.774441	1.6656654
27.85174859992682	2.5762067	1.6050566
27.869806447473923	2.376562	1.5416102
27.887865001112267	2.0685313	1.438239
27.905924261373233	1.9510818	1.3968112
27.92398422878836	1.9234537	1.3868864
27.94204490388936	1.886472	1.373489
27.96010628720813	1.9083654	1.381436
27.978168379276728	1.9543661	1.3979864
27.9962311806274	1.9829031	1.4081559
28.014294691792568	1.9290984	1.3889198
28.0323589133048	1.9114546	1.3825536
28.050423845696887	1.9077383	1.381209
28.068489489501758	1.9091514	1.3817204
28.086555845252523	1.8631328	1.3649663
28.104622913482487	1.8418223	1.3571376
28.122690694725115	1.8414327	1.356994
28.14075918951405	1.7901831	1.3379772
28.15882839838312	1.8024452	1.3425517
28.176898321866304	1.9307517	1.3895149
28.1949689604978	1.9492816	1.3961668
28.213040314811945	1.9686731	1.4030942
28.23111238534327	1.9148628	1.3837856
28.249185172626493	1.9091884	1.3817338
28.267258677196473	1.9311448	1.3896564
28.285332899588294	1.9322016	1.3900366
28.303407840337172	1.924038	1.387097
28.321483499978545	1.92864	1.3887548
28.33955987904799	1.927099	1.3881999
28.357636978081285	1.9721	1.4043148
28.37571479761439	2.0017192	1.4148213
28.393793338183425	1.9714469	1.4040822
28.41187260032469	1.9571049	1.3989657
28.429952584574686	1.9814521	1.4076406
28.448033291470065	2.011045	1.4181132
28.46611472154769	2.011626	1.418318
28.484196875344566	1.9805545	1.4073217
28.502279753397914	1.9726665	1.4045165
28.52036335624511	1.9253548	1.3875716
28.538447684423716	1.920377	1.3857766
28.556532738471482	1.909764	1.3819422
28.574618518926325	1.9260997	1.3878399
28.59270502632635	1.921199	1.3860732
28.61079226120985	1.972257	1.4043707
28.628880224115274	1.9965062	1.4129778
28.646968915581287	2.0629535	1.4362985
28.66505833614671	2.0716264	1.4393146
28.68314848635055	2.0882087	1.4450636
28.701239366732004	2.0926661	1.4466051
28.71933097783044	2.1513677	1.4667541
28.737423320185403	2.1485004	1.4657764
28.75551639433665	2.1215472	1.4565532
28.773610200824074	2.0823116	1.4430217
28.791704740187793	2.1162453	1.4547321
28.80980001296809	2.133268	1.4605712
28.827896019705413	2.191338	1.4803169
28.845992760940433	2.2094162	1.4864105
28.86409023721397	2.2015545	1.4837637
28.88218844906704	2.1742942	1.4745488
28.900287397040845	2.2134387	1.487763
28.918387081676755	2.226009	1.4919815
28.936487503516343	2.2766762	1.5088658
28.954588663101365	2.3109305	1.5201745
28.97269056097374	2.334425	1.5278825
28.990793197675597	2.3418534	1.5303116
29.00889657374923	2.3300579	1.5264527
29.027000689737125	2.3864973	1.5448292
29.04510554618196	2.4261389	1.5576068
29.06321114362659	2.4802456	1.5748795
29.08131748261405	2.4921873	1.5786663
29.099424563687567	2.4638941	1.5696796
29.11753238739057	2.4807882	1.5750518
29.13564095426663	2.534202	1.5919178
29.15375026485954	2.53587	1.5924416
29.171860319713275	2.6122396	1.6162424
29.18997111937199	2.6745625	1.635409
29.20808266438002	2.6838415	1.6382434
29.226194955281898	2.6716821	1.6345282
29.244307992622335	2.7640653	1.6625478
29.26242177694624	2.8508403	1.6884432
29.2805363087987	2.932954	1.712587
29.29865158872498	2.9324336	1.712435
29.316767617270557	2.903139	1.70386
29.334884394981064	2.9509196	1.7178241
29.353001922402367	3.030249	1.740761
29.37112020008047	3.1097379	1.7634449
29.389239228561596	3.2041733	1.7900205
29.407359008392152	3.366243	1.8347324
29.42547954011872	3.754036	1.9375335
29.44360082428809	4.366636	2.0896497
29.46172286144722	5.349923	2.3129902
29.479845652143283	6.7762685	2.6031268
29.497969196923606	8.771606	2.9616897
29.516093496335728	11.140739	3.3377745
29.5342185509274	13.803254	3.7152731
29.55234436124651	15.912119	3.9889998
29.570470927841175	17.359764	4.166505
29.588598251259686	17.147955	4.141009
29.60672633205055	15.735824	3.9668405
29.624855170762405	13.575852	3.6845424
29.642984767944146	11.122646	3.3350632
29.66111512414481	8.708085	2.9509466
29.67924623991366	6.6460834	2.5779998
29.697378115800138	5.1491547	2.2691748
29.71551075235387	4.2390366	2.058892
29.733644150124675	3.7352414	1.9326773
29.751778309662576	3.5355139	1.8802962
29.769913231517766	3.4066017	1.8456981
29.78804891624066	3.3725886	1.836461
29.806185364381818	3.3726957	1.83649
29.82432257649206	3.3750985	1.8371441
29.842460553122333	3.2856188	1.8126276
29.86059929482382	3.2365725	1.7990477
29.878738802147872	3.2253084	1.7959144
29.896879075646048	3.1903872	1.7861655
29.915020115870114	3.1768086	1.7823604
29.933161923371976	3.2110615	1.7919436
29.951304498703777	3.236951	1.7991529
29.969447842417857	3.3070936	1.8185416
29.987591955066733	3.341986	1.82811
30.005736837203123	3.285856	1.812693
30.023882489379943	3.1823971	1.7839274
30.04202891215028	3.1636229	1.7786576
30.060176106067455	3.1598415	1.7775943
30.078324071684946	3.206218	1.7905915
30.09647280955646	3.2120051	1.7922068
30.114622320235863	3.2253244	1.7959188
30.132772604277257	3.1412416	1.7723548
30.1509236622349	3.0996084	1.7605705
30.16907549466328	3.0661793	1.751051
30.18722810211705	3.0789735	1.7547004
30.205381485151097	3.0507426	1.7466375
30.22353564432045	2.9742641	1.7246056
30.241690580180403	2.987602	1.7284681
30.25984629328638	3.0207105	1.7380191
30.278002784194037	2.9717066	1.7238638
30.296160053459246	2.9328034	1.712543
30.314318101638033	2.9468544	1.7166405
30.332476929286646	2.9052083	1.7044672
30.35063653696153	2.8796773	1.6969612
30.368796925219307	2.8698215	1.6940547
30.386958094616844	2.8515284	1.6886469
30.40512004571115	2.8752434	1.6956543
30.423282779059463	2.882907	1.6979126
30.441446295219233	2.8971217	1.7020934
30.459610594748067	2.8724658	1.6948351
30.47777567820382	2.8133035	1.6772906
30.495941546144504	2.729532	1.6521295
30.51410819912835	2.7319696	1.6528671
30.532275637713795	2.8126545	1.6770971
30.55044386245946	2.8832307	1.6980078
30.56861287392416	2.9119208	1.7064351
30.586782672666956	2.9069061	1.7049651
30.604953259247047	2.8709867	1.6943986
30.623124634223885	2.8033094	1.6743087
30.641296798157075	2.8083565	1.6758152
30.659469751606462	2.8086138	1.6758919
30.677643495132074	2.8528533	1.6890391
30.695818029294152	2.859753	1.6910805
30.713993354653116	2.7602594	1.6614028
30.73216947176962	2.6972377	1.642327
30.75034638120448	2.7145846	1.6475997
30.768524083518756	2.7803428	1.667436
30.786702579273673	2.8448231	1.6866603
30.80488186903069	2.8857133	1.6987387
30.82306195335144	2.9496384	1.7174511
30.841242832797782	3.090469	1.757973
30.85942450793176	3.34478	1.828874
30.877606979315637	3.700017	1.9235429
30.895790247511883	4.0195847	2.0048902
30.913974313083134	4.4318433	2.1051943
30.932159176592283	4.706442	2.1694336
30.95034483860237	4.687632	2.165094
30.968531299676698	4.4953294	2.1202192
30.98671856037873	4.2334075	2.0575247
31.00490662127215	3.816744	1.9536489
31.023095482920848	3.3985615	1.8435187
31.04128514588892	3.0151649	1.736423
31.059475610740662	2.6965382	1.6421139
31.07766687804056	2.5324676	1.5913728
31.09585894835335	2.496743	1.5801085
31.11405182224393	2.4891934	1.5777178
31.132245500277417	2.4886613	1.5775491
31.15043998301914	2.5169494	1.5864897
31.168635271034628	2.5575387	1.5992306
31.18683136488964	2.5341194	1.5918918
31.20502826515008	2.5141745	1.5856148
31.223225972382135	2.4255579	1.5574203
31.241424487152155	2.4062471	1.5512083
31.259623810026692	2.3981044	1.5485815
31.27782394157253	2.3374472	1.5288712
31.296024882356644	2.368369	1.5389507
31.314226632946237	2.4759624	1.5735191
31.332429193908684	2.4830441	1.5757678
31.350632565811598	2.3935711	1.547117
31.368836749222787	2.4198759	1.555595
31.387041744710295	2.49997	1.5811293
31.40524755284232	2.5420892	1.594393
31.423454174187317	2.5726178	1.6039382
31.441661609313922	2.6294758	1.6215658
31.459869858791002	2.623906	1.6198475
31.478078923187628	2.5159574	1.586177
31.496288803073064	2.446852	1.5642416
31.514499499016807	2.4477525	1.5645294
31.532711011588546	2.4399583	1.5620366
31.550923341358178	2.4429948	1.5630083
31.56913648889584	2.403426	1.5502987
31.587350454771844	2.3543808	1.5343992
31.605565239556732	2.3846347	1.5442263
31.62378084382127	2.3774006	1.5418822
31.641997268136382	2.3356557	1.5282853
31.660214513073274	2.2814064	1.5104325
31.67843257920331	2.252012	1.5006706
31.6966514670981	2.1993775	1.4830298
31.71487117732944	2.1763904	1.4752594
31.733091710469346	2.199553	1.483089
31.751313067090052	2.2913518	1.5137212
31.769535247764008	2.3011672	1.5169599
31.787758253063878	2.29971	1.5164795
31.805982083562526	2.294764	1.5148479
31.824206739833024	2.3102202	1.5199409
31.84243222244869	2.3120625	1.5205468
31.860658531983013	2.26029	1.5034261
31.878885669009737	2.2627244	1.5042355
31.897113634102784	2.2745776	1.5081702
31.91534242783632	2.2544749	1.5014908
31.933572050784694	2.2476733	1.4992242
31.951802503522508	2.2601144	1.5033677
31.970033786624548	2.2809222	1.5102723
31.988265900665834	2.2558568	1.501951
32.006498846221575	2.249231	1.4997437
32.02473262386724	2.3241725	1.5245237
32.04296723417845	2.3810568	1.5430673
32.0612026777311	2.3470132	1.5319965
32.07943895510129	2.2582304	1.502741
32.097676066865304	2.1752386	1.474869
32.115914013599685	2.1529891	1.4673067
32.13415279588115	2.0935397	1.4469069
32.152392414286666	2.1063874	1.4513398
32.1706328693934	2.1306248	1.459666
32.18887416177875	2.183207	1.4775679
32.20711629202032	2.176922	1.4754397
32.225359260695924	2.122089	1.4567392
32.243603068383614	2.065732	1.4372655
32.26184771566166	2.046268	1.4304782
32.28009320310852	2.088605	1.4452007
32.2983395313029	2.1355739	1.4613603
32.31658670082372	2.1228507	1.4570006
32.33483471225012	2.1662846	1.4718304
32.35308356616143	2.1564987	1.4685022
32.371333263137245	2.1702373	1.4731725
32.38958380375734	2.151991	1.4669665
32.407835188601744	2.1231716	1.4571106
32.42608741825067	2.1135232	1.4537961
32.444340493284585	2.193876	1.4811739
32.46259441428416	2.1663637	1.4718572
32.48084918183028	2.1112747	1.4530226
32.49910479650405	2.1043503	1.4506379
32.51736125888683	2.08693	1.4446211
32.53561856956014	2.0691948	1.4384696
32.5538767291058	2.0338473	1.4261302
32.572135738105764	1.9892998	1.4104254
32.59039559714228	1.972703	1.4045295
32.608656306797776	1.9859931	1.4092526
32.62691786765491	2.0097377	1.4176521
32.645180280296586	2.0904768	1.4458481
32.663443545305896	2.1684945	1.4725809
32.68170766326619	2.1055636	1.451056
32.69997263476099	1.9866465	1.4094845
32.7182384603741	1.9010382	1.3787814
32.7365051406895	1.8823922	1.372003
32.75477267629144	1.9129217	1.383084
32.77304106776434	2.0069704	1.4166758
32.79131031569289	2.0662832	1.4374572
32.809580420661966	1.9878902	1.4099256
32.827851383256714	1.9241354	1.387132
32.84612320406245	1.9216304	1.3862288
32.86439588366476	1.9894068	1.4104633
32.88266942264945	2.031561	1.4253284
32.9009438216025	2.0290396	1.4244436
32.9192190811102	1.9246917	1.3873326
32.937495201758985	1.9253912	1.3875847
32.95577218413556	1.9855733	1.4091038
32.974050028826866	2.029244	1.4245154
32.992328736420035	2.0017512	1.4148326
33.010608307502444	1.9928195	1.4116726
33.02888874266169	2.02852	1.4242612
33.047170042485604	2.0276628	1.4239602
33.06545220756225	1.9406192	1.393061
33.083735238479896	1.8483274	1.359532
33.10201913582707	1.837498	1.3555434
33.12030390019248	1.9230071	1.3867253
33.138589532165135	1.9904294	1.4108257
33.15687603233419	2.058991	1.4349184
33.17516340128909	2.0622377	1.4360493
33.19345163961947	1.959832	1.39994
33.211740747915215	1.9221698	1.3864233
33.23003072676643	1.9263637	1.387935
33.248321576763466	1.9611956	1.400427
33.266613298496885	1.9525537	1.3973382
33.28490589255747	1.9964545	1.4129595
33.30319935953626	2.0022912	1.4150234
33.32149370002451	1.9464395	1.3951485
33.339788914613706	1.8838027	1.3725169
33.358085003895575	1.8614054	1.3643333
33.376381968462034	1.9212189	1.3860804
33.39467980890529	1.8957494	1.3768622
33.41297852581774	1.804281	1.3432353
33.43127811979204	1.8205067	1.3492615
33.44957859142105	1.8603603	1.3639503
33.467879941297866	1.8942783	1.3763279
33.486182170015844	1.8453419	1.3584336
33.50448527816853	1.9498982	1.3963876
33.522789266349754	1.9869106	1.4095782
33.541094135153514	1.896581	1.3771641
33.55939988517411	1.8715055	1.3680298
33.57770651700602	1.9599471	1.3999811
33.59601403124398	2.027766	1.4239964
33.61432242848296	1.9852625	1.4089935
33.632631709318154	1.9381207	1.392164
33.650941874344994	1.9400237	1.3928473
33.66925292415916	1.9160178	1.384203
33.68756485935654	1.8235363	1.3503838
33.70587768053328	1.8811269	1.3715417
33.724191388285746	1.8665289	1.3662096
33.74250598321054	1.8941203	1.3762704
33.760821465904506	1.9494948	1.3962431
33.77913783696474	1.9337718	1.3906013
33.79745509698852	1.922586	1.3865734
33.815773246573414	1.91027	1.3821251
33.8340922863172	2.012763	1.4187188
33.852412216817896	2.129919	1.4594243
33.87073303867377	1.984685	1.4087884
33.889054752483304	1.9424561	1.3937203
33.907377358845245	2.1117375	1.4531819
33.92570085835853	2.1563196	1.4684412
33.94402525162239	2.036145	1.4269356
33.96235053923627	1.8753115	1.3694202
33.980676721799824	1.7813894	1.334687
33.999003799912984	1.8278532	1.3519812
34.01733177417592	1.9656328	1.4020103
34.03566064518901	1.9716475	1.4041537
34.0539904135529	1.8853039	1.3730637
34.07232107986846	1.8170552	1.3479819
34.090652644736785	1.8828003	1.3721517
34.108985108759235	1.9225621	1.3865649
34.12731847253742	1.9543109	1.3979667
34.14565273667313	1.925283	1.3875457
34.16398790176847	1.9336921	1.3905725
34.18232396842574	1.9190543	1.3852993
34.20066093724749	1.9721106	1.4043186
34.21899880883651	2.066117	1.4373994
34.23733758379583	2.0588162	1.4348576
34.25567726272874	1.9257936	1.3877296
34.27401784623872	1.8652886	1.3657557
34.29235933492957	1.9844557	1.4087071
34.31070172940526	2.1096008	1.4524465
34.32904503027003	2.0884502	1.4451472
34.347389238128386	1.9878293	1.409904
34.36573435358502	2.067905	1.4380212
34.38408037724492	2.0924401	1.4465269
34.402427309713296	1.9064028	1.3807255
34.42077515159559	1.9265673	1.3880084
34.43912390349752	2.044208	1.4297581
34.45747356602499	2.1841412	1.477884
34.47582413978423	2.106252	1.4512932
34.49417562538163	1.9286357	1.3887533
34.51252802342388	1.8300366	1.3527884
34.53088133451789	1.7525866	1.3238529
34.54923555927084	1.7897395	1.3378115
34.567590698290104	1.8456345	1.3585413
34.58594675218336	1.8918531	1.3754466
34.6043037215585	1.9561877	1.3986378
34.62266160702365	1.9208053	1.3859313
34.641020409187234	1.9736412	1.4048634
34.65938012865785	1.988009	1.4099678
34.677740766044394	1.9209146	1.3859707
34.69610232195598	1.9041779	1.3799195
34.714464797002016	2.020438	1.421421
34.73282819179208	1.9849248	1.4088736
34.751192506936064	1.9996152	1.4140775
34.76955774304408	2.0516486	1.4323577
34.7879239007265	1.9775561	1.4062561
34.80629098059391	1.9022977	1.3792381
34.824658983257194	2.0235689	1.4225221
34.843027909327446	2.0679035	1.4380207
34.86139775941603	2.050025	1.4317908
34.879768534134534	1.9770337	1.4060704
34.89814023409483	1.8396538	1.3563384
34.91651285990901	1.94569	1.3948799
34.93488641218944	2.115912	1.4546175
34.95326089154871	1.9010017	1.3787682
34.97163629859967	1.7009879	1.3042192
34.99001263395542	1.8345689	1.3544626
35.00838989822934	2.0361257	1.4269288
35.02676809203499	2.1700344	1.4731036
35.04514721598624	2.0458708	1.4303393
35.063527270697215	1.8457311	1.3585769
35.081908256782256	1.7959408	1.3401271
35.10029017485597	1.8964396	1.3771127
35.11867302553321	1.841632	1.3570675
35.137056809429104	1.8760399	1.369686
35.155441527159006	1.8962864	1.3770572
35.173827179338524	1.9002141	1.3784826
35.19221376658354	1.8293911	1.3525499
35.21060128951017	1.8411093	1.3568748
35.2289897487348	1.934697	1.3909339
35.24737914487405	2.1183553	1.4554571
35.26576947854479	2.2707188	1.5068904
35.28416075036418	2.213268	1.4877056
35.30255296094958	2.0558212	1.4338135
35.32094611091867	2.142117	1.4635973
35.33934020088932	2.2917662	1.5138581
35.35773523147969	2.6903822	1.6402385
35.3761312033082	2.801714	1.673832
35.394528116993506	2.4149003	1.5539949
35.41292597315452	2.2713523	1.5071006
35.431324772410434	2.1617653	1.4702944
35.449724515380666	1.8148874	1.3471776
35.46812520268491	1.8797736	1.3710483
35.486526834943106	1.9519035	1.3971053
35.504929412775454	1.9556019	1.3984283
35.52333293680242	2.2518897	1.5006298
35.54173740764471	2.222083	1.4906653
35.560142825923286	1.8279113	1.3520027
35.5785491922594	1.3022704	1.1411706
35.59695650727454	1.1995877	1.0952569
35.61536477159042	1.3578206	1.1652557
