0.008763373481513119	0.56609195	0.7523908
0.026290120649546365	0.18888974	0.43461448
0.043816868432600686	0.0908709	0.30144802
0.06134361724069026	0.0	0.0
0.07887036748382949	0.008567456	0.09256055
0.0963971195720331	0.09202188	0.30335107
0.11392387391531617	0.14505093	0.38085553
0.1314506309236943	0.17610575	0.41964957
0.1489773910071836	0.2038783	0.45152885
0.16650415457580078	0.16403742	0.40501535
0.18403092203956356	0.1525997	0.39064014
0.20155769380849	0.11921121	0.34526977
0.2190844702925996	0.1793621	0.42351162
0.2366112519019124	0.21569182	0.46442634
0.2541380390464497	0.214597	0.46324617
0.27166483213623416	0.18530501	0.43047068
0.28919163158128947	0.1743188	0.41751504
0.3067184377916406	0.17849658	0.42248857
0.324245251177314	0.18237466	0.42705345
0.34177207214833777	0.13358922	0.3654986
0.3592989011147415	0.09953146	0.31548607
0.37682573848655654	0.09749534	0.31224245
0.39435258467381573	0.13751383	0.37082857
0.41187944008655414	0.17435333	0.41755638
0.42940630513480854	0.16412519	0.40512368
0.446933180228618	0.13700232	0.37013826
0.4644600657780234	0.1670109	0.40866968
0.48198696219306775	0.16583505	0.4072285
0.49951386988379676	0.17069419	0.41315153
0.5170407892602581	0.15575153	0.39465368
0.5345677207325025	0.1250171	0.35357758
0.5520946647105822	0.113225915	0.33649057
0.5696216216045534	0.16475338	0.40589824
0.5871485918244737	0.1850833	0.4302131
0.6046755757804043	0.1784313	0.4224113
0.6222025738824094	0.17021786	0.41257468
0.6397295865405557	0.13291334	0.36457282
0.6572566141649129	0.16340876	0.4042385
0.6747836571655547	0.16964467	0.41187942
0.6923107159525568	0.17206737	0.41481003
0.7098377909359992	0.16087152	0.4010879
0.7273648825259653	0.20532103	0.45312363
0.7448919911325411	0.22197476	0.47114196
0.762419117165817	0.20404239	0.45171052
0.7799462610358868	0.19016494	0.43607906
0.7974734231528482	0.18651415	0.43187284
0.8150006039268024	0.1930742	0.4394021
0.8325278037678551	0.15580176	0.3947173
0.8500550230861152	0.1563845	0.3954548
0.8675822622916969	0.16471334	0.40584892
0.8851095217947171	0.19463444	0.44117394
0.9026368020052984	0.17964439	0.42384478
0.9201641033335665	0.22203794	0.47120902
0.9376914261896523	0.28317586	0.5321427
0.9552187709836915	0.32059938	0.566215
0.9727461381258234	0.31860486	0.5644509
0.990273528026193	0.29053286	0.539011
1.0078009410949496	0.29136163	0.53977925
1.0253283777422473	0.27762815	0.5269043
1.0428558383782454	0.29303506	0.5413271
1.0603833234131086	0.29589045	0.5439581
1.0779108332570058	0.37767076	0.6145492
1.0954383683201119	0.33961684	0.58276653
1.112965929012607	0.40524405	0.6365878
1.1304935157446763	0.5410155	0.7355376
1.1480211289265108	0.6051558	0.7779176
1.1655487689683062	1.4424586	1.2010239
1.1830764362802655	1.6850089	1.2980789
1.200604131272596	1.9915715	1.4112306
1.2181318543555117	2.1945171	1.4813902
1.235659605939232	2.2367513	1.4955772
1.253187386433982	3.7430894	1.9347066
1.270715196249994	6.06184	2.4620805
1.2882430357975057	11.544721	3.3977523
1.3057709054867608	16.275684	4.034313
1.3232988057280106	21.92995	4.6829424
1.3408267369315112	27.037935	5.1998014
1.358354699507526	30.528038	5.5252185
1.3758826938663256	34.37937	5.8633924
1.3934107204181858	36.161907	6.0134773
1.410938779573391	36.640224	6.053117
1.4284668717422309	37.377064	6.1136785
1.4459949973350033	37.039936	6.0860443
1.4635231567620117	37.174816	6.0971155
1.4810513504335687	36.443253	6.0368247
1.4985795787599925	35.818176	5.984829
1.5161078421516088	35.17412	5.9307775
1.5336361410187505	34.134655	5.842487
1.5511644757717598	34.373764	5.862914
1.5686928468209842	35.17588	5.930926
1.58622125457678	35.88904	5.9907465
1.6037496994495108	37.100975	6.091057
1.621278181849548	36.868706	6.0719604
1.6388067021872719	37.54063	6.127041
1.6563352608730693	36.843998	6.069926
1.673863858317336	36.02725	6.00227
1.6913924949304753	35.13302	5.9273114
1.7089211711228998	33.44691	5.7833304
1.7264498873050296	32.472202	5.6984386
1.7439786438872935	31.73098	5.6330256
1.7615074412801288	31.375898	5.6014194
1.779036279893981	31.015293	5.5691376
1.796565160139305	30.094736	5.485867
1.814094082426564	29.269766	5.410154
1.8316230471662298	28.352848	5.3247395
1.849152054768784	27.186934	5.214109
1.8666811056447168	26.67086	5.164384
1.8842102002045273	26.018349	5.1008186
1.901739338858724	25.830286	5.0823503
1.9192685220178245	25.442657	5.0440717
1.9367977500923557	24.542847	4.954074
1.9543270234928547	24.053177	4.9044037
1.971856342629867	23.599758	4.8579583
1.9893857079139496	22.923708	4.787871
2.006915119755667	22.371437	4.7298455
2.0244445785655945	21.472883	4.6338844
2.0419740847543175	20.950027	4.57712
2.0595036387324317	20.548342	4.5330276
2.0770332409105414	20.151245	4.4890137
2.094562891699263	19.93054	4.4643636
2.1120925915092217	19.518276	4.417949
2.129622340751053	19.36045	4.400051
2.1471521398354043	187.52446	13.693957
2.1646819891729323	443.87024	21.068228
2.182211889174303	439.9604	20.975233
2.1997418402501974	452.15616	21.263964
2.2172718428113023	431.9834	20.78421
2.234801897268317	320.25198	17.895586
2.2523320040319548	16.994396	4.122426
2.269862163512935	16.811377	4.1001678
2.287392376121992	16.108568	4.013548
2.304922642269869	15.642638	3.9550774
2.322452962367322	15.415613	3.9262722
2.3399833368251164	15.225824	3.9020283
2.357513766054032	14.997194	3.872621
2.3750442504648586	14.746205	3.8400788
2.3925747904683963	14.648147	3.8272898
2.410105386475459	14.431644	3.7989004
2.4276360388968707	14.11135	3.7565076
2.445166748143469	13.7452	3.707452
2.4626975146261025	13.39478	3.659888
2.4802283387556323	13.080311	3.6166713
2.4977592209429305	12.923338	3.5949044
2.5152901615988825	12.693808	3.5628371
2.5328211611343865	12.745965	3.5701492
2.5503522199603523	12.563943	3.5445652
2.5678833384877024	12.442719	3.5274239
2.5854145171273712	12.121883	3.4816496
2.6029457562903064	11.677808	3.4172807
2.620477056387469	11.406299	3.3773212
2.6380084178298326	11.244497	3.3532815
2.655539841028383	11.058792	3.3254762
2.673071326394119	10.885916	3.299381
2.6906028743380523	10.594529	3.2549238
2.708134485271211	10.48662	3.238305
2.7256661596046325	10.34984	3.2171168
2.743197897749369	10.0885	3.17624
2.760729700116486	9.854165	3.1391344
2.778261567117063	9.675088	3.1104803
2.795793499162193	9.769429	3.1256087
2.8133254966629817	9.8941555	3.1454976
2.830857560030551	9.857033	3.1395912
2.8483896896760337	9.603242	3.0989099
2.865921886010578	9.38645	3.0637314
2.883454149445347	9.245068	3.0405703
2.9009864803915177	9.131149	3.021779
2.91851887926028	8.974982	2.9958274
2.9360513464628384	8.975209	2.9958653
2.953583882410413	8.903774	2.9839194
2.9711164875142373	8.878983	2.979762
2.9886491621855606	8.838303	2.9729283
3.0061819068356455	8.679517	2.946102
3.023714721875769	8.545423	2.9232554
3.041247607717225	8.320663	2.884556
3.0587805647713213	8.179796	2.8600342
3.0763135934493806	8.036202	2.8348196
3.0938466941627407	7.948603	2.8193266
3.1113798673227544	7.8370996	2.799482
3.1289131133407904	7.7717156	2.7877798
3.1464464326282315	7.64369	2.7647223
3.1639798255964786	7.5483913	2.7474337
3.1815132926569443	7.4169683	2.723411
3.1990468342210603	7.2962365	2.7011547
3.216580450700272	7.189817	2.6813834
3.2341141425060416	7.170208	2.6777244
3.251647910049847	7.0943723	2.6635263
3.2691817537431813	7.0787406	2.6605902
3.286715673997555	6.994475	2.644707
3.3042496712244938	6.9453025	2.635394
3.32178374583554	6.927185	2.6319547
3.339317898242251	6.8874726	2.6243994
3.3568521288562034	6.870644	2.6211913
3.3743864380889876	6.702435	2.588906
3.3919208263522127	6.633801	2.5756166
3.4094552940575023	6.457913	2.5412424
3.4269898416164972	6.3565927	2.5212283
3.444524469440858	6.180061	2.485973
3.4620591779422587	6.2364345	2.4972854
3.479593967532391	6.239901	2.4979794
3.4971288386229658	6.35697	2.5213032
3.5146637916257086	6.393525	2.528542
3.5321988269523628	6.34533	2.5189939
3.5497339450146903	6.310865	2.5121434
3.5672691462244708	6.1595793	2.48185
3.5848044309934988	6.215055	2.4930012
3.60233979973359	6.261544	2.502308
3.619875252856575	6.2284107	2.4956784
3.6374107907743034	6.212738	2.4925365
3.6549464138986427	6.195776	2.4891317
3.6724821226414788	6.2287874	2.4957538
3.690017917414714	6.27494	2.504983
3.7075537986302702	6.313159	2.5126
3.7250897667000857	6.3719935	2.5242808
3.7426258220361235	6.426084	2.5349722
3.7601619650503553	6.7345414	2.5950994
3.777698196154779	7.1816654	2.679863
3.7952345157614067	8.216483	2.8664408
3.8127709242822716	9.0051155	3.0008523
3.830307422129425	11.287753	3.3597252
3.847844009714936	30.136253	5.48965
3.8653806874508954	97.598465	9.879193
3.882917455749409	96.86532	9.842018
3.900454315022606	96.652214	9.831185
3.917991265682631	41.33551	6.42927
3.9355283081416506	10.959336	3.310489
3.9530654428118495	8.730582	2.9547558
3.970602670105433	7.4072504	2.7216265
3.9881399904346244	6.4056563	2.5309398
4.005677404211669	6.2499323	2.4999864
4.023214911848827	6.2095056	2.491888
4.0407525137583855	6.2890015	2.5077882
4.058290210352644	6.297013	2.5093849
4.075828002043927	6.2013903	2.4902592
4.0933658892445814	6.0709167	2.463923
4.110903872366966	6.021974	2.4539711
4.128441951823468	5.9210696	2.4333248
4.145980128026488	5.9140587	2.4318838
4.163518401388452	5.899969	2.428985
4.181056772321807	5.91347	2.4317627
4.1985952412390155	5.948837	2.4390237
4.216133808552567	6.0832157	2.4664176
4.233672474674966	6.115473	2.4729483
4.251211240018741	6.3049254	2.510961
4.268750104996445	6.4921107	2.5479622
4.286289070020643	7.511029	2.7406256
4.303828135503928	9.115894	3.019254
4.3213673018589125	29.338676	5.4165187
4.3389065694982305	90.49822	9.513056
4.356445938834537	165.73984	12.873999
4.3739854102805085	171.18933	13.083934
4.391524984248844	172.05222	13.116868
4.409064661152262	136.1629	11.668886
4.426604441403504	96.59964	9.828511
4.444144325415337	75.84191	8.708726
4.461684313600543	21.804956	4.6695776
4.47922440637193	22.146782	4.7060366
4.496764604142329	20.323812	4.508194
4.5143049073245916	18.379759	4.2871623
4.531845316331589	16.220074	4.0274153
4.5493858315762195	13.229559	3.6372461
4.566926453471405	10.987636	3.3147602
4.584467182430081	9.014674	3.0024447
4.602008018865218	7.968955	2.8229337
4.619548963189798	7.3594866	2.7128375
4.637090015816834	6.8222747	2.6119485
4.654631177159353	6.5499597	2.559289
4.672172447630417	6.2041807	2.4908192
4.689713827643102	6.0383134	2.457298
4.7072553176105085	5.8991327	2.428813
4.724796917945764	5.712514	2.3900867
4.742338629062015	5.70061	2.3875952
4.759880451372434	5.764447	2.4009264
4.777422385290215	5.701939	2.3878734
4.794964431228581	5.564023	2.358818
4.812506589600768	5.39795	2.323349
4.830048860820047	5.334938	2.3097484
4.847591245299709	5.388027	2.3212125
4.8651337434530655	5.3991413	2.3236053
4.882676355693457	5.445187	2.3334925
4.900219082434242	5.4405804	2.3325052
4.917761924088813	5.465393	2.337818
4.935304881070575	5.4304132	2.3303246
4.952847953792969	5.413234	2.3266358
4.970391142669449	5.372982	2.3179693
4.9879344481135055	5.285906	2.2991097
5.005477870538642	5.237719	2.2886064
5.023021410358394	5.269596	2.2955601
5.040565067986324	5.293972	2.3008633
5.05810884383601	5.231334	2.287211
5.075652738321066	5.1277905	2.2644625
5.09319675185512	5.1445613	2.2681625
5.110740884851836	5.1949496	2.2792432
5.128285137724894	5.173181	2.2744627
5.145829510888007	5.139833	2.26712
5.163374004754908	5.145965	2.268472
5.1809186197393595	5.110519	2.2606456
5.198463356255145	5.192475	2.2787004
5.216008214716077	5.1517134	2.2697387
5.233553195535998	5.162937	2.2722096
5.251098299128764	5.158247	2.2711775
5.268643525908272	5.0981245	2.2579026
5.286188876288432	5.0776715	2.2533689
5.3037343506831895	5.024949	2.2416399
5.32127994950651	5.0654573	2.250657
5.3388256731723915	5.0251713	2.2416894
5.356371522094851	5.065206	2.2506013
5.373917496687938	5.0411115	2.2452419
5.391463597365729	5.121792	2.2631376
5.40900982454232	5.163779	2.272395
5.426556178631843	5.142965	2.2678106
5.444102660048449	5.1537266	2.2701821
5.4616492692063225	5.130972	2.2651649
5.479196006519669	5.1134944	2.2613037
5.496742872402727	5.1235557	2.2635272
5.514289867269756	5.1464505	2.268579
5.531836991535049	5.1402164	2.2672045
5.549384245612924	5.1619754	2.2719982
5.566931629917724	5.1077623	2.260036
5.584479144863822	5.0855374	2.2551136
5.6020267908656205	5.0656133	2.2506917
5.619574568337545	5.083109	2.254575
5.637122477694054	5.1284	2.2645972
5.654670519349629	5.1028256	2.2589436
5.672218693718784	5.053746	2.2480538
5.689767001216059	4.997855	2.2355883
5.707315442256021	4.961497	2.2274418
5.724864017253266	4.9271054	2.2197084
5.7424127266224225	5.013988	2.2391937
5.75996157077814	4.9953647	2.2350311
5.777510550135105	4.972138	2.229829
5.795059665108022	4.950591	2.2249923
5.812608916111639	5.067043	2.2510092
5.830158303560715	5.1740284	2.2746491
5.847707827870055	5.168946	2.2735317
5.86525748945448	5.223558	2.2855105
5.8828072887288485	5.298243	2.3017912
5.900357226108044	5.356302	2.3143685
5.917907302006979	5.4441967	2.3332803
5.9354575168406	6.0391817	2.4574747
5.9530078710238765	6.6743746	2.583481
5.970558364971812	7.1867743	2.680816
5.988108999099438	7.5564466	2.7488992
6.005659773821818	8.1438875	2.8537498
6.023210689554039	7.9020934	2.8110662
6.040761746711227	8.333295	2.8867447
6.058312945708531	7.629177	2.7620964
6.075864286961132	7.2044344	2.6841078
6.093415770884244	6.5368886	2.556734
6.1109673978931065	6.030043	2.4556146
6.128519168402993	5.4437704	2.333189
6.146071082829204	5.297946	2.3017268
6.163623141587075	5.2146935	2.2835703
6.181175345091969	5.1496406	2.2692819
6.198727693759281	5.153955	2.2702324
6.216280188004435	5.0892954	2.2559466
6.233832828242885	5.095187	2.2572522
6.251385614890126	5.099482	2.2582033
6.268938548361669	5.0359235	2.2440863
6.286491629073067	4.9220033	2.2185588
6.304044857439898	4.898981	2.2133641
6.321598233877777	4.8565493	2.203758
6.339151758802344	4.87296	2.2074783
6.356705432629277	4.8547688	2.203354
6.37425925577428	4.9052877	2.2147884
6.391813228653095	4.9782724	2.2312043
6.409367351681486	4.9925537	2.2344024
6.426921625275259	4.96251	2.2276692
6.44447604985025	4.9350176	2.22149
6.46203062582232	4.936741	2.2218778
6.47958535360737	5.005924	2.2373922
6.497140233621328	5.0234704	2.24131
6.514695266280161	5.029963	2.2427578
6.532250451999859	4.999444	2.2359436
6.549805791196454	4.9481797	2.2244503
6.567361284286002	4.897251	2.2129734
6.584916931684597	4.8999314	2.213579
6.602472733808367	4.951016	2.225088
6.6200286910734665	4.9659657	2.2284446
6.637584803896092	4.9452457	2.223791
6.655141072692462	4.9143643	2.2168365
6.672697497878842	4.888052	2.2108939
6.690254079871514	4.888312	2.2109528
6.707810819086808	4.8946185	2.2123785
6.725367715941078	4.903719	2.2144341
6.742924770850719	4.892349	2.2118654
6.760481984232151	4.8803077	2.2091417
6.778039356501836	4.85007	2.2022874
6.795596888076266	4.8326902	2.198338
6.813154579371963	4.791789	2.1890156
6.830712430805492	4.8176923	2.194924
6.84827044279344	4.839149	2.1998067
6.865828615752445	4.9032674	2.2143323
6.883386950099159	4.979484	2.2314758
6.900945446250287	4.961677	2.2274823
6.918504104622553	4.957031	2.226439
6.936062925632727	4.9045415	2.2146199
6.953621909697607	4.916042	2.2172148
6.971181057234028	4.958292	2.2267222
6.988740368658859	5.0416417	2.2453601
7.006299844389007	5.11758	2.2622068
7.023859484841407	5.176844	2.2752678
7.041419290433036	5.2509084	2.291486
7.058979261580902	5.3389144	2.310609
7.0765393987020495	5.5807395	2.3623588
7.094099702213559	5.870747	2.4229624
7.111660172532549	6.2335644	2.4967108
7.129220810076164	6.5615044	2.5615435
7.146781615261595	7.107491	2.6659877
7.16434258850606	7.331848	2.7077386
7.181903730226821	7.7979646	2.7924836
7.1994650408411704	7.954359	2.8203473
7.217026520766437	8.040499	2.8355772
7.234588170419983	8.277263	2.8770232
7.252149990219215	8.301901	2.8813019
7.269711980581568	8.251818	2.8725977
7.2872741419245175	8.087057	2.843775
7.304836474665574	7.6345067	2.763061
7.322398979222286	7.217102	2.6864665
7.339961656012233	6.851453	2.617528
7.357524505453039	6.5433383	2.557995
7.375087527962357	6.3555045	2.5210125
7.392650723957886	6.122839	2.474437
7.410214093857353	5.7819195	2.4045622
7.427777638078528	5.5203705	2.349547
7.445341357039213	5.4380693	2.3319669
7.4629052511572525	5.314878	2.3054018
7.480469320850524	5.2553086	2.292446
7.498033566536948	5.1237907	2.2635791
7.5155979886344735	5.0874286	2.255533
7.5331625875610975	5.073725	2.2524931
7.550727363734844	5.081518	2.2542224
7.568292317573788	5.110939	2.2607386
7.585857449496025	5.1429086	2.2677982
7.603422759919705	5.1275864	2.2644174
7.620988249263007	5.058514	2.249114
7.638553917944147	5.044783	2.2460594
7.656119766381391	5.101962	2.2587523
7.673685794993023	5.1256094	2.2639809
7.691252004197388	5.143339	2.267893
7.70881839441285	5.1090965	2.2603312
7.726384966057826	5.1508307	2.2695441
7.743951719550762	5.1478696	2.2688918
7.761518655310149	5.2028375	2.280973
7.779085773754511	5.1925397	2.2787144
7.796653075302419	5.1899247	2.2781405
7.814220560372475	5.1679945	2.2733223
7.831788229383323	5.12565	2.26399
7.8493560827536495	5.081804	2.2542856
7.866924120902174	5.169162	2.2735791
7.884492344247663	5.151752	2.269747
7.9020607532089135	5.20799	2.282102
7.919629348204771	5.1596985	2.271497
7.937198129654115	5.192781	2.2787673
7.954767097975865	5.2293153	2.2867696
7.972336253588986	5.349057	2.3128028
7.989905596912472	5.422108	2.328542
8.007475128365371	5.464226	2.3375683
8.025044848366756	5.4491935	2.3343508
8.042614757335754	5.572306	2.3605733
8.060184855691523	5.572695	2.3606555
8.07775514385327	5.715223	2.3906531
8.095325622240228	5.751308	2.3981886
8.112896291271687	5.8455462	2.4177566
8.130467151366968	5.8924947	2.4274461
8.148038202945436	5.873869	2.4236066
8.165609446426497	5.8660746	2.421998
8.183180882229594	5.878304	2.4245214
8.200752510774217	5.9004827	2.429091
8.218324332479893	5.875306	2.423903
8.235896347766193	5.8146253	2.4113533
8.253468557052724	5.821133	2.4127026
8.27104096075914	5.845995	2.4178493
8.288613559305137	5.9193	2.4329612
8.306186353110448	6.068167	2.463365
8.32375934259485	6.1464515	2.4792037
8.341332528178162	6.1202726	2.4739184
8.358905910280246	6.116247	2.4731047
8.376479489321003	6.1423182	2.4783702
8.394053265720377	6.189987	2.4879684
8.411627239898356	6.1795855	2.4858773
8.42920141227497	6.117267	2.473311
8.44677578327029	6.137608	2.4774196
8.464350353304427	6.156209	2.481171
8.48192512279754	6.191389	2.4882503
8.499500092169827	6.1506042	2.4800413
8.51707526184153	6.0538383	2.460455
8.534650632232934	6.003152	2.450133
8.552226203764365	5.999049	2.4492958
8.569801976856192	6.0934033	2.468482
8.587377951928834	6.1532245	2.4805694
8.60495412940274	6.1911526	2.4882026
8.622530509698416	6.1825676	2.486477
8.6401070932364	6.2392387	2.4978468
8.657683880437283	6.3546915	2.5208514
8.675260871721695	6.53681	2.5567186
8.692838067510303	6.7307363	2.5943663
8.710415468223834	6.864082	2.6199393
8.727993074283043	6.954743	2.6371846
8.745570886108737	6.9208922	2.6307588
8.763148904121765	6.8996015	2.6267092
8.78072712874302	6.957407	2.6376896
8.798305560393441	7.146269	2.6732507
8.815884199494006	7.274726	2.69717
8.833463046465745	7.4043007	2.7210844
8.851042101729728	7.5535645	2.748375
8.86862136570707	7.949938	2.8195634
8.886200838818924	8.189997	2.8618171
8.903780521486505	8.334314	2.8869212
8.921360414131055	8.417628	2.901315
8.938940517173874	8.49087	2.91391
8.956520831036297	8.641226	2.9395962
8.97410135613971	8.870005	2.9782553
8.99168209290554	9.031644	3.0052693
9.009263041755265	9.382783	3.0631328
9.026844203110405	9.65355	3.1070163
9.044425577392525	9.871384	3.1418757
9.062007165023239	9.924895	3.1503801
9.079588966424197	10.189388	3.1920822
9.097170982017108	10.255896	3.2024827
9.11475321222372	11.24775	3.3537667
9.132335657465825	12.092709	3.4774573
9.149918318165264	12.209775	3.4942489
9.167501194743924	12.794036	3.5768752
9.18508428762374	12.492216	3.534433
9.202667597226693	12.4328985	3.5260315
9.220251123974803	12.072001	3.4744785
9.237834868290143	11.774294	3.431369
9.255418830594836	11.6510935	3.41337
9.273003011311046	11.203007	3.3470893
9.290587410860985	10.937989	3.3072631
9.308172029666911	10.278412	3.2059963
9.32575686815113	9.935311	3.1520329
9.343341926735997	8.592928	2.9313695
9.360927205843916	8.425684	2.9027028
9.378512705897327	8.224023	2.8677557
9.396098427318728	8.059534	2.8389318
9.413684370530664	7.88708	2.8083947
9.431270535955722	7.729275	2.7801573
9.448856924016539	7.7199464	2.778479
9.466443535135806	7.658255	2.7673552
9.484030369736251	7.6589904	2.767488
9.501617428240658	7.564133	2.7502968
9.519204711071852	7.5021744	2.7390099
9.536792218652714	7.46981	2.7330954
9.55437995140617	7.562042	2.7499168
9.571967909755191	7.6836095	2.7719324
9.589556094122802	7.7370453	2.7815545
9.60714450493207	7.7644687	2.7864797
9.624733142606116	7.734266	2.7810547
9.642322007568108	7.8527045	2.8022678
9.659911100241267	7.9504313	2.819651
9.677500421048851	8.008357	2.829904
9.695089970414175	8.024744	2.832798
9.712679748760609	7.9876237	2.8262384
9.730269756511557	7.970319	2.8231752
9.747859994090492	8.016015	2.8312569
9.765450461920915	8.068916	2.8405838
9.78304116042639	8.117923	2.849197
9.800632090030527	8.152895	2.8553274
9.81822325115699	8.195855	2.8628404
9.835814644229481	8.227156	2.8683019
9.853406269671762	8.165805	2.8575873
9.870998127907646	8.157433	2.856122
9.888590219360985	8.227908	2.868433
9.906182544455698	8.268514	2.8755023
9.923775103615734	8.246584	2.8716867
9.941367897265108	8.170486	2.8584063
9.958960925827878	8.176358	2.8594332
9.97655418972816	8.251358	2.8725178
9.994147689390106	8.309469	2.882615
10.011741425237934	8.237816	2.8701596
10.029335397695904	8.172471	2.8587534
10.04692960718833	8.136283	2.852417
10.06452405413958	8.064586	2.8398213
10.082118738974064	8.095446	2.8452497
10.099713662116246	8.074857	2.8416293
10.117308823990651	8.129278	2.851189
10.134904225021844	8.136596	2.8524718
10.152499865634445	8.106918	2.847265
10.170095746253125	8.075785	2.8417926
10.18769186730261	8.088457	2.8440213
10.205288229207675	8.105311	2.846983
10.222884832393145	8.086218	2.8436277
10.2404816772839	8.074075	2.8414917
10.258078764304868	8.00361	2.829065
10.275676093881035	7.974143	2.8238525
10.293273666437438	7.9852495	2.8258183
10.310871482399158	8.057004	2.8384862
10.32846954219134	8.025482	2.8329282
10.346067846239173	8.022655	2.8324292
10.363666394967908	8.011149	2.8303974
10.38126518880283	8.08052	2.8426254
10.398864228169298	8.155594	2.8558002
10.416463513492713	8.187514	2.8613832
10.434063045198531	8.1438875	2.8537498
10.451662823712262	8.038924	2.8352997
10.469262849459467	8.037486	2.835046
10.486863122865758	8.00869	2.829963
10.504463644356806	8.05285	2.8377542
10.522064414358338	7.9919443	2.8270028
10.539665433296118	7.951166	2.8197813
10.557266701595987	7.876848	2.8065724
10.574868219683818	7.7730136	2.7880125
10.592469987985552	7.6195517	2.7603536
10.610072006927185	7.475987	2.734225
10.627674276934751	7.3721595	2.715172
10.64527679843435	7.268702	2.696053
10.662879571852143	7.23346	2.6895092
10.680482597614331	7.1711526	2.6779008
10.698085876147173	7.0488157	2.6549606
10.715689407876988	6.9282155	2.6321504
10.733293193230146	6.793808	2.6064935
10.750897232633072	6.674489	2.5835032
10.76850152651225	6.5495553	2.5592098
10.786106075294207	6.4740396	2.5444133
10.803710879405534	6.372955	2.5244713
10.821315939272877	6.300068	2.5099936
10.83892125532294	6.237433	2.4974854
10.856526827982472	6.2030163	2.4905856
10.874132657678285	6.209446	2.491876
10.891738744837243	6.1504374	2.4800076
10.909345089886271	6.1308064	2.4760466
10.926951693252343	6.073652	2.464478
10.944558555362494	6.103928	2.470613
10.96216567664381	5.9820733	2.4458277
10.979773057523436	5.883232	2.4255376
10.997380698428573	5.718733	2.3913872
11.014988599786477	5.6558924	2.378212
11.032596762024461	5.5990853	2.3662386
11.050205185569892	5.5573626	2.357406
11.067813870850198	5.5289655	2.3513753
11.085422818292859	5.4942713	2.3439863
11.10303202832541	5.4405174	2.3324916
11.120641501375454	5.34801	2.3125765
11.138251237870636	5.259609	2.2933838
11.155861238238671	5.1791606	2.2757769
11.173471502907317	5.0990076	2.2580981
11.191082032304402	5.056682	2.2487068
11.208692826857805	5.041215	2.245265
11.226303886995465	4.99167	2.2342045
11.243915213145371	4.934991	2.221484
11.261526805735578	4.870734	2.206974
11.279138665194196	4.7880626	2.1881642
11.296750791949393	4.755311	2.1806676
11.314363186429393	4.720813	2.172743
11.331975849062479	4.6970186	2.1672606
11.34958878027699	4.6118426	2.14752
11.36720198050133	4.551201	2.1333544
11.384815450163948	4.5434732	2.1315424
11.402429189693366	4.5507383	2.133246
11.420043199518153	4.5093107	2.1235137
11.437657480066942	63.419537	7.9636383
11.455272031768422	85.04079	9.221756
11.472886855051353	107.39512	10.363162
11.490501950344528	99.0014	9.9499445
11.508117318076819	84.36433	9.185005
11.52573295867715	45.791916	6.7669725
11.543348872574514	4.0677333	2.0168622
11.560965060197946	4.020928	2.0052252
11.57858152197655	3.9793081	1.9948204
11.59619825833949	3.9681609	1.9920243
11.613815269715985	3.932472	1.9830462
11.631432556535323	38.43446	6.199553
11.649050119226837	82.914505	9.105741
11.666667958219929	93.281075	9.658213
11.68428607394406	107.59446	10.372775
11.701904466828756	82.47653	9.081659
11.719523137303586	65.360954	8.084612
11.737142085798196	4.522156	2.1265361
11.754761312742286	3.6136782	1.9009677
11.772380818565619	3.5601144	1.8868265
11.790000603698015	3.561593	1.8872184
11.80762066856935	3.5907524	1.8949281
11.825241013609572	3.6077511	1.8994081
11.842861639248683	3.5669043	1.888625
11.860482545916748	3.4920952	1.8687148
11.878103734043883	3.4095824	1.8465054
11.895725204060282	3.4140306	1.8477095
11.91334695639619	3.4034579	1.8448462
11.930968991481919	3.3986251	1.843536
11.948591309747824	3.3992114	1.843695
11.966213911624347	3.3614213	1.8334179
11.98383679754198	3.2981637	1.8160847
12.001459967931268	3.1949022	1.787429
12.019083423222835	3.1925614	1.786774
12.036707163847352	3.1782284	1.7827586
12.05433119023556	3.2049365	1.7902336
12.071955502818259	3.177038	1.7824247
12.089580102026313	3.157213	1.7768548
12.107204988290643	3.1430988	1.7728786
12.12483016204224	3.1061018	1.7624136
12.142455623712152	3.082552	1.7557198
12.16008137373149	3.0403638	1.7436639
12.177707412531431	3.0119543	1.7354983
12.19533374054321	2.993813	1.7302638
12.212960358198126	2.9579885	1.7198803
12.230587265927545	2.9896057	1.7290477
12.248214464162889	3.0205781	1.7379811
12.265841953335649	3.0017102	1.7325444
12.283469733877375	2.9474792	1.7168224
12.301097806219685	2.8801863	1.6971111
12.31872617079425	2.8428354	1.686071
12.336354828032825	2.8204355	1.6794152
12.353983778367205	2.8326159	1.6830376
12.371613022229262	2.8585656	1.6907293
12.389242560050928	2.8910854	1.7003192
12.406872392264201	2.8778713	1.696429
12.424502519301143	2.8451877	1.6867684
12.442132941593874	2.8080103	1.6757119
12.459763659574586	2.8417008	1.6857345
12.477394673675532	2.844709	1.6866264
12.49502598432903	2.8164594	1.678231
12.51265759196746	2.7838821	1.668497
12.530289497023267	2.7974105	1.6725461
12.547921699928967	2.8248146	1.6807184
12.565554201117134	2.7897208	1.6702458
12.583187001020404	2.79406	1.6715442
12.600820100071486	2.77413	1.665572
12.618453498703152	2.7801588	1.6673808
12.636087197348235	2.7320683	1.652897
12.65372119643964	2.7103088	1.6463015
12.671355496410326	2.7420163	1.6559035
12.68899009769333	2.7768805	1.6663975
12.706625000721749	2.7819111	1.6679062
12.724260205928752	2.7993464	1.6731248
12.741895713747551	2.8116982	1.6768119
12.759531524611454	2.8741884	1.6953431
12.777167638953818	2.886551	1.6989852
12.794804057208072	2.9370456	1.7137811
12.812440779807702	2.9873269	1.7283885
12.830077807186271	3.134113	1.7703426
12.847715139777405	3.143768	1.7730675
12.865352778014795	3.3149226	1.8206929
12.882990722332197	3.419657	1.8492315
12.90062897316344	3.529965	1.8788201
12.918267530942412	3.662359	1.9137291
12.935906396103071	3.5649798	1.8881154
12.953545569079449	3.6909878	1.9211944
12.971185050305628	3.5015764	1.8712499
12.988824840215775	3.4664755	1.8618473
13.006464939244115	3.4790723	1.8652271
13.024105347824943	3.3485227	1.8298969
13.041746066392617	3.4364412	1.853764
13.05938709538157	3.261139	1.8058624
13.077028435226296	3.2625299	1.8062475
13.094670086361363	3.2063022	1.7906151
13.112312049221401	3.127476	1.7684671
13.129954324241112	3.0585792	1.7488794
13.147596911855258	2.8607814	1.6913844
13.165239812498685	2.802117	1.6739526
13.182883026606293	2.7442644	1.6565821
13.200526554613058	2.6955209	1.6418041
13.218170396954017	2.6808512	1.6373305
13.235814554064284	2.6800966	1.6371001
13.253459026379034	2.6885014	1.639665
13.271103814333523	2.6848361	1.638547
13.288748918363058	2.6482062	1.627331
13.306394338903031	2.602436	1.6132067
13.32404007638889	2.5616024	1.6005007
13.341686131256164	2.5498013	1.5968097
13.359332503940449	2.5312724	1.5909973
13.376979194877402	2.5611222	1.6003506
13.394626204502751	2.62902	1.6214253
13.412273533252307	2.6932316	1.6411068
13.429921181561937	2.7015367	1.6436352
13.447569149867581	2.6471972	1.627021
13.465217438605247	2.6282127	1.6211764
13.482866048211022	2.61787	1.6179833
13.500514979121052	2.6711094	1.6343529
13.518164231771568	2.6517694	1.6284255
13.535813806598844	2.6215427	1.6191179
13.553463704039254	2.6343083	1.6230552
13.571113924529229	2.6442099	1.6261027
13.588764468505275	2.6537867	1.6290447
13.606415336403956	2.6557872	1.6296586
13.624066528661917	2.6776483	1.6363522
13.641718045715882	2.7766945	1.6663417
13.659369888002635	2.8443704	1.6865262
13.67702205595903	2.9121978	1.7065163
13.694674550021993	2.952967	1.7184199
13.712327370628532	2.9975529	1.7313442
13.729980518215713	3.0699663	1.7521319
13.747633993220681	3.106454	1.7625135
13.765287796080647	3.1642225	1.7788261
13.7829419272329	3.228594	1.7968289
13.800596387114801	3.2628639	1.8063399
13.818251176163775	3.300311	1.8166758
13.835906294817324	3.3503091	1.830385
13.853561743513023	3.4082267	1.8461384
13.871217522688525	3.444698	1.8559898
13.888873632781538	3.4352849	1.8534521
13.906530074229858	3.4550357	1.8587726
13.92418684747135	3.4718964	1.8633026
13.941843952943948	3.4656625	1.861629
13.959501391085665	3.428172	1.8515323
13.977159162334578	3.3556836	1.8318524
13.994817267128846	3.3149903	1.8207115
14.012475705906693	3.2201314	1.7944725
14.030134479106424	3.1759865	1.7821298
14.047793587166414	3.1388946	1.7716925
14.065453030525108	3.1002238	1.7607453
14.083112809621026	3.0212042	1.7381612
14.100772924892766	2.9404168	1.7147644
14.118433376778997	2.9003458	1.7030401
14.136094165718458	2.882029	1.697654
14.153755292149969	2.8311887	1.6826136
14.171416756512416	2.744763	1.6567326
14.189078559244768	2.6407907	1.625051
14.20674070078606	2.550672	1.5970824
14.224403181575408	2.4902043	1.5780381
14.242066002051999	2.426537	1.5577346
14.259729162655093	2.4091082	1.5521302
14.277392663824022	2.4029949	1.5501596
14.295056505998208	2.4146118	1.5539021
14.312720689617128	2.3973203	1.5483282
14.330385215120348	2.4014735	1.5496688
14.348050082947497	2.375296	1.5411996
14.3657152935383	2.345832	1.531611
14.383380847332528	2.311309	1.520299
14.401046744770051	2.3030086	1.5175667
14.418712986290798	2.3096573	1.5197557
14.436379572334793	2.3154037	1.5216451
14.454046503342123	2.336295	1.5284944
14.471713779752946	2.359425	1.536042
14.489381402007504	2.3784015	1.5422066
14.507049370546113	2.3731163	1.5404922
14.524717685809168	2.3870728	1.5450155
14.542386348237134	2.3772337	1.541828
14.560055358270553	2.3875465	1.5451688
14.577724716350051	2.39191	1.5465801
14.595394422916325	2.4563057	1.5672606
14.61306447841015	2.4943693	1.5793573
14.63073488327237	2.4838684	1.5760293
14.648405637943917	2.4711041	1.5719746
14.6660767428658	2.4533415	1.5663146
14.683748198479094	2.499229	1.580895
14.701420005224954	2.5261908	1.5893995
14.719092163544628	2.5940912	1.6106182
14.73676467387942	2.6198802	1.6186044
14.754437536670727	2.6713967	1.6344408
14.772110752360014	2.6451988	1.6264067
14.78978432138882	2.6525092	1.6286526
14.807458244198777	2.670862	1.6342772
14.82513252123159	2.663562	1.6320423
14.842807152929028	2.69718	1.6423093
14.860482139732962	2.6472235	1.6270291
14.87815748208531	2.6318715	1.6223043
14.8958331804281	2.5955296	1.6110647
14.91350923520342	2.5781186	1.6056521
14.931185646853438	2.5964496	1.6113503
14.948862415820408	2.6467764	1.6268916
14.966539542546656	2.7180274	1.6486441
14.98421702747459	2.726681	1.6512665
15.001894871046696	2.6922975	1.6408222
15.019573073705542	2.6194773	1.61848
15.037251635893766	2.5881174	1.6087626
15.054930558054092	2.6437283	1.6259545
15.072609840629323	2.696568	1.642123
15.090289484062351	2.7777824	1.666668
15.107969488796124	2.9343376	1.7129909
15.125649855273691	3.1283033	1.7687011
15.14333058393817	3.4824033	1.8661199
15.161011675232768	3.9912379	1.9978082
15.17869312960076	4.6047425	2.1458664
15.196374947485506	5.310756	2.3045077
15.214057129330447	6.66921	2.5824814
15.231739675579114	8.733656	2.955276
15.249422586675102	13.33586	3.6518297
15.267105863062092	17.846258	4.224483
15.284789505183847	25.226568	5.022606
15.302473513484218	30.39651	5.513303
15.320157888407127	34.800533	5.8991976
15.337842630396578	33.72292	5.8071437
15.355527739896656	30.768473	5.5469337
15.37321321735153	23.886774	4.8874097
15.39089906320545	16.083391	4.0104103
15.408585277902748	10.239735	3.1999586
15.42627186188783	6.267867	2.5035708
15.443958815605198	4.4669814	2.1135235
15.461646139499424	3.6733732	1.9166046
15.479333834015168	3.2456236	1.8015615
15.497021899597165	2.9816997	1.7267599
15.514710336690234	2.7792664	1.6671132
15.53239914573928	2.6801353	1.6371119
15.550088327189297	2.5644276	1.6013831
15.567777881485336	2.4855623	1.5765666
15.58546780907256	2.489619	1.5778526
15.6031581103962	2.5034509	1.5822297
15.620848785901568	2.5261803	1.5893962
15.638539836034063	2.4854028	1.576516
15.656231261239173	2.4551802	1.5669014
15.673923061962451	2.4032028	1.5502267
15.691615238649552	2.3615713	1.5367405
15.709307791746202	2.3431187	1.5307249
15.727000721698221	2.3394492	1.5295258
15.744694028951498	2.363175	1.5372622
15.76238771395202	2.3799577	1.5427111
15.780081777145844	2.4028134	1.5501012
15.797776218979125	2.4065206	1.5512965
15.815471039898094	2.390572	1.5461475
15.833166240349064	2.3674324	1.5386462
15.850861820778437	2.3688307	1.5391006
15.868557781632699	2.3689399	1.539136
15.886254123358412	2.4262347	1.5576376
15.903950846402232	2.4798524	1.5747547
15.921647951210897	2.497166	1.5802424
15.939345438231225	2.5142462	1.5856375
15.957043307910133	2.5074427	1.5834907
15.974741560694602	2.5344784	1.5920045
15.992440197031714	2.5185485	1.5869936
16.01013921736862	2.524231	1.5887829
16.02783862215259	2.5089693	1.5839727
16.045538411830933	2.4908698	1.578249
16.06323858685107	2.4766643	1.5737422
16.080939147660512	2.4860544	1.5767227
16.09864009470684	2.4579575	1.5677874
16.11634142843774	2.428502	1.5583652
16.134043149300954	2.4148896	1.5539916
16.15174525774433	2.4137883	1.5536371
16.169447754215817	2.4143677	1.5538236
16.18715063916342	2.4251056	1.557275
16.204853913035244	2.457119	1.56752
16.222557576279478	2.4704058	1.5717524
16.240261629344403	22.427969	4.7358174
16.257966072678386	42.98313	6.5561523
16.275670906729868	38.064358	6.169632
16.293376131947387	2.4826148	1.5756315
16.31108174877957	2.5073705	1.5834678
16.328787757675133	2.5420077	1.5943675
16.34649415908287	2.5454056	1.5954328
16.364200953451657	2.5491598	1.5966089
16.38190814123048	2.5778105	1.6055561
16.39961572286839	2.6169698	1.6177051
16.41732369881455	2.6537175	1.6290234
16.43503206951817	2.7099123	1.6461811
16.45274083542859	2.7706566	1.664529
16.47044999699522	2.8013155	1.6737131
16.488159554667558	2.8493161	1.6879917
16.505869508895184	2.8759284	1.6958562
16.523579860127786	2.930872	1.7119789
16.541290608815117	2.9606774	1.7206619
16.559001755407035	3.0337644	1.7417705
16.57671330035348	3.1415462	1.7724408
16.59442524410448	3.253931	1.8038656
16.61213758711015	3.4442651	1.8558731
16.629850329820705	3.525899	1.8777378
16.647563472686436	3.5400853	1.8815114
16.665277016157724	3.4351761	1.8534228
16.682990960685053	3.4123294	1.8472492
16.70070530671898	3.4022584	1.8445212
16.718420054710155	3.4777136	1.8648629
16.736135205109335	3.5427132	1.8822097
16.753850758367335	3.6054275	1.8987963
16.771566714935087	3.6507926	1.9107047
16.789283075263597	3.6823955	1.9189569
16.80699983980398	3.7480195	1.9359802
16.82471700900741	3.8354654	1.9584345
16.84243458332518	3.903627	1.9757599
16.860152563208665	3.9253902	1.9812597
16.87787094910932	3.9654896	1.9913538
16.89558974147871	4.022306	2.0055687
16.913308940768466	4.1042876	2.0259042
16.931028547430333	4.1969	2.0486336
16.94874856191613	4.2521095	2.0620644
16.966468984677785	4.295409	2.072537
16.98418981616729	4.3323755	2.081436
17.00191105683676	4.3755674	2.0917857
17.019632707138374	4.4420395	2.1076148
17.03735476752442	4.4505734	2.1096382
17.05507723844728	4.458362	2.1114833
17.072800120359403	4.445075	2.1083345
17.090523413713353	4.443056	2.1078558
17.108247118961785	4.457092	2.1111825
17.125971236557437	4.5145597	2.1247494
17.143695766953133	4.578367	2.1397119
17.161420710601806	4.581202	2.1403742
17.179146067956477	4.581567	2.1404595
17.19687183947025	4.5896344	2.1423433
17.21459802559634	4.5869703	2.1417212
17.232324626788028	4.5612364	2.1357052
17.25005164349871	4.5684314	2.137389
17.267779076181863	4.575632	2.1390727
17.285506925291074	4.5587506	2.135123
17.30323519127999	4.5395985	2.1306334
17.320963874602384	4.5219607	2.1264904
17.33869297571211	4.5250053	2.127206
17.356422495063114	4.5361667	2.1298277
17.37415243310944	4.546648	2.132287
17.391882790305218	4.5488305	2.1327987
17.40961356710468	4.508894	2.1234157
17.42734476396215	4.54525	2.1319592
17.445076381332044	4.5922194	2.1429465
17.462808419668868	4.63573	2.1530745
17.48054087942723	4.6867213	2.1648836
17.498273761061835	4.786101	2.187716
17.51600706502747	5.125567	2.2639716
17.533740791779024	5.722907	2.3922598
17.551474941771485	6.581327	2.5654097
17.56920951545993	8.44102	2.9053433
17.586944513299528	9.637068	3.1043627
17.60467993574556	12.583372	3.5473049
17.622415783253373	15.35848	3.9189897
17.64015205627843	18.336538	4.2821183
17.657888755276293	20.785378	4.5590982
17.675625880702604	22.385994	4.731384
17.69336343301311	20.963259	4.578565
17.71110141266366	18.81249	4.337337
17.728839820110178	16.159538	4.0198927
17.746578655808705	12.945096	3.5979295
17.764317920215372	10.741867	3.2774787
17.7820576137864	8.859735	2.9765306
17.79979773697811	7.50996	2.7404306
17.81753829024692	6.1165414	2.4731643
17.835279274049356	5.29357	2.300776
17.85302068884201	4.4548426	2.1106498
17.870762535081607	3.9683685	1.9920764
17.888504813224934	3.7472641	1.9357852
17.90624752372891	3.6780224	1.9178171
17.923990667050536	3.6089973	1.8997362
17.941734243646895	3.4966683	1.869938
17.959478253975185	3.4296448	1.85193
17.9772226984927	3.391282	1.8415434
17.994967577656833	3.3989546	1.8436254
18.01271289192506	3.4079492	1.8460631
18.030458641754965	3.412195	1.8472128
18.04820482760425	3.3714411	1.8361485
18.06595144993067	3.27659	1.8101354
18.083698509192125	3.2341857	1.7983842
18.101446005846576	3.1999524	1.788841
18.119193940352105	3.1771631	1.7824599
18.136942313166887	3.1963167	1.7878246
18.1546911247492	3.2216473	1.7948948
18.1724403755574	3.1831706	1.7841442
18.19019006604997	3.1379316	1.7714208
18.207940196685467	3.0719917	1.7527099
18.225690767922575	3.0786095	1.7545967
18.243441780220046	3.04826	1.7459267
18.261193234036764	3.030995	1.7409753
18.278945129831676	3.0294073	1.7405193
18.29669746806386	3.0441425	1.7447472
18.314450249192483	3.066819	1.7512336
18.3322034736768	3.0286095	1.74029
18.349957141976184	3.0202055	1.7378738
18.3677112545501	2.9807234	1.7264771
18.385465811858108	3.0402553	1.7436328
18.403220814359884	3.071286	1.7525085
18.420976262515172	3.1165874	1.7653859
18.43873215678387	3.1124988	1.7642275
18.456488497625923	3.1908338	1.7862905
18.474245285501407	3.3302507	1.8248974
18.492002520870486	3.3952594	1.842623
18.50976020419343	3.3718877	1.8362701
18.527518335930615	3.5623484	1.8874184
18.545276916542516	4.0813413	2.020233
18.563035946489688	4.2410674	2.0593853
18.580795426232832	4.619784	2.1493683
18.598555356232698	4.507744	2.1231449
18.616315736950185	4.772094	2.1845121
18.63407656884626	4.4823523	2.1171567
18.65183785238201	4.6857386	2.1646566
18.669599588018617	4.5306416	2.1285303
18.68736177621737	4.477208	2.1159415
18.705124417439652	4.4272833	2.104111
18.72288751214696	4.2498007	2.0615044
18.740651060800886	4.436327	2.106259
18.758415063863115	4.1951957	2.0482178
18.77617952179546	4.388983	2.09499
18.793944435059814	4.131121	2.032516
18.811709804118184	4.1401343	2.034732
18.829475629432675	4.081839	2.0203562
18.8472419114655	3.8694813	1.9670997
18.86500865067897	3.932952	1.9831672
18.88277584753551	3.659934	1.9130954
18.90054350249763	3.703063	1.9243344
18.918311616027957	3.4056096	1.8454294
18.936080188589226	3.2675726	1.8076428
18.953849220644265	2.9635968	1.72151
18.971618712656007	2.8072364	1.675481
18.9893886650875	2.7953105	1.6719182
19.007159078401887	7.979787	2.8248518
19.024929953062408	32.856274	5.7320395
19.042701289532435	32.779312	5.7253222
19.060473088275405	25.33556	5.033444
19.07824534975489	2.5960374	1.6112224
19.096018074434568	2.582853	1.6071258
19.113791262778197	2.5526092	1.5976887
19.13156491524966	2.534518	1.5920169
19.149339032312945	2.5321796	1.5912824
19.167113614432136	2.527776	1.5898981
19.184888662071433	2.509784	1.5842298
19.202664175695123	2.4849825	1.5763828
19.220440155767623	2.5112202	1.5846831
19.238216602753447	2.5117283	1.5848433
19.2559935171172	2.5168362	1.5864539
19.27377089932361	2.517849	1.5867732
19.291548749837514	2.5370066	1.5927984
19.309327069123835	2.5186925	1.5870389
19.32710585764763	2.491186	1.5783491
19.344885115874032	2.4700558	1.5716411
19.362664844268313	2.511481	1.5847653
19.380445043295822	2.4768236	1.5737927
19.39822571342203	2.4614384	1.5688972
19.41600685511252	2.4443562	1.5634437
19.43378846883297	2.474033	1.5729059
19.451570555049173	2.4511974	1.5656301
19.469353114227037	2.4403477	1.5621612
19.48713614683254	2.4091372	1.5521395
19.50491965333182	2.4536943	1.5664272
19.52270363419109	2.457439	1.5676221
19.540488089876686	2.451686	1.565786
19.55827302085503	2.4347715	1.5603755
19.576058427592674	2.4400008	1.5620502
19.593844310556282	2.4331899	1.5598686
19.611630670212598	2.4540122	1.5665287
19.629417507028506	2.4823637	1.5755519
19.64720482147098	2.4749177	1.5731871
19.6649926140071	2.4563406	1.5672717
19.682780885104084	2.4833713	1.5758716
19.70056963522921	2.5332673	1.5916241
19.718358864849908	2.5507784	1.5971156
19.7361485744337	2.513804	1.585498
19.753938764448215	2.5260699	1.5893614
19.771729435361202	2.5518343	1.5974462
19.789520587640506	2.5463746	1.5957364
19.807312221754092	2.5538335	1.5980718
19.825104338170043	2.5164938	1.586346
19.842896937356517	2.538265	1.5931933
19.860690019781824	2.5153294	1.585979
19.87848358591436	2.4898458	1.5779245
19.896277636222635	2.4487236	1.5648398
19.914072171175278	2.460251	1.5685188
19.931867191241015	2.4864511	1.5768485
19.94966269688869	2.4949203	1.5795317
19.967458688587264	2.448427	1.5647451
19.985255166805807	2.4133132	1.5534842
20.00305213201348	2.4126446	1.553269
20.020849584679578	2.411823	1.5530045
20.038647525273507	2.4339132	1.5601004
20.05644595426477	2.4749205	1.5731881
20.07424487212299	2.448239	1.564685
20.092044279317903	2.4425943	1.5628802
20.109844176319353	2.4631846	1.5694536
20.127644563597304	2.5166469	1.5863943
20.145445441621817	2.4867141	1.5769318
20.16324681086307	2.3899252	1.5459383
20.181048671791373	2.3618925	1.536845
20.198851024877122	2.35427	1.534363
20.216653870590836	2.3712795	1.5398959
20.234457209403146	2.3389978	1.5293783
20.252261041784802	2.3366673	1.5286162
20.270065368206662	2.32321	1.524208
20.287870189139685	2.3387074	1.5292833
20.305675505054968	2.3529305	1.5339265
20.323481316423702	2.3573692	1.5353726
20.341287623717207	2.3392599	1.5294639
20.359094427406884	2.320128	1.5231966
20.376901727964288	2.3291166	1.5261444
20.39470952586107	2.3661463	1.5382283
20.41251782156899	2.3398042	1.5296419
20.430326615559935	2.3131359	1.5208997
20.448135908305886	2.2890708	1.5129676
20.465945700278965	2.3053164	1.5183269
20.483755991951384	2.3400748	1.5297303
20.50156678379548	2.379117	1.5424386
20.519378076283708	2.3560965	1.5349581
20.537189869888635	2.360604	1.5364257
20.55500216508294	2.3892317	1.545714
20.572814962339415	2.3717704	1.5400553
20.59062826213098	2.2836022	1.5111592
20.60844206493066	2.2511008	1.5003669
20.626256371211593	2.2404642	1.4968181
20.644071181447032	2.2700617	1.5066724
20.66188649611036	2.2819335	1.510607
20.67970231567506	2.3089204	1.5195132
20.697518640614742	2.3002849	1.516669
20.715335471403122	2.27958	1.5098279
20.73315280851404	2.28199	1.5106257
20.750970652421447	2.2842975	1.5113893
20.768789003599412	2.2995858	1.5164385
20.786607862522136	2.2888708	1.5129014
20.8044272296639	2.2769554	1.5089583
20.82224710549913	2.2481484	1.4993827
20.84006749050237	2.2559886	1.5019948
20.857888385148268	3.8034215	1.9502363
20.8757097899116	45.90001	6.7749543
20.893531705267254	64.731064	8.045562
20.911354131690224	83.76401	9.152267
20.92917706965566	69.02048	8.307857
20.94700051963877	50.10837	7.078727
20.96482448211493	29.386951	5.4209733
20.982648957559622	4.1335196	2.0331059
21.00047394644843	2.233764	1.4945781
21.01829944925707	2.2106216	1.4868159
21.036125466461375	2.2327795	1.4942489
21.053951998537297	2.2575743	1.5025227
21.071779045960906	2.2635849	1.5045215
21.089606609208378	2.2280023	1.4926494
21.10743468875603	2.1630754	1.4707397
21.12526328508028	2.151298	1.4667304
21.143092398657675	2.1860585	1.4785326
21.16092202996488	2.212169	1.4873362
21.17875217947867	2.1771362	1.4755121
21.19658284767596	2.1632411	1.4707961
21.21441403503377	2.1679587	1.472399
21.232245742029225	2.1859455	1.4784943
21.2500779691396	2.147535	1.4654471
21.26791071684227	2.1321766	1.4601974
21.28574398561475	2.1398745	1.462831
21.30357777593465	2.1780512	1.4758222
21.321412088279704	2.1544795	1.4678146
21.339246923127792	2.1409638	1.4632033
21.357082280956888	2.1137493	1.4538739
21.3749181622451	2.105389	1.4509959
21.392754567470647	2.1151888	1.4543688
21.41059149711187	2.116231	1.454727
21.42842895164726	2.1068218	1.4514894
21.446266931555378	2.1226292	1.4569246
21.464105437314945	2.1553428	1.4681085
21.481944469404798	2.1440573	1.46426
21.49978402830388	2.109317	1.4523488
21.51762411449127	2.0980923	1.4484793
21.53546472844617	2.101075	1.4495085
21.553305870647876	2.0967376	1.4480116
21.571147541575865	2.0758946	1.4407965
21.58898974170967	2.0665812	1.4375609
21.60683247152899	2.069917	1.4387206
21.62467573151363	2.070359	1.4388742
21.642519522143523	2.0920305	1.4463854
21.660363843898722	2.0870373	1.4446582
21.6782086972594	2.0861788	1.444361
21.696054082705864	2.0544028	1.4333189
21.713900000718535	2.0358653	1.4268376
21.73174645177795	2.0301871	1.4248464
21.749593436364794	2.0261657	1.4234345
21.767440954959845	2.0282712	1.4241738
21.785289008044032	2.0203583	1.421393
21.803137596098388	2.0211687	1.4216782
21.820986719604086	2.0094957	1.4175669
21.838836379042412	1.9997023	1.4141083
21.85668657489478	1.9953156	1.4125564
21.87453730764273	1.9835197	1.4083748
21.892388577767914	1.978078	1.4064416
21.91024038575213	1.9865665	1.4094561
21.928092732077285	1.9591203	1.3996857
21.945945617225426	1.9584213	1.3994361
21.963799041678694	1.9742771	1.4050897
21.981653005919398	31.294922	5.5941863
21.999507510429943	78.06865	8.835647
22.01736255569286	72.98539	8.543149
22.035218142190818	4.098573	2.0244932
22.05307427040661	1.9969993	1.4131522
22.07093094082315	2.0427165	1.4292363
22.088788153923474	2.0199559	1.4212515
22.106645910190746	1.9744892	1.4051652
22.12450421010827	1.9690874	1.4032418
22.142363054159464	1.9810269	1.4074895
22.16022244282787	1.9971617	1.4132097
22.178082376597164	2.0058308	1.4162736
22.195942855951145	2.0069666	1.4166745
22.213803881373742	2.0086298	1.4172614
22.231665453349002	2.000619	1.4144324
22.24952757236111	1.9932599	1.4118285
22.26739023889438	1.9991919	1.4139278
22.28525345343323	2.0137181	1.4190553
22.30311721646225	2.00634	1.4164534
22.320981528466113	2.015509	1.4196862
22.33884638992964	2.0019298	1.4148957
22.356711801337788	1.9795753	1.4069738
22.37457776317561	1.9167638	1.3844724
22.392444275928337	1.8705484	1.36768
22.410311340081282	1.9091058	1.381704
22.428178956119904	1.9504553	1.396587
22.446047124529805	1.9809532	1.4074634
22.46391584579669	1.9856962	1.4091474
22.481785120406414	1.985239	1.4089851
22.49965494884496	1.9604065	1.4001452
22.51752533159841	1.9561824	1.3986359
22.53539626915302	1.9564036	1.398715
22.553267761995137	1.9479079	1.3956747
22.571139810611264	1.9481916	1.3957764
22.589012415488025	1.941707	1.3934515
22.60688557711216	1.9473495	1.3954747
22.624759295970566	1.9346364	1.390912
22.642633572550263	1.9637265	1.4013302
22.660508407338362	1.9923794	1.4115167
22.67838380082217	1.9913249	1.4111431
22.696259753489077	1.9859568	1.4092398
22.714136265826614	2.007133	1.4167333
22.73201333832246	1.9936041	1.4119505
22.74989097146439	1.9454224	1.394784
22.76776916574035	1.9032692	1.3795903
22.785647921638393	1.9011114	1.3788079
22.803527239646712	1.9145788	1.3836831
22.82140712025363	1.9070319	1.3809533
22.839287563947593	1.8855797	1.3731642
22.85716857121719	1.8836879	1.372475
22.875050142551135	1.8754234	1.369461
22.892932278438277	1.890674	1.3750178
22.910814979367604	1.9132816	1.3832142
22.928698245828222	1.9113075	1.3825004
22.946582078309387	1.890577	1.3749825
22.96446647730047	1.8761154	1.3697137
22.98235144329098	1.8890951	1.3744435
23.000236976770562	1.901724	1.3790301
23.018123078229	1.940999	1.3931974
23.03600974815619	1.9333341	1.3904438
23.053896987042194	1.9506334	1.3966508
23.071784795377173	1.9217777	1.386282
23.08967317365145	1.9232823	1.3868245
23.10756212235546	1.9199187	1.3856113
23.125451641979787	1.9031187	1.3795357
23.143341733015134	1.8608172	1.3641177
23.161232395952357	1.842715	1.3574663
23.179123631282426	1.8534544	1.3614163
23.197015439496468	1.9114765	1.3825616
23.214907821085717	1.943105	1.393953
23.23280077654157	1.9423932	1.3936976
23.250694306355538	1.9212104	1.3860774
23.268588411019277	1.8655486	1.3658509
23.28648309102458	1.8718187	1.3681443
23.304378346863356	1.9080739	1.3813305
23.322274179027676	1.9008553	1.378715
23.340170588009723	1.8875822	1.373893
23.358067574301852	1.9081819	1.3813696
23.37596513839651	1.956374	1.3987044
23.39386328078629	1.9446789	1.3945174
23.411762001963947	1.9003382	1.3785275
23.429661302422353	1.9198844	1.3855989
23.4475611826545	1.9388043	1.3924096
23.46546164315356	1.9221048	1.3864
23.48336268441279	1.9230033	1.386724
23.501264306925638	1.9127139	1.383009
23.51916651118564	1.9266237	1.3880287
23.537069297686497	1.930021	1.389252
23.554972666922037	1.9299403	1.389223
23.57287661938623	1.9191597	1.3853374
23.59078115557318	1.9155217	1.3840238
23.608686275977128	1.923061	1.3867447
23.62659198109246	1.91647	1.3843663
23.6444982714137	1.9272039	1.3882377
23.66240514743549	1.9193501	1.3854061
23.68031260965263	1.9069593	1.380927
23.698220658560068	1.8869044	1.3736464
23.716129294652845	1.8947142	1.3764862
23.7340385184262	1.9034945	1.3796719
23.75194833037546	1.9121089	1.3827902
23.769858730996123	1.8974091	1.3774648
23.78776972078382	1.8952128	1.3766673
23.80568130023431	1.9335518	1.3905221
23.823593469843495	1.9066246	1.3808057
23.841506230107424	1.8733671	1.36871
23.859419581522275	1.8182999	1.3484435
23.87733352458438	1.8053266	1.3436245
23.89524805979019	1.8415738	1.357046
23.913163187636318	1.8623275	1.3646712
23.931078908619508	1.9062952	1.3806865
23.948995223236633	1.9488169	1.3960003
23.966912131984735	1.9907675	1.4109457
23.98482963536096	2.049557	1.4316274
24.002747733862616	2.0518527	1.432429
24.020666427987155	2.06928	1.4384992
24.038585718232156	2.030772	1.4250516
24.056505605095353	1.9808774	1.4074365
24.074426089074617	1.9975774	1.4133568
24.092347170667946	2.038077	1.4276124
24.110268850373515	2.036417	1.4270308
24.128191128689586	2.008823	1.4173295
24.146114006114626	2.009523	1.4175764
24.164037483147187	2.0043058	1.4157351
24.181961560286005	1.9970994	1.4131876
24.199886238029926	2.0105448	1.4179368
24.21781151687797	2.0368166	1.4271709
24.235737397329274	2.0328524	1.4257814
24.253663879883135	2.0125847	1.418656
24.271590965038975	2.0306735	1.425017
24.289518653296376	1.9999459	1.4141945
24.30744694515505	2.0259974	1.4233754
24.32537584111486	2.0750992	1.4405205
24.34330534167581	2.0881865	1.4450558
24.361235447338046	2.036333	1.4270015
24.379166158601876	1.975323	1.4054618
24.39709747596772	1.9764282	1.405855
24.41502939993615	1.990687	1.410917
24.432961931007917	1.9846202	1.4087654
24.450895069683856	1.9748392	1.4052898
24.468828816465	1.9638566	1.4013767
24.4867631718525	1.9751314	1.4053937
24.504698136347656	1.9939647	1.4120781
24.52263371045192	1.9890199	1.4103261
24.540569894666874	1.9468251	1.3952868
24.558506689494266	1.9568169	1.3988627
24.57644409543597	2.0141027	1.4191909
24.594382112994012	2.0129204	1.4187742
24.61232074267057	1.9810863	1.4075106
24.630259984967953	1.945746	1.3949
24.64819984038863	1.9211266	1.3860471
24.66614030943522	1.8893993	1.3745542
24.684081392610462	1.931299	1.3897119
24.702023090417274	1.9744266	1.4051429
24.7199654033587	1.998295	1.4136106
24.737908331937927	1.9881922	1.4100327
24.755851876658305	1.9945554	1.4122872
24.773796038023324	2.003768	1.4155451
24.79174081653661	2.0181203	1.4206057
24.809686212701962	2.0567424	1.4341347
24.827632227023294	2.09418	1.4471282
24.8455788600047	2.1224582	1.4568659
24.8635261121504	2.1354928	1.4613326
24.88147398396475	2.1392133	1.462605
24.899422475952303	2.1106718	1.452815
24.917371588617698	2.1346354	1.4610392
24.935321322465768	2.1366794	1.4617385
24.953271678001478	2.2632542	1.5044116
24.97122265572994	2.48505	1.5764041
24.989174256156414	2.8729901	1.6949897
25.00712647978632	3.4323933	1.852672
25.02507932712521	4.3521914	2.0861907
25.043032798678798	5.7856607	2.40534
25.060986894952933	7.4624734	2.7317529
25.078941616453637	8.979044	2.9965053
25.096896963687055	9.976112	3.1584985
25.114852937159508	10.669663	3.2664452
25.132809537377444	10.491798	3.2391045
25.150766764847468	9.656709	3.1075246
25.168724620076347	8.28033	2.877556
25.186683103570985	7.0223217	2.6499662
25.204642215838426	5.6214113	2.3709517
25.222601957385894	4.4613633	2.112194
25.24056232872074	3.4323032	1.8526477
25.25852333035048	2.7555234	1.659977
25.276484962782778	2.398379	1.54867
25.294447226525435	2.2274299	1.4924576
25.312410122086423	2.0679765	1.4380461
25.330373649973843	1.942654	1.3937912
25.348337810695988	1.9204334	1.385797
25.366302604761245	1.8488653	1.3597299
25.384268032678207	1.848166	1.3594726
25.40223409495558	1.8997543	1.3783157
25.420200792102257	1.9440659	1.3942976
25.438168124627246	1.9464478	1.3951515
25.45613609303974	1.9518658	1.3970919
25.474104697849057	1.9236652	1.3869625
25.492073939564698	1.8847233	1.3728522
25.510043818696285	1.8511183	1.3605582
25.528014335753614	1.8390703	1.3561233
25.54598549124664	1.8535317	1.3614447
25.56395728568544	1.8585752	1.3632957
25.58192971958028	1.8623079	1.3646641
25.59990279344156	1.8606031	1.3640393
25.617876507779833	1.8623873	1.3646932
25.635850863105826	1.8773651	1.3701698
25.653825859930386	1.874971	1.3692958
25.671801498764548	1.8895094	1.3745943
25.68977778011949	1.900207	1.37848
25.707754704506524	1.9087737	1.3815838
25.725732272437153	1.8814925	1.371675
25.743710484423012	1.8685725	1.3669574
25.761689340975888	1.8605044	1.3640031
25.77966884260774	1.8466948	1.3589315
25.797648989830662	1.8712195	1.3679253
25.815629783156922	1.8857689	1.373233
25.83361122309895	1.8727099	1.36847
25.85159331016929	1.8600483	1.3638359
25.869576044880695	1.8457236	1.3585742
25.887559427746034	1.8199995	1.3490735
25.90554345927836	1.8401442	1.3565191
25.92352813999086	1.8154485	1.3473858
25.94151347039689	1.8067907	1.3441691
25.959499451009965	1.8384992	1.3559127
25.97748608234374	1.8712095	1.3679216
25.995473364912062	1.8542497	1.3617084
26.013461299228904	1.8349577	1.3546062
26.03144988580839	1.8683783	1.3668864
26.04943912516483	1.8320656	1.3535382
26.067429017812675	1.7728974	1.331502
26.085419564266537	1.7341725	1.3168799
26.103410765041186	1.7736139	1.331771
26.12140262065155	1.8148553	1.3471657
26.139395131612723	1.7976762	1.3407745
26.157388298439948	1.8142631	1.3469459
26.17538212164861	1.838276	1.3558304
26.193376601754295	1.8456724	1.3585552
26.211371739272714	1.8561699	1.3624133
26.229367534719746	1.9067043	1.3808347
26.247363988611433	1.8784485	1.370565
26.26536110146397	1.8281312	1.352084
26.283358873793727	1.7624861	1.3275865
26.301357306117204	1.736887	1.3179101
26.319356398951104	1.729534	1.3151175
26.33735615281224	1.7362413	1.3176651
26.35535656821762	1.8057094	1.3437668
26.373357645684404	1.8490524	1.3597987
26.39135938572991	1.8609906	1.3641813
26.409361788871614	1.8356426	1.3548589
26.427364855627165	1.82969	1.3526603
26.445368586514352	1.7824748	1.3350935
26.46337298205115	1.7603085	1.3267661
26.48137804275568	1.7638851	1.3281133
26.499383769146217	1.8072933	1.3443561
26.517390161741215	1.8367941	1.3552837
26.53539722105928	1.8639506	1.3652657
26.553404947619182	1.9047003	1.3801088
26.571413341939856	1.9193362	1.3854011
26.589422404540397	1.892927	1.3758368
26.60743213594006	1.86099	1.364181
26.62544253665827	1.8080155	1.3446246
26.64345360721459	1.7869971	1.3367862
26.66146534812879	1.7669532	1.329268
26.679477759920758	1.8036481	1.3429997
26.69749084311057	1.8628551	1.3648645
26.71550459821847	1.8734758	1.3687497
26.733519025764842	1.844739	1.3582116
26.751534126270258	1.7936238	1.3392624
26.769549900255434	1.8035492	1.3429629
26.787566348241267	1.7871722	1.3368516
26.80558347074881	1.8110408	1.3457491
26.823601268299267	1.8291441	1.3524586
26.841619741414036	1.8265462	1.3514978
26.85963889061465	1.8363621	1.3551244
26.877658716422832	1.8333007	1.3539944
26.89567921936045	1.8617239	1.36445
26.913700399949544	1.8729732	1.3685662
26.93172225871233	1.8457532	1.358585
26.949744796171174	1.8614724	1.3643578
26.967768012848605	1.8633683	1.3650525
26.98579190926733	1.83054	1.3529745
27.003816485950225	1.7617724	1.3273177
27.021841743420318	1.7395753	1.3189296
27.039867682200814	1.7303059	1.315411
27.057894302815072	1.7846767	1.335918
27.07592160578664	1.8310916	1.3531784
27.0939495916392	1.8010015	1.342014
27.111978260896635	1.7695261	1.3302354
27.13000761408296	1.7860736	1.3364407
27.148037651722397	1.837485	1.3555386
27.166068374339304	1.8505619	1.3603536
27.184099782458215	1.8576361	1.3629513
27.20213187660384	1.821045	1.349461
27.22016465730105	1.8300673	1.3527998
27.23819812507487	1.8301318	1.3528236
27.256232280450533	1.8443538	1.3580699
27.274267123953383	1.8498236	1.3600821
27.292302656108987	1.8383117	1.3558435
27.31033887744306	1.837437	1.355521
27.32837578848146	1.8400122	1.3564705
27.34641338975026	1.8322362	1.3536012
27.364451681775673	1.8154445	1.3473843
27.382490665084074	1.8225646	1.350024
27.400530340202046	1.8318322	1.353452
27.41857070765629	1.8039312	1.3431051
27.436611767973726	1.7989755	1.3412589
27.454653521681404	1.798185	1.3409642
27.472695969306564	1.7976456	1.3407631
27.490739111376627	1.7548368	1.3247025
27.508782948419153	1.784588	1.3358847
27.526827480961902	1.8698468	1.3674234
27.54487270953279	1.8952558	1.3766829
27.562918634659898	1.8373084	1.3554735
27.580965256871508	1.780222	1.3342496
27.599012576696026	1.7666132	1.3291401
27.617060594662068	1.7681162	1.3297054
27.63510931129842	1.7929602	1.3390146
27.65315872713401	1.7952623	1.339874
27.67120884269797	1.8330753	1.3539112
27.68925965851958	1.8410419	1.35685
27.707311175128307	1.8800591	1.3711525
27.725363393053787	1.8571409	1.3627696
27.74341631282583	1.8856429	1.3731872
27.7614699349744	1.8727839	1.3684969
27.77952426002968	1.9863245	1.4093703
27.797579288521973	2.1028805	1.4501312
27.815635020981784	2.5912228	1.6097275
27.83369145793979	2.6805248	1.6372309
27.85174859992682	2.4771185	1.5738864
27.869806447473923	2.3403368	1.5298159
27.887865001112267	2.0851693	1.4440116
27.905924261373233	1.9924501	1.4115417
27.92398422878836	1.9434508	1.3940771
27.94204490388936	1.9022497	1.3792207
27.96010628720813	1.8680699	1.3667735
27.978168379276728	1.8282605	1.3521318
27.9962311806274	1.8114307	1.345894
28.014294691792568	1.8383253	1.3558486
28.0323589133048	1.8547606	1.3618959
28.050423845696887	1.8771706	1.3700987
28.068489489501758	1.8650045	1.3656517
28.086555845252523	1.8228233	1.3501197
28.104622913482487	1.8566456	1.3625878
28.122690694725115	1.9395391	1.3926734
28.14075918951405	1.9648443	1.4017291
28.15882839838312	1.958919	1.3996139
28.176898321866304	1.9165175	1.3843834
28.1949689604978	1.9304787	1.3894167
28.213040314811945	1.9806592	1.407359
28.23111238534327	1.9887908	1.410245
28.249185172626493	1.954852	1.3981602
28.267258677196473	1.9210253	1.3860105
28.285332899588294	1.9313009	1.3897126
28.303407840337172	1.9750907	1.4053792
28.321483499978545	1.9864918	1.4094296
28.33955987904799	1.9941657	1.4121493
28.357636978081285	1.947805	1.3956379
28.37571479761439	1.9743193	1.4051048
28.393793338183425	2.0268466	1.4236736
28.41187260032469	2.0395608	1.4281319
28.429952584574686	2.0653775	1.4371421
28.448033291470065	2.0834124	1.4434031
28.46611472154769	2.068914	1.438372
28.484196875344566	2.0397747	1.4282068
28.502279753397914	1.9937136	1.4119892
28.52036335624511	1.9711958	1.4039928
28.538447684423716	1.9782981	1.4065199
28.556532738471482	1.9810683	1.4075043
28.574618518926325	1.9659809	1.4021344
28.59270502632635	2.0118728	1.418405
28.61079226120985	2.0308201	1.4250685
28.628880224115274	2.0460806	1.4304128
28.646968915581287	2.048208	1.4311562
28.66505833614671	2.0818734	1.4428699
28.68314848635055	2.1415498	1.4634035
28.701239366732004	2.1430395	1.4639124
28.71933097783044	2.1339297	1.4607977
28.737423320185403	2.107786	1.4518216
28.75551639433665	2.0518894	1.4324417
28.773610200824074	2.0404258	1.4284347
28.791704740187793	2.1159425	1.454628
28.80980001296809	2.2204735	1.4901253
28.827896019705413	2.1976678	1.4824533
28.845992760940433	2.1378028	1.4621227
28.86409023721397	2.1190736	1.4557039
28.88218844906704	2.1752944	1.474888
28.900287397040845	2.212678	1.4875073
28.918387081676755	2.2499352	1.4999784
28.936487503516343	2.2736857	1.5078746
28.954588663101365	2.2988849	1.5162073
28.97269056097374	2.3160431	1.5218551
28.990793197675597	2.3403955	1.5298351
29.00889657374923	2.4153	1.5541235
29.027000689737125	2.4668446	1.5706191
29.04510554618196	2.4709983	1.5719409
29.06321114362659	2.4785564	1.5743432
29.08131748261405	2.4753423	1.573322
29.099424563687567	2.4635108	1.5695575
29.11753238739057	2.4945443	1.5794126
29.13564095426663	2.5262156	1.5894073
29.15375026485954	2.589394	1.6091595
29.171860319713275	2.6115458	1.6160278
29.18997111937199	2.671892	1.6345923
29.20808266438002	2.7300057	1.6522729
29.226194955281898	2.7565625	1.6602899
29.244307992622335	2.8004913	1.6734668
29.26242177694624	2.8118353	1.6768528
29.2805363087987	2.869742	1.6940312
29.29865158872498	2.8766859	1.6960796
29.316767617270557	2.822116	1.6799154
29.334884394981064	2.805483	1.6749576
29.353001922402367	2.899068	1.702665
29.37112020008047	3.052989	1.7472805
29.389239228561596	3.2466576	1.8018484
29.407359008392152	3.419943	1.8493088
29.42547954011872	3.658061	1.9126058
29.44360082428809	4.1142974	2.028373
29.46172286144722	5.1188455	2.2624865
29.479845652143283	6.775439	2.6029673
29.497969196923606	9.494291	3.0812807
29.516093496335728	13.275979	3.6436217
29.5342185509274	17.02026	4.1255617
29.55234436124651	20.23977	4.498863
29.570470927841175	21.605177	4.648137
29.588598251259686	21.31329	4.616632
29.60672633205055	19.655033	4.4333997
29.624855170762405	16.64809	4.0802073
29.642984767944146	13.218246	3.6356907
29.66111512414481	9.691562	3.1131272
29.67924623991366	6.9897747	2.6438181
29.697378115800138	5.1465845	2.2686086
29.71551075235387	4.2811003	2.069082
29.733644150124675	3.8370614	1.9588418
29.751778309662576	3.5893629	1.8945614
29.769913231517766	3.5360868	1.8804486
29.78804891624066	3.498128	1.8703283
29.806185364381818	3.3773332	1.8377522
29.82432257649206	3.3084676	1.8189193
29.842460553122333	3.3829563	1.8392814
29.86059929482382	3.4174898	1.8486453
29.878738802147872	3.4390771	1.8544749
29.896879075646048	3.3887987	1.8408691
29.915020115870114	3.32796	1.8242698
29.933161923371976	3.3139188	1.8204172
29.951304498703777	3.2873266	1.8130987
29.969447842417857	3.2532172	1.8036677
29.987591955066733	3.2499528	1.8027625
30.005736837203123	3.2470062	1.8019451
30.023882489379943	3.2662714	1.8072828
30.04202891215028	3.2220993	1.7950207
30.060176106067455	3.107011	1.7626716
30.078324071684946	3.1354358	1.7707162
30.09647280955646	3.1748927	1.7818228
30.114622320235863	3.1463323	1.7737904
30.132772604277257	3.1181936	1.7658408
30.1509236622349	3.145695	1.7736107
30.16907549466328	3.1354551	1.7707217
30.18722810211705	3.176001	1.7821338
30.205381485151097	3.2091491	1.7914099
30.22353564432045	3.1495826	1.7747064
30.241690580180403	3.0549169	1.7478321
30.25984629328638	2.9796684	1.7261716
30.278002784194037	2.9631615	1.7213836
30.296160053459246	3.0288517	1.7403597
30.314318101638033	3.0211158	1.7381357
30.332476929286646	2.9122024	1.7065176
30.35063653696153	2.8116312	1.6767919
30.368796925219307	2.8523555	1.6888918
30.386958094616844	2.9767108	1.7253147
30.40512004571115	2.9784226	1.7258108
30.423282779059463	2.8520813	1.6888106
30.441446295219233	2.8263688	1.6811808
30.459610594748067	2.858407	1.6906824
30.47777567820382	2.8420165	1.6858281
30.495941546144504	2.805454	1.6749489
30.51410819912835	2.8104289	1.6764333
30.532275637713795	2.7881346	1.6697708
30.55044386245946	2.7805448	1.6674966
30.56861287392416	2.8326643	1.6830521
30.586782672666956	2.8251946	1.6808316
30.604953259247047	2.8171413	1.6784341
30.623124634223885	2.7808282	1.6675816
30.641296798157075	2.765249	1.6629038
30.659469751606462	2.748445	1.6578435
30.677643495132074	2.7520938	1.6589435
30.695818029294152	2.7078063	1.6455413
30.713993354653116	2.7292268	1.6520371
30.73216947176962	2.765935	1.66311
30.75034638120448	2.82489	1.6807408
30.768524083518756	2.760905	1.6615971
30.786702579273673	2.7523212	1.6590121
30.80488186903069	2.8592064	1.6909188
30.82306195335144	3.0857573	1.7566323
30.841242832797782	3.320634	1.8222606
30.85942450793176	3.6387575	1.9075527
30.877606979315637	4.0104213	2.0026035
30.895790247511883	4.4050307	2.0988164
30.913974313083134	4.763059	2.1824434
30.932159176592283	5.0956187	2.2573478
30.95034483860237	5.4173207	2.327514
30.968531299676698	5.4331303	2.3309076
30.98671856037873	5.2036176	2.281144
31.00490662127215	4.8811107	2.2093236
31.023095482920848	4.3629937	2.088778
31.04128514588892	3.653144	1.91132
31.059475610740662	3.113847	1.7646096
31.07766687804056	2.7785797	1.6669072
31.09585894835335	2.6024249	1.6132033
31.11405182224393	2.526294	1.589432
31.132245500277417	2.4808986	1.5750868
31.15043998301914	2.4666624	1.5705612
31.168635271034628	2.4154801	1.5541815
31.18683136488964	2.344912	1.5313106
31.20502826515008	2.3559587	1.5349133
31.223225972382135	2.4574027	1.5676105
31.241424487152155	2.5217347	1.5879971
31.259623810026692	2.5032415	1.5821636
31.27782394157253	2.4421563	1.56274
31.296024882356644	2.4206629	1.555848
31.314226632946237	2.4381552	1.5614593
31.332429193908684	2.4402733	1.5621374
31.350632565811598	2.4661648	1.5704027
31.368836749222787	2.4376936	1.5613115
31.387041744710295	2.4204001	1.5557635
31.40524755284232	2.4313943	1.5592929
31.423454174187317	2.4507728	1.5654944
31.441661609313922	2.5158622	1.586147
31.459869858791002	2.4873538	1.5771347
31.478078923187628	2.438664	1.5616223
31.496288803073064	2.4123344	1.5531691
31.514499499016807	2.4318538	1.5594403
31.532711011588546	2.4203894	1.55576
31.550923341358178	2.3646247	1.5377337
31.56913648889584	2.2628846	1.5042888
31.587350454771844	2.274022	1.5079861
31.605565239556732	2.3038118	1.5178313
31.62378084382127	2.3262155	1.5251936
31.641997268136382	2.3462133	1.5317354
31.660214513073274	2.3859966	1.5446671
31.67843257920331	2.312858	1.5208083
31.6966514670981	2.2352257	1.4950671
31.71487117732944	2.2642472	1.5047415
31.733091710469346	2.338214	1.529122
31.751313067090052	2.3234847	1.5242981
31.769535247764008	2.3234334	1.5242813
31.787758253063878	2.2980971	1.5159476
31.805982083562526	2.3048291	1.5181664
31.824206739833024	2.274627	1.5081867
31.84243222244869	2.2347178	1.4948972
31.860658531983013	2.1954308	1.4816986
31.878885669009737	2.1662235	1.4718096
31.897113634102784	2.1478047	1.4655391
31.91534242783632	2.1666803	1.4719648
31.933572050784694	2.205015	1.4849293
31.951802503522508	2.2539287	1.501309
31.970033786624548	2.2406337	1.4968747
31.988265900665834	2.1990104	1.4829061
32.006498846221575	2.1210206	1.4563724
32.02473262386724	2.1109598	1.4529142
32.04296723417845	2.136475	1.4616686
32.0612026777311	2.1307886	1.459722
32.07943895510129	2.1318336	1.46008
32.097676066865304	2.2037787	1.4845129
32.115914013599685	2.3054855	1.5183825
32.13415279588115	2.236045	1.4953411
32.152392414286666	2.1488576	1.4658983
32.1706328693934	2.0807047	1.4424648
32.18887416177875	2.0232098	1.4223958
32.20711629202032	2.000695	1.4144592
32.225359260695924	2.1050923	1.4508936
32.243603068383614	2.1082935	1.4519964
32.26184771566166	2.1133463	1.4537354
32.28009320310852	2.0945435	1.4472538
32.2983395313029	2.088267	1.4450837
32.31658670082372	2.1228821	1.4570113
32.33483471225012	2.116287	1.4547464
32.35308356616143	2.110365	1.4527096
32.371333263137245	2.0680017	1.4380548
32.38958380375734	2.035544	1.4267249
32.407835188601744	2.0384536	1.4277443
32.42608741825067	2.0730677	1.4398152
32.444340493284585	2.058788	1.4348477
32.46259441428416	2.06567	1.4372439
32.48084918183028	2.0486104	1.4312968
32.49910479650405	2.043624	1.4295537
32.51736125888683	1.9909437	1.411008
32.53561856956014	1.9271233	1.3882086
32.5538767291058	1.9622667	1.4008093
32.572135738105764	1.9776099	1.4062752
32.59039559714228	2.0607471	1.4355303
32.608656306797776	2.1193423	1.4557961
32.62691786765491	2.1249106	1.4577073
32.645180280296586	2.0899847	1.4456779
32.663443545305896	2.034021	1.4261911
32.68170766326619	2.0712836	1.4391955
32.69997263476099	2.1718953	1.4737351
32.7182384603741	2.2297359	1.49323
32.7365051406895	2.1534588	1.4674668
32.75477267629144	2.11583	1.4545892
32.77304106776434	2.022176	1.4220324
32.79131031569289	1.9125472	1.3829488
32.809580420661966	1.9253317	1.3875632
32.827851383256714	2.0131202	1.4188447
32.84612320406245	2.130544	1.4596382
32.86439588366476	2.1543193	1.46776
32.88266942264945	2.0684364	1.438206
32.9009438216025	2.0080004	1.4170393
32.9192190811102	1.9665916	1.4023522
32.937495201758985	1.8859314	1.3732922
32.95577218413556	1.9192511	1.3853704
32.974050028826866	1.9319654	1.3899516
32.992328736420035	1.9133817	1.3832504
33.010608307502444	1.8506114	1.3603718
33.02888874266169	1.9230683	1.3867474
33.047170042485604	1.9513531	1.3969084
33.06545220756225	1.9670346	1.40251
33.083735238479896	1.9036361	1.3797232
33.10201913582707	1.9292461	1.388973
33.12030390019248	1.9661709	1.4022021
33.138589532165135	1.9897245	1.410576
33.15687603233419	1.9383796	1.392257
33.17516340128909	1.8356371	1.3548568
33.19345163961947	1.8786694	1.3706456
33.211740747915215	1.88037	1.3712659
33.23003072676643	1.9137037	1.3833668
33.248321576763466	1.9652553	1.4018756
33.266613298496885	1.9718909	1.4042404
33.28490589255747	1.9262398	1.3878905
33.30319935953626	1.9360712	1.3914278
33.32149370002451	1.905671	1.3804604
33.339788914613706	1.9373784	1.3918974
33.358085003895575	1.9559201	1.3985422
33.376381968462034	1.8754247	1.3694615
33.39467980890529	1.7993807	1.3414099
33.41297852581774	1.8799833	1.3711249
33.43127811979204	1.9912931	1.4111319
33.44957859142105	1.9859186	1.4092263
33.467879941297866	1.9512507	1.3968717
33.486182170015844	1.9013399	1.3788909
33.50448527816853	1.993422	1.411886
33.522789266349754	2.02028	1.4213655
33.541094135153514	1.8336957	1.3541402
33.55939988517411	1.7770292	1.3330525
33.57770651700602	1.8483624	1.359545
33.59601403124398	1.9101565	1.3820841
33.61432242848296	1.8879907	1.3740418
33.632631709318154	1.8318012	1.3534405
33.650941874344994	1.7787032	1.3336803
33.66925292415916	1.9096609	1.3819048
33.68756485935654	1.9809725	1.4074702
33.70587768053328	2.0054324	1.4161329
33.724191388285746	2.0851407	1.4440017
33.74250598321054	2.108853	1.4521891
33.760821465904506	1.989912	1.4106424
33.77913783696474	1.9556644	1.3984507
33.79745509698852	2.0347414	1.4264436
33.815773246573414	2.080336	1.442337
33.8340922863172	2.0317438	1.4253925
33.852412216817896	1.9994675	1.4140253
33.87073303867377	1.9773347	1.4061774
33.889054752483304	1.9271104	1.388204
33.907377358845245	1.8931991	1.3759357
33.92570085835853	1.9125433	1.3829473
33.94402525162239	1.8915951	1.3753527
33.96235053923627	1.8020477	1.3424038
33.980676721799824	1.9041443	1.3799074
33.999003799912984	2.0365443	1.4270754
34.01733177417592	2.1326582	1.4603623
34.03566064518901	2.1196785	1.4559115
34.0539904135529	2.0387483	1.4278474
34.07232107986846	2.0186527	1.4207929
34.090652644736785	1.9490756	1.396093
34.108985108759235	2.0790353	1.4418861
34.12731847253742	2.1815827	1.4770181
34.14565273667313	2.0361464	1.426936
34.16398790176847	1.9515976	1.3969959
34.18232396842574	2.0239587	1.422659
34.20066093724749	2.0623395	1.4360847
34.21899880883651	2.0411124	1.428675
34.23733758379583	1.9553759	1.3983476
34.25567726272874	1.9173473	1.3846831
34.27401784623872	2.0205963	1.4214768
34.29235933492957	2.0347855	1.4264591
34.31070172940526	1.9292346	1.388969
34.32904503027003	1.8641472	1.3653377
34.347389238128386	1.904964	1.3802043
34.36573435358502	2.1193435	1.4557965
34.38408037724492	2.114797	1.4542342
34.402427309713296	1.9799821	1.4071184
34.42077515159559	1.9194019	1.3854249
34.43912390349752	1.9785209	1.406599
34.45747356602499	1.9292939	1.3889903
34.47582413978423	1.7774317	1.3332036
34.49417562538163	1.7405945	1.3193159
34.51252802342388	1.782902	1.3352535
34.53088133451789	1.8515493	1.3607165
34.54923555927084	1.993901	1.4120556
34.567590698290104	2.1176305	1.4552081
34.58594675218336	1.9736269	1.4048584
34.6043037215585	1.8701342	1.3675286
34.62266160702365	1.9808575	1.4074293
34.641020409187234	2.1012182	1.4495579
34.65938012865785	1.979466	1.406935
34.677740766044394	1.7851206	1.336084
34.69610232195598	1.8725412	1.3684083
34.714464797002016	1.893115	1.3759052
34.73282819179208	1.8697273	1.3673797
34.751192506936064	1.8895621	1.3746134
34.76955774304408	1.9639335	1.4014041
34.7879239007265	1.9649223	1.4017569
34.80629098059391	1.8513815	1.3606548
34.824658983257194	1.9697647	1.403483
34.843027909327446	2.0853722	1.4440818
34.86139775941603	2.1583076	1.469118
34.879768534134534	2.0500402	1.4317962
34.89814023409483	2.019977	1.4212589
34.91651285990901	2.1959035	1.4818581
34.93488641218944	2.1954744	1.4817133
34.95326089154871	1.9569489	1.3989099
34.97163629859967	1.8450637	1.3583312
34.99001263395542	1.9482598	1.3958008
35.00838989822934	2.1379817	1.4621838
35.02676809203499	2.1612077	1.4701047
35.04514721598624	2.0914614	1.4461886
35.063527270697215	1.9833935	1.4083301
35.081908256782256	1.973375	1.4047687
35.10029017485597	2.032965	1.4258208
35.11867302553321	2.1618526	1.4703239
35.137056809429104	2.2325816	1.4941826
35.155441527159006	2.1646588	1.471278
35.173827179338524	2.0069015	1.4166515
35.19221376658354	1.8500595	1.3601689
35.21060128951017	1.8260736	1.3513229
35.2289897487348	1.705716	1.3060306
35.24737914487405	1.7388577	1.3186575
35.26576947854479	1.8207654	1.3493574
35.28416075036418	1.6661665	1.2908007
35.30255296094958	1.7367233	1.317848
35.32094611091867	2.1097145	1.4524857
35.33934020088932	2.2865908	1.5121478
35.35773523147969	2.214833	1.4882315
35.3761312033082	2.327766	1.5257018
35.394528116993506	2.5915034	1.6098148
35.41292597315452	2.2618294	1.503938
35.431324772410434	2.123677	1.4572841
35.449724515380666	2.2344303	1.494801
35.46812520268491	2.0796425	1.4420966
35.486526834943106	2.0360262	1.426894
35.504929412775454	2.3564746	1.5350813
35.52333293680242	2.1840878	1.4778659
35.54173740764471	1.4909264	1.221035
35.560142825923286	1.2771634	1.1301166
35.5785491922594	1.4291222	1.195459
35.59695650727454	1.5111034	1.2292695
35.61536477159042	2.20624	1.4853417
