0.008763373481513119	0.0	0.0
0.026290120649546365	0.0	0.0
0.043816868432600686	0.13170215	0.36290792
0.06134361724069026	0.15173998	0.38953817
0.07887036748382949	0.15094419	0.38851535
0.0963971195720331	0.14840142	0.38522905
0.11392387391531617	0.24174534	0.49167606
0.1314506309236943	0.23982981	0.48972422
0.1489773910071836	0.2700861	0.5196981
0.16650415457580078	0.19420105	0.44068247
0.18403092203956356	0.21417932	0.4627951
0.20155769380849	0.2046603	0.45239395
0.2190844702925996	0.18415765	0.42913595
0.2366112519019124	0.12468694	0.35311037
0.2541380390464497	0.07697214	0.27743855
0.27166483213623416	0.08762881	0.29602164
0.28919163158128947	0.12680164	0.35609218
0.3067184377916406	0.14283127	0.37793025
0.324245251177314	0.17178017	0.4144637
0.34177207214833777	0.13369769	0.36564696
0.3592989011147415	0.12777902	0.35746193
0.37682573848655654	0.12697469	0.35633507
0.39435258467381573	0.13145281	0.3625642
0.41187944008655414	0.13119225	0.3622047
0.42940630513480854	0.14360075	0.3789469
0.446933180228618	0.1572734	0.3965771
0.4644600657780234	0.18672357	0.43211523
0.48198696219306775	0.22227883	0.47146457
0.49951386988379676	0.17898467	0.4230658
0.5170407892602581	0.12505357	0.35362914
0.5345677207325025	0.11748999	0.34276813
0.5520946647105822	0.11416222	0.337879
0.5696216216045534	0.17329475	0.41628686
0.5871485918244737	0.21874893	0.46770602
0.6046755757804043	0.19723316	0.4441094
0.6222025738824094	0.16844027	0.41041476
0.6397295865405557	0.1328532	0.36449033
0.6572566141649129	0.13631096	0.36920315
0.6747836571655547	0.14231017	0.3772402
0.6923107159525568	0.14320736	0.37842748
0.7098377909359992	0.15190177	0.38974577
0.7273648825259653	0.14564134	0.38162985
0.7448919911325411	0.14163505	0.37634432
0.762419117165817	0.15409905	0.39255452
0.7799462610358868	0.17465359	0.41791576
0.7974734231528482	0.18228555	0.4269491
0.8150006039268024	0.18169926	0.42626196
0.8325278037678551	0.15494953	0.3936363
0.8500550230861152	0.18870263	0.43439916
0.8675822622916969	0.22432485	0.47362944
0.8851095217947171	0.21862768	0.46757638
0.9026368020052984	0.21945927	0.4684648
0.9201641033335665	0.19213876	0.43833634
0.9376914261896523	0.18471904	0.42978954
0.9552187709836915	0.22819062	0.47769302
0.9727461381258234	0.26304716	0.5128812
0.990273528026193	0.2793162	0.5285037
1.0078009410949496	0.23052952	0.4801349
1.0253283777422473	0.21348979	0.46204954
1.0428558383782454	0.24098992	0.49090725
1.0603833234131086	0.27345663	0.5229308
1.0779108332570058	0.3415885	0.5844557
1.0954383683201119	0.35147864	0.59285635
1.112965929012607	0.3979063	0.63079816
1.1304935157446763	0.4748637	0.68910354
1.1480211289265108	0.5016946	0.70830405
1.1655487689683062	1.3232758	1.1503372
1.1830764362802655	1.6572322	1.2873353
1.200604131272596	2.1317232	1.4600422
1.2181318543555117	2.4947238	1.5794694
1.235659605939232	2.4963655	1.5799891
1.253187386433982	4.254908	2.062743
1.270715196249994	6.550699	2.5594335
1.2882430357975057	12.242868	3.498981
1.3057709054867608	16.99591	4.1226096
1.3232988057280106	22.88202	4.7835155
1.3408267369315112	27.999939	5.2914968
1.358354699507526	31.84752	5.6433606
1.3758826938663256	36.146492	6.012195
1.3934107204181858	38.01423	6.165568
1.410938779573391	38.395924	6.1964445
1.4284668717422309	38.63773	6.2159257
1.4459949973350033	38.08102	6.170982
1.4635231567620117	37.644466	6.1355085
1.4810513504335687	36.862362	6.0714383
1.4985795787599925	36.553104	6.0459166
1.5161078421516088	36.3769	6.0313263
1.5336361410187505	35.670074	5.972443
1.5511644757717598	35.494286	5.957708
1.5686928468209842	36.04914	6.0040936
1.58622125457678	36.525898	6.043666
1.6037496994495108	37.78441	6.1469026
1.621278181849548	37.69281	6.139447
1.6388067021872719	38.414227	6.1979213
1.6563352608730693	37.809673	6.1489573
1.673863858317336	36.708595	6.058762
1.6913924949304753	35.972317	5.9976926
1.7089211711228998	34.795975	5.8988113
1.7264498873050296	34.115246	5.8408256
1.7439786438872935	33.10353	5.7535667
1.7615074412801288	32.190556	5.673672
1.779036279893981	31.608795	5.62217
1.796565160139305	30.896128	5.558429
1.814094082426564	30.332846	5.5075264
1.8316230471662298	29.46201	5.4278917
1.849152054768784	28.49444	5.3380184
1.8666811056447168	27.743402	5.2672005
1.8842102002045273	26.97106	5.193367
1.901739338858724	26.409231	5.1389914
1.9192685220178245	25.877207	5.0869646
1.9367977500923557	25.276634	5.0275874
1.9543270234928547	24.808035	4.9807663
1.971856342629867	24.26266	4.925714
1.9893857079139496	23.82965	4.881562
2.006915119755667	23.51578	4.849307
2.0244445785655945	22.87781	4.7830753
2.0419740847543175	22.53396	4.746995
2.0595036387324317	21.796492	4.668671
2.0770332409105414	21.00868	4.583523
2.094562891699263	20.51641	4.5295043
2.1120925915092217	20.105917	4.483962
2.129622340751053	20.015976	4.473922
2.1471521398354043	188.28532	13.72171
2.1646819891729323	444.82916	21.090973
2.182211889174303	441.0799	21.001902
2.1997418402501974	453.23834	21.289394
2.2172718428113023	433.0684	20.810295
2.234801897268317	320.88162	17.91317
2.2523320040319548	17.408176	4.172311
2.269862163512935	17.118359	4.137434
2.287392376121992	16.71498	4.0883956
2.304922642269869	16.122726	4.0153117
2.322452962367322	15.932208	3.991517
2.3399833368251164	15.664516	3.9578424
2.357513766054032	15.863965	3.9829593
2.3750442504648586	15.718464	3.9646518
2.3925747904683963	15.455336	3.9313276
2.410105386475459	15.015785	3.8750207
2.4276360388968707	14.549879	3.8144305
2.445166748143469	14.231891	3.772518
2.4626975146261025	14.0028305	3.7420356
2.4802283387556323	13.8182	3.717284
2.4977592209429305	13.518562	3.6767597
2.5152901615988825	13.195299	3.6325336
2.5328211611343865	12.860999	3.5862236
2.5503522199603523	12.693886	3.562848
2.5678833384877024	12.448971	3.5283098
2.5854145171273712	12.338725	3.5126522
2.6029457562903064	12.11898	3.4812326
2.620477056387469	12.003861	3.464659
2.6380084178298326	11.813478	3.4370742
2.655539841028383	11.484971	3.3889484
2.673071326394119	11.260046	3.3555992
2.6906028743380523	11.1326885	3.3365684
2.708134485271211	11.066295	3.3266041
2.7256661596046325	10.8945675	3.300692
2.743197897749369	10.737261	3.276776
2.760729700116486	10.672491	3.266878
2.778261567117063	10.6184225	3.2585921
2.795793499162193	10.501372	3.240582
2.8133254966629817	10.214547	3.1960206
2.830857560030551	9.887394	3.1444228
2.8483896896760337	9.642413	3.1052234
2.865921886010578	9.532505	3.0874755
2.883454149445347	9.620849	3.1017492
2.9009864803915177	9.6397915	3.1048014
2.91851887926028	9.635261	3.1040716
2.9360513464628384	9.297864	3.0492399
2.953583882410413	9.170743	3.0283234
2.9711164875142373	8.97779	2.996296
2.9886491621855606	8.814385	2.968903
3.0061819068356455	8.64619	2.9404404
3.023714721875769	8.546322	2.9234092
3.041247607717225	8.487513	2.9133337
3.0587805647713213	8.366544	2.8924978
3.0763135934493806	8.18713	2.8613162
3.0938466941627407	7.9904613	2.8267405
3.1113798673227544	7.8887806	2.8086972
3.1289131133407904	7.8967786	2.8101208
3.1464464326282315	7.862253	2.803971
3.1639798255964786	7.951249	2.8197958
3.1815132926569443	7.900136	2.810718
3.1990468342210603	7.8524723	2.8022263
3.216580450700272	7.783206	2.7898397
3.2341141425060416	7.5586157	2.7492936
3.251647910049847	7.489021	2.7366076
3.2691817537431813	7.276201	2.6974435
3.286715673997555	7.139604	2.6720037
3.3042496712244938	6.9720893	2.6404715
3.32178374583554	6.8938527	2.6256146
3.339317898242251	7.0153522	2.6486511
3.3568521288562034	6.9538927	2.6370234
3.3743864380889876	6.7774296	2.6033497
3.3919208263522127	6.617682	2.5724854
3.4094552940575023	6.5468793	2.558687
3.4269898416164972	6.6570663	2.5801291
3.444524469440858	6.6444726	2.5776875
3.4620591779422587	6.62354	2.573624
3.479593967532391	6.6462073	2.578024
3.4971288386229658	6.533909	2.5561512
3.5146637916257086	6.5809674	2.5653396
3.5321988269523628	6.5462914	2.558572
3.5497339450146903	6.487632	2.547083
3.5672691462244708	6.4091067	2.5316215
3.5848044309934988	6.2589955	2.5017984
3.60233979973359	6.3534417	2.5206034
3.619875252856575	6.3477015	2.5194645
3.6374107907743034	6.2782803	2.5056496
3.6549464138986427	6.2497044	2.4999409
3.6724821226414788	6.1880946	2.4875882
3.690017917414714	6.192849	2.4885435
3.7075537986302702	6.3192334	2.5138085
3.7250897667000857	6.4756284	2.5447257
3.7426258220361235	6.695507	2.5875678
3.7601619650503553	6.944536	2.635249
3.777698196154779	7.376727	2.7160132
3.7952345157614067	8.250154	2.872308
3.8127709242822716	9.049452	3.0082307
3.830307422129425	11.372067	3.3722496
3.847844009714936	30.213243	5.4966574
3.8653806874508954	97.84635	9.891731
3.882917455749409	97.057335	9.8517685
3.900454315022606	96.968414	9.847254
3.917991265682631	41.456833	6.4386983
3.9355283081416506	11.150373	3.3392174
3.9530654428118495	8.828012	2.9711971
3.970602670105433	7.518754	2.7420347
3.9881399904346244	6.612941	2.571564
4.005677404211669	6.523287	2.5540726
4.023214911848827	6.4542484	2.5405214
4.0407525137583855	6.3842983	2.526717
4.058290210352644	6.3844	2.526737
4.075828002043927	6.3170857	2.5133812
4.0933658892445814	6.263014	2.5026014
4.110903872366966	6.234015	2.496801
4.128441951823468	6.1598005	2.4818945
4.145980128026488	6.18409	2.486783
4.163518401388452	6.179212	2.4858022
4.181056772321807	6.177208	2.485399
4.1985952412390155	6.1702795	2.4840047
4.216133808552567	6.1683197	2.4836102
4.233672474674966	6.24478	2.4989557
4.251211240018741	6.4649625	2.542629
4.268750104996445	6.8131065	2.6101928
4.286289070020643	7.811337	2.7948768
4.303828135503928	9.547261	3.0898643
4.3213673018589125	29.885012	5.4667187
4.3389065694982305	90.971535	9.5379
4.356445938834537	166.21924	12.892604
4.3739854102805085	172.07886	13.117883
4.391524984248844	172.94379	13.150809
4.409064661152262	137.01227	11.705224
4.426604441403504	97.06597	9.852206
4.444144325415337	75.72547	8.702039
4.461684313600543	21.65027	4.652985
4.47922440637193	21.884562	4.678094
4.496764604142329	20.210873	4.4956503
4.5143049073245916	18.495184	4.300603
4.531845316331589	16.60878	4.075387
4.5493858315762195	13.956275	3.7358098
4.566926453471405	11.683315	3.4180865
4.584467182430081	9.658195	3.1077635
4.602008018865218	8.399451	2.8981807
4.619548963189798	7.6033654	2.75742
4.637090015816834	7.1055136	2.665617
4.654631177159353	6.8415875	2.6156428
4.672172447630417	6.541161	2.5575693
4.689713827643102	6.326147	2.5151832
4.7072553176105085	6.1922936	2.488432
4.724796917945764	5.9868965	2.4468136
4.742338629062015	5.8685007	2.422499
4.759880451372434	5.8188963	2.4122388
4.777422385290215	5.7398486	2.3957982
4.794964431228581	5.7249618	2.3926892
4.812506589600768	5.7088866	2.3893278
4.830048860820047	5.679368	2.3831425
4.847591245299709	5.6561604	2.3782682
4.8651337434530655	5.5987773	2.3661735
4.882676355693457	5.52145	2.3497765
4.900219082434242	5.532944	2.352221
4.917761924088813	5.586142	2.363502
4.935304881070575	5.6449766	2.375916
4.952847953792969	5.6518292	2.3773577
4.970391142669449	5.646196	2.3761725
4.9879344481135055	5.605356	2.3675632
5.005477870538642	5.521277	2.3497398
5.023021410358394	5.4387875	2.332121
5.040565067986324	5.437569	2.3318596
5.05810884383601	5.48196	2.3413584
5.075652738321066	5.4900336	2.3430822
5.09319675185512	5.4399567	2.3323715
5.110740884851836	5.3930078	2.322285
5.128285137724894	5.3630595	2.315828
5.145829510888007	5.3733225	2.3180428
5.163374004754908	5.335211	2.3098075
5.1809186197393595	5.4204574	2.3281875
5.198463356255145	5.360271	2.3152258
5.216008214716077	5.357021	2.314524
5.233553195535998	5.3641896	2.316072
5.251098299128764	5.3806586	2.3196247
5.268643525908272	5.4271965	2.3296344
5.286188876288432	5.4072385	2.325347
5.3037343506831895	5.408237	2.3255618
5.32127994950651	5.3149495	2.3054175
5.3388256731723915	5.289334	2.2998552
5.356371522094851	5.2701006	2.29567
5.373917496687938	5.208543	2.2822232
5.391463597365729	5.2705717	2.2957726
5.40900982454232	5.2615013	2.2937963
5.426556178631843	5.318664	2.306223
5.444102660048449	5.294233	2.30092
5.4616492692063225	5.2506876	2.2914379
5.479196006519669	5.233839	2.2877586
5.496742872402727	5.151052	2.269593
5.514289867269756	5.1916976	2.2785296
5.531836991535049	5.23366	2.2877195
5.549384245612924	5.2199283	2.2847161
5.566931629917724	5.260549	2.2935886
5.584479144863822	5.229045	2.2867105
5.6020267908656205	5.2075953	2.2820156
5.619574568337545	5.1857123	2.277216
5.637122477694054	5.1574087	2.270993
5.654670519349629	5.226326	2.286116
5.672218693718784	5.227548	2.2863832
5.689767001216059	5.204442	2.2813246
5.707315442256021	5.1292887	2.2647934
5.724864017253266	5.192056	2.2786083
5.7424127266224225	5.223111	2.2854128
5.75996157077814	5.2543216	2.2922306
5.777510550135105	5.2458115	2.2903736
5.795059665108022	5.2496066	2.291202
5.812608916111639	5.3266973	2.3079638
5.830158303560715	5.4628916	2.337283
5.847707827870055	5.4836836	2.3417265
5.86525748945448	5.5449276	2.354767
5.8828072887288485	5.6097994	2.3685014
5.900357226108044	5.701199	2.3877184
5.917907302006979	5.7281756	2.3933609
5.9354575168406	6.2371874	2.497436
5.9530078710238765	6.755675	2.599168
5.970558364971812	7.228757	2.6886349
5.988108999099438	7.5682197	2.7510397
6.005659773821818	8.1386795	2.852837
6.023210689554039	7.9079227	2.8121028
6.040761746711227	8.254505	2.8730655
6.058312945708531	7.690065	2.7730966
6.075864286961132	7.22543	2.688016
6.093415770884244	6.6847105	2.5854807
6.1109673978931065	6.19983	2.489946
6.128519168402993	5.650139	2.377002
6.146071082829204	5.50887	2.3470984
6.163623141587075	5.347644	2.3124974
6.181175345091969	5.3583503	2.314811
6.198727693759281	5.3482275	2.3126235
6.216280188004435	5.2971983	2.3015642
6.233832828242885	5.281733	2.298202
6.251385614890126	5.339701	2.3107793
6.268938548361669	5.3638744	2.316004
6.286491629073067	5.2782383	2.2974417
6.304044857439898	5.2303863	2.2870038
6.321598233877777	5.1307106	2.2651072
6.339151758802344	5.1170163	2.2620823
6.356705432629277	5.1317286	2.265332
6.37425925577428	5.129913	2.2649312
6.391813228653095	5.0794964	2.253774
6.409367351681486	5.0706882	2.251819
6.426921625275259	5.0667877	2.2509527
6.44447604985025	5.073388	2.2524183
6.46203062582232	5.0943217	2.2570605
6.47958535360737	5.08676	2.2553847
6.497140233621328	5.118405	2.2623892
6.514695266280161	5.1243424	2.263701
6.532250451999859	5.1329675	2.2656052
6.549805791196454	5.077544	2.2533407
6.567361284286002	5.0196543	2.2404585
6.584916931684597	4.994761	2.2348962
6.602472733808367	5.022662	2.2411296
6.6200286910734665	5.069843	2.2516313
6.637584803896092	5.0703783	2.25175
6.655141072692462	5.0672836	2.2510629
6.672697497878842	5.0516834	2.247595
6.690254079871514	5.008399	2.2379453
6.707810819086808	5.026661	2.2420216
6.725367715941078	4.967823	2.2288613
6.742924770850719	4.918348	2.2177348
6.760481984232151	4.9474936	2.224296
6.778039356501836	4.93731	2.2220058
6.795596888076266	4.978249	2.231199
6.813154579371963	4.9512897	2.2251494
6.830712430805492	4.9686403	2.2290447
6.84827044279344	5.0068564	2.2376006
6.865828615752445	5.0126476	2.2388942
6.883386950099159	5.0818276	2.254291
6.900945446250287	5.1282234	2.264558
6.918504104622553	5.1375904	2.2666254
6.936062925632727	5.1311374	2.2652013
6.953621909697607	5.1044993	2.2593138
6.971181057234028	5.067746	2.2511656
6.988740368658859	5.134544	2.2659533
7.006299844389007	5.224817	2.285786
7.023859484841407	5.3452263	2.3119745
7.041419290433036	5.4302096	2.330281
7.058979261580902	5.4479747	2.3340898
7.0765393987020495	5.662906	2.379686
7.094099702213559	6.015865	2.452726
7.111660172532549	6.438645	2.5374484
7.129220810076164	6.7624655	2.600474
7.146781615261595	7.4046574	2.72115
7.16434258850606	7.695871	2.7741432
7.181903730226821	8.1441555	2.8537967
7.1994650408411704	8.229377	2.868689
7.217026520766437	8.343961	2.8885915
7.234588170419983	8.59917	2.932434
7.252149990219215	8.584994	2.930016
7.269711980581568	8.481654	2.912328
7.2872741419245175	8.283034	2.878026
7.304836474665574	7.83654	2.7993822
7.322398979222286	7.4259796	2.725065
7.339961656012233	7.1041584	2.6653626
7.357524505453039	6.7305255	2.5943255
7.375087527962357	6.558273	2.5609126
7.392650723957886	6.291661	2.5083184
7.410214093857353	5.9736104	2.444097
7.427777638078528	5.7731595	2.40274
7.445341357039213	5.6017394	2.3667994
7.4629052511572525	5.5214586	2.3497784
7.480469320850524	5.4025416	2.3243368
7.498033566536948	5.3525405	2.3135557
7.5155979886344735	5.316277	2.3057053
7.5331625875610975	5.2729516	2.2962909
7.550727363734844	5.219131	2.2845418
7.568292317573788	5.198421	2.2800045
7.585857449496025	5.177524	2.2754173
7.603422759919705	5.202451	2.2808883
7.620988249263007	5.156328	2.270755
7.638553917944147	5.175637	2.2750025
7.656119766381391	5.21487	2.283609
7.673685794993023	5.26305	2.294134
7.691252004197388	5.2633133	2.2941911
7.70881839441285	5.3088174	2.3040872
7.726384966057826	5.383212	2.320175
7.743951719550762	5.4767437	2.3402443
7.761518655310149	5.451657	2.3348784
7.779085773754511	5.364809	2.3162057
7.796653075302419	5.3364577	2.3100774
7.814220560372475	5.3500385	2.313015
7.831788229383323	5.3882594	2.3212624
7.8493560827536495	5.426271	2.3294358
7.866924120902174	5.4319286	2.3306499
7.884492344247663	5.4121423	2.3264012
7.9020607532089135	5.4190474	2.3278847
7.919629348204771	5.4094114	2.3258142
7.937198129654115	5.4327893	2.3308344
7.954767097975865	5.422428	2.3286107
7.972336253588986	5.395101	2.3227358
7.989905596912472	5.3992085	2.3236196
8.007475128365371	5.4296155	2.3301535
8.025044848366756	5.5146375	2.3483264
8.042614757335754	5.5838885	2.3630252
8.060184855691523	5.64388	2.3756852
8.07775514385327	5.7659993	2.4012496
8.095325622240228	5.9425817	2.437741
8.112896291271687	6.0433164	2.4583158
8.130467151366968	6.163535	2.4826467
8.148038202945436	6.132562	2.476401
8.165609446426497	6.1346974	2.4768322
8.183180882229594	6.1175437	2.473367
8.200752510774217	6.040167	2.457675
8.218324332479893	6.0349965	2.456623
8.235896347766193	6.0001645	2.4495232
8.253468557052724	5.94579	2.438399
8.27104096075914	5.966308	2.4426026
8.288613559305137	6.0810256	2.4659736
8.306186353110448	6.1942954	2.4888341
8.32375934259485	6.243024	2.4986043
8.341332528178162	6.3087773	2.511728
8.358905910280246	6.3199353	2.5139482
8.376479489321003	6.357534	2.521415
8.394053265720377	6.334628	2.5168686
8.411627239898356	6.3504243	2.5200047
8.42920141227497	6.3276706	2.5154862
8.44677578327029	6.3245096	2.5148578
8.464350353304427	6.265635	2.503125
8.48192512279754	6.28104	2.5062003
8.499500092169827	6.205435	2.491071
8.51707526184153	6.1804705	2.4860551
8.534650632232934	6.175121	2.4849792
8.552226203764365	6.2398233	2.497964
8.569801976856192	6.270633	2.5041232
8.587377951928834	6.311192	2.5122087
8.60495412940274	6.3178215	2.5135276
8.622530509698416	6.3808317	2.5260308
8.6401070932364	6.452489	2.540175
8.657683880437283	6.6380725	2.5764458
8.675260871721695	6.774764	2.6028378
8.692838067510303	6.992668	2.6443653
8.710415468223834	7.1221385	2.6687336
8.727993074283043	7.166142	2.676965
8.745570886108737	7.168867	2.677474
8.763148904121765	7.2065897	2.6845093
8.78072712874302	7.3097587	2.7036564
8.798305560393441	7.65246	2.766308
8.815884199494006	7.821462	2.7966876
8.833463046465745	7.992356	2.8270755
8.851042101729728	8.061514	2.8392806
8.86862136570707	8.384125	2.8955352
8.886200838818924	8.569053	2.9272945
8.903780521486505	8.624201	2.936699
8.921360414131055	8.739443	2.956255
8.938940517173874	8.865439	2.9774888
8.956520831036297	8.930838	2.9884508
8.97410135613971	9.120472	3.020012
8.99168209290554	9.243485	3.0403101
9.009263041755265	9.508973	3.0836623
9.026844203110405	9.793406	3.1294417
9.044425577392525	10.06404	3.1723871
9.062007165023239	10.1678	3.1886988
9.079588966424197	10.399498	3.2248254
9.097170982017108	10.408631	3.226241
9.11475321222372	11.298363	3.3613038
9.132335657465825	12.139633	3.4841976
9.149918318165264	12.30688	3.5081162
9.167501194743924	12.77486	3.5741937
9.18508428762374	12.504696	3.536198
9.202667597226693	12.479916	3.5326924
9.220251123974803	12.155239	3.4864364
9.237834868290143	11.875055	3.4460201
9.255418830594836	11.681052	3.4177554
9.273003011311046	11.202524	3.3470173
9.290587410860985	10.988528	3.314895
9.308172029666911	10.418804	3.2278173
9.32575686815113	10.16764	3.1886737
9.343341926735997	9.004672	3.0007787
9.360927205843916	8.705293	2.9504733
9.378512705897327	8.555369	2.9249563
9.396098427318728	8.300379	2.8810377
9.413684370530664	8.14452	2.8538606
9.431270535955722	7.96868	2.822885
9.448856924016539	7.885873	2.8081796
9.466443535135806	7.82526	2.7973666
9.484030369736251	7.851928	2.8021293
9.501617428240658	7.875704	2.8063684
9.519204711071852	7.901129	2.8108947
9.536792218652714	7.882725	2.807619
9.55437995140617	7.8979535	2.8103297
9.571967909755191	7.849667	2.8017256
9.589556094122802	7.8751	2.8062608
9.60714450493207	8.015779	2.8312151
9.624733142606116	8.063137	2.8395662
9.642322007568108	8.139006	2.8528943
9.659911100241267	8.106864	2.8472555
9.677500421048851	8.094833	2.8451421
9.695089970414175	8.025278	2.8328922
9.712679748760609	8.014339	2.830961
9.730269756511557	8.090161	2.8443208
9.747859994090492	8.1828985	2.8605766
9.765450461920915	8.269853	2.875735
9.78304116042639	8.261046	2.8742037
9.800632090030527	8.271776	2.8760695
9.81822325115699	8.250994	2.8724544
9.835814644229481	8.320248	2.884484
9.853406269671762	8.35049	2.8897214
9.870998127907646	8.377497	2.8943906
9.888590219360985	8.3789	2.8946328
9.906182544455698	8.355156	2.8905287
9.923775103615734	8.335663	2.8871548
9.941367897265108	8.318291	2.8841448
9.958960925827878	8.334502	2.8869538
9.97655418972816	8.335207	2.887076
9.994147689390106	8.375894	2.8941135
10.011741425237934	8.401214	2.8984847
10.029335397695904	8.402882	2.8987725
10.04692960718833	8.3629875	2.8918831
10.06452405413958	8.358883	2.8911734
10.082118738974064	8.308858	2.882509
10.099713662116246	8.274436	2.8765318
10.117308823990651	8.25349	2.8728888
10.134904225021844	8.260616	2.8741288
10.152499865634445	8.25791	2.873658
10.170095746253125	8.204121	2.8642836
10.18769186730261	8.18576	2.8610766
10.205288229207675	8.20775	2.864917
10.222884832393145	8.224858	2.8679013
10.2404816772839	8.218554	2.866802
10.258078764304868	8.2631855	2.8745756
10.275676093881035	8.204876	2.8644154
10.293273666437438	8.135435	2.8522685
10.310871482399158	8.117142	2.8490598
10.32846954219134	8.162485	2.8570063
10.346067846239173	8.265269	2.8749382
10.363666394967908	8.270121	2.8757818
10.38126518880283	8.208033	2.8649664
10.398864228169298	8.16308	2.8571105
10.416463513492713	8.09253	2.8447373
10.434063045198531	8.1263685	2.8506787
10.451662823712262	8.187728	2.8614206
10.469262849459467	8.172901	2.8588285
10.486863122865758	8.139717	2.853019
10.504463644356806	8.13113	2.8515136
10.522064414358338	8.2123375	2.8657176
10.539665433296118	8.215977	2.8663526
10.557266701595987	8.132844	2.8518143
10.574868219683818	7.9313436	2.8162642
10.592469987985552	7.734242	2.7810504
10.610072006927185	7.563675	2.7502136
10.627674276934751	7.6134143	2.7592416
10.64527679843435	7.5820417	2.7535508
10.662879571852143	7.517975	2.7418926
10.680482597614331	7.3896933	2.718399
10.698085876147173	7.2901597	2.7000296
10.715689407876988	7.237895	2.6903336
10.733293193230146	7.119276	2.6681972
10.750897232633072	6.9421153	2.6347895
10.76850152651225	6.7564373	2.5993147
10.786106075294207	6.6446524	2.5777223
10.803710879405534	6.590718	2.5672393
10.821315939272877	6.538566	2.557062
10.83892125532294	6.411529	2.5320997
10.856526827982472	6.3045545	2.5108871
10.874132657678285	6.247781	2.499556
10.891738744837243	6.211507	2.4922895
10.909345089886271	6.2068076	2.4913466
10.926951693252343	6.1510673	2.4801345
10.944558555362494	6.1181664	2.4734929
10.96216567664381	6.044546	2.458566
10.979773057523436	6.0124497	2.4520297
10.997380698428573	5.900988	2.429195
11.014988599786477	5.7883296	2.4058948
11.032596762024461	5.71278	2.3901422
11.050205185569892	5.7277045	2.3932624
11.067813870850198	5.6501017	2.3769941
11.085422818292859	5.627057	2.3721418
11.10303202832541	5.5612035	2.3582203
11.120641501375454	5.5256944	2.3506796
11.138251237870636	5.4160786	2.327247
11.155861238238671	5.342105	2.3112993
11.173471502907317	5.258979	2.2932463
11.191082032304402	5.204478	2.2813325
11.208692826857805	5.0846157	2.2549093
11.226303886995465	5.0042562	2.2370195
11.243915213145371	4.9594793	2.2269888
11.261526805735578	4.961643	2.2274747
11.279138665194196	4.9402647	2.2226706
11.296750791949393	4.8515925	2.2026331
11.314363186429393	4.760639	2.1818888
11.331975849062479	4.6937385	2.1665037
11.34958878027699	4.6647406	2.159801
11.36720198050133	4.6802807	2.1633956
11.384815450163948	4.626167	2.1508527
11.402429189693366	4.5383425	2.1303387
11.420043199518153	4.4932275	2.1197236
11.437657480066942	63.479088	7.9673767
11.455272031768422	85.239235	9.23251
11.472886855051353	107.643715	10.375149
11.490501950344528	99.227325	9.961291
11.508117318076819	84.56007	9.195655
11.52573295867715	45.92693	6.776941
11.543348872574514	4.244714	2.0602703
11.560965060197946	4.191921	2.047418
11.57858152197655	4.1805763	2.0446458
11.59619825833949	4.123625	2.0306711
11.613815269715985	4.1385303	2.0343378
11.631432556535323	38.62411	6.21483
11.649050119226837	83.12073	9.117057
11.666667958219929	93.49653	9.66936
11.68428607394406	107.77657	10.38155
11.701904466828756	82.57676	9.087175
11.719523137303586	65.40202	8.087152
11.737142085798196	4.6556926	2.1577053
11.754761312742286	3.813697	1.9528689
11.772380818565619	3.7710218	1.9419119
11.790000603698015	3.7609425	1.939315
11.80762066856935	3.6988645	1.9232432
11.825241013609572	3.6716206	1.9161474
11.842861639248683	3.6381109	1.9073832
11.860482545916748	3.5664659	1.8885089
11.878103734043883	3.4827638	1.8662164
11.895725204060282	3.42898	1.8517506
11.91334695639619	3.4384837	1.8543149
11.930968991481919	3.4761665	1.8644481
11.948591309747824	3.4748054	1.8640829
11.966213911624347	3.4473512	1.8567044
11.98383679754198	3.481803	1.8659589
12.001459967931268	3.4322317	1.8526284
12.019083423222835	3.3862863	1.8401865
12.036707163847352	3.2880147	1.8132883
12.05433119023556	3.2187238	1.7940803
12.071955502818259	3.19656	1.7878926
12.089580102026313	3.1703777	1.7805555
12.107204988290643	3.1525252	1.7755352
12.12483016204224	3.1229532	1.767188
12.142455623712152	3.1009285	1.7609453
12.16008137373149	3.1014428	1.7610914
12.177707412531431	3.0817807	1.7555001
12.19533374054321	3.1161902	1.7652735
12.212960358198126	3.1086984	1.7631501
12.230587265927545	3.091101	1.7581527
12.248214464162889	3.0608282	1.7495223
12.265841953335649	3.0290396	1.7404137
12.283469733877375	3.0129688	1.7357905
12.301097806219685	3.0237706	1.7388992
12.31872617079425	3.0149822	1.7363704
12.336354828032825	3.0109625	1.7352126
12.353983778367205	2.990654	1.7293507
12.371613022229262	2.9523323	1.7182353
12.389242560050928	2.9109883	1.7061619
12.406872392264201	2.8916755	1.7004927
12.424502519301143	2.895063	1.7014885
12.442132941593874	2.9103584	1.7059773
12.459763659574586	2.893147	1.7009254
12.477394673675532	2.8892045	1.699766
12.49502598432903	2.870625	1.694292
12.51265759196746	2.8634865	1.692184
12.530289497023267	2.863978	1.6923292
12.547921699928967	2.837645	1.6845311
12.565554201117134	2.8253853	1.6808883
12.583187001020404	2.7934818	1.6713712
12.600820100071486	2.7821038	1.667964
12.618453498703152	2.7740157	1.6655376
12.636087197348235	2.7765079	1.6662856
12.65372119643964	2.7715502	1.6647973
12.671355496410326	2.8013153	1.6737131
12.68899009769333	2.8419814	1.6858177
12.706625000721749	2.9165473	1.7077901
12.724260205928752	2.9606316	1.7206486
12.741895713747551	2.9739504	1.7245145
12.759531524611454	2.9522462	1.7182102
12.777167638953818	2.9775164	1.7255481
12.794804057208072	2.9798899	1.7262357
12.812440779807702	3.0496204	1.7463162
12.830077807186271	3.2431226	1.8008672
12.847715139777405	3.3246212	1.8233544
12.865352778014795	3.539955	1.8814768
12.882990722332197	3.5987787	1.8970448
12.90062897316344	3.64301	1.9086671
12.918267530942412	3.7123604	1.9267486
12.935906396103071	3.6193078	1.9024478
12.953545569079449	3.8016627	1.9497852
12.971185050305628	3.5937738	1.8957251
12.988824840215775	3.6160202	1.9015836
13.006464939244115	3.6138635	1.9010165
13.024105347824943	3.4763215	1.8644896
13.041746066392617	3.5510292	1.8844174
13.05938709538157	3.3417506	1.8280456
13.077028435226296	3.3571944	1.8322648
13.094670086361363	3.2533135	1.8036944
13.112312049221401	3.1349862	1.7705892
13.129954324241112	3.025537	1.7394071
13.147596911855258	2.8422856	1.685908
13.165239812498685	2.8819907	1.6976427
13.182883026606293	2.8750896	1.695609
13.200526554613058	2.8416991	1.685734
13.218170396954017	2.803375	1.6743282
13.235814554064284	2.7495546	1.6581781
13.253459026379034	2.7693849	1.6641469
13.271103814333523	2.730653	1.6524688
13.288748918363058	2.740555	1.6554621
13.306394338903031	2.6955807	1.6418223
13.32404007638889	2.7115028	1.6466641
13.341686131256164	2.6876411	1.6394026
13.359332503940449	2.6830556	1.6380036
13.376979194877402	2.730357	1.6523792
13.394626204502751	2.756368	1.6602312
13.412273533252307	2.7929783	1.6712205
13.429921181561937	2.7514868	1.6587607
13.447569149867581	2.8153043	1.6778868
13.465217438605247	2.8436263	1.6863055
13.482866048211022	2.829866	1.6822206
13.500514979121052	2.7901525	1.670375
13.518164231771568	2.7125046	1.6469684
13.535813806598844	2.7426987	1.6561095
13.553463704039254	2.7480783	1.6577328
13.571113924529229	2.7682052	1.6637924
13.588764468505275	2.726005	1.6510618
13.606415336403956	2.7027543	1.6440055
13.624066528661917	2.747007	1.6574097
13.641718045715882	2.8175387	1.6785526
13.659369888002635	2.8989496	1.7026302
13.67702205595903	2.9699688	1.7233597
13.694674550021993	3.0180812	1.7372626
13.712327370628532	3.1182952	1.7658695
13.729980518215713	3.225055	1.7958438
13.747633993220681	3.2986999	1.8162323
13.765287796080647	3.3251789	1.8235073
13.7829419272329	3.3590171	1.8327621
13.800596387114801	3.3899624	1.8411851
13.818251176163775	3.3858666	1.8400725
13.835906294817324	3.381043	1.8387612
13.853561743513023	3.3809052	1.8387238
13.871217522688525	3.4009058	1.8441545
13.888873632781538	3.4333704	1.8529356
13.906530074229858	3.5167234	1.8752929
13.92418684747135	3.53534	1.88025
13.941843952943948	3.4892986	1.8679664
13.959501391085665	3.4759135	1.8643802
13.977159162334578	3.4446564	1.8559785
13.994817267128846	3.4416254	1.8551618
14.012475705906693	3.341018	1.8278452
14.030134479106424	3.2182972	1.7939613
14.047793587166414	3.176994	1.7824124
14.065453030525108	3.0932279	1.7587575
14.083112809621026	3.0210931	1.7381293
14.100772924892766	2.9306195	1.7119052
14.118433376778997	2.904833	1.704357
14.136094165718458	2.8688781	1.6937762
14.153755292149969	2.809043	1.67602
14.171416756512416	2.722313	1.6499434
14.189078559244768	2.6495254	1.6277363
14.20674070078606	2.5743005	1.6044627
14.224403181575408	2.5050561	1.582737
14.242066002051999	2.489435	1.5777943
14.259729162655093	2.4839447	1.5760535
14.277392663824022	2.4876952	1.577243
14.295056505998208	2.4777558	1.5740889
14.312720689617128	2.4548295	1.5667895
14.330385215120348	2.4472206	1.5643594
14.348050082947497	2.4147177	1.5539362
14.3657152935383	2.3975306	1.5483961
14.383380847332528	2.394772	1.5475051
14.401046744770051	2.3914049	1.5464168
14.418712986290798	2.3720977	1.5401616
14.436379572334793	2.356845	1.5352019
14.454046503342123	2.355197	1.5346651
14.471713779752946	2.3529747	1.5339409
14.489381402007504	2.3396595	1.5295945
14.507049370546113	2.3340278	1.5277525
14.524717685809168	2.3215957	1.5236783
14.542386348237134	2.3532531	1.5340316
14.560055358270553	2.380928	1.5430256
14.577724716350051	2.4359086	1.5607398
14.595394422916325	2.4510972	1.565598
14.61306447841015	2.50929	1.5840739
14.63073488327237	2.539658	1.5936304
14.648405637943917	2.5433235	1.5947801
14.6660767428658	2.5318446	1.5911771
14.683748198479094	2.5740733	1.6043919
14.701420005224954	2.6127927	1.6164136
14.719092163544628	2.6832058	1.6380494
14.73676467387942	2.7047164	1.6446022
14.754437536670727	2.7128174	1.6470633
14.772110752360014	2.690569	1.6402954
14.78978432138882	2.675691	1.6357539
14.807458244198777	2.7044096	1.644509
14.82513252123159	2.6940491	1.6413559
14.842807152929028	2.6746264	1.6354285
14.860482139732962	2.6613638	1.6313688
14.87815748208531	2.647044	1.6269739
14.8958331804281	2.6287637	1.6213462
14.91350923520342	2.606814	1.6145631
14.931185646853438	2.6911118	1.6404608
14.948862415820408	2.7257285	1.6509781
14.966539542546656	2.7395186	1.6551491
14.98421702747459	2.6870656	1.6392272
15.001894871046696	2.6995656	1.6430355
15.019573073705542	2.7153816	1.6478415
15.037251635893766	2.7097769	1.64614
15.054930558054092	2.7292955	1.652058
15.072609840629323	2.724848	1.6507114
15.090289484062351	2.870999	1.6944023
15.107969488796124	3.2444713	1.8012416
15.125649855273691	3.743076	1.9347031
15.14333058393817	4.2310047	2.0569406
15.161011675232768	5.0984845	2.2579825
15.17869312960076	6.428203	2.5353901
15.196374947485506	8.195332	2.8627489
15.214057129330447	11.2742405	3.3577137
15.231739675579114	15.850526	3.981272
15.249422586675102	20.848679	4.5660353
15.267105863062092	23.845898	4.883226
15.284789505183847	24.104397	4.9096227
15.302473513484218	21.939762	4.68399
15.320157888407127	18.427128	4.292683
15.337842630396578	14.3230505	3.7845807
15.355527739896656	11.195127	3.345912
15.37321321735153	8.715638	2.952226
15.39089906320545	6.409314	2.5316622
15.408585277902748	4.816694	2.1946967
15.42627186188783	3.748162	1.936017
15.443958815605198	3.2426054	1.8007236
15.461646139499424	2.9489765	1.7172585
15.479333834015168	2.8205588	1.679452
15.497021899597165	2.782741	1.668155
15.514710336690234	2.7583094	1.6608158
15.53239914573928	2.6786158	1.6366477
15.550088327189297	2.6241512	1.6199232
15.567777881485336	2.5562243	1.5988196
15.58546780907256	2.53372	1.5917664
15.6031581103962	2.5308015	1.5908493
15.620848785901568	2.4973779	1.5803094
15.638539836034063	2.42086	1.5559113
15.656231261239173	2.3940523	1.5472726
15.673923061962451	2.413969	1.5536953
15.691615238649552	2.4318826	1.5594494
15.709307791746202	2.4531896	1.5662662
15.727000721698221	2.420198	1.5556985
15.744694028951498	2.3922036	1.546675
15.76238771395202	2.3550532	1.5346183
15.780081777145844	2.3571177	1.5352907
15.797776218979125	2.4214962	1.5561157
15.815471039898094	2.4540327	1.5665352
15.833166240349064	2.4633949	1.5695206
15.850861820778437	2.4154444	1.55417
15.868557781632699	2.3739986	1.5407786
15.886254123358412	2.3537192	1.5341836
15.903950846402232	2.3626244	1.537083
15.921647951210897	2.377322	1.5418566
15.939345438231225	2.3645482	1.5377088
15.957043307910133	2.3467002	1.5318943
15.974741560694602	2.34295	1.5306698
15.992440197031714	2.3435667	1.5308712
16.01013921736862	2.3569458	1.5352348
16.02783862215259	2.3410304	1.5300426
16.045538411830933	2.385686	1.5445666
16.06323858685107	2.3921254	1.5466497
16.080939147660512	2.394597	1.5474485
16.09864009470684	2.39666	1.548115
16.11634142843774	2.4241116	1.5569559
16.134043149300954	2.4270093	1.5578861
16.15174525774433	2.418742	1.5552305
16.169447754215817	2.450463	1.5653955
16.18715063916342	2.478213	1.5742341
16.204853913035244	2.4888356	1.5776044
16.222557576279478	2.4866574	1.5769138
16.240261629344403	22.502674	4.743698
16.257966072678386	43.01618	6.558672
16.275670906729868	38.09499	6.172114
16.293376131947387	2.4975035	1.5803492
16.31108174877957	2.532887	1.5915046
16.328787757675133	2.5833373	1.6072763
16.34649415908287	2.6164255	1.6175369
16.364200953451657	2.664217	1.6322429
16.38190814123048	2.6763966	1.6359696
16.39961572286839	2.692607	1.6409165
16.41732369881455	2.7169533	1.6483183
16.43503206951817	2.7525446	1.6590794
16.45274083542859	2.8126466	1.6770947
16.47044999699522	2.847512	1.6874572
16.488159554667558	2.9353135	1.7132757
16.505869508895184	2.9360816	1.7134998
16.523579860127786	2.9396224	1.7145327
16.541290608815117	2.9760702	1.725129
16.559001755407035	3.0294502	1.7405316
16.57671330035348	3.1005948	1.7608505
16.59442524410448	3.141387	1.7723958
16.61213758711015	3.2189894	1.7941542
16.629850329820705	3.2877955	1.8132279
16.647563472686436	3.3673816	1.8350427
16.665277016157724	3.4116168	1.8470563
16.682990960685053	3.4495451	1.8572952
16.70070530671898	3.5273204	1.8781161
16.718420054710155	3.55581	1.8856856
16.736135205109335	3.6016612	1.8978043
16.753850758367335	3.5911741	1.8950393
16.771566714935087	3.673506	1.9166392
16.789283075263597	3.7333477	1.9321873
16.80699983980398	3.8243704	1.9555998
16.82471700900741	3.8490484	1.9618992
16.84243458332518	3.910276	1.9774418
16.860152563208665	4.0104494	2.0026107
16.87787094910932	4.0992737	2.0246663
16.89558974147871	4.1622367	2.0401561
16.913308940768466	4.237906	2.0586176
16.931028547430333	4.3092775	2.07588
16.94874856191613	4.310481	2.0761697
16.966468984677785	4.3548427	2.086826
16.98418981616729	4.4448895	2.1082907
17.00191105683676	4.5580177	2.1349514
17.019632707138374	4.5605106	2.1355352
17.03735476752442	4.5517154	2.133475
17.05507723844728	4.6084146	2.1467218
17.072800120359403	4.6708813	2.1612222
17.090523413713353	4.70282	2.1685987
17.108247118961785	4.6825743	2.1639256
17.125971236557437	4.6662283	2.1601455
17.143695766953133	4.681101	2.1635852
17.161420710601806	4.6822524	2.1638513
17.179146067956477	4.74106	2.1773975
17.19687183947025	4.76604	2.1831262
17.21459802559634	4.727621	2.1743093
17.232324626788028	4.631438	2.1520774
17.25005164349871	4.6079426	2.146612
17.267779076181863	4.6080794	2.1466439
17.285506925291074	4.601875	2.145198
17.30323519127999	4.644505	2.1551113
17.320963874602384	4.600601	2.1449013
17.33869297571211	4.61681	2.1486764
17.356422495063114	4.591262	2.142723
17.37415243310944	4.6065645	2.1462908
17.391882790305218	4.5952115	2.1436443
17.40961356710468	4.559023	2.135187
17.42734476396215	4.539471	2.1306036
17.445076381332044	4.5791817	2.1399024
17.462808419668868	4.6303663	2.1518285
17.48054087942723	4.744	2.1780725
17.498273761061835	5.0401487	2.2450275
17.51600706502747	5.549149	2.3556633
17.533740791779024	6.2969728	2.509377
17.551474941771485	7.688826	2.7728732
17.56920951545993	8.7985115	2.9662285
17.586944513299528	10.91945	3.304459
17.60467993574556	12.443452	3.5275278
17.622415783253373	13.9455805	3.734378
17.64015205627843	15.199969	3.8987138
17.657888755276293	16.249971	4.0311255
17.675625880702604	16.880804	4.1086254
17.69336343301311	16.815317	4.1006484
17.71110141266366	16.076761	4.0095835
17.728839820110178	15.202819	3.8990793
17.746578655808705	14.345862	3.7875931
17.764317920215372	12.9729185	3.6017938
17.7820576137864	11.592243	3.4047384
17.79979773697811	9.604808	3.0991623
17.81753829024692	7.735988	2.7813644
17.835279274049356	5.9553075	2.4403498
17.85302068884201	4.9048386	2.214687
17.870762535081607	4.2591114	2.0637615
17.888504813224934	3.9632344	1.9907874
17.90624752372891	3.7802484	1.9442861
17.923990667050536	3.6850681	1.9196532
17.941734243646895	3.5716918	1.889892
17.959478253975185	3.5441449	1.8825899
17.9772226984927	3.487869	1.8675838
17.994967577656833	3.4288323	1.8517107
18.01271289192506	3.3896186	1.8410918
18.030458641754965	3.4206812	1.8495084
18.04820482760425	3.4215548	1.8497446
18.06595144993067	3.366004	1.8346673
18.083698509192125	3.2845812	1.8123413
18.101446005846576	3.279859	1.8110381
18.119193940352105	3.3087904	1.8190081
18.136942313166887	3.2823803	1.8117341
18.1546911247492	3.2574751	1.8048477
18.1724403755574	3.2045224	1.790118
18.19019006604997	3.1705117	1.780593
18.207940196685467	3.1311145	1.7694955
18.225690767922575	3.1100574	1.7635355
18.243441780220046	3.1071737	1.7627177
18.261193234036764	3.135876	1.7708404
18.278945129831676	3.1600358	1.7776489
18.29669746806386	3.1336954	1.7702247
18.314450249192483	3.1017811	1.7611874
18.3322034736768	3.0667992	1.7512279
18.349957141976184	3.0417542	1.7440625
18.3677112545501	3.0184636	1.7373726
18.385465811858108	3.054269	1.7476467
18.403220814359884	3.1068594	1.7626286
18.420976262515172	3.1433256	1.7729427
18.43873215678387	3.1901202	1.7860907
18.456488497625923	3.1878266	1.7854486
18.474245285501407	3.275288	1.8097757
18.492002520870486	3.3421586	1.8281572
18.50976020419343	3.4191937	1.8491062
18.527518335930615	3.7190573	1.9284858
18.545276916542516	4.254082	2.0625427
18.563035946489688	4.378315	2.0924423
18.580795426232832	4.8701982	2.2068527
18.598555356232698	4.8083134	2.1927867
18.616315736950185	5.1166677	2.2620053
18.63407656884626	4.7528825	2.1801107
18.65183785238201	4.958988	2.2268786
18.669599588018617	4.735307	2.1760762
18.68736177621737	4.7429786	2.177838
18.705124417439652	4.7170744	2.1718826
18.72288751214696	4.524965	2.1271966
18.740651060800886	4.6114388	2.1474261
18.758415063863115	4.310253	2.076115
18.77617952179546	4.492001	2.119434
18.793944435059814	4.238003	2.058641
18.811709804118184	4.231251	2.0570004
18.829475629432675	4.2533593	2.0623674
18.8472419114655	4.0713468	2.017758
18.86500865067897	4.168033	2.0415761
18.88277584753551	3.8266482	1.956182
18.90054350249763	3.8181555	1.9540101
18.918311616027957	3.4925394	1.8688337
18.936080188589226	3.3836668	1.8394746
18.953849220644265	3.0941813	1.7590286
18.971618712656007	2.930976	1.7120093
18.9893886650875	2.869492	1.6939576
19.007159078401887	8.073031	2.841308
19.024929953062408	32.95908	5.7409997
19.042701289532435	32.904964	5.7362847
19.060473088275405	25.412678	5.041099
19.07824534975489	2.6607764	1.6311886
19.096018074434568	2.6431222	1.6257682
19.113791262778197	2.6204515	1.6187809
19.13156491524966	2.6228096	1.6195091
19.149339032312945	2.615062	1.6171154
19.167113614432136	2.6156821	1.6173071
19.184888662071433	2.5792623	1.6060082
19.202664175695123	2.5981197	1.6118684
19.220440155767623	2.600155	1.6124996
19.238216602753447	2.5852356	1.6078668
19.2559935171172	2.5294545	1.5904258
19.27377089932361	2.517516	1.5866681
19.291548749837514	2.525818	1.5892823
19.309327069123835	2.5174415	1.5866448
19.32710585764763	2.514351	1.5856705
19.344885115874032	2.534914	1.5921414
19.362664844268313	2.5557086	1.5986584
19.380445043295822	2.5500805	1.5968971
19.39822571342203	2.5051818	1.5827767
19.41600685511252	2.5105062	1.5844576
19.43378846883297	2.4976513	1.5803959
19.451570555049173	2.5223255	1.588183
19.469353114227037	2.5473378	1.5960381
19.48713614683254	2.585054	1.6078103
19.50491965333182	2.5463555	1.5957304
19.52270363419109	2.4846904	1.5762901
19.540488089876686	2.4124203	1.5531968
19.55827302085503	2.4259543	1.5575476
19.576058427592674	2.479025	1.574492
19.593844310556282	2.495017	1.5795623
19.611630670212598	2.5124812	1.5850809
19.629417507028506	2.5166223	1.5863866
19.64720482147098	2.519966	1.58744
19.6649926140071	2.522426	1.5882146
19.682780885104084	2.5123425	1.585037
19.70056963522921	2.4892642	1.5777402
19.718358864849908	2.4766257	1.5737299
19.7361485744337	2.467197	1.5707313
19.753938764448215	2.4958506	1.5798261
19.771729435361202	2.489204	1.5777211
19.789520587640506	2.5021787	1.5818276
19.807312221754092	2.5296793	1.5904965
19.825104338170043	2.572679	1.6039573
19.842896937356517	2.5755565	1.6048541
19.860690019781824	2.5499165	1.5968457
19.87848358591436	2.505389	1.5828421
19.896277636222635	2.481912	1.5754085
19.914072171175278	2.5230815	1.5884211
19.931867191241015	2.537989	1.5931066
19.94966269688869	2.5349348	1.5921478
19.967458688587264	2.502795	1.5820224
19.985255166805807	2.4796684	1.5746963
20.00305213201348	2.4414778	1.5625229
20.020849584679578	2.4427285	1.5629231
20.038647525273507	2.4381726	1.5614649
20.05644595426477	2.4445984	1.5635211
20.07424487212299	2.4306393	1.5590508
20.092044279317903	2.435666	1.560662
20.109844176319353	2.4576442	1.5676875
20.127644563597304	2.4423385	1.5627983
20.145445441621817	2.4556608	1.5670549
20.16324681086307	2.4433012	1.5631063
20.181048671791373	2.441266	1.5624552
20.198851024877122	2.4200451	1.5556494
20.216653870590836	2.3874328	1.5451319
20.234457209403146	2.4180233	1.5549995
20.252261041784802	2.4234195	1.5567336
20.270065368206662	2.4510715	1.5655898
20.287870189139685	2.424274	1.557008
20.305675505054968	2.382691	1.5435967
20.323481316423702	2.3531585	1.5340008
20.341287623717207	2.35511	1.5346367
20.359094427406884	2.3493865	1.5327709
20.376901727964288	2.3577447	1.5354949
20.39470952586107	2.3623435	1.5369917
20.41251782156899	2.389844	1.545912
20.430326615559935	2.3997009	1.5490968
20.448135908305886	2.4045525	1.5506619
20.465945700278965	2.3955514	1.5477569
20.483755991951384	2.395792	1.5478346
20.50156678379548	2.4019644	1.5498272
20.519378076283708	2.3836484	1.5439068
20.537189869888635	2.3737855	1.5407094
20.55500216508294	2.3705885	1.5396715
20.572814962339415	2.361802	1.5368155
20.59062826213098	2.3294384	1.5262498
20.60844206493066	2.310499	1.5200325
20.626256371211593	2.3350348	1.5280821
20.644071181447032	2.3518388	1.5335706
20.66188649611036	2.3477006	1.5322208
20.67970231567506	2.3534799	1.5341055
20.697518640614742	2.3577604	1.5355
20.715335471403122	2.341979	1.5303526
20.73315280851404	2.3030837	1.5175914
20.750970652421447	2.2806385	1.5101783
20.768789003599412	2.2848299	1.5115653
20.786607862522136	2.285685	1.5118482
20.8044272296639	2.2917838	1.5138639
20.82224710549913	2.2954097	1.5150609
20.84006749050237	2.2962112	1.5153254
20.857888385148268	3.8420734	1.9601208
20.8757097899116	45.973362	6.780366
20.893531705267254	64.841385	8.052415
20.911354131690224	83.881836	9.158703
20.92917706965566	69.12993	8.314441
20.94700051963877	50.147865	7.081516
20.96482448211493	29.419817	5.4240036
20.982648957559622	4.220789	2.054456
21.00047394644843	2.3553817	1.5347253
21.01829944925707	2.330737	1.5266752
21.036125466461375	2.2676525	1.5058727
21.053951998537297	2.2361467	1.4953752
21.071779045960906	2.2383022	1.4960957
21.089606609208378	2.2594128	1.5031344
21.10743468875603	2.2512996	1.5004331
21.12526328508028	2.222601	1.490839
21.143092398657675	2.2000718	1.4832639
21.16092202996488	2.1912057	1.4802722
21.17875217947867	2.215189	1.4883511
21.19658284767596	2.217267	1.4890491
21.21441403503377	2.2450688	1.4983554
21.232245742029225	2.245122	1.4983732
21.2500779691396	2.2073517	1.4857159
21.26791071684227	2.1796432	1.4763615
21.28574398561475	2.1888173	1.4794652
21.30357777593465	2.224748	1.4915589
21.321412088279704	2.2204566	1.4901197
21.339246923127792	2.2083418	1.486049
21.357082280956888	2.1813018	1.4769231
21.3749181622451	2.1613655	1.4701583
21.392754567470647	2.1594374	1.4695024
21.41059149711187	2.1679914	1.4724101
21.42842895164726	2.1437154	1.4641433
21.446266931555378	2.1561308	1.4683769
21.464105437314945	2.1415043	1.463388
21.481944469404798	2.1116104	1.4531381
21.49978402830388	2.0819058	1.4428811
21.51762411449127	2.1019228	1.449801
21.53546472844617	2.1519914	1.4669667
21.553305870647876	2.1628063	1.4706483
21.571147541575865	2.1453922	1.4647157
21.58898974170967	2.1446245	1.4644537
21.60683247152899	2.1336176	1.4606909
21.62467573151363	2.132164	1.4601932
21.642519522143523	2.1077724	1.4518169
21.660363843898722	2.0720673	1.4394677
21.6782086972594	2.0770578	1.4412001
21.696054082705864	2.063506	1.4364908
21.713900000718535	2.0532255	1.432908
21.73174645177795	2.0427508	1.4292483
21.749593436364794	2.0857127	1.4441997
21.767440954959845	2.0661552	1.4374126
21.785289008044032	2.059246	1.4350073
21.803137596098388	2.0398908	1.4282475
21.820986719604086	2.058885	1.4348816
21.838836379042412	2.04148	1.4288037
21.85668657489478	2.0511246	1.4321748
21.87453730764273	2.0714052	1.4392377
21.892388577767914	2.0641081	1.4367005
21.91024038575213	2.0574381	1.4343773
21.928092732077285	2.0176227	1.4204304
21.945945617225426	1.9955162	1.4126275
21.963799041678694	2.0052214	1.4160584
21.981653005919398	31.342165	5.5984073
21.999507510429943	78.12021	8.838564
22.01736255569286	73.06882	8.54803
22.035218142190818	4.178576	2.0441566
22.05307427040661	2.04592	1.4303566
22.07093094082315	2.0547435	1.4334377
22.088788153923474	2.0332656	1.4259262
22.106645910190746	1.9998128	1.4141474
22.12450421010827	1.9819362	1.4078126
22.142363054159464	1.9536245	1.3977212
22.16022244282787	1.9127653	1.3830276
22.178082376597164	1.9054786	1.3803908
22.195942855951145	1.9537253	1.3977573
22.213803881373742	2.0430055	1.4293374
22.231665453349002	2.0753124	1.4405944
22.24952757236111	2.055559	1.433722
22.26739023889438	2.0221567	1.4220256
22.28525345343323	1.9934609	1.4118998
22.30311721646225	1.9990999	1.4138952
22.320981528466113	1.9936163	1.4119548
22.33884638992964	1.9864846	1.409427
22.356711801337788	1.9775889	1.4062678
22.37457776317561	1.9780151	1.4064193
22.392444275928337	1.9713289	1.4040402
22.410311340081282	1.9770738	1.4060845
22.428178956119904	1.9763647	1.4058324
22.446047124529805	1.9516561	1.3970169
22.46391584579669	1.914432	1.38363
22.481785120406414	1.9152273	1.3839173
22.49965494884496	1.927434	1.3883206
22.51752533159841	1.9604862	1.4001737
22.53539626915302	1.9790423	1.4067844
22.553267761995137	1.9715942	1.4041346
22.571139810611264	1.9828429	1.4081346
22.589012415488025	1.9759299	1.4056777
22.60688557711216	1.9615098	1.4005392
22.624759295970566	1.9346616	1.3909211
22.642633572550263	1.9517113	1.3970367
22.660508407338362	1.93437	1.3908163
22.67838380082217	1.9139179	1.3834442
22.696259753489077	1.922941	1.3867015
22.714136265826614	1.9405575	1.393039
22.73201333832246	1.9400905	1.3928714
22.74989097146439	1.9152722	1.3839337
22.76776916574035	1.9370266	1.3917711
22.785647921638393	1.9063381	1.380702
22.803527239646712	1.9181069	1.3849573
22.82140712025363	1.938703	1.3923731
22.839287563947593	1.9353725	1.3911767
22.85716857121719	1.9021285	1.3791767
22.875050142551135	1.8720887	1.3682429
22.892932278438277	1.8730758	1.3686036
22.910814979367604	1.8848808	1.3729095
22.928698245828222	1.9255439	1.3876396
22.946582078309387	1.9405665	1.3930422
22.96446647730047	1.9454567	1.3947963
22.98235144329098	1.9494398	1.3962234
23.000236976770562	1.9389211	1.3924515
23.018123078229	1.9120926	1.3827844
23.03600974815619	1.8875239	1.3738718
23.053896987042194	1.8884327	1.3742026
23.071784795377173	1.8931801	1.3759289
23.08967317365145	1.8979876	1.3776747
23.10756212235546	1.9082597	1.3813977
23.125451641979787	1.9157473	1.3841052
23.143341733015134	1.9235905	1.3869357
23.161232395952357	1.9464437	1.3951501
23.179123631282426	1.9928882	1.4116969
23.197015439496468	1.9775335	1.406248
23.214907821085717	1.9490557	1.3960859
23.23280077654157	1.950224	1.3965042
23.250694306355538	1.9792281	1.4068505
23.268588411019277	2.0283222	1.4241918
23.28648309102458	2.0263414	1.4234962
23.304378346863356	1.9704803	1.403738
23.322274179027676	1.9468273	1.3952875
23.340170588009723	1.9482173	1.3957856
23.358067574301852	1.9732144	1.4047115
23.37596513839651	1.9352428	1.3911301
23.39386328078629	1.9473262	1.3954663
23.411762001963947	1.9267172	1.3880624
23.429661302422353	1.9204859	1.385816
23.4475611826545	1.9595689	1.399846
23.46546164315356	2.0003572	1.4143398
23.48336268441279	1.9992249	1.4139395
23.501264306925638	1.9706448	1.4037966
23.51916651118564	1.9692807	1.4033107
23.537069297686497	1.9669998	1.4024976
23.554972666922037	1.9545523	1.398053
23.57287661938623	1.9248317	1.3873831
23.59078115557318	1.9066814	1.3808264
23.608686275977128	1.9576718	1.3991683
23.62659198109246	1.937931	1.3920959
23.6444982714137	1.9207139	1.3858982
23.66240514743549	1.9266924	1.3880534
23.68031260965263	1.9415116	1.3933814
23.698220658560068	1.911322	1.3825057
23.716129294652845	1.8819633	1.3718467
23.7340385184262	1.91225	1.3828413
23.75194833037546	1.9264224	1.3879561
23.769858730996123	1.9571239	1.3989724
23.78776972078382	1.9290302	1.3888953
23.80568130023431	1.921598	1.3862171
23.823593469843495	1.9063991	1.3807242
23.841506230107424	1.8900617	1.3747952
23.859419581522275	1.8994038	1.3781886
23.87733352458438	1.9364002	1.391546
23.89524805979019	1.97975	1.407036
23.913163187636318	1.992624	1.4116033
23.931078908619508	2.0234578	1.422483
23.948995223236633	2.039264	1.428028
23.966912131984735	2.053327	1.4329435
23.98482963536096	2.0687551	1.4383168
24.002747733862616	2.0439756	1.4296768
24.020666427987155	2.074499	1.440312
24.038585718232156	2.1189256	1.455653
24.056505605095353	2.1421118	1.4635955
24.074426089074617	2.095853	1.4477061
24.092347170667946	2.0310338	1.4251434
24.110268850373515	2.0181577	1.4206188
24.128191128689586	2.0660346	1.4373707
24.146114006114626	2.0874817	1.444812
24.164037483147187	2.108983	1.4522338
24.181961560286005	2.0792005	1.4419433
24.199886238029926	2.0581696	1.4346322
24.21781151687797	2.0405707	1.4284855
24.235737397329274	2.1120923	1.4533039
24.253663879883135	2.1129928	1.4536136
24.271590965038975	2.0831091	1.443298
24.289518653296376	2.03738	1.4273682
24.30744694515505	2.057453	1.4343824
24.32537584111486	2.0738711	1.4400941
24.34330534167581	2.069042	1.4384165
24.361235447338046	2.0333333	1.4259499
24.379166158601876	2.0437794	1.4296081
24.39709747596772	2.0719736	1.4394351
24.41502939993615	2.0803766	1.4423511
24.432961931007917	2.0528536	1.4327782
24.450895069683856	2.0330784	1.4258606
24.468828816465	2.0186908	1.4208064
24.4867631718525	1.9550772	1.3982407
24.504698136347656	1.9509637	1.396769
24.52263371045192	1.9212881	1.3861054
24.540569894666874	1.9526161	1.3973604
24.558506689494266	1.9621062	1.4007521
24.57644409543597	1.9845157	1.4087284
24.594382112994012	1.9652824	1.4018853
24.61232074267057	1.9736739	1.404875
24.630259984967953	1.9497617	1.3963387
24.64819984038863	1.9541866	1.3979223
24.66614030943522	1.9437436	1.3941821
24.684081392610462	1.9190978	1.3853151
24.702023090417274	1.9257101	1.3876996
24.7199654033587	1.9855099	1.4090812
24.737908331937927	2.008805	1.4173232
24.755851876658305	2.0308206	1.4250686
24.773796038023324	2.0972416	1.4481857
24.79174081653661	2.114902	1.4542702
24.809686212701962	2.1290326	1.4591205
24.827632227023294	2.094685	1.4473027
24.8455788600047	2.120518	1.4561999
24.8635261121504	2.1846685	1.4780624
24.88147398396475	2.1716282	1.4736445
24.899422475952303	2.1165187	1.454826
24.917371588617698	2.0866752	1.4445329
24.935321322465768	2.138804	1.462465
24.953271678001478	2.2446876	1.4982282
24.97122265572994	2.4351478	1.560496
24.989174256156414	2.7398574	1.6552515
25.00712647978632	3.1966372	1.7879142
25.02507932712521	3.7353923	1.9327163
25.043032798678798	4.2297597	2.056638
25.060986894952933	4.820092	2.1954708
25.078941616453637	5.5447793	2.3547356
25.096896963687055	6.431214	2.5359838
25.114852937159508	7.5214376	2.742524
25.132809537377444	8.031484	2.8339872
25.150766764847468	8.187386	2.8613608
25.168724620076347	7.703916	2.7755928
25.186683103570985	6.699295	2.5882998
25.204642215838426	5.602398	2.3669386
25.222601957385894	4.28681	2.0704613
25.24056232872074	3.2856522	1.8126369
25.25852333035048	2.638591	1.624374
25.276484962782778	2.2628565	1.5042794
25.294447226525435	2.0650218	1.4370184
25.312410122086423	2.0114775	1.4182657
25.330373649973843	1.9883289	1.4100811
25.348337810695988	1.9643269	1.4015445
25.366302604761245	1.9254179	1.3875943
25.384268032678207	1.8830562	1.372245
25.40223409495558	1.8933573	1.3759933
25.420200792102257	1.8462658	1.3587736
25.438168124627246	1.860968	1.364173
25.45613609303974	1.8889351	1.3743854
25.474104697849057	1.9392624	1.3925741
25.492073939564698	1.948515	1.3958923
25.510043818696285	1.9371088	1.3918005
25.528014335753614	1.9009032	1.3787324
25.54598549124664	1.888931	1.3743839
25.56395728568544	1.8983104	1.3777919
25.58192971958028	1.9274452	1.3883246
25.59990279344156	1.9422756	1.3936555
25.617876507779833	1.8976699	1.3775594
25.635850863105826	1.8458797	1.3586315
25.653825859930386	1.8773737	1.3701729
25.671801498764548	1.8903487	1.3748995
25.68977778011949	1.8974673	1.3774859
25.707754704506524	1.886979	1.3736736
25.725732272437153	1.891935	1.3754762
25.743710484423012	1.9123054	1.3828613
25.761689340975888	1.8900944	1.374807
25.77966884260774	1.9141228	1.3835182
25.797648989830662	1.9242018	1.387156
25.815629783156922	1.9168355	1.3844984
25.83361122309895	1.8775897	1.3702517
25.85159331016929	1.8600425	1.3638338
25.869576044880695	1.857958	1.3630693
25.887559427746034	1.8712785	1.3679469
25.90554345927836	1.8590673	1.3634762
25.92352813999086	1.8646313	1.365515
25.94151347039689	1.8355939	1.3548409
25.959499451009965	1.809439	1.3451539
25.97748608234374	1.8022623	1.3424836
25.995473364912062	1.7992003	1.3413427
26.013461299228904	1.795746	1.3400545
26.03144988580839	1.7986761	1.3411473
26.04943912516483	1.8248153	1.3508573
26.067429017812675	1.8522942	1.3609902
26.085419564266537	1.8732177	1.3686554
26.103410765041186	1.8384522	1.3558954
26.12140262065155	1.8134642	1.3466493
26.139395131612723	1.8271852	1.3517342
26.157388298439948	1.8463994	1.3588228
26.17538212164861	1.8321488	1.3535689
26.193376601754295	1.8452245	1.3583905
26.211371739272714	1.8226279	1.3500473
26.229367534719746	1.8294054	1.3525552
26.247363988611433	1.8109907	1.3457305
26.26536110146397	1.7858672	1.3363634
26.283358873793727	1.7854606	1.3362113
26.301357306117204	1.8629391	1.3648952
26.319356398951104	1.9030086	1.3794957
26.33735615281224	1.912344	1.3828752
26.35535656821762	1.8708313	1.3677833
26.373357645684404	1.8799309	1.3711057
26.39135938572991	1.8601037	1.3638562
26.409361788871614	1.8757105	1.3695658
26.427364855627165	1.816252	1.3476839
26.445368586514352	1.813337	1.346602
26.46337298205115	1.8090694	1.3450165
26.48137804275568	1.8071516	1.3443034
26.499383769146217	1.7748325	1.3322284
26.517390161741215	1.7807987	1.3344657
26.53539722105928	1.7848341	1.3359768
26.553404947619182	1.7981433	1.3409487
26.571413341939856	1.8169658	1.3479488
26.589422404540397	1.8239194	1.3505256
26.60743213594006	1.8412666	1.3569328
26.62544253665827	1.8117425	1.3460099
26.64345360721459	1.8204172	1.3492284
26.66146534812879	1.8330132	1.3538882
26.679477759920758	1.8298584	1.3527226
26.69749084311057	1.7986275	1.3411292
26.71550459821847	1.774928	1.3322642
26.733519025764842	1.8128601	1.3464249
26.751534126270258	1.8318906	1.3534735
26.769549900255434	1.8441887	1.3580091
26.787566348241267	1.8379042	1.3556932
26.80558347074881	1.8017062	1.3422765
26.823601268299267	1.7662624	1.3290081
26.841619741414036	1.7834951	1.3354756
26.85963889061465	1.7917441	1.3385605
26.877658716422832	1.7869929	1.3367845
26.89567921936045	1.7871878	1.3368574
26.913700399949544	1.8037401	1.3430339
26.93172225871233	1.8211638	1.3495051
26.949744796171174	1.8603767	1.3639563
26.967768012848605	1.8492278	1.3598632
26.98579190926733	1.8463738	1.3588134
27.003816485950225	1.826705	1.3515565
27.021841743420318	1.8165256	1.3477855
27.039867682200814	1.785749	1.3363192
27.057894302815072	1.7902915	1.3380178
27.07592160578664	1.7780911	1.3334508
27.0939495916392	1.7989343	1.3412436
27.111978260896635	1.8127217	1.3463736
27.13000761408296	1.8347737	1.3545382
27.148037651722397	1.8381834	1.3557962
27.166068374339304	1.8059009	1.3438381
27.184099782458215	1.790485	1.3380901
27.20213187660384	1.8124967	1.34629
27.22016465730105	1.7965136	1.3403409
27.23819812507487	1.7719829	1.3311585
27.256232280450533	1.7559758	1.3251324
27.274267123953383	1.7824123	1.3350701
27.292302656108987	1.7879225	1.3371322
27.31033887744306	1.8630006	1.3649178
27.32837578848146	1.8814532	1.3716607
27.34641338975026	1.8576368	1.3629515
27.364451681775673	1.7840955	1.3357004
27.382490665084074	1.7735627	1.3317517
27.400530340202046	1.8241986	1.350629
27.41857070765629	1.8190842	1.3487343
27.436611767973726	1.7871108	1.3368286
27.454653521681404	1.7501408	1.3229289
27.472695969306564	1.7600893	1.3266835
27.490739111376627	1.7745734	1.3321311
27.508782948419153	1.8006033	1.3418655
27.526827480961902	1.7976967	1.3407822
27.54487270953279	1.7933702	1.3391677
27.562918634659898	1.783186	1.3353598
27.580965256871508	1.787012	1.3367916
27.599012576696026	1.818857	1.3486501
27.617060594662068	1.8696209	1.3673408
27.63510931129842	1.8359821	1.3549842
27.65315872713401	1.8343209	1.3543711
27.67120884269797	1.8628922	1.364878
27.68925965851958	1.8509433	1.3604938
27.707311175128307	1.8677858	1.3666697
27.725363393053787	1.9234335	1.3868791
27.74341631282583	1.9352802	1.3911434
27.7614699349744	1.9118452	1.382695
27.77952426002968	2.1021261	1.4498711
27.797579288521973	2.1056266	1.4510777
27.815635020981784	2.556626	1.5989453
27.83369145793979	2.6871014	1.639238
27.85174859992682	2.5589063	1.5996581
27.869806447473923	2.4161615	1.5544007
27.887865001112267	2.0492587	1.4315232
27.905924261373233	1.9351463	1.3910954
27.92398422878836	1.8991027	1.3780793
27.94204490388936	1.8362254	1.3550739
27.96010628720813	1.7911106	1.3383238
27.978168379276728	1.8195367	1.348902
27.9962311806274	1.8382721	1.3558289
28.014294691792568	1.8266121	1.3515221
28.0323589133048	1.8382821	1.3558326
28.050423845696887	1.8764018	1.3698182
28.068489489501758	1.8553641	1.3621175
28.086555845252523	1.8787379	1.3706706
28.104622913482487	1.9093468	1.3817911
28.122690694725115	1.8627486	1.3648255
28.14075918951405	1.8417152	1.3570981
28.15882839838312	1.8719379	1.3681878
28.176898321866304	1.9898543	1.410622
28.1949689604978	1.9988893	1.4138209
28.213040314811945	1.9824742	1.4080036
28.23111238534327	2.0147562	1.4194211
28.249185172626493	2.0054805	1.4161499
28.267258677196473	1.9757047	1.4055976
28.285332899588294	1.94151	1.3933808
28.303407840337172	1.9534544	1.3976604
28.321483499978545	1.9491938	1.3961353
28.33955987904799	1.9164324	1.3843527
28.357636978081285	1.8980271	1.377689
28.37571479761439	1.9666828	1.4023846
28.393793338183425	2.0303392	1.4248997
28.41187260032469	1.9729319	1.4046109
28.429952584574686	1.9393985	1.392623
28.448033291470065	1.9581481	1.3993385
28.46611472154769	1.9831442	1.4082415
28.484196875344566	1.9606832	1.400244
28.502279753397914	2.002853	1.4152218
28.52036335624511	1.97335	1.4047598
28.538447684423716	1.9480531	1.3957267
28.556532738471482	1.953562	1.3976989
28.574618518926325	1.9810014	1.4074805
28.59270502632635	1.990547	1.4108675
28.61079226120985	2.0033603	1.4154011
28.628880224115274	2.0624108	1.4361097
28.646968915581287	2.082548	1.4431036
28.66505833614671	2.061697	1.4358611
28.68314848635055	2.0084755	1.417207
28.701239366732004	2.0425715	1.4291856
28.71933097783044	2.0940957	1.4470991
28.737423320185403	2.1660204	1.4717406
28.75551639433665	2.2340906	1.4946874
28.773610200824074	2.2278614	1.4926022
28.791704740187793	2.191869	1.4804962
28.80980001296809	2.1650631	1.4714154
28.827896019705413	2.1512933	1.4667288
28.845992760940433	2.1738315	1.4743919
28.86409023721397	2.1942112	1.481287
28.88218844906704	2.2074106	1.4857357
28.900287397040845	2.2606626	1.5035499
28.918387081676755	2.3251529	1.5248452
28.936487503516343	2.2595758	1.5031886
28.954588663101365	2.20867	1.4861594
28.97269056097374	2.2406883	1.4968929
28.990793197675597	2.3270073	1.5254531
29.00889657374923	2.3684506	1.5389771
29.027000689737125	2.3956387	1.547785
29.04510554618196	2.440797	1.5623051
29.06321114362659	2.4741888	1.5729555
29.08131748261405	2.49116	1.5783409
29.099424563687567	2.5129507	1.5852289
29.11753238739057	2.5269842	1.5896491
29.13564095426663	2.5324957	1.5913817
29.15375026485954	2.5200074	1.5874531
29.171860319713275	2.568969	1.6028004
29.18997111937199	2.6278238	1.6210564
29.20808266438002	2.6895967	1.639999
29.226194955281898	2.7046688	1.6445878
29.244307992622335	2.7513485	1.658719
29.26242177694624	2.7936676	1.6714268
29.2805363087987	2.7843792	1.668646
29.29865158872498	2.7968848	1.6723889
29.316767617270557	2.8803537	1.6971605
29.334884394981064	2.8994877	1.7027882
29.353001922402367	3.006084	1.7338063
29.37112020008047	3.07081	1.7523727
29.389239228561596	3.1767888	1.7823548
29.407359008392152	3.4376712	1.8540958
29.42547954011872	3.7131453	1.9269524
29.44360082428809	4.3002234	2.073698
29.46172286144722	5.320587	2.30664
29.479845652143283	6.9859886	2.6431022
29.497969196923606	8.932934	2.9888015
29.516093496335728	11.129192	3.3360443
29.5342185509274	13.570386	3.6838005
29.55234436124651	15.779466	3.9723375
29.570470927841175	17.21604	4.1492214
29.588598251259686	17.14804	4.1410193
29.60672633205055	15.857894	3.982197
29.624855170762405	13.742477	3.7070847
29.642984767944146	11.289406	3.359971
29.66111512414481	8.714538	2.9520395
29.67924623991366	6.568968	2.5629997
29.697378115800138	5.041074	2.2452335
29.71551075235387	4.1648517	2.0407968
29.733644150124675	3.753513	1.9373986
29.751778309662576	3.553348	1.8850327
29.769913231517766	3.5019581	1.871352
29.78804891624066	3.4387038	1.8543742
29.806185364381818	3.33133	1.8251932
29.82432257649206	3.3461146	1.8292388
29.842460553122333	3.4027898	1.8446653
29.86059929482382	3.3644657	1.834248
29.878738802147872	3.3119044	1.8198638
29.896879075646048	3.2469115	1.8019189
29.915020115870114	3.2106097	1.7918174
29.933161923371976	3.1996417	1.7887542
29.951304498703777	3.2139904	1.7927606
29.969447842417857	3.2453437	1.8014838
29.987591955066733	3.253523	1.8037525
30.005736837203123	3.2272248	1.7964479
30.023882489379943	3.260952	1.8058106
30.04202891215028	3.2463913	1.8017745
30.060176106067455	3.1561413	1.7765532
30.078324071684946	3.1465673	1.7738566
30.09647280955646	3.2218614	1.7949544
30.114622320235863	3.188175	1.7855462
30.132772604277257	3.0979748	1.7601064
30.1509236622349	3.0696292	1.7520357
30.16907549466328	3.1208017	1.7665792
30.18722810211705	3.1332986	1.7701126
30.205381485151097	3.1040885	1.7618424
30.22353564432045	3.0291626	1.740449
30.241690580180403	2.9899855	1.7291574
30.25984629328638	2.9997	1.7319642
30.278002784194037	3.0019627	1.7326173
30.296160053459246	2.9756348	1.7250029
30.314318101638033	2.9809027	1.7265291
30.332476929286646	2.979811	1.7262129
30.35063653696153	2.890808	1.7002376
30.368796925219307	2.9035757	1.7039882
30.386958094616844	2.9428568	1.7154757
30.40512004571115	3.0133193	1.7358915
30.423282779059463	3.044001	1.7447066
30.441446295219233	2.9715679	1.7238237
30.459610594748067	2.9088628	1.7055389
30.47777567820382	2.916188	1.707685
30.495941546144504	2.9424713	1.7153633
30.51410819912835	2.8925936	1.7007626
30.532275637713795	2.8690867	1.6938379
30.55044386245946	2.8106804	1.6765084
30.56861287392416	2.773774	1.6654651
30.586782672666956	2.807869	1.6756697
30.604953259247047	2.7563784	1.6602345
30.623124634223885	2.7437012	1.6564121
30.641296798157075	2.7486284	1.6578988
30.659469751606462	2.7788033	1.6669743
30.677643495132074	2.7661462	1.6631736
30.695818029294152	2.7919571	1.670915
30.713993354653116	2.7382817	1.6547754
30.73216947176962	2.7170913	1.6483601
30.75034638120448	2.7416077	1.6557801
30.768524083518756	2.7436757	1.6564045
30.786702579273673	2.7697473	1.6642557
30.80488186903069	2.8915877	1.7004669
30.82306195335144	3.06271	1.75006
30.841242832797782	3.2530673	1.8036262
30.85942450793176	3.455517	1.8589021
30.877606979315637	3.7169037	1.9279273
30.895790247511883	4.011418	2.0028524
30.913974313083134	4.4193087	2.1022153
30.932159176592283	4.734179	2.1758168
30.95034483860237	4.731873	2.1752868
30.968531299676698	4.4466023	2.108697
30.98671856037873	4.1949677	2.048162
31.00490662127215	3.922399	1.9805048
31.023095482920848	3.5175512	1.8755136
31.04128514588892	3.0959344	1.7595267
31.059475610740662	2.7495208	1.6581678
31.07766687804056	2.5472946	1.5960246
31.09585894835335	2.4374835	1.5612442
31.11405182224393	2.487528	1.5771899
31.132245500277417	2.4897847	1.5779052
31.15043998301914	2.4067442	1.5513685
31.168635271034628	2.433012	1.5598115
31.18683136488964	2.4267035	1.557788
31.20502826515008	2.439332	1.5618361
31.223225972382135	2.512193	1.5849899
31.241424487152155	2.4980485	1.5805216
31.259623810026692	2.4937558	1.579163
31.27782394157253	2.5174463	1.5866462
31.296024882356644	2.4486628	1.5648204
31.314226632946237	2.3787487	1.5423193
31.332429193908684	2.4008741	1.5494754
31.350632565811598	2.4168155	1.5546111
31.368836749222787	2.416627	1.5545504
31.387041744710295	2.3512256	1.5333706
31.40524755284232	2.4204445	1.5557778
31.423454174187317	2.4539232	1.5665003
31.441661609313922	2.4856079	1.5765811
31.459869858791002	2.481598	1.5753088
31.478078923187628	2.3863044	1.5447668
31.496288803073064	2.298501	1.5160809
31.514499499016807	2.2603602	1.5034494
31.532711011588546	2.2564054	1.5021336
31.550923341358178	2.2848647	1.5115769
31.56913648889584	2.270097	1.5066841
31.587350454771844	2.30666	1.5187693
31.605565239556732	2.3919544	1.5465945
31.62378084382127	2.4160852	1.5543761
31.641997268136382	2.386643	1.5448763
31.660214513073274	2.3530278	1.5339582
31.67843257920331	2.318284	1.5225912
31.6966514670981	2.305752	1.5184703
31.71487117732944	2.3022823	1.5173273
31.733091710469346	2.267849	1.5059379
31.751313067090052	2.2096524	1.48649
31.769535247764008	2.264422	1.5047996
31.787758253063878	2.3565133	1.5350939
31.805982083562526	2.347636	1.5321997
31.824206739833024	2.2674706	1.5058123
31.84243222244869	2.2455227	1.4985068
31.860658531983013	2.282906	1.5109289
31.878885669009737	2.3220398	1.5238241
31.897113634102784	2.3090606	1.5195594
31.91534242783632	2.2794166	1.5097737
31.933572050784694	2.2560756	1.5020238
31.951802503522508	2.2608397	1.503609
31.970033786624548	2.28358	1.5111519
31.988265900665834	2.2483826	1.4994608
32.006498846221575	2.207481	1.4857594
32.02473262386724	2.2187731	1.4895546
32.04296723417845	2.2006884	1.4834718
32.0612026777311	2.183096	1.4775304
32.07943895510129	2.2111912	1.4870075
32.097676066865304	2.1963017	1.4819925
32.115914013599685	2.140499	1.4630445
32.13415279588115	2.0795043	1.4420487
32.152392414286666	2.1163368	1.4547635
32.1706328693934	2.1374297	1.4619951
32.18887416177875	2.1675243	1.4722514
32.20711629202032	2.185811	1.4784489
32.225359260695924	2.16969	1.4729867
32.243603068383614	2.1168456	1.4549383
32.26184771566166	2.1284077	1.4589063
32.28009320310852	2.1549973	1.4679909
32.2983395313029	2.1331062	1.4605157
32.31658670082372	2.1410747	1.4632411
32.33483471225012	2.136702	1.4617462
32.35308356616143	2.1749737	1.4747792
32.371333263137245	2.1737752	1.4743729
32.38958380375734	2.21588	1.4885832
32.407835188601744	2.139188	1.4625963
32.42608741825067	2.0707667	1.4390159
32.444340493284585	2.0631027	1.4363505
32.46259441428416	2.159982	1.4696877
32.48084918183028	2.2221909	1.4907014
32.49910479650405	2.1445246	1.4644195
32.51736125888683	2.0883746	1.4451209
32.53561856956014	2.0499918	1.4317793
32.5538767291058	1.9143581	1.3836033
32.572135738105764	1.8507475	1.3604218
32.59039559714228	1.8917315	1.3754023
32.608656306797776	1.9158751	1.3841513
32.62691786765491	1.9048674	1.3801694
32.645180280296586	1.9115152	1.3825756
32.663443545305896	2.0379534	1.427569
32.68170766326619	2.1737626	1.4743686
32.69997263476099	2.1454632	1.46474
32.7182384603741	2.0424109	1.4291294
32.7365051406895	1.950045	1.3964401
32.75477267629144	1.9891622	1.4103767
32.77304106776434	2.1046205	1.450731
32.79131031569289	2.0691793	1.4384642
32.809580420661966	1.9347652	1.3909584
32.827851383256714	1.8817499	1.3717688
32.84612320406245	1.8894067	1.3745569
32.86439588366476	1.9355578	1.3912432
32.88266942264945	2.022291	1.4220728
32.9009438216025	1.9978012	1.4134359
32.9192190811102	1.9743334	1.4051098
32.937495201758985	2.0356596	1.4267654
32.95577218413556	2.0901387	1.4457312
32.974050028826866	2.0699801	1.4387425
32.992328736420035	1.9989568	1.4138447
33.010608307502444	1.9576257	1.3991518
33.02888874266169	2.0473745	1.4308649
33.047170042485604	2.058118	1.4346143
33.06545220756225	1.9482193	1.3957863
33.083735238479896	1.9416311	1.3934243
33.10201913582707	1.9849902	1.4088968
33.12030390019248	1.9693719	1.4033431
33.138589532165135	1.9568188	1.3988634
33.15687603233419	1.9791481	1.406822
33.17516340128909	1.9927448	1.4116461
33.19345163961947	1.9911236	1.4110718
33.211740747915215	2.0198746	1.4212229
33.23003072676643	1.9286541	1.3887599
33.248321576763466	1.8610051	1.3641866
33.266613298496885	1.7772155	1.3331225
33.28490589255747	1.7922357	1.338744
33.30319935953626	1.8751603	1.369365
33.32149370002451	1.9237595	1.3869965
33.339788914613706	1.9660189	1.402148
33.358085003895575	1.9248829	1.3874015
33.376381968462034	1.9240105	1.3870871
33.39467980890529	2.0041919	1.4156948
33.41297852581774	2.0467181	1.4306356
33.43127811979204	1.912487	1.382927
33.44957859142105	1.8687148	1.3670094
33.467879941297866	1.9182565	1.3850114
33.486182170015844	1.9612308	1.4004395
33.50448527816853	1.871191	1.3679148
33.522789266349754	1.90718	1.3810068
33.541094135153514	1.9673122	1.4026091
33.55939988517411	1.981287	1.4075819
33.57770651700602	2.0017035	1.4148157
33.59601403124398	1.9105768	1.3822361
33.61432242848296	1.9346489	1.3909166
33.632631709318154	1.9070579	1.3809626
33.650941874344994	1.8258749	1.3512493
33.66925292415916	1.812532	1.3463031
33.68756485935654	1.9049083	1.3801842
33.70587768053328	1.9807662	1.4073969
33.724191388285746	2.0147474	1.419418
33.74250598321054	1.9985789	1.4137111
33.760821465904506	1.9570129	1.3989328
33.77913783696474	1.8543031	1.361728
33.79745509698852	1.8343819	1.3543936
33.815773246573414	1.9060954	1.3806142
33.8340922863172	1.9724094	1.4044249
33.852412216817896	1.9932195	1.4118142
33.87073303867377	1.9469771	1.3953413
33.889054752483304	1.8846484	1.372825
33.907377358845245	1.9435225	1.3941027
33.92570085835853	1.9615458	1.4005519
33.94402525162239	1.9007705	1.3786844
33.96235053923627	1.9793773	1.4069034
33.980676721799824	2.007173	1.4167473
33.999003799912984	1.9577904	1.3992106
34.01733177417592	1.9174864	1.3847333
34.03566064518901	1.9400595	1.3928602
34.0539904135529	2.1054447	1.451015
34.07232107986846	2.1000998	1.4491721
34.090652644736785	2.009345	1.4175137
34.108985108759235	2.0110433	1.4181126
34.12731847253742	1.99187	1.4113363
34.14565273667313	1.9181558	1.384975
34.16398790176847	1.8871449	1.3737339
34.18232396842574	1.8435786	1.3577844
34.20066093724749	1.890878	1.375092
34.21899880883651	1.9299506	1.3892267
34.23733758379583	1.9899135	1.410643
34.25567726272874	2.0247827	1.4229486
34.27401784623872	1.9718863	1.4042387
34.29235933492957	1.9089094	1.3816329
34.31070172940526	1.9430308	1.3939264
34.32904503027003	1.960776	1.4002771
34.347389238128386	1.9374949	1.3919393
34.36573435358502	1.9451625	1.3946909
34.38408037724492	1.9390408	1.3924944
34.402427309713296	2.011498	1.4182729
34.42077515159559	2.010193	1.4178128
34.43912390349752	1.9754711	1.4055146
34.45747356602499	1.9979671	1.4134947
34.47582413978423	2.0639017	1.4366286
34.49417562538163	2.01017	1.4178046
34.51252802342388	1.8972844	1.3774195
34.53088133451789	1.8744085	1.3690904
34.54923555927084	1.8993775	1.3781791
34.567590698290104	2.0362892	1.4269861
34.58594675218336	2.204066	1.4846097
34.6043037215585	2.1354773	1.4613272
34.62266160702365	2.049941	1.4317615
34.641020409187234	1.947766	1.3956238
34.65938012865785	1.8718613	1.3681599
34.677740766044394	1.829368	1.3525413
34.69610232195598	1.9437776	1.3941942
34.714464797002016	2.0187793	1.4208375
34.73282819179208	2.0220356	1.421983
34.751192506936064	2.006217	1.4164099
34.76955774304408	1.951324	1.396898
34.7879239007265	1.8783523	1.3705299
34.80629098059391	1.835032	1.3546336
34.824658983257194	1.8576427	1.3629537
34.843027909327446	1.9280689	1.3885492
34.86139775941603	1.9867748	1.40953
34.879768534134534	1.9720505	1.4042971
34.89814023409483	1.938199	1.3921921
34.91651285990901	1.8802369	1.3712173
34.93488641218944	1.8455431	1.3585076
34.95326089154871	2.0003798	1.4143479
34.97163629859967	2.037427	1.4273846
34.99001263395542	1.9079518	1.3812863
35.00838989822934	1.8922944	1.3756069
35.02676809203499	1.8875499	1.3738813
35.04514721598624	1.8195857	1.3489202
35.063527270697215	1.6532495	1.2857875
35.081908256782256	1.6937118	1.3014268
35.10029017485597	1.9449781	1.3946247
35.11867302553321	2.154365	1.4677756
35.137056809429104	2.0650964	1.4370443
35.155441527159006	2.039386	1.4280708
35.173827179338524	1.9181817	1.3849844
35.19221376658354	1.8697189	1.3673767
35.21060128951017	1.8150897	1.3472526
35.2289897487348	2.0055556	1.4161764
35.24737914487405	1.98987	1.4106275
35.26576947854479	1.9544712	1.3980241
35.28416075036418	2.2379262	1.49597
35.30255296094958	2.4077573	1.551695
35.32094611091867	2.1511695	1.4666866
35.33934020088932	1.9510425	1.3967973
35.35773523147969	1.877819	1.3703353
35.3761312033082	1.7114636	1.3082292
35.394528116993506	1.6075894	1.2679075
35.41292597315452	1.7246525	1.3132603
35.431324772410434	1.970676	1.4038076
35.449724515380666	2.277741	1.5092187
35.46812520268491	2.2817328	1.5105406
35.486526834943106	2.1541228	1.467693
35.504929412775454	2.2382565	1.4960804
35.52333293680242	1.9197549	1.3855522
35.54173740764471	1.76703	1.3292968
35.560142825923286	2.0152676	1.4196012
35.5785491922594	1.9299182	1.389215
35.59695650727454	1.5379102	1.2401251
35.61536477159042	1.3047297	1.1422477
