0.008763373481513119	0.0	0.0
0.026290120649546365	0.0	0.0
0.043816868432600686	0.0	0.0
0.06134361724069026	0.01719954	0.13114701
0.07887036748382949	0.17158695	0.41423056
0.0963971195720331	0.2206398	0.4697231
0.11392387391531617	0.19180085	0.43795073
0.1314506309236943	0.15483776	0.39349428
0.1489773910071836	0.08461681	0.29088968
0.16650415457580078	0.06422537	0.25342724
0.18403092203956356	0.059781406	0.24450237
0.20155769380849	0.034906026	0.18683155
0.2190844702925996	0.061329808	0.24764855
0.2366112519019124	0.094452456	0.30733117
0.2541380390464497	0.13962251	0.37366095
0.27166483213623416	0.1450364	0.38083646
0.28919163158128947	0.17284015	0.4157405
0.3067184377916406	0.15436156	0.39288872
0.324245251177314	0.13935345	0.37330076
0.34177207214833777	0.098861344	0.31442225
0.3592989011147415	0.063831754	0.25264946
0.37682573848655654	0.05899365	0.24288608
0.39435258467381573	0.09092899	0.30154434
0.41187944008655414	0.115573496	0.33996102
0.42940630513480854	0.14875294	0.38568503
0.446933180228618	0.16588308	0.40728748
0.4644600657780234	0.16953652	0.4117481
0.48198696219306775	0.18232138	0.42699108
0.49951386988379676	0.14874429	0.38567382
0.5170407892602581	0.12947069	0.35982037
0.5345677207325025	0.15022655	0.3875907
0.5520946647105822	0.19278146	0.43906885
0.5696216216045534	0.24164554	0.49157456
0.5871485918244737	0.24250165	0.49244457
0.6046755757804043	0.21116121	0.4595228
0.6222025738824094	0.21745938	0.4663254
0.6397295865405557	0.18095711	0.42539054
0.6572566141649129	0.16826342	0.41019925
0.6747836571655547	0.19190611	0.4380709
0.6923107159525568	0.16751014	0.40928003
0.7098377909359992	0.1534804	0.39176574
0.7273648825259653	0.13323303	0.365011
0.7448919911325411	0.13945901	0.3734421
0.762419117165817	0.1569229	0.39613497
0.7799462610358868	0.16688994	0.40852165
0.7974734231528482	0.17565063	0.41910693
0.8150006039268024	0.15210918	0.39001176
0.8325278037678551	0.13575648	0.36845145
0.8500550230861152	0.12366054	0.35165402
0.8675822622916969	0.13490485	0.36729395
0.8851095217947171	0.12406387	0.35222703
0.9026368020052984	0.13679965	0.36986437
0.9201641033335665	0.17014267	0.41248354
0.9376914261896523	0.1909584	0.43698788
0.9552187709836915	0.20190518	0.4493386
0.9727461381258234	0.2056156	0.45344856
0.990273528026193	0.20378211	0.45142233
1.0078009410949496	0.19100158	0.4370373
1.0253283777422473	0.20027022	0.4475156
1.0428558383782454	0.2163805	0.4651672
1.0603833234131086	0.2431029	0.49305466
1.0779108332570058	0.3058252	0.55301464
1.0954383683201119	0.30081353	0.5484647
1.112965929012607	0.34833682	0.59020066
1.1304935157446763	0.49110985	0.7007923
1.1480211289265108	0.5378784	0.73340195
1.1655487689683062	1.2382591	1.1127709
1.1830764362802655	1.5101111	1.2288657
1.200604131272596	1.8702637	1.3675759
1.2181318543555117	2.1527958	1.4672409
1.235659605939232	2.1710708	1.4734554
1.253187386433982	3.762983	1.939841
1.270715196249994	6.167112	2.483367
1.2882430357975057	11.283426	3.3590813
1.3057709054867608	15.704049	3.9628334
1.3232988057280106	21.353727	4.6210093
1.3408267369315112	26.452076	5.143158
1.358354699507526	30.159466	5.4917636
1.3758826938663256	34.148407	5.8436637
1.3934107204181858	35.638783	5.969823
1.410938779573391	36.337215	6.0280356
1.4284668717422309	37.077488	6.0891285
1.4459949973350033	36.731003	6.060611
1.4635231567620117	36.565712	6.046959
1.4810513504335687	35.49637	5.957883
1.4985795787599925	34.72554	5.892838
1.5161078421516088	34.482212	5.8721557
1.5336361410187505	33.876854	5.8203826
1.5511644757717598	34.044067	5.834729
1.5686928468209842	34.658035	5.8871074
1.58622125457678	35.236916	5.936069
1.6037496994495108	36.331944	6.0275984
1.621278181849548	35.885654	5.9904637
1.6388067021872719	36.344215	6.0286164
1.6563352608730693	35.83013	5.9858274
1.673863858317336	35.188683	5.932005
1.6913924949304753	34.553272	5.878203
1.7089211711228998	33.539925	5.7913666
1.7264498873050296	32.647263	5.7137785
1.7439786438872935	31.893126	5.6474
1.7615074412801288	31.001307	5.5678816
1.779036279893981	30.713879	5.5420103
1.796565160139305	29.760967	5.4553614
1.814094082426564	29.564236	5.4373
1.8316230471662298	28.878674	5.373888
1.849152054768784	28.142176	5.3049197
1.8666811056447168	27.362003	5.2308702
1.8842102002045273	26.570625	5.1546702
1.901739338858724	25.875624	5.0868087
1.9192685220178245	25.3318	5.0330706
1.9367977500923557	24.374428	4.9370465
1.9543270234928547	23.652496	4.8633833
1.971856342629867	23.114794	4.8077846
1.9893857079139496	22.78794	4.7736716
2.006915119755667	22.621786	4.7562366
2.0244445785655945	22.205225	4.712242
2.0419740847543175	21.820717	4.671265
2.0595036387324317	21.32735	4.6181545
2.0770332409105414	20.716919	4.5515842
2.094562891699263	20.075096	4.480524
2.1120925915092217	19.438349	4.408894
2.129622340751053	19.16583	4.3778796
2.1471521398354043	187.39084	13.689077
2.1646819891729323	443.64273	21.062828
2.182211889174303	439.73254	20.9698
2.1997418402501974	452.22076	21.265484
2.2172718428113023	432.10355	20.7871
2.234801897268317	320.10968	17.89161
2.2523320040319548	16.59668	4.073902
2.269862163512935	16.295544	4.0367737
2.287392376121992	16.216232	4.0269384
2.304922642269869	15.826524	3.9782565
2.322452962367322	15.676699	3.959381
2.3399833368251164	15.235013	3.9032054
2.357513766054032	14.890447	3.8588142
2.3750442504648586	14.506522	3.8087428
2.3925747904683963	14.49785	3.8076043
2.410105386475459	14.419386	3.7972867
2.4276360388968707	14.229365	3.7721832
2.445166748143469	13.948332	3.7347465
2.4626975146261025	13.646988	3.6941829
2.4802283387556323	13.4017105	3.6608348
2.4977592209429305	13.054516	3.6131034
2.5152901615988825	12.801205	3.577877
2.5328211611343865	12.578563	3.546627
2.5503522199603523	12.321671	3.5102236
2.5678833384877024	12.199212	3.492737
2.5854145171273712	12.073643	3.4747148
2.6029457562903064	11.7586975	3.4290957
2.620477056387469	11.646961	3.4127645
2.6380084178298326	11.555635	3.399358
2.655539841028383	11.3625965	3.370845
2.673071326394119	10.964043	3.3111997
2.6906028743380523	10.598329	3.2555075
2.708134485271211	10.533642	3.2455573
2.7256661596046325	10.474737	3.2364697
2.743197897749369	10.407047	3.2259955
2.760729700116486	10.21225	3.195661
2.778261567117063	10.034238	3.1676865
2.795793499162193	9.833267	3.1358042
2.8133254966629817	9.748454	3.1222515
2.830857560030551	9.729069	3.1191456
2.8483896896760337	9.66913	3.1095226
2.865921886010578	9.5371475	3.0882273
2.883454149445347	9.3152075	3.0520825
2.9009864803915177	9.139845	3.0232177
2.91851887926028	8.948662	2.9914315
2.9360513464628384	8.827825	2.9711654
2.953583882410413	8.771785	2.96172
2.9711164875142373	8.647262	2.9406226
2.9886491621855606	8.510805	2.9173284
3.0061819068356455	8.351697	2.8899302
3.023714721875769	8.320006	2.884442
3.041247607717225	8.189986	2.8618152
3.0587805647713213	8.106572	2.8472042
3.0763135934493806	8.055229	2.8381736
3.0938466941627407	7.912184	2.8128605
3.1113798673227544	7.78634	2.7904015
3.1289131133407904	7.707378	2.7762165
3.1464464326282315	7.646795	2.7652838
3.1639798255964786	7.638864	2.7638495
3.1815132926569443	7.632936	2.7627769
3.1990468342210603	7.550177	2.7477586
3.216580450700272	7.4283295	2.7254963
3.2341141425060416	7.3582125	2.7126026
3.251647910049847	7.3104	2.7037752
3.2691817537431813	7.2256184	2.688051
3.286715673997555	7.0178356	2.6491199
3.3042496712244938	6.932852	2.633031
3.32178374583554	6.776427	2.603157
3.339317898242251	6.747929	2.5976777
3.3568521288562034	6.710431	2.59045
3.3743864380889876	6.697191	2.5878932
3.3919208263522127	6.672839	2.583184
3.4094552940575023	6.528046	2.5550041
3.4269898416164972	6.4064436	2.5310953
3.444524469440858	6.3385468	2.517647
3.4620591779422587	6.2954326	2.5090702
3.479593967532391	6.29306	2.5085971
3.4971288386229658	6.3297796	2.5159054
3.5146637916257086	6.269407	2.5038784
3.5321988269523628	6.2661676	2.5032315
3.5497339450146903	6.094789	2.4687626
3.5672691462244708	6.115646	2.4729831
3.5848044309934988	6.0626225	2.4622393
3.60233979973359	6.10126	2.470073
3.619875252856575	6.065239	2.4627707
3.6374107907743034	6.1053133	2.4708931
3.6549464138986427	6.0436964	2.458393
3.6724821226414788	5.965114	2.4423583
3.690017917414714	5.9415507	2.4375296
3.7075537986302702	6.145103	2.478932
3.7250897667000857	6.375304	2.5249364
3.7426258220361235	6.6093817	2.5708718
3.7601619650503553	6.884871	2.6239038
3.777698196154779	7.313625	2.7043715
3.7952345157614067	8.355244	2.890544
3.8127709242822716	9.102596	3.017051
3.830307422129425	11.242643	3.3530052
3.847844009714936	30.007732	5.4779315
3.8653806874508954	97.53375	9.875917
3.882917455749409	96.80705	9.839058
3.900454315022606	96.71675	9.834468
3.917991265682631	41.22019	6.4202952
3.9355283081416506	10.832796	3.2913213
3.9530654428118495	8.536356	2.9217043
3.970602670105433	7.364277	2.71372
3.9881399904346244	6.4527736	2.540231
4.005677404211669	6.3760476	2.5250838
4.023214911848827	6.34785	2.519494
4.0407525137583855	6.3748326	2.524843
4.058290210352644	6.426536	2.5350614
4.075828002043927	6.435087	2.5367475
4.0933658892445814	6.3207583	2.5141118
4.110903872366966	6.278497	2.505693
4.128441951823468	6.1300936	2.4759026
4.145980128026488	6.0322504	2.456064
4.163518401388452	5.8986254	2.4287086
4.181056772321807	5.9331064	2.435797
4.1985952412390155	5.918561	2.4328094
4.216133808552567	5.9598923	2.441289
4.233672474674966	6.082812	2.4663358
4.251211240018741	6.3509383	2.5201068
4.268750104996445	6.53653	2.5566638
4.286289070020643	7.4457407	2.7286885
4.303828135503928	9.054835	3.0091252
4.3213673018589125	29.344439	5.417051
4.3389065694982305	90.570724	9.516866
4.356445938834537	165.66118	12.870943
4.3739854102805085	171.01727	13.077357
4.391524984248844	171.89471	13.110863
4.409064661152262	136.09268	11.665876
4.426604441403504	96.48912	9.822887
4.444144325415337	75.704636	8.700841
4.461684313600543	21.641743	4.6520686
4.47922440637193	22.007935	4.6912613
4.496764604142329	20.285992	4.5039973
4.5143049073245916	18.325277	4.280803
4.531845316331589	16.276348	4.0343957
4.5493858315762195	13.291718	3.6457808
4.566926453471405	11.0443945	3.3233109
4.584467182430081	9.052142	3.0086777
4.602008018865218	8.035599	2.8347132
4.619548963189798	7.428429	2.7255144
4.637090015816834	6.956133	2.637448
4.654631177159353	6.621843	2.5732942
4.672172447630417	6.356093	2.5211294
4.689713827643102	6.26551	2.5031002
4.7072553176105085	6.1001687	2.469852
4.724796917945764	6.008332	2.4511898
4.742338629062015	5.892827	2.4275146
4.759880451372434	5.7472897	2.3973505
4.777422385290215	5.672949	2.3817954
4.794964431228581	5.6591654	2.3789
4.812506589600768	5.648428	2.3766422
4.830048860820047	5.555263	2.3569605
4.847591245299709	5.422495	2.3286252
4.8651337434530655	5.4238205	2.3289096
4.882676355693457	5.4731154	2.339469
4.900219082434242	5.5429807	2.3543537
4.917761924088813	5.505092	2.3462932
4.935304881070575	5.463656	2.3374465
4.952847953792969	5.451732	2.3348944
4.970391142669449	5.3961797	2.3229678
4.9879344481135055	5.321807	2.306904
5.005477870538642	5.279068	2.2976222
5.023021410358394	5.3064303	2.303569
5.040565067986324	5.356762	2.314468
5.05810884383601	5.325955	2.3078032
5.075652738321066	5.305587	2.303386
5.09319675185512	5.2793	2.2976727
5.110740884851836	5.404145	2.3246818
5.128285137724894	5.3849487	2.3205492
5.145829510888007	5.288804	2.29974
5.163374004754908	5.2375546	2.2885704
5.1809186197393595	5.2079873	2.2821014
5.198463356255145	5.2202053	2.284777
5.216008214716077	5.176034	2.27509
5.233553195535998	5.147397	2.2687876
5.251098299128764	5.102976	2.2589767
5.268643525908272	5.1284432	2.2646067
5.286188876288432	5.0751905	2.2528183
5.3037343506831895	5.042952	2.2456517
5.32127994950651	5.0206847	2.2406886
5.3388256731723915	5.032349	2.2432897
5.356371522094851	5.102927	2.258966
5.373917496687938	5.105827	2.2596078
5.391463597365729	5.1148443	2.2616022
5.40900982454232	5.0849805	2.25499
5.426556178631843	5.026956	2.2420874
5.444102660048449	5.060944	2.2496543
5.4616492692063225	5.099983	2.2583141
5.479196006519669	5.068687	2.2513745
5.496742872402727	5.0480556	2.2467878
5.514289867269756	5.017161	2.239902
5.531836991535049	4.9985833	2.2357512
5.549384245612924	5.0149937	2.2394183
5.566931629917724	5.037406	2.2444167
5.584479144863822	5.092018	2.25655
5.6020267908656205	5.05319	2.2479303
5.619574568337545	4.9638934	2.2279797
5.637122477694054	4.964352	2.2280827
5.654670519349629	4.9341483	2.2212944
5.672218693718784	4.944171	2.2235491
5.689767001216059	4.9964824	2.2352812
5.707315442256021	5.071228	2.2519388
5.724864017253266	5.120691	2.2628944
5.7424127266224225	5.1110682	2.2607672
5.75996157077814	5.090372	2.2561853
5.777510550135105	5.0898914	2.2560787
5.795059665108022	5.063938	2.2503195
5.812608916111639	5.0620937	2.2499096
5.830158303560715	5.196008	2.2794755
5.847707827870055	5.2552023	2.2924228
5.86525748945448	5.3514333	2.3133166
5.8828072887288485	5.4251833	2.3292022
5.900357226108044	5.4350543	2.3313203
5.917907302006979	5.526344	2.3508177
5.9354575168406	6.043611	2.4583757
5.9530078710238765	6.663317	2.5813403
5.970558364971812	7.184195	2.6803348
5.988108999099438	7.511814	2.740769
6.005659773821818	8.117305	2.8490884
6.023210689554039	7.8702435	2.8053954
6.040761746711227	8.286196	2.8785753
6.058312945708531	7.681667	2.7715821
6.075864286961132	7.1891847	2.6812656
6.093415770884244	6.476756	2.5449471
6.1109673978931065	5.8722844	2.4232798
6.128519168402993	5.2900777	2.3000169
6.146071082829204	5.148346	2.2689967
6.163623141587075	5.1284704	2.2646127
6.181175345091969	5.0885715	2.2557862
6.198727693759281	5.0970864	2.2576728
6.216280188004435	5.026227	2.2419248
6.233832828242885	5.0117764	2.2386997
6.251385614890126	5.037026	2.244332
6.268938548361669	5.0557714	2.2485042
6.286491629073067	4.957899	2.226634
6.304044857439898	4.87756	2.20852
6.321598233877777	4.8764553	2.2082698
6.339151758802344	4.8490124	2.2020473
6.356705432629277	4.8805	2.2091854
6.37425925577428	4.8498187	2.2022305
6.391813228653095	4.8579016	2.2040648
6.409367351681486	4.875016	2.207944
6.426921625275259	4.9575562	2.226557
6.44447604985025	5.038459	2.244651
6.46203062582232	5.007911	2.2378364
6.47958535360737	4.986546	2.2330575
6.497140233621328	4.950925	2.2250674
6.514695266280161	4.9581842	2.2266982
6.532250451999859	4.9971504	2.2354307
6.549805791196454	5.041856	2.2454078
6.567361284286002	5.0690346	2.2514517
6.584916931684597	5.0137506	2.2391405
6.602472733808367	4.917554	2.2175558
6.6200286910734665	4.854378	2.2032654
6.637584803896092	4.868289	2.20642
6.655141072692462	4.9102077	2.2158988
6.672697497878842	4.9534645	2.225638
6.690254079871514	4.9269795	2.21968
6.707810819086808	4.9180255	2.217662
6.725367715941078	4.930015	2.2203636
6.742924770850719	4.9133334	2.216604
6.760481984232151	4.875863	2.2081356
6.778039356501836	4.8003087	2.1909606
6.795596888076266	4.8056073	2.1921694
6.813154579371963	4.809078	2.192961
6.830712430805492	4.851521	2.202617
6.84827044279344	4.91097	2.216071
6.865828615752445	4.9135895	2.2166617
6.883386950099159	4.9535427	2.2256556
6.900945446250287	4.9936996	2.2346587
6.918504104622553	4.971053	2.229586
6.936062925632727	4.964378	2.2280884
6.953621909697607	4.9586816	2.2268097
6.971181057234028	4.972789	2.229975
6.988740368658859	5.027586	2.2422278
7.006299844389007	5.0674696	2.251104
7.023859484841407	5.1464167	2.2685716
7.041419290433036	5.218499	2.2844036
7.058979261580902	5.4167504	2.3273914
7.0765393987020495	5.6130924	2.3691967
7.094099702213559	5.9469223	2.4386313
7.111660172532549	6.217834	2.4935584
7.129220810076164	6.564836	2.5621936
7.146781615261595	7.121212	2.66856
7.16434258850606	7.365226	2.7138948
7.181903730226821	7.8629737	2.8040996
7.1994650408411704	8.0873165	2.8438208
7.217026520766437	8.256596	2.8734293
7.234588170419983	8.43589	2.9044604
7.252149990219215	8.400227	2.8983145
7.269711980581568	8.276327	2.8768606
7.2872741419245175	8.05581	2.838276
7.304836474665574	7.590264	2.7550433
7.322398979222286	7.2021484	2.683682
7.339961656012233	6.9375	2.6339135
7.357524505453039	6.697684	2.5879884
7.375087527962357	6.451877	2.5400546
7.392650723957886	6.194112	2.4887972
7.410214093857353	5.836706	2.4159276
7.427777638078528	5.593431	2.3650436
7.445341357039213	5.371408	2.3176298
7.4629052511572525	5.204592	2.2813575
7.480469320850524	5.118869	2.2624917
7.498033566536948	5.1351705	2.2660913
7.5155979886344735	5.09351	2.2568805
7.5331625875610975	5.018384	2.240175
7.550727363734844	5.0092063	2.2381256
7.568292317573788	5.0081325	2.2378857
7.585857449496025	5.102201	2.2588053
7.603422759919705	5.122777	2.2633553
7.620988249263007	5.1535807	2.27015
7.638553917944147	5.175842	2.2750475
7.656119766381391	5.141229	2.267428
7.673685794993023	5.095248	2.2572656
7.691252004197388	5.0720916	2.2521305
7.70881839441285	5.0602093	2.249491
7.726384966057826	5.0867534	2.2553833
7.743951719550762	5.108471	2.2601926
7.761518655310149	5.110651	2.260675
7.779085773754511	5.1274	2.2643762
7.796653075302419	5.1676865	2.2732546
7.814220560372475	5.175612	2.2749972
7.831788229383323	5.1761713	2.27512
7.8493560827536495	5.1521153	2.2698271
7.866924120902174	5.2067037	2.2818203
7.884492344247663	5.2817984	2.2982163
7.9020607532089135	5.3304305	2.3087726
7.919629348204771	5.3557687	2.3142533
7.937198129654115	5.3283515	2.3083222
7.954767097975865	5.2982607	2.301795
7.972336253588986	5.268441	2.2953086
7.989905596912472	5.3122463	2.304831
8.007475128365371	5.3496227	2.312925
8.025044848366756	5.3418574	2.311246
8.042614757335754	5.421283	2.3283648
8.060184855691523	5.435283	2.3313694
8.07775514385327	5.6293254	2.3726199
8.095325622240228	5.699768	2.3874187
8.112896291271687	5.7578106	2.3995438
8.130467151366968	5.7650313	2.401048
8.148038202945436	5.7569046	2.399355
8.165609446426497	5.7365136	2.395102
8.183180882229594	5.7761984	2.4033723
8.200752510774217	5.850183	2.4187152
8.218324332479893	5.8720026	2.4232216
8.235896347766193	5.850601	2.4188015
8.253468557052724	5.870286	2.4228673
8.27104096075914	5.8878994	2.4264994
8.288613559305137	5.9123516	2.4315329
8.306186353110448	5.977295	2.4448507
8.32375934259485	6.0164757	2.4528506
8.341332528178162	6.0331774	2.4562528
8.358905910280246	6.0901628	2.4678254
8.376479489321003	6.159362	2.4818063
8.394053265720377	6.2629466	2.502588
8.411627239898356	6.2011447	2.4902098
8.42920141227497	6.1486387	2.4796448
8.44677578327029	6.17424	2.4848018
8.464350353304427	6.178748	2.4857087
8.48192512279754	6.1160674	2.4730685
8.499500092169827	5.988476	2.4471362
8.51707526184153	6.0133414	2.4522116
8.534650632232934	6.0575495	2.461209
8.552226203764365	6.125635	2.475002
8.569801976856192	6.144277	2.4787652
8.587377951928834	6.1759257	2.485141
8.60495412940274	6.1804357	2.4860482
8.622530509698416	6.182212	2.4864054
8.6401070932364	6.275244	2.5050437
8.657683880437283	6.3845	2.5267568
8.675260871721695	6.5551	2.560293
8.692838067510303	6.731886	2.5945878
8.710415468223834	6.8013854	2.6079466
8.727993074283043	6.944943	2.635326
8.745570886108737	6.9542904	2.6370988
8.763148904121765	7.0191536	2.6493685
8.78072712874302	7.002302	2.6461864
8.798305560393441	7.165287	2.6768053
8.815884199494006	7.2576303	2.693999
8.833463046465745	7.4634595	2.7319334
8.851042101729728	7.6647477	2.768528
8.86862136570707	7.974822	2.8239727
8.886200838818924	8.112408	2.848229
8.903780521486505	8.143122	2.8536155
8.921360414131055	8.206272	2.864659
8.938940517173874	8.406684	2.8994281
8.956520831036297	8.562504	2.9261756
8.97410135613971	8.80825	2.9678698
8.99168209290554	8.947754	2.9912796
9.009263041755265	9.209765	3.0347595
9.026844203110405	9.419647	3.0691445
9.044425577392525	9.593834	3.0973914
9.062007165023239	9.713361	3.1166265
9.079588966424197	10.113591	3.1801872
9.097170982017108	10.299282	3.2092495
9.11475321222372	11.179906	3.3436365
9.132335657465825	12.03803	3.4695864
9.149918318165264	12.054818	3.472005
9.167501194743924	12.6052065	3.5503812
9.18508428762374	12.278903	3.5041265
9.202667597226693	12.334683	3.5120769
9.220251123974803	12.062809	3.4731555
9.237834868290143	11.773035	3.4311857
9.255418830594836	11.633576	3.4108028
9.273003011311046	11.042736	3.3230612
9.290587410860985	10.76253	3.2806296
9.308172029666911	10.09434	3.177159
9.32575686815113	9.793355	3.1294336
9.343341926735997	8.482783	2.9125218
9.360927205843916	8.210264	2.865356
9.378512705897327	8.064354	2.8397806
9.396098427318728	7.9814577	2.8251474
9.413684370530664	7.9304004	2.8160965
9.431270535955722	7.7757597	2.7885048
9.448856924016539	7.643599	2.764706
9.466443535135806	7.52062	2.742375
9.484030369736251	7.5083733	2.7401412
9.501617428240658	7.5404744	2.7459924
9.519204711071852	7.565927	2.750623
9.536792218652714	7.604516	2.7576287
9.55437995140617	7.753249	2.7844658
9.571967909755191	7.803563	2.7934859
9.589556094122802	7.7707047	2.7875984
9.60714450493207	7.721023	2.778673
9.624733142606116	7.666183	2.7687874
9.642322007568108	7.6968966	2.7743282
9.659911100241267	7.739608	2.782015
9.677500421048851	7.863158	2.8041325
9.695089970414175	7.992741	2.8271437
9.712679748760609	8.038939	2.8353024
9.730269756511557	8.024596	2.8327718
9.747859994090492	8.020236	2.8320022
9.765450461920915	8.0034895	2.8290439
9.78304116042639	8.056654	2.8384244
9.800632090030527	8.076581	2.8419325
9.81822325115699	8.107308	2.8473337
9.835814644229481	8.059021	2.8388414
9.853406269671762	8.113376	2.8483987
9.870998127907646	8.119612	2.8494933
9.888590219360985	8.114218	2.8485465
9.906182544455698	8.089356	2.8441794
9.923775103615734	8.089074	2.8441298
9.941367897265108	8.100403	2.8461206
9.958960925827878	8.100219	2.8460884
9.97655418972816	8.133878	2.8519955
9.994147689390106	8.130774	2.8514512
10.011741425237934	8.162809	2.857063
10.029335397695904	8.113763	2.8484669
10.04692960718833	8.081466	2.8427918
10.06452405413958	8.0597315	2.8389666
10.082118738974064	8.089157	2.8441443
10.099713662116246	8.048385	2.8369675
10.117308823990651	8.023839	2.8326383
10.134904225021844	8.029637	2.8336616
10.152499865634445	8.029652	2.833664
10.170095746253125	7.9914618	2.8269174
10.18769186730261	7.9472885	2.8190935
10.205288229207675	7.956262	2.8206847
10.222884832393145	8.001957	2.828773
10.2404816772839	8.043512	2.8361087
10.258078764304868	7.981164	2.8250954
10.275676093881035	7.927032	2.8154986
10.293273666437438	7.8499365	2.8017738
10.310871482399158	7.910877	2.8126283
10.32846954219134	7.953521	2.8201988
10.346067846239173	7.9400206	2.817804
10.363666394967908	7.952018	2.8199322
10.38126518880283	7.951162	2.8197803
10.398864228169298	8.003219	2.828996
10.416463513492713	8.0643835	2.8397858
10.434063045198531	8.092128	2.8446665
10.451662823712262	8.103789	2.8467155
10.469262849459467	8.165693	2.8575678
10.486863122865758	8.058324	2.8387187
10.504463644356806	7.957475	2.8208997
10.522064414358338	7.818557	2.7961683
10.539665433296118	7.6541095	2.766606
10.557266701595987	7.612432	2.7590637
10.574868219683818	7.6330028	2.762789
10.592469987985552	7.6892557	2.7729506
10.610072006927185	7.628604	2.7619927
10.627674276934751	7.4794836	2.7348645
10.64527679843435	7.333833	2.708105
10.662879571852143	7.224804	2.6878996
10.680482597614331	7.1268935	2.6696243
10.698085876147173	6.966278	2.6393707
10.715689407876988	6.8339305	2.6141787
10.733293193230146	6.7589154	2.5997915
10.750897232633072	6.6757717	2.5837514
10.76850152651225	6.603092	2.5696483
10.786106075294207	6.535862	2.556533
10.803710879405534	6.404345	2.5306807
10.821315939272877	6.356091	2.521129
10.83892125532294	6.255221	2.501044
10.856526827982472	6.174908	2.4849362
10.874132657678285	6.158348	2.481602
10.891738744837243	6.067211	2.463171
10.909345089886271	6.031365	2.4558837
10.926951693252343	5.9462123	2.4384856
10.944558555362494	5.9004364	2.4290814
10.96216567664381	5.8356166	2.415702
10.979773057523436	5.779083	2.4039724
10.997380698428573	5.6872897	2.384804
11.014988599786477	5.6266203	2.3720498
11.032596762024461	5.5846953	2.363196
11.050205185569892	5.5908074	2.3644888
11.067813870850198	5.5510364	2.3560638
11.085422818292859	5.4511003	2.3347592
11.10303202832541	5.3643236	2.3161008
11.120641501375454	5.293618	2.3007865
11.138251237870636	5.2499204	2.2912705
11.155861238238671	5.1887064	2.2778733
11.173471502907317	5.1258674	2.2640378
11.191082032304402	5.096688	2.2575846
11.208692826857805	5.068662	2.251369
11.226303886995465	5.0411386	2.245248
11.243915213145371	5.0065084	2.2375228
11.261526805735578	4.9771185	2.2309456
11.279138665194196	4.9127264	2.2164671
11.296750791949393	4.822961	2.196124
11.314363186429393	4.745584	2.178436
11.331975849062479	4.691203	2.1659186
11.34958878027699	4.606867	2.1463614
11.36720198050133	4.557034	2.134721
11.384815450163948	4.4722986	2.114781
11.402429189693366	4.4213	2.1026888
11.420043199518153	4.368634	2.0901277
11.437657480066942	63.366283	7.9602942
11.455272031768422	85.06624	9.223136
11.472886855051353	107.5036	10.368394
11.490501950344528	99.05722	9.952749
11.508117318076819	84.391884	9.186505
11.52573295867715	45.77808	6.76595
11.543348872574514	4.0968823	2.0240757
11.560965060197946	4.078282	2.0194757
11.57858152197655	4.037321	2.0093086
11.59619825833949	4.021894	2.005466
11.613815269715985	4.0000668	2.0000167
11.631432556535323	38.509113	6.205571
11.649050119226837	83.04148	9.11271
11.666667958219929	93.40986	9.664878
11.68428607394406	107.626	10.374295
11.701904466828756	82.41484	9.078262
11.719523137303586	65.255775	8.078105
11.737142085798196	4.508882	2.1234128
11.754761312742286	3.6576223	1.9124911
11.772380818565619	3.6281097	1.9047598
11.790000603698015	3.6301305	1.9052901
11.80762066856935	3.5993254	1.8971888
11.825241013609572	3.591843	1.8952157
11.842861639248683	3.5125349	1.8741758
11.860482545916748	3.4545686	1.858647
11.878103734043883	3.375318	1.8372039
11.895725204060282	3.3430278	1.8283949
11.91334695639619	3.316064	1.8210063
11.930968991481919	3.2877707	1.8132211
11.948591309747824	3.3026235	1.8173121
11.966213911624347	3.2704227	1.808431
11.98383679754198	3.2529829	1.8036027
12.001459967931268	3.1997998	1.7887985
12.019083423222835	3.2210844	1.7947379
12.036707163847352	3.1822784	1.7838942
12.05433119023556	3.181335	1.7836298
12.071955502818259	3.1340158	1.7703152
12.089580102026313	3.134289	1.7703923
12.107204988290643	3.117132	1.7655401
12.12483016204224	3.0911152	1.7581568
12.142455623712152	3.0684655	1.7517036
12.16008137373149	3.020872	1.7380656
12.177707412531431	2.9907649	1.7293828
12.19533374054321	2.991497	1.7295945
12.212960358198126	3.0064716	1.733918
12.230587265927545	3.002383	1.7327386
12.248214464162889	2.9748995	1.7247897
12.265841953335649	2.9495392	1.7174222
12.283469733877375	2.9552567	1.719086
12.301097806219685	2.9702492	1.7234411
12.31872617079425	2.9857664	1.727937
12.336354828032825	2.944991	1.7160976
12.353983778367205	2.9020216	1.7035321
12.371613022229262	2.8552678	1.6897538
12.389242560050928	2.8403788	1.6853423
12.406872392264201	2.837981	1.6846309
12.424502519301143	2.8201447	1.6793287
12.442132941593874	2.8073664	1.6755197
12.459763659574586	2.826281	1.6811547
12.477394673675532	2.825713	1.6809857
12.49502598432903	2.8183951	1.6788076
12.51265759196746	2.801095	1.6736472
12.530289497023267	2.7762265	1.6662012
12.547921699928967	2.7853043	1.6689231
12.565554201117134	2.7463832	1.6572216
12.583187001020404	2.7394953	1.6551421
12.600820100071486	2.734182	1.6535362
12.618453498703152	2.7671578	1.6634777
12.636087197348235	2.7171178	1.6483682
12.65372119643964	2.7179952	1.6486343
12.671355496410326	2.718849	1.6488932
12.68899009769333	2.756951	1.660407
12.706625000721749	2.7940657	1.6715459
12.724260205928752	2.8432295	1.6861879
12.741895713747551	2.9017165	1.7034426
12.759531524611454	2.9576097	1.7197702
12.777167638953818	2.94263	1.7154096
12.794804057208072	2.8962371	1.7018335
12.812440779807702	2.9178243	1.708164
12.830077807186271	3.0827568	1.7557781
12.847715139777405	3.1537352	1.7758759
12.865352778014795	3.3493423	1.8301208
12.882990722332197	3.472615	1.8634953
12.90062897316344	3.5873983	1.8940428
12.918267530942412	3.6727877	1.9164518
12.935906396103071	3.5647368	1.888051
12.953545569079449	3.7120233	1.9266611
12.971185050305628	3.5078752	1.8729322
12.988824840215775	3.5019937	1.8713615
13.006464939244115	3.5021412	1.8714008
13.024105347824943	3.3658907	1.8346364
13.041746066392617	3.4471622	1.8566535
13.05938709538157	3.2481916	1.802274
13.077028435226296	3.258119	1.805026
13.094670086361363	3.1521804	1.7754381
13.112312049221401	3.0438778	1.7446712
13.129954324241112	2.986515	1.7281537
13.147596911855258	2.8036566	1.6744123
13.165239812498685	2.7977836	1.6726576
13.182883026606293	2.7344508	1.6536175
13.200526554613058	2.6532266	1.6288728
13.218170396954017	2.645358	1.6264557
13.235814554064284	2.6363974	1.6236987
13.253459026379034	2.6590917	1.6306722
13.271103814333523	2.6268451	1.6207545
13.288748918363058	2.6197917	1.6185771
13.306394338903031	2.61997	1.6186322
13.32404007638889	2.6101267	1.6155887
13.341686131256164	2.664713	1.6323948
13.359332503940449	2.6547914	1.629353
13.376979194877402	2.6714923	1.6344701
13.394626204502751	2.6555502	1.6295859
13.412273533252307	2.6507206	1.6281034
13.429921181561937	2.647785	1.6272016
13.447569149867581	2.6719537	1.6346111
13.465217438605247	2.6907506	1.6403507
13.482866048211022	2.6888447	1.6397697
13.500514979121052	2.653547	1.6289712
13.518164231771568	2.649492	1.6277261
13.535813806598844	2.6259382	1.6204747
13.553463704039254	2.6109464	1.6158423
13.571113924529229	2.5918257	1.6099148
13.588764468505275	2.5923724	1.6100847
13.606415336403956	2.6234126	1.6196952
13.624066528661917	2.6654623	1.6326244
13.641718045715882	2.717833	1.6485852
13.659369888002635	2.7837548	1.6684588
13.67702205595903	2.812005	1.6769034
13.694674550021993	2.8916683	1.7004906
13.712327370628532	2.9264786	1.7106954
13.729980518215713	3.032014	1.7412679
13.747633993220681	3.1477506	1.7741902
13.765287796080647	3.197316	1.788104
13.7829419272329	3.2169225	1.7935781
13.800596387114801	3.2068822	1.790777
13.818251176163775	3.2193081	1.7942431
13.835906294817324	3.2679486	1.8077469
13.853561743513023	3.3045208	1.8178341
13.871217522688525	3.3551068	1.8316951
13.888873632781538	3.4192529	1.8491222
13.906530074229858	3.4331372	1.8528727
13.92418684747135	3.4698577	1.8627554
13.941843952943948	3.4570572	1.8593163
13.959501391085665	3.4476423	1.8567828
13.977159162334578	3.4026535	1.8446282
13.994817267128846	3.334759	1.8261323
14.012475705906693	3.2448204	1.8013384
14.030134479106424	3.1378005	1.7713838
14.047793587166414	3.057523	1.7485775
14.065453030525108	2.986027	1.7280124
14.083112809621026	2.952777	1.7183646
14.100772924892766	2.906101	1.704729
14.118433376778997	2.881971	1.6976368
14.136094165718458	2.827154	1.6814142
14.153755292149969	2.768008	1.6637331
14.171416756512416	2.6983435	1.6426636
14.189078559244768	2.6119688	1.6161586
14.20674070078606	2.5684607	1.6026418
14.224403181575408	2.537829	1.5930564
14.242066002051999	2.4739056	1.5728654
14.259729162655093	2.4264867	1.5577184
14.277392663824022	2.3791778	1.5424584
14.295056505998208	2.363561	1.5373877
14.312720689617128	2.3667846	1.5384357
14.330385215120348	2.3970118	1.5482286
14.348050082947497	2.4059947	1.551127
14.3657152935383	2.3417907	1.5302911
14.383380847332528	2.317775	1.5224241
14.401046744770051	2.3444054	1.5311451
14.418712986290798	2.378998	1.5424001
14.436379572334793	2.3882873	1.5454085
14.454046503342123	2.3664358	1.5383223
14.471713779752946	2.3588128	1.5358427
14.489381402007504	2.369611	1.5393541
14.507049370546113	2.4057486	1.5510476
14.524717685809168	2.42389	1.5568848
14.542386348237134	2.4155915	1.5542173
14.560055358270553	2.3924422	1.5467521
14.577724716350051	2.3950615	1.5475986
14.595394422916325	2.3764532	1.541575
14.61306447841015	2.3849463	1.5443271
14.63073488327237	2.3999414	1.5491744
14.648405637943917	2.4463816	1.5640913
14.6660767428658	2.4777615	1.5740907
14.683748198479094	2.5122683	1.5850136
14.701420005224954	2.532268	1.5913101
14.719092163544628	2.606409	1.6144377
14.73676467387942	2.617606	1.6179017
14.754437536670727	2.6512365	1.6282618
14.772110752360014	2.6268964	1.6207703
14.78978432138882	2.6406527	1.6250085
14.807458244198777	2.6209962	1.618949
14.82513252123159	2.6397011	1.6247157
14.842807152929028	2.6859858	1.6388978
14.860482139732962	2.6639395	1.6321579
14.87815748208531	2.6267333	1.62072
14.8958331804281	2.579187	1.6059847
14.91350923520342	2.5269578	1.5896407
14.931185646853438	2.581778	1.6067913
14.948862415820408	2.576376	1.6051093
14.966539542546656	2.605526	1.6141641
14.98421702747459	2.5793648	1.6060401
15.001894871046696	2.569969	1.6031122
15.019573073705542	2.5684283	1.6026317
15.037251635893766	2.5691853	1.6028678
15.054930558054092	2.6103504	1.6156579
15.072609840629323	2.6461926	1.6267122
15.090289484062351	2.739899	1.655264
15.107969488796124	2.858497	1.690709
15.125649855273691	3.0695503	1.7520132
15.14333058393817	3.4371946	1.8539673
15.161011675232768	4.0334	2.0083327
15.17869312960076	4.705144	2.1691344
15.196374947485506	5.3772197	2.3188832
15.214057129330447	6.654581	2.5796475
15.231739675579114	8.748926	2.9578583
15.249422586675102	13.442377	3.6663847
15.267105863062092	18.043388	4.2477508
15.284789505183847	25.297977	5.0297093
15.302473513484218	30.28219	5.5029254
15.320157888407127	34.56396	5.8791122
15.337842630396578	33.51293	5.7890353
15.355527739896656	30.664263	5.5375323
15.37321321735153	23.895071	4.8882585
15.39089906320545	16.14355	4.017904
15.408585277902748	10.311202	3.211106
15.42627186188783	6.372315	2.5243444
15.443958815605198	4.5700407	2.1377654
15.461646139499424	3.7681582	1.9411744
15.479333834015168	3.2825155	1.8117714
15.497021899597165	2.9900513	1.7291765
15.514710336690234	2.785653	1.6690276
15.53239914573928	2.6566837	1.6299336
15.550088327189297	2.578108	1.6056488
15.567777881485336	2.5081956	1.5837284
15.58546780907256	2.5132399	1.5853201
15.6031581103962	2.4938235	1.5791844
15.620848785901568	2.5109196	1.5845882
15.638539836034063	2.4793787	1.5746043
15.656231261239173	2.488187	1.5773988
15.673923061962451	2.4906871	1.578191
15.691615238649552	2.4803565	1.5749147
15.709307791746202	2.4405782	1.562235
15.727000721698221	2.4050686	1.5508283
15.744694028951498	2.3884192	1.5454512
15.76238771395202	2.366991	1.5385028
15.780081777145844	2.4027603	1.550084
15.797776218979125	2.3770213	1.5417591
15.815471039898094	2.362137	1.5369246
15.833166240349064	2.3332567	1.5275002
15.850861820778437	2.3584907	1.5357379
15.868557781632699	2.364675	1.53775
15.886254123358412	2.3888159	1.5455794
15.903950846402232	2.425215	1.5573102
15.921647951210897	2.4410887	1.5623983
15.939345438231225	2.5094972	1.5841392
15.957043307910133	2.5232055	1.5884601
15.974741560694602	2.555121	1.5984746
15.992440197031714	2.4961114	1.5799086
16.01013921736862	2.4617786	1.5690056
16.02783862215259	2.4681993	1.5710504
16.045538411830933	2.4781692	1.5742202
16.06323858685107	2.45382	1.5664674
16.080939147660512	2.4079795	1.5517665
16.09864009470684	2.380773	1.5429754
16.11634142843774	2.3529105	1.5339199
16.134043149300954	2.3733819	1.5405784
16.15174525774433	2.3767827	1.5416818
16.169447754215817	2.403465	1.5503113
16.18715063916342	2.4196892	1.555535
16.204853913035244	2.4514768	1.5657192
16.222557576279478	2.44474	1.5635664
16.240261629344403	22.41839	4.734806
16.257966072678386	42.96505	6.554773
16.275670906729868	38.067314	6.1698713
16.293376131947387	2.4853241	1.5764911
16.31108174877957	2.5140994	1.5855912
16.328787757675133	2.5719125	1.6037184
16.34649415908287	2.5883367	1.6088308
16.364200953451657	2.5471268	1.5959721
16.38190814123048	2.5537622	1.5980495
16.39961572286839	2.5820744	1.6068834
16.41732369881455	2.6557221	1.6296387
16.43503206951817	2.6638312	1.6321248
16.45274083542859	2.712443	1.6469496
16.47044999699522	2.7544248	1.659646
16.488159554667558	2.8056858	1.6750182
16.505869508895184	2.8586211	1.6907457
16.523579860127786	2.8898427	1.6999538
16.541290608815117	2.9476218	1.716864
16.559001755407035	2.9735243	1.724391
16.57671330035348	3.1087885	1.7631757
16.59442524410448	3.250602	1.8029426
16.61213758711015	3.4234958	1.8502691
16.629850329820705	3.5005376	1.8709724
16.647563472686436	3.541791	1.8819647
16.665277016157724	3.4825637	1.8661629
16.682990960685053	3.463901	1.8611559
16.70070530671898	3.4178295	1.8487372
16.718420054710155	3.4746084	1.8640301
16.736135205109335	3.5388494	1.8811829
16.753850758367335	3.6497915	1.9104427
16.771566714935087	3.70963	1.9260399
16.789283075263597	3.72607	1.9303031
16.80699983980398	3.749991	1.9364893
16.82471700900741	3.8092098	1.9517198
16.84243458332518	3.8436878	1.9605325
16.860152563208665	3.8386698	1.9592524
16.87787094910932	3.8939266	1.9733034
16.89558974147871	3.987114	1.9967759
16.913308940768466	4.0998836	2.024817
16.931028547430333	4.2457943	2.0605326
16.94874856191613	4.326201	2.0799522
16.966468984677785	4.3492036	2.0854745
16.98418981616729	4.28947	2.0711036
17.00191105683676	4.315792	2.0774484
17.019632707138374	4.3787904	2.092556
17.03735476752442	4.4423513	2.1076887
17.05507723844728	4.5321217	2.128878
17.072800120359403	4.5426054	2.1313388
17.090523413713353	4.543975	2.1316602
17.108247118961785	4.519558	2.1259253
17.125971236557437	4.5644464	2.1364565
17.143695766953133	4.569332	2.1375997
17.161420710601806	4.568543	2.137415
17.179146067956477	4.5501275	2.133103
17.19687183947025	4.579005	2.1398609
17.21459802559634	4.5812554	2.1403868
17.232324626788028	4.594185	2.143405
17.25005164349871	4.586596	2.141634
17.267779076181863	4.5524225	2.1336408
17.285506925291074	4.526325	2.1275163
17.30323519127999	4.5260863	2.12746
17.320963874602384	4.505365	2.1225846
17.33869297571211	4.5108914	2.1238859
17.356422495063114	4.4581404	2.111431
17.37415243310944	4.454988	2.1106842
17.391882790305218	4.4572363	2.1112168
17.40961356710468	4.5031734	2.1220682
17.42734476396215	4.4596114	2.1117792
17.445076381332044	4.4959216	2.120359
17.462808419668868	4.5371656	2.1300623
17.48054087942723	4.730625	2.175
17.498273761061835	4.8507676	2.2024457
17.51600706502747	5.1787815	2.2756937
17.533740791779024	5.783844	2.4049623
17.551474941771485	6.6124916	2.5714765
17.56920951545993	8.409577	2.8999271
17.586944513299528	9.631334	3.103439
17.60467993574556	12.574212	3.5460136
17.622415783253373	15.336871	3.9162319
17.64015205627843	18.204319	4.266652
17.657888755276293	20.732477	4.553293
17.675625880702604	22.273462	4.7194767
17.69336343301311	20.803825	4.561121
17.71110141266366	18.59276	4.311932
17.728839820110178	15.822037	3.9776924
17.746578655808705	12.641276	3.5554574
17.764317920215372	10.465155	3.2349892
17.7820576137864	8.748534	2.957792
17.79979773697811	7.333374	2.7080202
17.81753829024692	5.979697	2.445342
17.835279274049356	5.1991596	2.2801666
17.85302068884201	4.445205	2.1083655
17.870762535081607	4.0646977	2.0161095
17.888504813224934	3.834213	1.9581146
17.90624752372891	3.6808238	1.9185473
17.923990667050536	3.554504	1.8853393
17.941734243646895	3.455159	1.8588058
17.959478253975185	3.4522405	1.8580205
17.9772226984927	3.47064	1.8629653
17.994967577656833	3.476784	1.8646137
18.01271289192506	3.411848	1.8471189
18.030458641754965	3.3073895	1.818623
18.04820482760425	3.2713425	1.8086853
18.06595144993067	3.2339354	1.7983146
18.083698509192125	3.2286856	1.7968544
18.101446005846576	3.2445896	1.8012744
18.119193940352105	3.244466	1.8012402
18.136942313166887	3.2235775	1.7954324
18.1546911247492	3.188208	1.7855554
18.1724403755574	3.1494067	1.7746568
18.19019006604997	3.1369534	1.7711446
18.207940196685467	3.111705	1.7640026
18.225690767922575	3.0981953	1.7601691
18.243441780220046	3.0611818	1.7496233
18.261193234036764	3.0512726	1.7467892
18.278945129831676	3.050854	1.7466694
18.29669746806386	3.0291297	1.7404395
18.314450249192483	2.9961596	1.7309418
18.3322034736768	2.964646	1.7218148
18.349957141976184	3.0104625	1.7350684
18.3677112545501	3.0501437	1.746466
18.385465811858108	3.0530503	1.747298
18.403220814359884	3.0112028	1.7352818
18.420976262515172	3.004676	1.7334001
18.43873215678387	3.042993	1.7444177
18.456488497625923	3.0905437	1.7579943
18.474245285501407	3.1904078	1.7861712
18.492002520870486	3.2402458	1.8000683
18.50976020419343	3.3081193	1.8188236
18.527518335930615	3.5697546	1.8893794
18.545276916542516	4.1069007	2.0265489
18.563035946489688	4.304019	2.0746129
18.580795426232832	4.7630324	2.1824372
18.598555356232698	4.6908164	2.1658292
18.616315736950185	4.9228387	2.2187471
18.63407656884626	4.561849	2.1358485
18.65183785238201	4.6790366	2.163108
18.669599588018617	4.4986362	2.1209989
18.68736177621737	4.4346805	2.105868
18.705124417439652	4.4452977	2.1083875
18.72288751214696	4.285731	2.0702007
18.740651060800886	4.451186	2.1097834
18.758415063863115	4.2389016	2.0588593
18.77617952179546	4.3602285	2.088116
18.793944435059814	4.14893	2.0368922
18.811709804118184	4.1358314	2.0336742
18.829475629432675	4.122655	2.0304322
18.8472419114655	3.8642242	1.965763
18.86500865067897	3.8382773	1.9591522
18.88277584753551	3.5585713	1.8864176
18.90054350249763	3.6200197	1.902635
18.918311616027957	3.391868	1.8417025
18.936080188589226	3.2808928	1.8113235
18.953849220644265	3.0055323	1.7336471
18.971618712656007	2.8477743	1.6875349
18.9893886650875	2.809308	1.6760991
19.007159078401887	7.9733295	2.8237085
19.024929953062408	32.885056	5.7345495
19.042701289532435	32.85229	5.731692
19.060473088275405	25.410374	5.04087
19.07824534975489	2.6216524	1.6191517
19.096018074434568	2.5977848	1.6117644
19.113791262778197	2.6086102	1.6151192
19.13156491524966	2.5775876	1.6054868
19.149339032312945	2.5278656	1.5899264
19.167113614432136	2.5374787	1.5929465
19.184888662071433	2.5504081	1.5969998
19.202664175695123	2.5591824	1.5997444
19.220440155767623	2.5068135	1.583292
19.238216602753447	2.4665399	1.5705222
19.2559935171172	2.4595194	1.5682855
19.27377089932361	2.4908507	1.5782429
19.291548749837514	2.5542924	1.5982153
19.309327069123835	2.5869806	1.6084093
19.32710585764763	2.5733228	1.6041579
19.344885115874032	2.5179718	1.5868118
19.362664844268313	2.4823925	1.575561
19.380445043295822	2.454458	1.566671
19.39822571342203	2.4786415	1.5743701
19.41600685511252	2.4742486	1.5729744
19.43378846883297	2.497821	1.5804497
19.451570555049173	2.4463897	1.5640938
19.469353114227037	2.4400795	1.5620754
19.48713614683254	2.4395587	1.5619087
19.50491965333182	2.4712954	1.5720354
19.52270363419109	2.4871325	1.5770645
19.540488089876686	2.4940825	1.5792664
19.55827302085503	2.4787502	1.5744047
19.576058427592674	2.450657	1.5654575
19.593844310556282	2.43983	1.5619955
19.611630670212598	2.4578233	1.5677446
19.629417507028506	2.4485257	1.5647765
19.64720482147098	2.4663596	1.5704647
19.6649926140071	2.462046	1.5690908
19.682780885104084	2.471975	1.5722516
19.70056963522921	2.4503856	1.5653708
19.718358864849908	2.4535763	1.5663896
19.7361485744337	2.4640164	1.5697186
19.753938764448215	2.4709947	1.5719398
19.771729435361202	2.4770746	1.5738724
19.789520587640506	2.4703262	1.5717272
19.807312221754092	2.4451	1.5636816
19.825104338170043	2.4747355	1.5731292
19.842896937356517	2.5167096	1.5864141
19.860690019781824	2.5309315	1.5908902
19.87848358591436	2.5177627	1.586746
19.896277636222635	2.5108287	1.5845594
19.914072171175278	2.487983	1.5773342
19.931867191241015	2.4482315	1.5646825
19.94966269688869	2.4383025	1.5615065
19.967458688587264	2.4560058	1.5671649
19.985255166805807	2.4821537	1.5754852
20.00305213201348	2.4820032	1.5754374
20.020849584679578	2.4561267	1.5672034
20.038647525273507	2.4064336	1.5512683
20.05644595426477	2.3923388	1.5467187
20.07424487212299	2.3840508	1.5440372
20.092044279317903	2.3772295	1.5418266
20.109844176319353	2.3617885	1.5368111
20.127644563597304	2.4074438	1.5515939
20.145445441621817	2.4373958	1.5612161
20.16324681086307	2.3977578	1.5484695
20.181048671791373	2.3789515	1.542385
20.198851024877122	2.3869255	1.5449678
20.216653870590836	2.3764832	1.5415846
20.234457209403146	2.3512294	1.5333719
20.252261041784802	2.3573635	1.5353708
20.270065368206662	2.3438995	1.5309799
20.287870189139685	2.3167505	1.5220876
20.305675505054968	2.3030465	1.5175792
20.323481316423702	2.3022866	1.5173287
20.341287623717207	2.3439307	1.5309901
20.359094427406884	2.3517911	1.533555
20.376901727964288	2.3323717	1.5272105
20.39470952586107	2.3484523	1.532466
20.41251782156899	2.3738132	1.5407184
20.430326615559935	2.3484952	1.5324801
20.448135908305886	2.312009	1.5205293
20.465945700278965	2.3086705	1.519431
20.483755991951384	2.314036	1.5211955
20.50156678379548	2.3095813	1.5197307
20.519378076283708	2.3417346	1.5302727
20.537189869888635	2.340672	1.5299255
20.55500216508294	2.3167236	1.5220788
20.572814962339415	2.26945	1.5064694
20.59062826213098	2.2686918	1.5062177
20.60844206493066	2.3053293	1.518331
20.626256371211593	2.313527	1.5210283
20.644071181447032	2.329681	1.5263293
20.66188649611036	2.3122716	1.5206156
20.67970231567506	2.3175294	1.5223434
20.697518640614742	2.2963412	1.5153683
20.715335471403122	2.271737	1.5072283
20.73315280851404	2.2506876	1.5002292
20.750970652421447	2.2450104	1.4983358
20.768789003599412	2.2622976	1.5040936
20.786607862522136	2.2685635	1.5061752
20.8044272296639	2.275678	1.508535
20.82224710549913	2.271194	1.5070481
20.84006749050237	2.280943	1.510279
20.857888385148268	3.8700807	1.967252
20.8757097899116	45.984715	6.781203
20.893531705267254	64.85875	8.053493
20.911354131690224	83.823265	9.155504
20.92917706965566	69.03341	8.308635
20.94700051963877	50.086895	7.0772095
20.96482448211493	29.366589	5.419095
20.982648957559622	4.122822	2.0304732
21.00047394644843	2.2486846	1.4995614
21.01829944925707	2.2594497	1.5031466
21.036125466461375	2.2164755	1.4887832
21.053951998537297	2.170742	1.4733438
21.071779045960906	2.1796877	1.4763765
21.089606609208378	2.2229486	1.4909556
21.10743468875603	2.2263174	1.4920849
21.12526328508028	2.2194393	1.4897783
21.143092398657675	2.1736443	1.4743284
21.16092202996488	2.1620026	1.470375
21.17875217947867	2.164002	1.4710547
21.19658284767596	2.1583107	1.469119
21.21441403503377	2.1308565	1.4597454
21.232245742029225	2.1036246	1.4503877
21.2500779691396	2.0830224	1.443268
21.26791071684227	2.1073623	1.4516757
21.28574398561475	2.1117172	1.4531748
21.30357777593465	2.1309283	1.45977
21.321412088279704	2.1149576	1.4542893
21.339246923127792	2.1139023	1.4539266
21.357082280956888	2.084798	1.443883
21.3749181622451	2.0785012	1.4417008
21.392754567470647	2.1337578	1.4607388
21.41059149711187	2.167819	1.4723516
21.42842895164726	2.1577063	1.4689133
21.446266931555378	2.1022413	1.4499108
21.464105437314945	2.069641	1.4386247
21.481944469404798	2.0890193	1.445344
21.49978402830388	2.1037412	1.4504279
21.51762411449127	2.085603	1.4441617
21.53546472844617	2.046081	1.4304129
21.553305870647876	2.0389414	1.4279151
21.571147541575865	2.0215902	1.4218264
21.58898974170967	2.0608916	1.4355806
21.60683247152899	2.0843387	1.4437239
21.62467573151363	2.0649836	1.437005
21.642519522143523	2.0323212	1.425595
21.660363843898722	2.0135071	1.4189811
21.6782086972594	2.0028079	1.415206
21.696054082705864	1.9883534	1.4100899
21.713900000718535	1.984916	1.4088705
21.73174645177795	1.9966735	1.413037
21.749593436364794	2.0012808	1.4146663
21.767440954959845	2.0463924	1.4305217
21.785289008044032	2.0526829	1.4327188
21.803137596098388	2.0422254	1.4290645
21.820986719604086	1.9873481	1.4097333
21.838836379042412	1.9665626	1.4023418
21.85668657489478	1.9811248	1.4075243
21.87453730764273	1.9814043	1.4076236
21.892388577767914	1.9750888	1.4053786
21.91024038575213	1.9515855	1.3969916
21.928092732077285	1.9755027	1.4055258
21.945945617225426	2.0147045	1.4194028
21.963799041678694	2.0189674	1.4209037
21.981653005919398	31.299282	5.5945764
21.999507510429943	78.07583	8.836053
22.01736255569286	73.01893	8.545112
22.035218142190818	4.1391635	2.0344934
22.05307427040661	1.9743377	1.4051113
22.07093094082315	1.9818511	1.4077823
22.088788153923474	1.9682425	1.4029406
22.106645910190746	1.9750203	1.4053541
22.12450421010827	1.957335	1.3990479
22.142363054159464	1.9548762	1.3981689
22.16022244282787	1.968454	1.4030161
22.178082376597164	2.0038497	1.415574
22.195942855951145	2.0218294	1.4219104
22.213803881373742	2.0069695	1.4166754
22.231665453349002	1.9974988	1.413329
22.24952757236111	1.9757099	1.4055995
22.26739023889438	1.9621996	1.4007853
22.28525345343323	1.9625294	1.4009031
22.30311721646225	1.9476337	1.3955765
22.320981528466113	1.9407923	1.3931233
22.33884638992964	1.929576	1.3890918
22.356711801337788	1.9059544	1.380563
22.37457776317561	1.8942372	1.3763129
22.392444275928337	1.908318	1.3814188
22.410311340081282	1.9437854	1.3941971
22.428178956119904	1.9593288	1.3997602
22.446047124529805	1.931707	1.3898586
22.46391584579669	1.9014926	1.3789462
22.481785120406414	1.9206647	1.3858805
22.49965494884496	1.9569991	1.3989278
22.51752533159841	1.9572531	1.3990186
22.53539626915302	1.9148301	1.3837738
22.553267761995137	1.8846608	1.3728296
22.571139810611264	1.8893269	1.3745279
22.589012415488025	1.9234143	1.3868722
22.60688557711216	1.960353	1.4001261
22.624759295970566	1.9958376	1.4127412
22.642633572550263	2.005902	1.4162987
22.660508407338362	1.992063	1.4114046
22.67838380082217	1.9627628	1.4009864
22.696259753489077	1.9558399	1.3985134
22.714136265826614	1.9214326	1.3861575
22.73201333832246	1.9210496	1.3860193
22.74989097146439	1.9386679	1.3923606
22.76776916574035	1.9275395	1.3883586
22.785647921638393	1.9195926	1.3854936
22.803527239646712	1.8808819	1.3714525
22.82140712025363	1.8991754	1.3781058
22.839287563947593	1.9204295	1.3857956
22.85716857121719	1.8948772	1.3765454
22.875050142551135	1.878095	1.3704361
22.892932278438277	1.8673245	1.3665009
22.910814979367604	1.9024391	1.3792894
22.928698245828222	1.9261183	1.3878466
22.946582078309387	1.9119809	1.382744
22.96446647730047	1.9094296	1.3818212
22.98235144329098	1.9406005	1.3930544
23.000236976770562	1.9072328	1.381026
23.018123078229	1.8905131	1.3749593
23.03600974815619	1.8901247	1.3748181
23.053896987042194	1.9079049	1.3812693
23.071784795377173	1.8924413	1.3756603
23.08967317365145	1.8705546	1.3676822
23.10756212235546	1.8669796	1.3663746
23.125451641979787	1.866835	1.3663217
23.143341733015134	1.9013323	1.378888
23.161232395952357	1.9126868	1.3829992
23.179123631282426	1.9266223	1.3880281
23.197015439496468	1.8896551	1.3746473
23.214907821085717	1.8876376	1.3739133
23.23280077654157	1.8860888	1.3733495
23.250694306355538	1.9226488	1.3865961
23.268588411019277	1.9170457	1.3845742
23.28648309102458	1.9289931	1.3888819
23.304378346863356	1.9068389	1.3808833
23.322274179027676	1.9223439	1.3864862
23.340170588009723	1.9368446	1.3917056
23.358067574301852	1.9792422	1.4068555
23.37596513839651	1.9416834	1.393443
23.39386328078629	1.8963501	1.3770803
23.411762001963947	1.8863202	1.3734337
23.429661302422353	1.8642869	1.3653889
23.4475611826545	1.8811148	1.3715374
23.46546164315356	1.8694172	1.3672663
23.48336268441279	1.8885591	1.3742485
23.501264306925638	1.8802408	1.3712187
23.51916651118564	1.8864692	1.373488
23.537069297686497	1.8838757	1.3725436
23.554972666922037	1.9111928	1.3824589
23.57287661938623	1.9173816	1.3846955
23.59078115557318	1.9072418	1.3810292
23.608686275977128	1.8525499	1.3610841
23.62659198109246	1.8089815	1.3449838
23.6444982714137	1.8577048	1.3629764
23.66240514743549	1.8722215	1.3682915
23.68031260965263	1.864777	1.3655684
23.698220658560068	1.827429	1.3518244
23.716129294652845	1.84696	1.359029
23.7340385184262	1.8568115	1.3626487
23.75194833037546	1.8260925	1.3513299
23.769858730996123	1.8135471	1.34668
23.78776972078382	1.8325862	1.3537304
23.80568130023431	1.8811886	1.3715643
23.823593469843495	1.8664888	1.366195
23.841506230107424	1.8636035	1.3651386
23.859419581522275	1.8799965	1.3711296
23.87733352458438	1.8943423	1.3763511
23.89524805979019	1.9249628	1.3874303
23.913163187636318	1.9512616	1.3968756
23.931078908619508	2.003173	1.4153349
23.948995223236633	1.995725	1.4127014
23.966912131984735	1.9560915	1.3986034
23.98482963536096	1.9863164	1.4093674
24.002747733862616	1.9769938	1.4060562
24.020666427987155	2.000948	1.4145486
24.038585718232156	1.9931811	1.4118006
24.056505605095353	2.0161436	1.4199097
24.074426089074617	2.0458732	1.4303402
24.092347170667946	2.0513325	1.4322474
24.110268850373515	2.018722	1.4208174
24.128191128689586	1.9801434	1.4071757
24.146114006114626	1.9746714	1.40523
24.164037483147187	2.0326018	1.4256935
24.181961560286005	2.0497563	1.431697
24.199886238029926	2.0442002	1.4297553
24.21781151687797	2.0428057	1.4292675
24.235737397329274	2.0599775	1.4352622
24.253663879883135	2.0522194	1.432557
24.271590965038975	2.0395894	1.428142
24.289518653296376	2.0175574	1.4204074
24.30744694515505	2.0212047	1.4216908
24.32537584111486	2.0188186	1.4208513
24.34330534167581	2.0522416	1.4325647
24.361235447338046	2.0759575	1.4408183
24.379166158601876	2.0724351	1.4395955
24.39709747596772	2.0394907	1.4281074
24.41502939993615	2.0081966	1.4171085
24.432961931007917	1.9686627	1.4030905
24.450895069683856	1.9647453	1.4016937
24.468828816465	1.9279522	1.3885071
24.4867631718525	1.9035891	1.3797061
24.504698136347656	1.8951061	1.3766285
24.52263371045192	1.8906672	1.3750154
24.540569894666874	1.9171774	1.3846217
24.558506689494266	1.9389958	1.3924783
24.57644409543597	1.9730281	1.4046452
24.594382112994012	1.9990464	1.4138764
24.61232074267057	1.9921693	1.4114423
24.630259984967953	1.9371358	1.3918103
24.64819984038863	1.9286939	1.3887743
24.66614030943522	1.8959305	1.376928
24.684081392610462	1.9064511	1.3807429
24.702023090417274	1.9396224	1.3927033
24.7199654033587	1.9869045	1.409576
24.737908331937927	1.9865892	1.4094641
24.755851876658305	2.016548	1.420052
24.773796038023324	2.0138483	1.4191012
24.79174081653661	2.0268998	1.4236923
24.809686212701962	2.0712898	1.4391977
24.827632227023294	2.1072376	1.4516327
24.8455788600047	2.1173482	1.455111
24.8635261121504	2.1194916	1.4558474
24.88147398396475	2.1181288	1.4553792
24.899422475952303	2.1073275	1.4516637
24.917371588617698	2.1048071	1.4507953
24.935321322465768	2.1375754	1.462045
24.953271678001478	2.24607	1.4986894
24.97122265572994	2.430535	1.5590173
24.989174256156414	2.7790122	1.667037
25.00712647978632	3.3594291	1.8328745
25.02507932712521	4.370907	2.0906713
25.043032798678798	5.940919	2.4374
25.060986894952933	7.642605	2.7645261
25.078941616453637	9.130498	3.0216713
25.096896963687055	9.995774	3.1616094
25.114852937159508	10.682775	3.2684515
25.132809537377444	10.52806	3.244697
25.150766764847468	9.8836355	3.143825
25.168724620076347	8.430327	2.9035027
25.186683103570985	7.0787315	2.6605885
25.204642215838426	5.670041	2.3811848
25.222601957385894	4.593257	2.1431885
25.24056232872074	3.5704467	1.8895626
25.25852333035048	2.8403342	1.6853291
25.276484962782778	2.3897274	1.5458744
25.294447226525435	2.1627266	1.4706212
25.312410122086423	2.0618923	1.4359291
25.330373649973843	1.9918207	1.4113188
25.348337810695988	1.9510721	1.3968078
25.366302604761245	1.9212179	1.38608
25.384268032678207	1.9142176	1.3835526
25.40223409495558	1.9437994	1.3942021
25.420200792102257	1.9156022	1.3840529
25.438168124627246	1.8728011	1.3685032
25.45613609303974	1.8543897	1.3617598
25.474104697849057	1.8700144	1.3674847
25.492073939564698	1.8658725	1.3659694
25.510043818696285	1.884259	1.3726832
25.528014335753614	1.8646863	1.3655351
25.54598549124664	1.8519484	1.3608631
25.56395728568544	1.8282123	1.352114
25.58192971958028	1.8209316	1.349419
25.59990279344156	1.8261421	1.3513483
25.617876507779833	1.8380716	1.355755
25.635850863105826	1.8133353	1.3466014
25.653825859930386	1.8674773	1.3665568
25.671801498764548	1.8865652	1.3735229
25.68977778011949	1.8602562	1.3639121
25.707754704506524	1.8204777	1.3492508
25.725732272437153	1.8645386	1.365481
25.743710484423012	1.9028947	1.3794545
25.761689340975888	1.8962067	1.3770282
25.77966884260774	1.8636428	1.3651531
25.797648989830662	1.8331927	1.3539544
25.815629783156922	1.8310249	1.3531537
25.83361122309895	1.8660331	1.3660282
25.85159331016929	1.845792	1.3585993
25.869576044880695	1.7723737	1.3313053
25.887559427746034	1.790774	1.3381981
25.90554345927836	1.8552372	1.3620709
25.92352813999086	1.8989627	1.3780285
25.94151347039689	1.8335469	1.3540852
25.959499451009965	1.7738123	1.3318454
25.97748608234374	1.7940652	1.3394272
25.995473364912062	1.8188064	1.3486313
26.013461299228904	1.8252994	1.3510364
26.03144988580839	1.8293029	1.3525172
26.04943912516483	1.8184862	1.3485126
26.067429017812675	1.8578094	1.3630148
26.085419564266537	1.8632396	1.3650054
26.103410765041186	1.875738	1.3695759
26.12140262065155	1.8590837	1.3634822
26.139395131612723	1.842578	1.3574159
26.157388298439948	1.8493598	1.3599117
26.17538212164861	1.8665943	1.3662336
26.193376601754295	1.9380313	1.3921319
26.211371739272714	1.9048837	1.3801752
26.229367534719746	1.8550217	1.3619918
26.247363988611433	1.835589	1.3548391
26.26536110146397	1.8416377	1.3570695
26.283358873793727	1.8352984	1.3547319
26.301357306117204	1.839832	1.3564041
26.319356398951104	1.8284426	1.3521992
26.33735615281224	1.7960608	1.3401719
26.35535656821762	1.8159482	1.3475713
26.373357645684404	1.8350941	1.3546565
26.39135938572991	1.8188232	1.3486376
26.409361788871614	1.7913369	1.3384084
26.427364855627165	1.7538544	1.3243316
26.445368586514352	1.713083	1.308848
26.46337298205115	1.7583408	1.3260244
26.48137804275568	1.7812175	1.3346226
26.499383769146217	1.7880799	1.337191
26.517390161741215	1.7981119	1.3409369
26.53539722105928	1.7612406	1.3271174
26.553404947619182	1.7465438	1.3215687
26.571413341939856	1.7613844	1.3271716
26.589422404540397	1.8222783	1.3499179
26.60743213594006	1.8435651	1.3577795
26.62544253665827	1.8259676	1.3512837
26.64345360721459	1.8525969	1.3611014
26.66146534812879	1.831798	1.3534393
26.679477759920758	1.774713	1.3321836
26.69749084311057	1.7322763	1.3161597
26.71550459821847	1.7666276	1.3291454
26.733519025764842	1.7809452	1.3345206
26.751534126270258	1.766283	1.3290159
26.769549900255434	1.7847668	1.3359517
26.787566348241267	1.8081353	1.3446692
26.80558347074881	1.8134059	1.3466276
26.823601268299267	1.8161484	1.3476455
26.841619741414036	1.8097382	1.345265
26.85963889061465	1.7834977	1.3354766
26.877658716422832	1.7972212	1.3406048
26.89567921936045	1.8301264	1.3528216
26.913700399949544	1.8240613	1.3505781
26.93172225871233	1.8296374	1.3526409
26.949744796171174	1.8803145	1.3712456
26.967768012848605	1.8686407	1.3669823
26.98579190926733	1.8608204	1.3641189
27.003816485950225	1.8415921	1.3570527
27.021841743420318	1.801038	1.3420275
27.039867682200814	1.7270468	1.3141716
27.057894302815072	1.7289428	1.3148926
27.07592160578664	1.7640651	1.3281811
27.0939495916392	1.7901019	1.3379469
27.111978260896635	1.8092748	1.3450929
27.13000761408296	1.8455696	1.3585174
27.148037651722397	1.8033913	1.3429041
27.166068374339304	1.7785826	1.3336351
27.184099782458215	1.7666813	1.3291657
27.20213187660384	1.7606747	1.3269042
27.22016465730105	1.7657174	1.328803
27.23819812507487	1.7808071	1.3344688
27.256232280450533	1.7622075	1.3274816
27.274267123953383	1.7600286	1.3266608
27.292302656108987	1.8135971	1.3466986
27.31033887744306	1.8281637	1.3520961
27.32837578848146	1.8506823	1.3603978
27.34641338975026	1.8429904	1.3575678
27.364451681775673	1.8334631	1.3540543
27.382490665084074	1.8358428	1.3549328
27.400530340202046	1.8195904	1.348922
27.41857070765629	1.825216	1.3510056
27.436611767973726	1.8113608	1.3458681
27.454653521681404	1.7896075	1.3377621
27.472695969306564	1.772527	1.3313628
27.490739111376627	1.7857336	1.3363135
27.508782948419153	1.8140205	1.3468558
27.526827480961902	1.7923689	1.3387939
27.54487270953279	1.7867143	1.3366803
27.562918634659898	1.7719216	1.3311355
27.580965256871508	1.8147442	1.3471245
27.599012576696026	1.8588902	1.3634112
27.617060594662068	1.8690997	1.3671502
27.63510931129842	1.8613408	1.3643097
27.65315872713401	1.7913133	1.3383995
27.67120884269797	1.7878324	1.3370985
27.68925965851958	1.8149047	1.347184
27.707311175128307	1.8117993	1.346031
27.725363393053787	1.8241241	1.3506014
27.74341631282583	1.8530909	1.3612828
27.7614699349744	1.8964434	1.3771142
27.77952426002968	2.104486	1.4506847
27.797579288521973	2.1911848	1.4802651
27.815635020981784	2.4748187	1.5731556
27.83369145793979	2.4904222	1.5781071
27.85174859992682	2.363197	1.5372694
27.869806447473923	2.222411	1.4907752
27.887865001112267	1.9527551	1.3974102
27.905924261373233	1.9153118	1.3839478
27.92398422878836	1.9014821	1.3789424
27.94204490388936	1.8513469	1.3606421
27.96010628720813	1.8659519	1.3659985
27.978168379276728	1.8515965	1.3607337
27.9962311806274	1.9024535	1.3792946
28.014294691792568	1.942072	1.3935825
28.0323589133048	1.9656327	1.4020102
28.050423845696887	1.9643254	1.401544
28.068489489501758	1.9398998	1.3928028
28.086555845252523	1.8758608	1.3696207
28.104622913482487	1.8377333	1.3556302
28.122690694725115	1.8656769	1.3658978
28.14075918951405	1.8551197	1.3620278
28.15882839838312	1.9000077	1.3784077
28.176898321866304	1.9109794	1.3823818
28.1949689604978	1.8700634	1.3675026
28.213040314811945	1.880291	1.371237
28.23111238534327	1.930381	1.3893815
28.249185172626493	1.9174918	1.3847352
28.267258677196473	1.9065534	1.38078
28.285332899588294	1.8837466	1.3724965
28.303407840337172	1.887826	1.3739818
28.321483499978545	1.9970996	1.4131877
28.33955987904799	2.0212858	1.4217193
28.357636978081285	1.9675772	1.4027035
28.37571479761439	1.9565263	1.3987589
28.393793338183425	1.9959983	1.412798
28.41187260032469	1.9590769	1.3996702
28.429952584574686	1.9692695	1.4033066
28.448033291470065	1.990909	1.4109957
28.46611472154769	2.0183964	1.4207028
28.484196875344566	2.0130632	1.4188246
28.502279753397914	2.0127	1.4186966
28.52036335624511	1.9687737	1.4031299
28.538447684423716	1.9623618	1.4008433
28.556532738471482	1.9523315	1.3972586
28.574618518926325	1.964038	1.4014415
28.59270502632635	2.0305643	1.4249787
28.61079226120985	2.0834403	1.4434128
28.628880224115274	2.048505	1.43126
28.646968915581287	2.0349357	1.4265118
28.66505833614671	2.0772467	1.4412657
28.68314848635055	2.1217165	1.4566113
28.701239366732004	2.1028688	1.4501271
28.71933097783044	2.1027331	1.4500804
28.737423320185403	2.0975173	1.4482808
28.75551639433665	2.1281452	1.4588164
28.773610200824074	2.1196015	1.4558852
28.791704740187793	2.0939043	1.4470329
28.80980001296809	2.08353	1.4434438
28.827896019705413	2.1027188	1.4500755
28.845992760940433	2.1782758	1.4758983
28.86409023721397	2.1959965	1.4818895
28.88218844906704	2.178218	1.4758787
28.900287397040845	2.202664	1.4841374
28.918387081676755	2.2383397	1.4961082
28.936487503516343	2.2392445	1.4964105
28.954588663101365	2.311794	1.5204585
28.97269056097374	2.3487875	1.5325755
28.990793197675597	2.3641574	1.5375817
29.00889657374923	2.3371298	1.5287675
29.027000689737125	2.3210783	1.5235085
29.04510554618196	2.295245	1.5150065
29.06321114362659	2.2857425	1.5118673
29.08131748261405	2.3345273	1.527916
29.099424563687567	2.4277854	1.5581353
29.11753238739057	2.5040038	1.5824044
29.13564095426663	2.508857	1.5839372
29.15375026485954	2.4841247	1.5761106
29.171860319713275	2.4972975	1.580284
29.18997111937199	2.5856266	1.6079884
29.20808266438002	2.695693	1.6418566
29.226194955281898	2.7838123	1.668476
29.244307992622335	2.8212569	1.6796597
29.26242177694624	2.8724966	1.6948441
29.2805363087987	2.899964	1.7029281
29.29865158872498	2.9141142	1.7070777
29.316767617270557	2.9029336	1.7037997
29.334884394981064	2.9143298	1.7071408
29.353001922402367	2.8990185	1.7026504
29.37112020008047	2.9744885	1.7246705
29.389239228561596	3.1360493	1.7708894
29.407359008392152	3.306177	1.8182895
29.42547954011872	3.5689	1.8891532
29.44360082428809	4.102253	2.0254018
29.46172286144722	4.9314246	2.2206812
29.479845652143283	6.555024	2.5602782
29.497969196923606	9.393566	3.0648925
29.516093496335728	13.358653	3.6549492
29.5342185509274	16.952015	4.1172824
29.55234436124651	20.353857	4.5115247
29.570470927841175	21.845507	4.673918
29.588598251259686	21.50832	4.6377063
29.60672633205055	19.855785	4.455983
29.624855170762405	16.698385	4.0863657
29.642984767944146	13.184817	3.6310904
29.66111512414481	9.76982	3.1256711
29.67924623991366	7.1761947	2.678842
29.697378115800138	5.259894	2.2934458
29.71551075235387	4.270137	2.066431
29.733644150124675	3.8092518	1.9517305
29.751778309662576	3.5755658	1.8909167
29.769913231517766	3.4988978	1.8705341
29.78804891624066	3.4204795	1.8494538
29.806185364381818	3.353346	1.8312144
29.82432257649206	3.3202229	1.8221478
29.842460553122333	3.2593138	1.805357
29.86059929482382	3.192026	1.7866242
29.878738802147872	3.2176282	1.7937748
29.896879075646048	3.2673056	1.807569
29.915020115870114	3.2407064	1.8001962
29.933161923371976	3.241097	1.8003047
29.951304498703777	3.23503	1.7986189
29.969447842417857	3.2221713	1.7950407
29.987591955066733	3.2095912	1.7915332
30.005736837203123	3.198656	1.7884787
30.023882489379943	3.2044623	1.7901012
30.04202891215028	3.2073095	1.7908963
30.060176106067455	3.252148	1.8033713
30.078324071684946	3.2671103	1.8075149
30.09647280955646	3.214513	1.7929063
30.114622320235863	3.1977596	1.788228
30.132772604277257	3.1144507	1.7647806
30.1509236622349	3.1404045	1.7721187
30.16907549466328	3.1753192	1.7819425
30.18722810211705	3.1577408	1.7770033
30.205381485151097	3.093219	1.758755
30.22353564432045	3.0625198	1.7500056
30.241690580180403	3.0735168	1.7531449
30.25984629328638	3.1074963	1.7628092
30.278002784194037	3.1109412	1.7637861
30.296160053459246	3.0565505	1.7482994
30.314318101638033	2.9645	1.7217723
30.332476929286646	2.9531102	1.7184616
30.35063653696153	2.9834034	1.7272532
30.368796925219307	2.9127069	1.7066654
30.386958094616844	2.8570378	1.6902775
30.40512004571115	2.8601387	1.6911944
30.423282779059463	2.8038347	1.6744655
30.441446295219233	2.8392918	1.6850199
30.459610594748067	2.8587463	1.6907828
30.47777567820382	2.8354597	1.6838824
30.495941546144504	2.819895	1.6792543
30.51410819912835	2.7868373	1.6693823
30.532275637713795	2.7519774	1.6589085
30.55044386245946	2.7232013	1.6502125
30.56861287392416	2.7679408	1.663713
30.586782672666956	2.8088841	1.6759726
30.604953259247047	2.7465382	1.6572683
30.623124634223885	2.7526643	1.6591156
30.641296798157075	2.7677734	1.6636627
30.659469751606462	2.753341	1.6593194
30.677643495132074	2.752889	1.6591833
30.695818029294152	2.7591093	1.6610566
30.713993354653116	2.7404563	1.6554323
30.73216947176962	2.7489963	1.6580098
30.75034638120448	2.7567894	1.6603582
30.768524083518756	2.7184355	1.6487678
30.786702579273673	2.7297964	1.6522095
30.80488186903069	2.8707392	1.6943256
30.82306195335144	3.0568054	1.7483722
30.841242832797782	3.3109412	1.8195992
30.85942450793176	3.6608238	1.9133279
30.877606979315637	3.9497135	1.9873886
30.895790247511883	4.248956	2.0612996
30.913974313083134	4.6886168	2.1653214
30.932159176592283	5.146974	2.2686944
30.95034483860237	5.408367	2.3255897
30.968531299676698	5.4648867	2.3377097
30.98671856037873	5.1705365	2.2738814
31.00490662127215	4.6832924	2.1640916
31.023095482920848	4.2331777	2.0574687
31.04128514588892	3.7668886	1.9408474
31.059475610740662	3.2220962	1.7950199
31.07766687804056	2.8016129	1.6738019
31.09585894835335	2.5664802	1.6020237
31.11405182224393	2.4381094	1.5614446
31.132245500277417	2.4257333	1.5574766
31.15043998301914	2.4484112	1.56474
31.168635271034628	2.5397582	1.5936619
31.18683136488964	2.6325219	1.6225048
31.20502826515008	2.574968	1.6046708
31.223225972382135	2.4355767	1.5606334
31.241424487152155	2.4446206	1.5635283
31.259623810026692	2.4428692	1.562968
31.27782394157253	2.4312572	1.5592489
31.296024882356644	2.3776345	1.541958
31.314226632946237	2.3788757	1.5423604
31.332429193908684	2.399954	1.5491785
31.350632565811598	2.3947277	1.5474908
31.368836749222787	2.428257	1.5582865
31.387041744710295	2.4994593	1.5809678
31.40524755284232	2.511584	1.5847977
31.423454174187317	2.5278747	1.5899291
31.441661609313922	2.494092	1.5792694
31.459869858791002	2.4283597	1.5583196
31.478078923187628	2.4288852	1.5584881
31.496288803073064	2.450945	1.5655494
31.514499499016807	2.39601	1.547905
31.532711011588546	2.3380969	1.5290836
31.550923341358178	2.3093905	1.5196679
31.56913648889584	2.3248084	1.5247322
31.587350454771844	2.326563	1.5253074
31.605565239556732	2.248144	1.4993812
31.62378084382127	2.1394806	1.4626963
31.641997268136382	2.149925	1.4662622
31.660214513073274	2.2378802	1.4959546
31.67843257920331	2.343781	1.5309412
31.6966514670981	2.3715043	1.539969
31.71487117732944	2.3483877	1.532445
31.733091710469346	2.2846344	1.5115007
31.751313067090052	2.2199886	1.4899626
31.769535247764008	2.210436	1.4867536
31.787758253063878	2.2250566	1.4916624
31.805982083562526	2.1971917	1.4822928
31.824206739833024	2.1762376	1.4752077
31.84243222244869	2.187286	1.4789475
31.860658531983013	2.2710283	1.5069932
31.878885669009737	2.3155415	1.5216904
31.897113634102784	2.2832355	1.511038
31.91534242783632	2.2439637	1.4979866
31.933572050784694	2.2578368	1.50261
31.951802503522508	2.2621722	1.5040519
31.970033786624548	2.2356153	1.4951974
31.988265900665834	2.19436	1.4813372
32.006498846221575	2.1378624	1.4621431
32.02473262386724	2.1246204	1.4576077
32.04296723417845	2.1644294	1.4712
32.0612026777311	2.247583	1.4991941
32.07943895510129	2.2390594	1.4963487
32.097676066865304	2.2130337	1.4876269
32.115914013599685	2.2075129	1.4857701
32.13415279588115	2.1622636	1.4704638
32.152392414286666	2.156309	1.4684376
32.1706328693934	2.1507785	1.4665533
32.18887416177875	2.169666	1.4729786
32.20711629202032	2.1572008	1.4687412
32.225359260695924	2.199334	1.4830152
32.243603068383614	2.2067761	1.4855222
32.26184771566166	2.1395147	1.462708
32.28009320310852	2.1183147	1.4554431
32.2983395313029	2.1446278	1.4644548
32.31658670082372	2.13203	1.4601473
32.33483471225012	2.0678935	1.4380172
32.35308356616143	2.0993664	1.448919
32.371333263137245	2.0639188	1.4366345
32.38958380375734	2.0338204	1.4261208
32.407835188601744	2.0749881	1.4404819
32.42608741825067	2.0433874	1.429471
32.444340493284585	2.0986106	1.4486582
32.46259441428416	2.1141565	1.454014
32.48084918183028	2.050571	1.4319814
32.49910479650405	2.0195696	1.4211156
32.51736125888683	2.1407866	1.4631428
32.53561856956014	2.146459	1.4650799
32.5538767291058	2.0184107	1.4207078
32.572135738105764	1.9922212	1.4114606
32.59039559714228	1.9344754	1.3908542
32.608656306797776	1.9286518	1.3887591
32.62691786765491	2.0057137	1.4162322
32.645180280296586	2.0897167	1.4455853
32.663443545305896	2.1459453	1.4649045
32.68170766326619	2.1534624	1.467468
32.69997263476099	2.095182	1.4474744
32.7182384603741	2.0695517	1.4385936
32.7365051406895	2.035759	1.4268003
32.75477267629144	1.9527683	1.3974149
32.77304106776434	1.9626108	1.4009321
32.79131031569289	1.9834921	1.408365
32.809580420661966	2.020843	1.4215636
32.827851383256714	2.0483992	1.431223
32.84612320406245	2.0231302	1.4223678
32.86439588366476	2.008021	1.4170467
32.88266942264945	2.0304208	1.4249283
32.9009438216025	2.0345132	1.4263636
32.9192190811102	2.0205505	1.4214607
32.937495201758985	2.0377095	1.4274836
32.95577218413556	2.0443885	1.4298211
32.974050028826866	2.0056243	1.4162006
32.992328736420035	2.0428886	1.4292966
33.010608307502444	2.0330877	1.4258639
33.02888874266169	1.9128811	1.3830695
33.047170042485604	1.7639056	1.3281211
33.06545220756225	1.7381177	1.3183769
33.083735238479896	1.924278	1.3871834
33.10201913582707	2.0390995	1.4279704
33.12030390019248	2.0241137	1.4227135
33.138589532165135	1.9940455	1.4121068
33.15687603233419	1.9218068	1.3862925
33.17516340128909	1.88439	1.3727309
33.19345163961947	1.9661404	1.4021913
33.211740747915215	2.0193582	1.4210413
33.23003072676643	1.9513326	1.396901
33.248321576763466	1.9132664	1.3832088
33.266613298496885	1.9306849	1.3894908
33.28490589255747	1.9263809	1.3879412
33.30319935953626	2.0852287	1.4440321
33.32149370002451	2.0803213	1.4423319
33.339788914613706	1.9628603	1.4010211
33.358085003895575	1.8891226	1.3744535
33.376381968462034	1.961744	1.4006227
33.39467980890529	2.0019934	1.4149182
33.41297852581774	1.9315647	1.3898075
33.43127811979204	1.8155104	1.3474088
33.44957859142105	1.9035184	1.3796805
33.467879941297866	2.0388627	1.4278874
33.486182170015844	2.1367238	1.4617536
33.50448527816853	2.1413736	1.4633433
33.522789266349754	2.070863	1.4390494
33.541094135153514	1.9176941	1.3848083
33.55939988517411	1.9664136	1.4022887
33.57770651700602	2.049105	1.4314694
33.59601403124398	2.0243378	1.4227922
33.61432242848296	1.9905766	1.410878
33.632631709318154	1.9740224	1.404999
33.650941874344994	1.9599262	1.3999736
33.66925292415916	1.9815444	1.4076734
33.68756485935654	1.9487199	1.3959656
33.70587768053328	1.9630408	1.4010856
33.724191388285746	2.044929	1.4300102
33.74250598321054	1.9659863	1.4021363
33.760821465904506	1.9101181	1.3820702
33.77913783696474	2.007667	1.4169217
33.79745509698852	1.953542	1.3976916
33.815773246573414	1.8050325	1.3435149
33.8340922863172	1.7955737	1.3399901
33.852412216817896	1.7769198	1.3330116
33.87073303867377	1.7776204	1.3332744
33.889054752483304	1.8700243	1.3674884
33.907377358845245	1.9291928	1.3889538
33.92570085835853	2.0179007	1.4205283
33.94402525162239	2.018171	1.4206234
33.96235053923627	2.0628512	1.436263
33.980676721799824	2.055981	1.4338692
33.999003799912984	2.0132163	1.4188786
34.01733177417592	1.9293202	1.3889997
34.03566064518901	1.8699143	1.3674481
34.0539904135529	1.8143454	1.3469764
34.07232107986846	1.8740822	1.3689712
34.090652644736785	1.9802474	1.4072126
34.108985108759235	2.012044	1.4184654
34.12731847253742	1.9664341	1.4022961
34.14565273667313	1.9758177	1.4056379
34.16398790176847	1.9348551	1.3909907
34.18232396842574	1.9804244	1.4072756
34.20066093724749	1.9716822	1.404166
34.21899880883651	1.8782381	1.3704883
34.23733758379583	1.8084499	1.3447862
34.25567726272874	1.9055835	1.3804288
34.27401784623872	1.9408001	1.393126
34.29235933492957	1.916399	1.3843406
34.31070172940526	1.9603792	1.4001354
34.32904503027003	2.0503492	1.4319041
34.347389238128386	2.0265763	1.4235787
34.36573435358502	1.9422007	1.3936286
34.38408037724492	1.9238647	1.3870345
34.402427309713296	1.9953501	1.4125686
34.42077515159559	1.94117	1.3932588
34.43912390349752	1.9307973	1.3895314
34.45747356602499	2.0603108	1.4353783
34.47582413978423	2.0418646	1.4289383
34.49417562538163	2.0126731	1.4186871
34.51252802342388	2.055904	1.4338423
34.53088133451789	2.0460064	1.4303868
34.54923555927084	2.0556746	1.4337624
34.567590698290104	2.1338809	1.4607809
34.58594675218336	1.916579	1.3844056
34.6043037215585	1.7722815	1.3312707
34.62266160702365	1.8954198	1.3767425
34.641020409187234	1.9473463	1.3954735
34.65938012865785	1.8747879	1.369229
34.677740766044394	2.0084846	1.4172101
34.69610232195598	1.9651327	1.4018319
34.714464797002016	1.9278411	1.3884672
34.73282819179208	2.0615115	1.4357965
34.751192506936064	1.9774622	1.4062227
34.76955774304408	1.8179214	1.3483032
34.7879239007265	1.862379	1.3646901
34.80629098059391	1.9030352	1.3795054
34.824658983257194	1.9985514	1.4137013
34.843027909327446	1.8820878	1.3718921
34.86139775941603	1.8780944	1.3704358
34.879768534134534	1.9834433	1.4083477
34.89814023409483	1.9675417	1.4026909
34.91651285990901	1.9808637	1.4074316
34.93488641218944	2.0566113	1.4340891
34.95326089154871	2.0645678	1.4368604
34.97163629859967	1.9780895	1.4064456
34.99001263395542	1.9536197	1.3977195
35.00838989822934	1.8485109	1.3595995
35.02676809203499	2.0037894	1.4155527
35.04514721598624	2.060283	1.4353685
35.063527270697215	1.8555032	1.3621686
35.081908256782256	1.6864271	1.2986251
35.10029017485597	1.7962193	1.3402311
35.11867302553321	1.878898	1.370729
35.137056809429104	2.0172513	1.4202996
35.155441527159006	2.1660423	1.471748
35.173827179338524	2.0931156	1.4467604
35.19221376658354	2.035542	1.4267242
35.21060128951017	1.956869	1.3988813
35.2289897487348	1.8379076	1.3556945
35.24737914487405	1.9748553	1.4052955
35.26576947854479	2.1974764	1.4823887
35.28416075036418	2.1048017	1.4507935
35.30255296094958	2.0242138	1.4227487
35.32094611091867	2.0907128	1.4459298
35.33934020088932	2.1155345	1.4544877
35.35773523147969	2.1063116	1.4513137
35.3761312033082	2.21771	1.4891977
35.394528116993506	2.1248055	1.4576713
35.41292597315452	1.7564621	1.3253158
35.431324772410434	1.7445698	1.3208216
35.449724515380666	1.7457794	1.3212794
35.46812520268491	1.9078418	1.3812464
35.486526834943106	2.441981	1.5626839
35.504929412775454	2.45089	1.5655318
35.52333293680242	2.1760597	1.4751474
35.54173740764471	2.3746672	1.5409955
35.560142825923286	2.1676695	1.4723008
35.5785491922594	1.5719355	1.2537686
35.59695650727454	1.1314892	1.0637147
35.61536477159042	0.4990961	0.70646733
