0.008763373481513119	0.0	0.0
0.026290120649546365	0.0	0.0
0.043816868432600686	0.059373353	0.24366648
0.06134361724069026	0.19585162	0.44255126
0.07887036748382949	0.2215582	0.4706997
0.0963971195720331	0.20177208	0.44919047
0.11392387391531617	0.112626314	0.33559844
0.1314506309236943	0.05881918	0.24252665
0.1489773910071836	0.12116785	0.34809172
0.16650415457580078	0.23428108	0.4840259
0.18403092203956356	0.30902866	0.55590343
0.20155769380849	0.24902304	0.49902207
0.2190844702925996	0.20614083	0.45402735
0.2366112519019124	0.1570919	0.3963482
0.2541380390464497	0.1672837	0.4090033
0.27166483213623416	0.17463043	0.41788808
0.28919163158128947	0.17205223	0.4147918
0.3067184377916406	0.14826678	0.38505426
0.324245251177314	0.1303196	0.36099806
0.34177207214833777	0.12304178	0.35077313
0.3592989011147415	0.13232306	0.36376235
0.37682573848655654	0.14134236	0.37595525
0.39435258467381573	0.13483542	0.36719942
0.41187944008655414	0.1591397	0.39892316
0.42940630513480854	0.18485256	0.42994484
0.446933180228618	0.19378135	0.44020602
0.4644600657780234	0.13219813	0.3635906
0.48198696219306775	0.07738893	0.27818865
0.49951386988379676	0.07290872	0.27001616
0.5170407892602581	0.10026126	0.3166406
0.5345677207325025	0.13211645	0.36347827
0.5520946647105822	0.11702064	0.3420828
0.5696216216045534	0.11227934	0.3350811
0.5871485918244737	0.13213107	0.3634984
0.6046755757804043	0.18873146	0.43443236
0.6222025738824094	0.19884361	0.44591883
0.6397295865405557	0.19699878	0.44384545
0.6572566141649129	0.22130622	0.47043195
0.6747836571655547	0.21172313	0.46013382
0.6923107159525568	0.19947287	0.44662386
0.7098377909359992	0.14717886	0.38363898
0.7273648825259653	0.143891	0.37932968
0.7448919911325411	0.1463303	0.38253143
0.762419117165817	0.1905592	0.43653086
0.7799462610358868	0.20867631	0.456811
0.7974734231528482	0.19748959	0.44439802
0.8150006039268024	0.18514596	0.4302859
0.8325278037678551	0.17294574	0.41586745
0.8500550230861152	0.16450612	0.40559354
0.8675822622916969	0.18845077	0.43410918
0.8851095217947171	0.20591402	0.4537775
0.9026368020052984	0.203203	0.45078042
0.9201641033335665	0.18508723	0.43021765
0.9376914261896523	0.18218346	0.42682955
0.9552187709836915	0.18255147	0.42726043
0.9727461381258234	0.19614147	0.4428786
0.990273528026193	0.20320056	0.45077774
1.0078009410949496	0.22646669	0.47588515
1.0253283777422473	0.2766412	0.5259669
1.0428558383782454	0.28498536	0.5338402
1.0603833234131086	0.27473983	0.52415633
1.0779108332570058	0.29214656	0.5405058
1.0954383683201119	0.2905405	0.5390181
1.112965929012607	0.35373926	0.5947598
1.1304935157446763	0.4942862	0.7030549
1.1480211289265108	0.6006254	0.7750003
1.1655487689683062	1.4766845	1.2151891
1.1830764362802655	1.7518455	1.323573
1.200604131272596	2.118231	1.4554144
1.2181318543555117	2.3138232	1.5211257
1.235659605939232	2.3595166	1.5360718
1.253187386433982	4.1062865	2.0263975
1.270715196249994	6.522525	2.5539234
1.2882430357975057	11.995205	3.4634094
1.3057709054867608	16.728313	4.090026
1.3232988057280106	22.583292	4.752188
1.3408267369315112	27.138443	5.209457
1.358354699507526	30.451439	5.5182824
1.3758826938663256	34.460358	5.8702946
1.3934107204181858	37.151573	6.095209
1.410938779573391	37.748394	6.1439724
1.4284668717422309	38.37338	6.194625
1.4459949973350033	37.95829	6.16103
1.4635231567620117	37.876553	6.1543927
1.4810513504335687	37.23491	6.1020412
1.4985795787599925	36.444	6.0368867
1.5161078421516088	36.13042	6.0108585
1.5336361410187505	35.607502	5.967202
1.5511644757717598	35.313896	5.9425497
1.5686928468209842	35.72848	5.9773307
1.58622125457678	36.1335	6.0111146
1.6037496994495108	37.002758	6.082989
1.621278181849548	36.647278	6.0536995
1.6388067021872719	37.50481	6.124117
1.6563352608730693	37.020622	6.0844574
1.673863858317336	36.200104	6.016652
1.6913924949304753	35.301647	5.941519
1.7089211711228998	34.21154	5.8490634
1.7264498873050296	33.613056	5.7976766
1.7439786438872935	32.702656	5.7186236
1.7615074412801288	32.063538	5.6624675
1.779036279893981	31.49816	5.6123223
1.796565160139305	30.644358	5.5357347
1.814094082426564	29.838448	5.462458
1.8316230471662298	28.718363	5.3589516
1.849152054768784	27.740835	5.266957
1.8666811056447168	27.374893	5.2321024
1.8842102002045273	26.67855	5.165128
1.901739338858724	26.23574	5.1220837
1.9192685220178245	25.703173	5.0698295
1.9367977500923557	24.986908	4.9986906
1.9543270234928547	24.45332	4.9450297
1.971856342629867	23.834002	4.882008
1.9893857079139496	23.340176	4.831167
2.006915119755667	22.988716	4.794655
2.0244445785655945	22.495499	4.742942
2.0419740847543175	22.138695	4.7051773
2.0595036387324317	21.468292	4.633389
2.0770332409105414	20.812218	4.562041
2.094562891699263	20.280085	4.5033417
2.1120925915092217	19.974655	4.469301
2.129622340751053	19.916153	4.462752
2.1471521398354043	188.1909	13.718269
2.1646819891729323	444.43906	21.081724
2.182211889174303	440.645	20.991545
2.1997418402501974	452.75415	21.27802
2.2172718428113023	432.71036	20.801691
2.234801897268317	320.77582	17.910215
2.2523320040319548	17.35636	4.166096
2.269862163512935	17.136494	4.1396246
2.287392376121992	16.595352	4.0737395
2.304922642269869	16.163162	4.020344
2.322452962367322	15.843307	3.980365
2.3399833368251164	15.690002	3.9610608
2.357513766054032	15.4630785	3.932312
2.3750442504648586	15.072625	3.8823478
2.3925747904683963	14.715693	3.836104
2.410105386475459	14.333236	3.785926
2.4276360388968707	14.083106	3.7527466
2.445166748143469	14.040593	3.747078
2.4626975146261025	13.893539	3.7274039
2.4802283387556323	13.536803	3.6792395
2.4977592209429305	13.09311	3.6184404
2.5152901615988825	12.845016	3.5839944
2.5328211611343865	12.823864	3.5810423
2.5503522199603523	12.787777	3.5760002
2.5678833384877024	12.809719	3.5790668
2.5854145171273712	12.573255	3.5458786
2.6029457562903064	12.370311	3.5171452
2.620477056387469	12.032691	3.468817
2.6380084178298326	11.832508	3.4398413
2.655539841028383	11.599849	3.4058552
2.673071326394119	11.385011	3.3741682
2.6906028743380523	11.086649	3.329662
2.708134485271211	10.99402	3.3157232
2.7256661596046325	10.876421	3.297942
2.743197897749369	10.577909	3.2523699
2.760729700116486	10.394933	3.2241173
2.778261567117063	10.226545	3.197897
2.795793499162193	10.08091	3.1750448
2.8133254966629817	9.89359	3.1454077
2.830857560030551	9.744962	3.1216922
2.8483896896760337	9.739043	3.120744
2.865921886010578	9.541863	3.0889907
2.883454149445347	9.3917675	3.064599
2.9009864803915177	9.299266	3.0494697
2.91851887926028	9.149607	3.0248318
2.9360513464628384	9.089733	3.0149183
2.953583882410413	8.894007	2.9822822
2.9711164875142373	8.888192	2.981307
2.9886491621855606	8.804893	2.967304
3.0061819068356455	8.719245	2.9528368
3.023714721875769	8.6831	2.9467099
3.041247607717225	8.672167	2.9448543
3.0587805647713213	8.599831	2.9325469
3.0763135934493806	8.448976	2.906712
3.0938466941627407	8.142047	2.8534272
3.1113798673227544	7.8828144	2.807635
3.1289131133407904	7.7697268	2.787423
3.1464464326282315	7.8044333	2.7936416
3.1639798255964786	7.876072	2.806434
3.1815132926569443	7.763898	2.7863772
3.1990468342210603	7.604619	2.7576473
3.216580450700272	7.4503436	2.7295318
3.2341141425060416	7.3479834	2.7107165
3.251647910049847	7.4573007	2.7308059
3.2691817537431813	7.3374133	2.708766
3.286715673997555	7.2711673	2.6965103
3.3042496712244938	7.102973	2.6651404
3.32178374583554	7.057833	2.6566582
3.339317898242251	6.979336	2.6418433
3.3568521288562034	6.90711	2.628138
3.3743864380889876	6.800858	2.6078455
3.3919208263522127	6.777075	2.6032815
3.4094552940575023	6.727693	2.5937798
3.4269898416164972	6.6490955	2.578584
3.444524469440858	6.53775	2.5569024
3.4620591779422587	6.4104013	2.531877
3.479593967532391	6.4226384	2.5342925
3.4971288386229658	6.4379463	2.5373108
3.5146637916257086	6.425622	2.534881
3.5321988269523628	6.4049253	2.5307953
3.5497339450146903	6.3542128	2.5207565
3.5672691462244708	6.2524185	2.5004838
3.5848044309934988	6.155469	2.4810216
3.60233979973359	6.0960207	2.469012
3.619875252856575	6.1126766	2.4723828
3.6374107907743034	6.111215	2.4720871
3.6549464138986427	6.0985255	2.4695194
3.6724821226414788	6.18192	2.4863467
3.690017917414714	6.2141676	2.4928231
3.7075537986302702	6.208079	2.4916017
3.7250897667000857	6.24921	2.499842
3.7426258220361235	6.4406195	2.5378375
3.7601619650503553	6.822644	2.6120193
3.777698196154779	7.3118052	2.704035
3.7952345157614067	8.26271	2.874493
3.8127709242822716	8.988508	2.998084
3.830307422129425	11.309918	3.3630223
3.847844009714936	30.32439	5.5067587
3.8653806874508954	97.84531	9.891679
3.882917455749409	97.04711	9.85125
3.900454315022606	96.737076	9.835501
3.917991265682631	41.30661	6.427022
3.9355283081416506	10.957595	3.3102257
3.9530654428118495	8.718198	2.9526594
3.970602670105433	7.5063105	2.7397647
3.9881399904346244	6.610634	2.5711153
4.005677404211669	6.461164	2.541882
4.023214911848827	6.40467	2.5307448
4.0407525137583855	6.3482494	2.5195732
4.058290210352644	6.3813653	2.5261364
4.075828002043927	6.2394996	2.497899
4.0933658892445814	6.1458545	2.4790833
4.110903872366966	5.9873815	2.4469125
4.128441951823468	5.922946	2.4337103
4.145980128026488	5.9722424	2.4438171
4.163518401388452	6.06209	2.4621313
4.181056772321807	6.068982	2.4635303
4.1985952412390155	6.0676155	2.463253
4.216133808552567	6.089302	2.4676511
4.233672474674966	6.261586	2.5023162
4.251211240018741	6.5178237	2.5530028
4.268750104996445	6.727577	2.5937574
4.286289070020643	7.4861174	2.736077
4.303828135503928	9.082674	3.0137475
4.3213673018589125	29.38566	5.420854
4.3389065694982305	90.67092	9.522128
4.356445938834537	165.94336	12.881901
4.3739854102805085	171.49039	13.095434
4.391524984248844	172.3253	13.127274
4.409064661152262	136.47256	11.682147
4.426604441403504	96.73586	9.835439
4.444144325415337	75.75225	8.703577
4.461684313600543	21.677599	4.655921
4.47922440637193	22.019106	4.692452
4.496764604142329	20.482857	4.525799
4.5143049073245916	18.67103	4.3209987
4.531845316331589	16.421808	4.052383
4.5493858315762195	13.623912	3.6910584
4.566926453471405	11.362837	3.3708806
4.584467182430081	9.428124	3.0705252
4.602008018865218	8.251207	2.8724916
4.619548963189798	7.514513	2.7412612
4.637090015816834	7.0315986	2.6517162
4.654631177159353	6.8005776	2.6077917
4.672172447630417	6.6026077	2.569554
4.689713827643102	6.407439	2.531292
4.7072553176105085	6.1361666	2.4771287
4.724796917945764	5.9184437	2.4327853
4.742338629062015	5.836591	2.4159038
4.759880451372434	5.842326	2.4170904
4.777422385290215	5.7595863	2.3999138
4.794964431228581	5.6872706	2.3848
4.812506589600768	5.544319	2.3546379
4.830048860820047	5.566584	2.359361
4.847591245299709	5.540456	2.3538172
4.8651337434530655	5.543872	2.3545427
4.882676355693457	5.5516844	2.3562012
4.900219082434242	5.5673137	2.3595157
4.917761924088813	5.5623426	2.3584619
4.935304881070575	5.507842	2.3468792
4.952847953792969	5.5502114	2.3558886
4.970391142669449	5.5614576	2.3582742
4.9879344481135055	5.5266466	2.350882
5.005477870538642	5.5066113	2.346617
5.023021410358394	5.429502	2.3301291
5.040565067986324	5.4464717	2.3337677
5.05810884383601	5.378996	2.3192663
5.075652738321066	5.409017	2.3257294
5.09319675185512	5.4016275	2.32414
5.110740884851836	5.3832407	2.3201811
5.128285137724894	5.3425817	2.3114026
5.145829510888007	5.322527	2.3070602
5.163374004754908	5.3481092	2.312598
5.1809186197393595	5.329723	2.3086193
5.198463356255145	5.3673697	2.3167584
5.216008214716077	5.4105077	2.3260498
5.233553195535998	5.384207	2.3203893
5.251098299128764	5.365188	2.3162875
5.268643525908272	5.373381	2.3180554
5.286188876288432	5.3621345	2.3156283
5.3037343506831895	5.367962	2.3168862
5.32127994950651	5.255796	2.2925522
5.3388256731723915	5.2425947	2.2896714
5.356371522094851	5.218877	2.284486
5.373917496687938	5.2886286	2.299702
5.391463597365729	5.276983	2.2971685
5.40900982454232	5.28669	2.2992804
5.426556178631843	5.2533274	2.292014
5.444102660048449	5.233031	2.287582
5.4616492692063225	5.231707	2.2872925
5.479196006519669	5.2233973	2.2854753
5.496742872402727	5.1606693	2.2717106
5.514289867269756	5.1096425	2.2604518
5.531836991535049	5.104291	2.2592678
5.549384245612924	5.152372	2.2698836
5.566931629917724	5.151947	2.2697902
5.584479144863822	5.1779594	2.275513
5.6020267908656205	5.1481714	2.2689583
5.619574568337545	5.0674415	2.251098
5.637122477694054	5.0392504	2.2448275
5.654670519349629	5.0748096	2.2527337
5.672218693718784	5.149755	2.2693071
5.689767001216059	5.13846	2.266817
5.707315442256021	5.069042	2.2514534
5.724864017253266	5.0539675	2.2481031
5.7424127266224225	5.0568123	2.2487357
5.75996157077814	5.102839	2.2589464
5.777510550135105	5.139066	2.2669508
5.795059665108022	5.1297503	2.2648952
5.812608916111639	5.1130524	2.261206
5.830158303560715	5.1964316	2.2795682
5.847707827870055	5.20927	2.2823825
5.86525748945448	5.3287425	2.3084068
5.8828072887288485	5.388789	2.3213766
5.900357226108044	5.482688	2.341514
5.917907302006979	5.585327	2.3633296
5.9354575168406	6.1766787	2.4852924
5.9530078710238765	6.778123	2.6034827
5.970558364971812	7.32382	2.7062557
5.988108999099438	7.705773	2.7759273
6.005659773821818	8.395729	2.8975384
6.023210689554039	8.212206	2.8656948
6.040761746711227	8.589696	2.9308183
6.058312945708531	7.8363814	2.7993538
6.075864286961132	7.3185678	2.705285
6.093415770884244	6.602218	2.5694783
6.1109673978931065	6.062615	2.4622378
6.128519168402993	5.4895234	2.3429732
6.146071082829204	5.3510375	2.313231
6.163623141587075	5.2765036	2.297064
6.181175345091969	5.183405	2.2767093
6.198727693759281	5.139852	2.2671242
6.216280188004435	5.1074076	2.2599573
6.233832828242885	5.0951247	2.2572384
6.251385614890126	5.1377954	2.2666705
6.268938548361669	5.1540422	2.2702515
6.286491629073067	5.122754	2.2633502
6.304044857439898	5.122279	2.2632453
6.321598233877777	5.0577064	2.2489345
6.339151758802344	5.076404	2.2530878
6.356705432629277	5.081024	2.2541127
6.37425925577428	5.068614	2.2513583
6.391813228653095	5.064691	2.2504869
6.409367351681486	5.017553	2.2399895
6.426921625275259	4.969313	2.2291956
6.44447604985025	4.994925	2.234933
6.46203062582232	4.920086	2.2181268
6.47958535360737	4.9527826	2.2254848
6.497140233621328	4.9490585	2.224648
6.514695266280161	4.9521046	2.2253325
6.532250451999859	4.961837	2.227518
6.549805791196454	4.9475822	2.2243161
6.567361284286002	4.9387126	2.2223215
6.584916931684597	4.937732	2.222101
6.602472733808367	4.942922	2.2232683
6.6200286910734665	4.952472	2.225415
6.637584803896092	4.964585	2.2281349
6.655141072692462	4.9645605	2.2281294
6.672697497878842	4.9612036	2.227376
6.690254079871514	4.99311	2.2345269
6.707810819086808	5.0260406	2.2418833
6.725367715941078	5.00727	2.237693
6.742924770850719	4.9760227	2.2307
6.760481984232151	5.0104766	2.2384093
6.778039356501836	5.0340967	2.2436793
6.795596888076266	5.0964465	2.2575312
6.813154579371963	5.04387	2.2458563
6.830712430805492	5.0449424	2.246095
6.84827044279344	5.0270133	2.2421002
6.865828615752445	4.9667053	2.2286105
6.883386950099159	4.9522953	2.2253754
6.900945446250287	4.935748	2.2216544
6.918504104622553	4.9507575	2.2250297
6.936062925632727	4.9260483	2.2194703
6.953621909697607	4.952468	2.225414
6.971181057234028	5.0288534	2.2425106
6.988740368658859	5.1476364	2.2688403
7.006299844389007	5.231675	2.2872856
7.023859484841407	5.2587147	2.2931888
7.041419290433036	5.3181767	2.3061173
7.058979261580902	5.39657	2.323052
7.0765393987020495	5.5958343	2.3655515
7.094099702213559	5.899091	2.4288044
7.111660172532549	6.244784	2.4989564
7.129220810076164	6.638064	2.5764441
7.146781615261595	7.277365	2.6976593
7.16434258850606	7.528228	2.7437615
7.181903730226821	7.9612327	2.8215656
7.1994650408411704	8.005722	2.8294384
7.217026520766437	8.209757	2.8652673
7.234588170419983	8.428934	2.9032626
7.252149990219215	8.44544	2.906104
7.269711980581568	8.329042	2.886008
7.2872741419245175	8.085222	2.8434525
7.304836474665574	7.6530986	2.7664235
7.322398979222286	7.332425	2.7078452
7.339961656012233	7.1988044	2.6830587
7.357524505453039	6.8954406	2.6259172
7.375087527962357	6.6262503	2.5741503
7.392650723957886	6.3187966	2.5137217
7.410214093857353	5.9512677	2.439522
7.427777638078528	5.726164	2.3929405
7.445341357039213	5.5437613	2.3545194
7.4629052511572525	5.370173	2.3173633
7.480469320850524	5.229005	2.2867017
7.498033566536948	5.160055	2.2715755
7.5155979886344735	5.073012	2.2523348
7.5331625875610975	5.0744467	2.2526534
7.550727363734844	5.1486597	2.2690659
7.568292317573788	5.1983504	2.2799892
7.585857449496025	5.259234	2.293302
7.603422759919705	5.1847196	2.276998
7.620988249263007	5.130765	2.265119
7.638553917944147	5.073364	2.2524128
7.656119766381391	5.115756	2.2618036
7.673685794993023	5.128661	2.2646546
7.691252004197388	5.189286	2.2780006
7.70881839441285	5.2088284	2.2822857
7.726384966057826	5.270895	2.295843
7.743951719550762	5.2408504	2.2892904
7.761518655310149	5.262477	2.294009
7.779085773754511	5.2517323	2.2916658
7.796653075302419	5.3134394	2.30509
7.814220560372475	5.3347464	2.309707
7.831788229383323	5.32173	2.3068876
7.8493560827536495	5.344629	2.3118453
7.866924120902174	5.3142986	2.3052762
7.884492344247663	5.3332925	2.3093922
7.9020607532089135	5.3142786	2.3052719
7.919629348204771	5.2465935	2.2905443
7.937198129654115	5.233425	2.287668
7.954767097975865	5.2393517	2.288963
7.972336253588986	5.2701235	2.295675
7.989905596912472	5.292263	2.3004918
8.007475128365371	5.33488	2.3097358
8.025044848366756	5.3380723	2.310427
8.042614757335754	5.478962	2.3407183
8.060184855691523	5.5181975	2.3490844
8.07775514385327	5.711063	2.3897831
8.095325622240228	5.7609873	2.4002056
8.112896291271687	5.851147	2.4189146
8.130467151366968	5.872559	2.4233363
8.148038202945436	5.875726	2.4239898
8.165609446426497	5.9645867	2.4422503
8.183180882229594	6.0528455	2.4602532
8.200752510774217	6.080075	2.4657807
8.218324332479893	5.9813848	2.445687
8.235896347766193	5.897344	2.4284449
8.253468557052724	5.855683	2.4198518
8.27104096075914	5.889682	2.4268668
8.288613559305137	5.997106	2.448899
8.306186353110448	6.055966	2.4608872
8.32375934259485	6.1944594	2.488867
8.341332528178162	6.2629914	2.5025969
8.358905910280246	6.2931304	2.5086112
8.376479489321003	6.2372913	2.497457
8.394053265720377	6.2476344	2.4995267
8.411627239898356	6.233022	2.496602
8.42920141227497	6.2812533	2.506243
8.44677578327029	6.2964296	2.5092688
8.464350353304427	6.3153224	2.5130305
8.48192512279754	6.319356	2.5138328
8.499500092169827	6.3126025	2.5124893
8.51707526184153	6.246344	2.4992688
8.534650632232934	6.212907	2.4925704
8.552226203764365	6.190815	2.4881349
8.569801976856192	6.186121	2.4871914
8.587377951928834	6.2406173	2.4981227
8.60495412940274	6.221447	2.494283
8.622530509698416	6.2449174	2.4989834
8.6401070932364	6.374636	2.524804
8.657683880437283	6.5669513	2.5626063
8.675260871721695	6.7670817	2.6013615
8.692838067510303	6.930273	2.6325412
8.710415468223834	7.0371594	2.6527646
8.727993074283043	7.118928	2.6681318
8.745570886108737	7.1048217	2.665487
8.763148904121765	7.1183863	2.6680305
8.78072712874302	7.0851297	2.6617906
8.798305560393441	7.312383	2.7041419
8.815884199494006	7.5265193	2.7434502
8.833463046465745	7.7884436	2.7907784
8.851042101729728	7.898269	2.810386
8.86862136570707	8.132522	2.8517575
8.886200838818924	8.250347	2.8723416
8.903780521486505	8.332754	2.886651
8.921360414131055	8.488624	2.9135242
8.938940517173874	8.695532	2.9488187
8.956520831036297	8.881162	2.9801278
8.97410135613971	9.139431	3.0231493
8.99168209290554	9.258779	3.042824
9.009263041755265	9.519931	3.0854385
9.026844203110405	9.736818	3.1203876
9.044425577392525	9.893441	3.145384
9.062007165023239	10.032736	3.1674495
9.079588966424197	10.233663	3.1990097
9.097170982017108	10.304708	3.2100947
9.11475321222372	11.27454	3.3577583
9.132335657465825	12.162257	3.4874427
9.149918318165264	12.216673	3.4952357
9.167501194743924	12.837419	3.5829344
9.18508428762374	12.551842	3.542858
9.202667597226693	12.689657	3.5622544
9.220251123974803	12.425327	3.5249577
9.237834868290143	12.104311	3.479125
9.255418830594836	11.810002	3.4365685
9.273003011311046	11.222153	3.3499482
9.290587410860985	11.05664	3.3251526
9.308172029666911	10.39167	3.2236114
9.32575686815113	10.223676	3.1974483
9.343341926735997	8.899365	2.9831805
9.360927205843916	8.597218	2.9321012
9.378512705897327	8.351098	2.8898265
9.396098427318728	8.051287	2.8374789
9.413684370530664	7.9744153	2.8239007
9.431270535955722	7.965399	2.8223038
9.448856924016539	7.9102325	2.8125136
9.466443535135806	7.8311796	2.7984245
9.484030369736251	7.76792	2.787099
9.501617428240658	7.7312355	2.78051
9.519204711071852	7.667763	2.7690725
9.536792218652714	7.670026	2.7694812
9.55437995140617	7.637766	2.763651
9.571967909755191	7.730419	2.780363
9.589556094122802	7.863532	2.804199
9.60714450493207	7.8921027	2.8092887
9.624733142606116	7.86837	2.8050616
9.642322007568108	7.8847103	2.8079727
9.659911100241267	7.9998946	2.8284085
9.677500421048851	8.090637	2.8444045
9.695089970414175	8.081836	2.842857
9.712679748760609	8.101049	2.8462343
9.730269756511557	8.12664	2.8507264
9.747859994090492	8.160242	2.8566136
9.765450461920915	8.174747	2.8591516
9.78304116042639	8.205755	2.864569
9.800632090030527	8.216361	2.8664196
9.81822325115699	8.18014	2.8600943
9.835814644229481	8.153663	2.8554618
9.853406269671762	8.151356	2.855058
9.870998127907646	8.231696	2.8690932
9.888590219360985	8.256387	2.8733928
9.906182544455698	8.298347	2.8806853
9.923775103615734	8.310665	2.8828225
9.941367897265108	8.324436	2.8852098
9.958960925827878	8.283761	2.8781524
9.97655418972816	8.277336	2.877036
9.994147689390106	8.285772	2.8785017
10.011741425237934	8.400636	2.898385
10.029335397695904	8.372547	2.8935354
10.04692960718833	8.316646	2.8838594
10.06452405413958	8.234072	2.8695073
10.082118738974064	8.267077	2.8752525
10.099713662116246	8.282326	2.877903
10.117308823990651	8.2438755	2.871215
10.134904225021844	8.144639	2.8538814
10.152499865634445	8.093478	2.844904
10.170095746253125	8.126344	2.8506742
10.18769186730261	8.136809	2.8525093
10.205288229207675	8.15908	2.8564103
10.222884832393145	8.130097	2.8513327
10.2404816772839	8.162114	2.8569415
10.258078764304868	8.137074	2.8525558
10.275676093881035	8.13574	2.8523219
10.293273666437438	8.08933	2.8441746
10.310871482399158	8.103142	2.8466017
10.32846954219134	8.059531	2.8389313
10.346067846239173	8.082785	2.8430238
10.363666394967908	8.131245	2.8515337
10.38126518880283	8.224432	2.867827
10.398864228169298	8.303825	2.881636
10.416463513492713	8.367745	2.8927054
10.434063045198531	8.334628	2.8869755
10.451662823712262	8.3949795	2.8974092
10.469262849459467	8.342662	2.8883667
10.486863122865758	8.216639	2.866468
10.504463644356806	8.103728	2.8467047
10.522064414358338	8.045405	2.8364425
10.539665433296118	7.971789	2.8234355
10.557266701595987	7.8769364	2.806588
10.574868219683818	7.7662964	2.7868075
10.592469987985552	7.7041674	2.775638
10.610072006927185	7.6065106	2.7579904
10.627674276934751	7.579207	2.753036
10.64527679843435	7.437095	2.7271037
10.662879571852143	7.3336368	2.7080688
10.680482597614331	7.2065043	2.6844933
10.698085876147173	7.0624204	2.6575215
10.715689407876988	6.950589	2.6363971
10.733293193230146	6.859769	2.619116
10.750897232633072	6.801072	2.6078866
10.76850152651225	6.68138	2.5848365
10.786106075294207	6.5551987	2.5603123
10.803710879405534	6.565847	2.5623908
10.821315939272877	6.5153112	2.5525107
10.83892125532294	6.4605875	2.5417686
10.856526827982472	6.340596	2.518054
10.874132657678285	6.28942	2.5078716
10.891738744837243	6.2244425	2.4948833
10.909345089886271	6.140253	2.4779534
10.926951693252343	6.076383	2.465032
10.944558555362494	6.02957	2.4555182
10.96216567664381	5.9784994	2.445097
10.979773057523436	5.9447904	2.438194
10.997380698428573	5.9228587	2.4336925
11.014988599786477	5.880021	2.4248755
11.032596762024461	5.8014045	2.4086106
11.050205185569892	5.660746	2.3792322
11.067813870850198	5.579993	2.3622007
11.085422818292859	5.494997	2.344141
11.10303202832541	5.4635696	2.337428
11.120641501375454	5.4246144	2.32908
11.138251237870636	5.3649035	2.316226
11.155861238238671	5.342013	2.3112795
11.173471502907317	5.2510304	2.2915127
11.191082032304402	5.158068	2.2711382
11.208692826857805	5.1059947	2.2596447
11.226303886995465	5.087152	2.2554715
11.243915213145371	5.0499635	2.2472124
11.261526805735578	4.9926314	2.2344198
11.279138665194196	4.893061	2.2120266
11.296750791949393	4.759117	2.18154
11.314363186429393	4.7309113	2.1750658
11.331975849062479	4.758289	2.1813502
11.34958878027699	4.753596	2.1802742
11.36720198050133	4.7221336	2.173047
11.384815450163948	4.65423	2.1573665
11.402429189693366	4.5887733	2.1421423
11.420043199518153	4.5184464	2.1256638
11.437657480066942	63.462044	7.9663067
11.455272031768422	85.20587	9.230702
11.472886855051353	107.620605	10.374035
11.490501950344528	99.182686	9.95905
11.508117318076819	84.48076	9.191341
11.52573295867715	45.85826	6.771873
11.543348872574514	4.132616	2.0328836
11.560965060197946	4.110253	2.027376
11.57858152197655	4.107066	2.0265899
11.59619825833949	4.112743	2.0279899
11.613815269715985	4.0751057	2.0186892
11.631432556535323	38.571033	6.2105584
11.649050119226837	83.06012	9.113732
11.666667958219929	93.46482	9.667721
11.68428607394406	107.70888	10.378289
11.701904466828756	82.53591	9.084928
11.719523137303586	65.34968	8.083915
11.737142085798196	4.532969	2.129077
11.754761312742286	3.6385527	1.9074991
11.772380818565619	3.6309376	1.905502
11.790000603698015	3.6305616	1.9054033
11.80762066856935	3.5656252	1.8882864
11.825241013609572	3.5061717	1.8724774
11.842861639248683	3.469507	1.8626612
11.860482545916748	3.4764338	1.8645197
11.878103734043883	3.4385567	1.8543346
11.895725204060282	3.415572	1.8481266
11.91334695639619	3.3946373	1.8424542
11.930968991481919	3.3774488	1.8377837
11.948591309747824	3.3506274	1.8304719
11.966213911624347	3.3037858	1.817632
11.98383679754198	3.2478044	1.8021666
12.001459967931268	3.2528377	1.8035625
12.019083423222835	3.2652974	1.8070134
12.036707163847352	3.2721176	1.8088995
12.05433119023556	3.2512696	1.8031278
12.071955502818259	3.1925862	1.786781
12.089580102026313	3.152064	1.7754053
12.107204988290643	3.095154	1.759305
12.12483016204224	3.079164	1.7547547
12.142455623712152	3.0977023	1.7600291
12.16008137373149	3.1328492	1.7699857
12.177707412531431	3.0982344	1.7601802
12.19533374054321	3.0791342	1.7547462
12.212960358198126	3.0619245	1.7498356
12.230587265927545	3.0211778	1.7381536
12.248214464162889	2.9925206	1.7298903
12.265841953335649	2.9417515	1.7151535
12.283469733877375	2.9238708	1.7099329
12.301097806219685	2.922625	1.7095686
12.31872617079425	2.9117367	1.7063812
12.336354828032825	2.8700678	1.6941274
12.353983778367205	2.8464725	1.6871492
12.371613022229262	2.8471956	1.6873635
12.389242560050928	2.8978837	1.7023171
12.406872392264201	2.8943272	1.7012722
12.424502519301143	2.903996	1.7041115
12.442132941593874	2.896578	1.7019336
12.459763659574586	2.9151628	1.7073848
12.477394673675532	2.902952	1.7038051
12.49502598432903	2.8820245	1.6976527
12.51265759196746	2.852676	1.6889867
12.530289497023267	2.8186207	1.6788749
12.547921699928967	2.7735393	1.6653947
12.565554201117134	2.7453203	1.6569008
12.583187001020404	2.7240078	1.6504569
12.600820100071486	2.7591069	1.6610559
12.618453498703152	2.7691748	1.6640837
12.636087197348235	2.7755668	1.6660032
12.65372119643964	2.763039	1.6622392
12.671355496410326	2.722953	1.6501373
12.68899009769333	2.7338302	1.6534299
12.706625000721749	2.7853086	1.6689243
12.724260205928752	2.8832498	1.6980134
12.741895713747551	2.9349828	1.7131791
12.759531524611454	2.9997687	1.731984
12.777167638953818	2.9773762	1.7255075
12.794804057208072	2.9587421	1.7200994
12.812440779807702	2.9577715	1.7198173
12.830077807186271	3.096479	1.7596815
12.847715139777405	3.1504216	1.7749428
12.865352778014795	3.381513	1.8388891
12.882990722332197	3.5165484	1.8752462
12.90062897316344	3.6351228	1.9065998
12.918267530942412	3.690103	1.9209641
12.935906396103071	3.5717196	1.8898994
12.953545569079449	3.736913	1.9331096
12.971185050305628	3.5712152	1.8897659
12.988824840215775	3.5866919	1.8938563
13.006464939244115	3.6008413	1.8975883
13.024105347824943	3.452978	1.858219
13.041746066392617	3.532828	1.8795819
13.05938709538157	3.3557563	1.8318723
13.077028435226296	3.3726697	1.836483
13.094670086361363	3.303618	1.8175857
13.112312049221401	3.1974008	1.7881278
13.129954324241112	3.0805473	1.7551488
13.147596911855258	2.847886	1.6875681
13.165239812498685	2.818096	1.6787186
13.182883026606293	2.7572527	1.6604977
13.200526554613058	2.6981528	1.6426055
13.218170396954017	2.642334	1.6255257
13.235814554064284	2.6578624	1.6302952
13.253459026379034	2.6827233	1.6379021
13.271103814333523	2.6831102	1.6380203
13.288748918363058	2.689005	1.6398185
13.306394338903031	2.6658473	1.6327423
13.32404007638889	2.6763744	1.6359628
13.341686131256164	2.7131505	1.6471643
13.359332503940449	2.7024074	1.6439
13.376979194877402	2.6774473	1.6362907
13.394626204502751	2.6872497	1.6392833
13.412273533252307	2.6863282	1.6390022
13.429921181561937	2.7097168	1.6461217
13.447569149867581	2.7414823	1.6557422
13.465217438605247	2.7742655	1.6656127
13.482866048211022	2.7595212	1.6611807
13.500514979121052	2.718306	1.6487286
13.518164231771568	2.6632888	1.6319586
13.535813806598844	2.6210966	1.6189802
13.553463704039254	2.6224217	1.6193893
13.571113924529229	2.644117	1.6260742
13.588764468505275	2.6656861	1.6326929
13.606415336403956	2.7336135	1.6533643
13.624066528661917	2.7667491	1.6633548
13.641718045715882	2.7849448	1.6688154
13.659369888002635	2.808925	1.6759847
13.67702205595903	2.8651798	1.6926842
13.694674550021993	2.9637218	1.7215463
13.712327370628532	3.034505	1.741983
13.729980518215713	3.1163087	1.765307
13.747633993220681	3.2018564	1.7893732
13.765287796080647	3.20729	1.7908908
13.7829419272329	3.2277527	1.7965947
13.800596387114801	3.2778187	1.8104748
13.818251176163775	3.3316278	1.8252747
13.835906294817324	3.401595	1.8443414
13.853561743513023	3.4008276	1.8441333
13.871217522688525	3.392819	1.8419607
13.888873632781538	3.4398608	1.8546861
13.906530074229858	3.5000184	1.8708336
13.92418684747135	3.5248592	1.8774608
13.941843952943948	3.5057883	1.872375
13.959501391085665	3.445343	1.8561635
13.977159162334578	3.3498504	1.8302597
13.994817267128846	3.3258598	1.823694
14.012475705906693	3.277762	1.810459
14.030134479106424	3.2253344	1.7959216
14.047793587166414	3.121094	1.7666618
14.065453030525108	3.0626695	1.7500484
14.083112809621026	3.0109224	1.735201
14.100772924892766	2.9688911	1.723047
14.118433376778997	2.901607	1.7034104
14.136094165718458	2.801788	1.6738542
14.153755292149969	2.7637234	1.662445
14.171416756512416	2.7356095	1.6539679
14.189078559244768	2.6800725	1.6370927
14.20674070078606	2.5991685	1.6121937
14.224403181575408	2.551548	1.5973566
14.242066002051999	2.4879065	1.5773098
14.259729162655093	2.4468582	1.5642437
14.277392663824022	2.3887868	1.54557
14.295056505998208	2.3831573	1.5437478
14.312720689617128	2.369948	1.5394635
14.330385215120348	2.3769712	1.5417429
14.348050082947497	2.3671782	1.5385637
14.3657152935383	2.3694708	1.5393085
14.383380847332528	2.387146	1.5450392
14.401046744770051	2.3931603	1.5469843
14.418712986290798	2.3780837	1.5421036
14.436379572334793	2.358545	1.5357555
14.454046503342123	2.3378725	1.5290103
14.471713779752946	2.313461	1.5210066
14.489381402007504	2.292469	1.5140902
14.507049370546113	2.2997987	1.5165087
14.524717685809168	2.3266077	1.5253222
14.542386348237134	2.3629372	1.5371848
14.560055358270553	2.393671	1.5471493
14.577724716350051	2.4214153	1.5560898
14.595394422916325	2.4095306	1.5522662
14.61306447841015	2.4501286	1.5652887
14.63073488327237	2.4523816	1.5660082
14.648405637943917	2.4804404	1.5749414
14.6660767428658	2.4556477	1.5670507
14.683748198479094	2.5029643	1.582076
14.701420005224954	2.543863	1.5949492
14.719092163544628	2.5836403	1.6073706
14.73676467387942	2.6320655	1.6223642
14.754437536670727	2.6609368	1.6312379
14.772110752360014	2.663087	1.6318967
14.78978432138882	2.6661596	1.6328379
14.807458244198777	2.6749392	1.6355242
14.82513252123159	2.6664732	1.6329339
14.842807152929028	2.7178254	1.6485828
14.860482139732962	2.692546	1.6408979
14.87815748208531	2.6744335	1.6353695
14.8958331804281	2.649634	1.6277696
14.91350923520342	2.641882	1.6253867
14.931185646853438	2.6783063	1.6365532
14.948862415820408	2.6593874	1.6307628
14.966539542546656	2.6815686	1.6375495
14.98421702747459	2.6820087	1.637684
15.001894871046696	2.6803825	1.6371874
15.019573073705542	2.627607	1.6209896
15.037251635893766	2.6373806	1.6240014
15.054930558054092	2.6740055	1.6352386
15.072609840629323	2.726812	1.6513062
15.090289484062351	2.7911243	1.6706659
15.107969488796124	3.0805857	1.7551597
15.125649855273691	3.5069273	1.8726791
15.14333058393817	4.032549	2.0081208
15.161011675232768	5.015427	2.2395148
15.17869312960076	6.3514466	2.5202076
15.196374947485506	8.225563	2.8680243
15.214057129330447	11.289086	3.3599236
15.231739675579114	16.008879	4.0011096
15.249422586675102	21.140423	4.597872
15.267105863062092	24.327389	4.93228
15.284789505183847	24.730347	4.9729614
15.302473513484218	22.69907	4.764354
15.320157888407127	19.099674	4.3703175
15.337842630396578	14.841398	3.8524535
15.355527739896656	11.497167	3.3907473
15.37321321735153	8.977753	2.9962897
15.39089906320545	6.5305443	2.5554929
15.408585277902748	4.8854165	2.2102978
15.42627186188783	3.7167158	1.9278786
15.443958815605198	3.2048035	1.7901965
15.461646139499424	2.9224865	1.7095282
15.479333834015168	2.805384	1.6749281
15.497021899597165	2.7411559	1.6556436
15.514710336690234	2.6943645	1.641452
15.53239914573928	2.6534004	1.6289262
15.550088327189297	2.5852795	1.6078805
15.567777881485336	2.5129046	1.5852144
15.58546780907256	2.4887753	1.5775852
15.6031581103962	2.4907737	1.5782185
15.620848785901568	2.4844308	1.5762078
15.638539836034063	2.485418	1.5765209
15.656231261239173	2.479132	1.574526
15.673923061962451	2.477607	1.5740416
15.691615238649552	2.462239	1.5691524
15.709307791746202	2.4150128	1.5540311
15.727000721698221	2.3738167	1.5407195
15.744694028951498	2.376105	1.541462
15.76238771395202	2.4156022	1.5542208
15.780081777145844	2.4651933	1.5700934
15.797776218979125	2.4500284	1.5652567
15.815471039898094	2.397055	1.5482426
15.833166240349064	2.3433204	1.5307908
15.850861820778437	2.3140473	1.5211993
15.868557781632699	2.330666	1.5266519
15.886254123358412	2.3666155	1.5383809
15.903950846402232	2.3820517	1.5433897
15.921647951210897	2.3856235	1.5445464
15.939345438231225	2.3890157	1.545644
15.957043307910133	2.3912172	1.5463561
15.974741560694602	2.363223	1.5372778
15.992440197031714	2.3668287	1.5384501
16.01013921736862	2.3730545	1.5404721
16.02783862215259	2.3762062	1.5414947
16.045538411830933	2.3607543	1.5364746
16.06323858685107	2.361558	1.5367361
16.080939147660512	2.3663628	1.5382987
16.09864009470684	2.377122	1.5417918
16.11634142843774	2.3669302	1.5384831
16.134043149300954	2.3747852	1.5410337
16.15174525774433	2.358154	1.5356282
16.169447754215817	2.3656104	1.5380541
16.18715063916342	2.381295	1.5431445
16.204853913035244	2.4367936	1.5610232
16.222557576279478	2.4505167	1.5654126
16.240261629344403	22.425892	4.7355986
16.257966072678386	42.964508	6.554732
16.275670906729868	38.058784	6.1691804
16.293376131947387	2.4722342	1.572334
16.31108174877957	2.4795945	1.5746728
16.328787757675133	2.4904387	1.5781124
16.34649415908287	2.5214887	1.5879196
16.364200953451657	2.5830936	1.6072005
16.38190814123048	2.6306832	1.6219381
16.39961572286839	2.6777878	1.6363947
16.41732369881455	2.6847026	1.6385062
16.43503206951817	2.7244308	1.6505849
16.45274083542859	2.758096	1.6607516
16.47044999699522	2.796449	1.6722586
16.488159554667558	2.8582678	1.6906413
16.505869508895184	2.9000928	1.7029659
16.523579860127786	2.9129725	1.7067432
16.541290608815117	2.9416373	1.7151202
16.559001755407035	2.9964836	1.7310354
16.57671330035348	3.0380867	1.7430108
16.59442524410448	3.0328505	1.7415081
16.61213758711015	3.0888047	1.7574996
16.629850329820705	3.194236	1.7872425
16.647563472686436	3.310761	1.8195497
16.665277016157724	3.3666198	1.834835
16.682990960685053	3.3724294	1.8364176
16.70070530671898	3.4071183	1.8458381
16.718420054710155	3.46647	1.8618459
16.736135205109335	3.5558553	1.8856976
16.753850758367335	3.6279168	1.9047091
16.771566714935087	3.6490426	1.9102467
16.789283075263597	3.688063	1.920433
16.80699983980398	3.7409446	1.9341521
16.82471700900741	3.8309762	1.957288
16.84243458332518	3.911364	1.9777169
16.860152563208665	3.9897323	1.9974314
16.87787094910932	4.0451837	2.011264
16.89558974147871	4.147142	2.0364532
16.913308940768466	4.2162647	2.0533545
16.931028547430333	4.2623315	2.0645416
16.94874856191613	4.310961	2.0762854
16.966468984677785	4.39898	2.0973747
16.98418981616729	4.432013	2.1052346
17.00191105683676	4.429585	2.104658
17.019632707138374	4.472219	2.114762
17.03735476752442	4.4799476	2.1165886
17.05507723844728	4.5216107	2.1264079
17.072800120359403	4.516637	2.1252382
17.090523413713353	4.5957675	2.143774
17.108247118961785	4.6311474	2.15201
17.125971236557437	4.6561	2.1577997
17.143695766953133	4.6317325	2.152146
17.161420710601806	4.6396174	2.1539772
17.179146067956477	4.6094713	2.146968
17.19687183947025	4.6024637	2.1453354
17.21459802559634	4.5727773	2.1384053
17.232324626788028	4.6543217	2.1573877
17.25005164349871	4.651045	2.1566281
17.267779076181863	4.653378	2.1571689
17.285506925291074	4.6185265	2.1490757
17.30323519127999	4.573717	2.1386251
17.320963874602384	4.533733	2.1292565
17.33869297571211	4.487304	2.1183257
17.356422495063114	4.520387	2.1261203
17.37415243310944	4.51842	2.1256576
17.391882790305218	4.563801	2.1363053
17.40961356710468	4.564407	2.1364472
17.42734476396215	4.581359	2.140411
17.445076381332044	4.5555735	2.134379
17.462808419668868	4.568234	2.1373427
17.48054087942723	4.678062	2.1628828
17.498273761061835	4.9660635	2.2284665
17.51600706502747	5.4714704	2.3391175
17.533740791779024	6.1776834	2.4854946
17.551474941771485	7.538872	2.7457006
17.56920951545993	8.589039	2.9307063
17.586944513299528	10.80664	3.2873454
17.60467993574556	12.522538	3.53872
17.622415783253373	14.3046875	3.7821538
17.64015205627843	15.792476	3.9739747
17.657888755276293	16.8957	4.110438
17.675625880702604	17.335077	4.1635413
17.69336343301311	17.100695	4.1352987
17.71110141266366	16.228355	4.0284433
17.728839820110178	15.252391	3.905431
17.746578655808705	14.253847	3.7754269
17.764317920215372	12.757377	3.571747
17.7820576137864	11.245822	3.3534791
17.79979773697811	9.301634	3.049858
17.81753829024692	7.493486	2.7374232
17.835279274049356	5.9301167	2.435183
17.85302068884201	4.9014554	2.213923
17.870762535081607	4.2064776	2.0509698
17.888504813224934	3.8631723	1.9654955
17.90624752372891	3.6843004	1.9194531
17.923990667050536	3.5943513	1.8958775
17.941734243646895	3.5097673	1.8734373
17.959478253975185	3.4579318	1.8595515
17.9772226984927	3.4152339	1.8480351
17.994967577656833	3.399213	1.8436955
18.01271289192506	3.4158096	1.8481909
18.030458641754965	3.3638496	1.8340801
18.04820482760425	3.3159952	1.8209875
18.06595144993067	3.294152	1.8149799
18.083698509192125	3.2936354	1.8148376
18.101446005846576	3.2754445	1.8098189
18.119193940352105	3.244859	1.8013492
18.136942313166887	3.2142913	1.7928445
18.1546911247492	3.1688914	1.780138
18.1724403755574	3.141993	1.7725668
18.19019006604997	3.1264482	1.7681766
18.207940196685467	3.1491756	1.7745917
18.225690767922575	3.14683	1.7739307
18.243441780220046	3.1171844	1.765555
18.261193234036764	3.0747175	1.7534872
18.278945129831676	3.0275936	1.7399982
18.29669746806386	3.0090868	1.734672
18.314450249192483	3.0441895	1.7447605
18.3322034736768	3.0390248	1.7432799
18.349957141976184	2.9848423	1.7276696
18.3677112545501	2.9944043	1.7304348
18.385465811858108	3.036284	1.7424936
18.403220814359884	3.0837133	1.7560505
18.420976262515172	3.1033275	1.7616264
18.43873215678387	3.113847	1.7646096
18.456488497625923	3.1507435	1.7750334
18.474245285501407	3.1955545	1.7876114
18.492002520870486	3.2708704	1.8085548
18.50976020419343	3.3517041	1.830766
18.527518335930615	3.695309	1.9223186
18.545276916542516	4.291009	2.071475
18.563035946489688	4.4369426	2.106405
18.580795426232832	4.8884034	2.2109735
18.598555356232698	4.7204747	2.1726654
18.616315736950185	4.997181	2.2354376
18.63407656884626	4.5807595	2.140271
18.65183785238201	4.76977	2.1839802
18.669599588018617	4.5867515	2.1416702
18.68736177621737	4.62224	2.1499395
18.705124417439652	4.577913	2.1396058
18.72288751214696	4.402609	2.0982394
18.740651060800886	4.5511513	2.1333427
18.758415063863115	4.290206	2.0712812
18.77617952179546	4.437094	2.106441
18.793944435059814	4.248133	2.0611
18.811709804118184	4.293725	2.0721304
18.829475629432675	4.27718	2.0681345
18.8472419114655	4.0155125	2.0038743
18.86500865067897	4.059596	2.014844
18.88277584753551	3.7227848	1.929452
18.90054350249763	3.732499	1.9319676
18.918311616027957	3.4158797	1.8482099
18.936080188589226	3.3279474	1.8242663
18.953849220644265	3.0595422	1.7491547
18.971618712656007	2.9109318	1.7061453
18.9893886650875	2.8517776	1.6887207
19.007159078401887	8.040416	2.8355627
19.024929953062408	32.899723	5.735828
19.042701289532435	32.838573	5.730495
19.060473088275405	25.382095	5.0380645
19.07824534975489	2.6466737	1.62686
19.096018074434568	2.601622	1.6129545
19.113791262778197	2.5982704	1.6119151
19.13156491524966	2.5677323	1.6024145
19.149339032312945	2.5236318	1.5885943
19.167113614432136	2.5184119	1.5869505
19.184888662071433	2.5247593	1.5889491
19.202664175695123	2.5411892	1.5941107
19.220440155767623	2.5339777	1.5918473
19.238216602753447	2.5144804	1.5857114
19.2559935171172	2.5174308	1.5866413
19.27377089932361	2.49159	1.5784771
19.291548749837514	2.4930851	1.5789506
19.309327069123835	2.4788253	1.5744286
19.32710585764763	2.5041587	1.5824534
19.344885115874032	2.5299063	1.590568
19.362664844268313	2.5590668	1.5997083
19.380445043295822	2.5590482	1.5997025
19.39822571342203	2.5163531	1.5863017
19.41600685511252	2.480648	1.5750073
19.43378846883297	2.4902585	1.5780553
19.451570555049173	2.486332	1.5768107
19.469353114227037	2.474135	1.5729383
19.48713614683254	2.4429166	1.5629833
19.50491965333182	2.4570768	1.5675066
19.52270363419109	2.451682	1.5657848
19.540488089876686	2.4604099	1.5685694
19.55827302085503	2.4233344	1.5567063
19.576058427592674	2.4226983	1.556502
19.593844310556282	2.432615	1.5596843
19.611630670212598	2.4472833	1.5643796
19.629417507028506	2.4629009	1.5693632
19.64720482147098	2.4974058	1.5803182
19.6649926140071	2.5132034	1.5853086
19.682780885104084	2.481639	1.5753218
19.70056963522921	2.472896	1.5725445
19.718358864849908	2.4906218	1.5781704
19.7361485744337	2.5075145	1.5835134
19.753938764448215	2.4758735	1.5734909
19.771729435361202	2.4780388	1.5741788
19.789520587640506	2.4987056	1.5807295
19.807312221754092	2.5353518	1.5922788
19.825104338170043	2.5418284	1.5943112
19.842896937356517	2.509042	1.5839956
19.860690019781824	2.479256	1.5745653
19.87848358591436	2.471652	1.5721488
19.896277636222635	2.4783082	1.5742643
19.914072171175278	2.4685447	1.5711603
19.931867191241015	2.4519088	1.5658572
19.94966269688869	2.4581864	1.5678605
19.967458688587264	2.4610498	1.5687734
19.985255166805807	2.4804223	1.5749357
20.00305213201348	2.474981	1.5732073
20.020849584679578	2.491925	1.5785832
20.038647525273507	2.453647	1.5664121
20.05644595426477	2.4749613	1.573201
20.07424487212299	2.478154	1.5742153
20.092044279317903	2.5029922	1.5820848
20.109844176319353	2.4684584	1.5711329
20.127644563597304	2.4312034	1.5592316
20.145445441621817	2.4021838	1.549898
20.16324681086307	2.394953	1.5475636
20.181048671791373	2.4032125	1.5502298
20.198851024877122	2.4109592	1.5527264
20.216653870590836	2.3879385	1.5452956
20.234457209403146	2.4085827	1.551961
20.252261041784802	2.3811917	1.5431111
20.270065368206662	2.3573642	1.5353711
20.287870189139685	2.3542426	1.5343541
20.305675505054968	2.3444405	1.5311565
20.323481316423702	2.378084	1.5421038
20.341287623717207	2.3616552	1.5367678
20.359094427406884	2.332826	1.5273591
20.376901727964288	2.3153367	1.521623
20.39470952586107	2.3327093	1.527321
20.41251782156899	2.3686254	1.5390339
20.430326615559935	2.3787282	1.5423126
20.448135908305886	2.3371532	1.5287751
20.465945700278965	2.3068674	1.5188375
20.483755991951384	2.2997453	1.5164912
20.50156678379548	2.3256035	1.524993
20.519378076283708	2.345075	1.5313637
20.537189869888635	2.3452375	1.5314168
20.55500216508294	2.3288713	1.5260639
20.572814962339415	2.310544	1.5200474
20.59062826213098	2.3218477	1.523761
20.60844206493066	2.3065755	1.5187415
20.626256371211593	2.3033173	1.5176684
20.644071181447032	2.3028715	1.5175215
20.66188649611036	2.3128	1.5207893
20.67970231567506	2.2825754	1.5108194
20.697518640614742	2.3233392	1.5242504
20.715335471403122	2.350257	1.5330547
20.73315280851404	2.3569427	1.5352337
20.750970652421447	2.3263187	1.5252274
20.768789003599412	2.306694	1.5187805
20.786607862522136	2.2889159	1.5129163
20.8044272296639	2.273824	1.5079204
20.82224710549913	2.2731316	1.5076908
20.84006749050237	2.2802646	1.5100545
20.857888385148268	3.8398542	1.9595546
20.8757097899116	45.932247	6.7773333
20.893531705267254	64.79766	8.0497
20.911354131690224	83.83353	9.156065
20.92917706965566	69.081215	8.311511
20.94700051963877	50.151928	7.0818024
20.96482448211493	29.429003	5.4248505
20.982648957559622	4.168047	2.0415795
21.00047394644843	2.2623951	1.5041261
21.01829944925707	2.2564485	1.5021479
21.036125466461375	2.258263	1.5027518
21.053951998537297	2.2445033	1.4981667
21.071779045960906	2.2102876	1.4867036
21.089606609208378	2.1912553	1.480289
21.10743468875603	2.2001202	1.4832802
21.12526328508028	2.1736307	1.4743239
21.143092398657675	2.1573544	1.4687935
21.16092202996488	2.1766243	1.4753387
21.17875217947867	2.1668983	1.4720389
21.19658284767596	2.1619236	1.4703481
21.21441403503377	2.1607554	1.4699508
21.232245742029225	2.169911	1.4730618
21.2500779691396	2.1936796	1.4811076
21.26791071684227	2.2114496	1.4870944
21.28574398561475	2.186101	1.4785469
21.30357777593465	2.1411235	1.4632578
21.321412088279704	2.1192594	1.4557676
21.339246923127792	2.1550517	1.4680095
21.357082280956888	2.1729534	1.474094
21.3749181622451	2.180967	1.4768097
21.392754567470647	2.1618824	1.470334
21.41059149711187	2.1773374	1.4755803
21.42842895164726	2.1450706	1.4646059
21.446266931555378	2.1290681	1.4591327
21.464105437314945	2.0668092	1.4376402
21.481944469404798	2.0672767	1.4378028
21.49978402830388	2.0785072	1.4417028
21.51762411449127	2.089471	1.4455003
21.53546472844617	2.080693	1.4424608
21.553305870647876	2.0675015	1.4378809
21.571147541575865	2.0627406	1.4362245
21.58898974170967	2.0738182	1.4400758
21.60683247152899	2.0808551	1.4425169
21.62467573151363	2.1039715	1.4505073
21.642519522143523	2.1045203	1.4506965
21.660363843898722	2.080232	1.4423009
21.6782086972594	2.013186	1.4188678
21.696054082705864	2.0313592	1.4252576
21.713900000718535	2.0803785	1.4423517
21.73174645177795	2.0993857	1.4489257
21.749593436364794	2.0823681	1.4430413
21.767440954959845	2.0406516	1.4285138
21.785289008044032	2.0071802	1.4167498
21.803137596098388	1.9882213	1.410043
21.820986719604086	2.0048873	1.4159404
21.838836379042412	1.9963839	1.4129345
21.85668657489478	1.9695855	1.4034193
21.87453730764273	1.9729929	1.4046327
21.892388577767914	1.9869108	1.4095782
21.91024038575213	1.9854414	1.4090569
21.928092732077285	1.9935278	1.4119234
21.945945617225426	2.0179205	1.4205353
21.963799041678694	2.0523064	1.4325873
21.981653005919398	31.371706	5.601045
21.999507510429943	78.166565	8.841186
22.01736255569286	73.090195	8.54928
22.035218142190818	4.1621017	2.040123
22.05307427040661	2.0038967	1.4155906
22.07093094082315	2.0291374	1.4244779
22.088788153923474	2.0141475	1.4192066
22.106645910190746	1.9820199	1.4078423
22.12450421010827	1.9791839	1.4068347
22.142363054159464	1.9695363	1.4034017
22.16022244282787	1.9356502	1.3912765
22.178082376597164	1.9166969	1.3844483
22.195942855951145	1.9596441	1.3998729
22.213803881373742	1.9718767	1.4042352
22.231665453349002	1.9715365	1.4041141
22.24952757236111	1.9565232	1.3987577
22.26739023889438	1.9372895	1.3918655
22.28525345343323	1.9456813	1.3948768
22.30311721646225	1.9572514	1.399018
22.320981528466113	1.9552904	1.398317
22.33884638992964	1.9283732	1.3886588
22.356711801337788	1.9224133	1.3865112
22.37457776317561	1.9444475	1.3944345
22.392444275928337	1.9444305	1.3944284
22.410311340081282	1.9361154	1.3914436
22.428178956119904	1.9467791	1.3952702
22.446047124529805	1.9409723	1.3931879
22.46391584579669	1.9486423	1.3959378
22.481785120406414	1.9175663	1.3847622
22.49965494884496	1.9277654	1.3884399
22.51752533159841	1.917544	1.3847542
22.53539626915302	1.9308622	1.3895546
22.553267761995137	1.9081081	1.3813429
22.571139810611264	1.918222	1.3849989
22.589012415488025	1.9400856	1.3928696
22.60688557711216	1.9285027	1.3887054
22.624759295970566	1.8933396	1.3759868
22.642633572550263	1.8990105	1.3780459
22.660508407338362	1.9317311	1.3898673
22.67838380082217	1.9310282	1.3896145
22.696259753489077	1.9284348	1.3886809
22.714136265826614	1.9036561	1.3797305
22.73201333832246	1.8972963	1.3774238
22.74989097146439	1.8512142	1.3605933
22.76776916574035	1.8561326	1.3623996
22.785647921638393	1.8679825	1.3667415
22.803527239646712	1.8564135	1.3625027
22.82140712025363	1.8489377	1.3597565
22.839287563947593	1.8484447	1.3595752
22.85716857121719	1.892794	1.3757885
22.875050142551135	1.9161171	1.3842388
22.892932278438277	1.9001404	1.3784558
22.910814979367604	1.8497078	1.3600396
22.928698245828222	1.8426765	1.3574523
22.946582078309387	1.8663601	1.3661479
22.96446647730047	1.8867446	1.3735882
22.98235144329098	1.897882	1.3776364
23.000236976770562	1.8736262	1.3688047
23.018123078229	1.8755028	1.36949
23.03600974815619	1.8395989	1.3563181
23.053896987042194	1.8175159	1.3481528
23.071784795377173	1.8195208	1.3488961
23.08967317365145	1.838388	1.3558717
23.10756212235546	1.8611152	1.3642269
23.125451641979787	1.8860805	1.3733464
23.143341733015134	1.9399219	1.3928108
23.161232395952357	1.9350762	1.3910701
23.179123631282426	1.9208324	1.385941
23.197015439496468	1.9021404	1.379181
23.214907821085717	1.8964784	1.3771268
23.23280077654157	1.9061366	1.3806291
23.250694306355538	1.8889012	1.3743731
23.268588411019277	1.884709	1.3728471
23.28648309102458	1.9032272	1.379575
23.304378346863356	1.9647294	1.4016881
23.322274179027676	1.9869237	1.4095829
23.340170588009723	1.9785618	1.4066136
23.358067574301852	1.9446584	1.3945101
23.37596513839651	1.929866	1.3891962
23.39386328078629	1.9338408	1.3906261
23.411762001963947	1.9098171	1.3819613
23.429661302422353	1.8934077	1.3760115
23.4475611826545	1.8724134	1.3683616
23.46546164315356	1.9025201	1.3793187
23.48336268441279	1.9090859	1.3816967
23.501264306925638	1.9431244	1.39396
23.51916651118564	1.9610928	1.4003903
23.537069297686497	1.978658	1.4066478
23.554972666922037	1.9413681	1.3933299
23.57287661938623	1.8654208	1.3658041
23.59078115557318	1.8611991	1.3642577
23.608686275977128	1.8866915	1.3735689
23.62659198109246	1.9190617	1.3853021
23.6444982714137	1.9407115	1.3930942
23.66240514743549	1.9735502	1.404831
23.68031260965263	1.9923557	1.4115083
23.698220658560068	1.9874027	1.4097527
23.716129294652845	1.9758637	1.4056542
23.7340385184262	1.9587971	1.3995703
23.75194833037546	1.9578589	1.3992351
23.769858730996123	1.9343432	1.3908067
23.78776972078382	1.8562924	1.3624582
23.80568130023431	1.8324124	1.3536663
23.823593469843495	1.8374959	1.3555427
23.841506230107424	1.9019184	1.3791006
23.859419581522275	1.9100473	1.3820446
23.87733352458438	1.8872194	1.373761
23.89524805979019	1.8817499	1.3717688
23.913163187636318	1.9125525	1.3829507
23.931078908619508	1.9537839	1.3977782
23.948995223236633	1.9782573	1.4065053
23.966912131984735	1.9809899	1.4074764
23.98482963536096	2.0334487	1.4259905
24.002747733862616	2.0925183	1.446554
24.020666427987155	2.1362844	1.4616034
24.038585718232156	2.106598	1.4514124
24.056505605095353	2.0567753	1.4341462
24.074426089074617	2.0352933	1.426637
24.092347170667946	2.0453866	1.43017
24.110268850373515	2.036824	1.4271734
24.128191128689586	2.035999	1.4268844
24.146114006114626	1.9859157	1.4092252
24.164037483147187	1.9728693	1.4045887
24.181961560286005	2.002508	1.4151
24.199886238029926	2.0594459	1.435077
24.21781151687797	2.0526009	1.43269
24.235737397329274	2.0501204	1.4318241
24.253663879883135	2.0649457	1.4369919
24.271590965038975	2.0510066	1.4321336
24.289518653296376	2.0381267	1.4276297
24.30744694515505	2.0617514	1.43588
24.32537584111486	2.0772195	1.4412562
24.34330534167581	2.0525057	1.4326569
24.361235447338046	1.9881425	1.4100151
24.379166158601876	1.969516	1.4033945
24.39709747596772	1.9799942	1.4071226
24.41502939993615	2.0017505	1.4148324
24.432961931007917	1.9913064	1.4111366
24.450895069683856	1.9360147	1.3914075
24.468828816465	1.9226893	1.3866107
24.4867631718525	1.9217986	1.3862895
24.504698136347656	1.9468725	1.3953037
24.52263371045192	1.9379321	1.3920963
24.540569894666874	1.9717168	1.4041784
24.558506689494266	2.0243545	1.4227982
24.57644409543597	2.0211513	1.421672
24.594382112994012	1.9520849	1.3971703
24.61232074267057	1.9237458	1.3869916
24.630259984967953	1.9496841	1.3963109
24.64819984038863	1.9620723	1.4007399
24.66614030943522	1.8958136	1.3768854
24.684081392610462	1.8563775	1.3624895
24.702023090417274	1.8756086	1.3695287
24.7199654033587	1.9215121	1.3861861
24.737908331937927	1.9634275	1.4012235
24.755851876658305	1.9786022	1.4066279
24.773796038023324	1.9930792	1.4117646
24.79174081653661	2.0281916	1.4241459
24.809686212701962	2.046108	1.4304223
24.827632227023294	2.019397	1.4210548
24.8455788600047	2.0486522	1.4313114
24.8635261121504	2.08631	1.4444064
24.88147398396475	2.1333635	1.4606038
24.899422475952303	2.1016715	1.4497143
24.917371588617698	2.0951154	1.4474514
24.935321322465768	2.1253958	1.4578737
24.953271678001478	2.2604148	1.5034676
24.97122265572994	2.4820604	1.5754557
24.989174256156414	2.8151834	1.6778508
25.00712647978632	3.2401829	1.8000509
25.02507932712521	3.7542486	1.9375883
25.043032798678798	4.247103	2.0608501
25.060986894952933	4.8946295	2.212381
25.078941616453637	5.6459317	2.376117
25.096896963687055	6.552171	2.559721
25.114852937159508	7.707912	2.7763126
25.132809537377444	8.204303	2.8643155
25.150766764847468	8.339299	2.8877845
25.168724620076347	7.8737464	2.8060198
25.186683103570985	6.8155813	2.6106668
25.204642215838426	5.599103	2.3662424
25.222601957385894	4.1796246	2.044413
25.24056232872074	3.1940374	1.787187
25.25852333035048	2.6075091	1.6147784
25.276484962782778	2.2642126	1.5047301
25.294447226525435	2.0816615	1.4427963
25.312410122086423	1.9879141	1.409934
25.330373649973843	1.9467559	1.3952619
25.348337810695988	1.9508152	1.3967159
25.366302604761245	1.9582206	1.3993644
25.384268032678207	1.9182434	1.3850067
25.40223409495558	1.8757406	1.3695768
25.420200792102257	1.8726244	1.3684387
25.438168124627246	1.8975558	1.3775179
25.45613609303974	1.9295012	1.3890649
25.474104697849057	1.969069	1.4032352
25.492073939564698	2.0049307	1.4159558
25.510043818696285	1.9810128	1.4074845
25.528014335753614	1.9382434	1.3922081
25.54598549124664	1.9229447	1.3867028
25.56395728568544	1.9085821	1.3815144
25.58192971958028	1.8925037	1.375683
25.59990279344156	1.8231249	1.3502314
25.617876507779833	1.7840967	1.3357009
25.635850863105826	1.8182709	1.3484328
25.653825859930386	1.8664277	1.3661727
25.671801498764548	1.8847772	1.3728719
25.68977778011949	1.8531098	1.3612897
25.707754704506524	1.8158903	1.3475498
25.725732272437153	1.8239957	1.3505539
25.743710484423012	1.8435024	1.3577564
25.761689340975888	1.8861732	1.3733802
25.77966884260774	1.8749939	1.3693042
25.797648989830662	1.858928	1.3634251
25.815629783156922	1.8265713	1.3515071
25.83361122309895	1.8238627	1.3505046
25.85159331016929	1.8117735	1.3460214
25.869576044880695	1.8262346	1.3513825
25.887559427746034	1.8456129	1.3585334
25.90554345927836	1.847807	1.3593407
25.92352813999086	1.841932	1.357178
25.94151347039689	1.8327795	1.3538018
25.959499451009965	1.848418	1.3595654
25.97748608234374	1.828283	1.3521402
25.995473364912062	1.782938	1.3352671
26.013461299228904	1.7776887	1.3333
26.03144988580839	1.8047783	1.3434204
26.04943912516483	1.8275479	1.3518683
26.067429017812675	1.795345	1.3399048
26.085419564266537	1.813578	1.3466915
26.103410765041186	1.8596125	1.3636761
26.12140262065155	1.8532368	1.3613364
26.139395131612723	1.8771511	1.3700917
26.157388298439948	1.8925494	1.3756996
26.17538212164861	1.9134699	1.3832823
26.193376601754295	1.9022946	1.3792369
26.211371739272714	1.9273379	1.388286
26.229367534719746	1.8963681	1.3770869
26.247363988611433	1.8559724	1.3623408
26.26536110146397	1.8090961	1.3450264
26.283358873793727	1.822142	1.3498673
26.301357306117204	1.8135786	1.3466917
26.319356398951104	1.8296959	1.3526626
26.33735615281224	1.8476902	1.3592978
26.35535656821762	1.8603382	1.3639421
26.373357645684404	1.8279221	1.3520067
26.39135938572991	1.8065984	1.3440976
26.409361788871614	1.7975937	1.3407437
26.427364855627165	1.778899	1.3337537
26.445368586514352	1.7807904	1.3344626
26.46337298205115	1.8173977	1.3481089
26.48137804275568	1.8452725	1.3584081
26.499383769146217	1.8016714	1.3422636
26.517390161741215	1.7845274	1.335862
26.53539722105928	1.7888697	1.3374864
26.553404947619182	1.8310851	1.3531759
26.571413341939856	1.7797935	1.334089
26.589422404540397	1.7474617	1.3219159
26.60743213594006	1.7338613	1.3167617
26.62544253665827	1.8211936	1.349516
26.64345360721459	1.8320423	1.3535296
26.66146534812879	1.787932	1.3371358
26.679477759920758	1.7432119	1.3203075
26.69749084311057	1.7512158	1.323335
26.71550459821847	1.7712878	1.3308973
26.733519025764842	1.7988496	1.341212
26.751534126270258	1.7596439	1.3265157
26.769549900255434	1.7609849	1.327021
26.787566348241267	1.7740822	1.3319467
26.80558347074881	1.7925401	1.3388578
26.823601268299267	1.8223155	1.3499316
26.841619741414036	1.826331	1.3514181
26.85963889061465	1.8223218	1.349934
26.877658716422832	1.8072598	1.3443437
26.89567921936045	1.8266017	1.3515183
26.913700399949544	1.8238711	1.3505077
26.93172225871233	1.8327409	1.3537877
26.949744796171174	1.8361207	1.3550353
26.967768012848605	1.8558272	1.3622875
26.98579190926733	1.895988	1.3769488
27.003816485950225	1.9116648	1.3826296
27.021841743420318	1.8580453	1.3631014
27.039867682200814	1.8024473	1.3425525
27.057894302815072	1.7913561	1.3384155
27.07592160578664	1.8063434	1.3440027
27.0939495916392	1.8063251	1.3439959
27.111978260896635	1.8091508	1.3450468
27.13000761408296	1.8175899	1.3481802
27.148037651722397	1.7801675	1.3342291
27.166068374339304	1.7529422	1.3239872
27.184099782458215	1.7483379	1.3222473
27.20213187660384	1.731857	1.3160003
27.22016465730105	1.774938	1.332268
27.23819812507487	1.7993896	1.3414133
27.256232280450533	1.8072225	1.3443297
27.274267123953383	1.7979095	1.3408614
27.292302656108987	1.8181002	1.3483695
27.31033887744306	1.8152081	1.3472966
27.32837578848146	1.816345	1.3477185
27.34641338975026	1.821238	1.3495325
27.364451681775673	1.8179523	1.3483146
27.382490665084074	1.7559148	1.3251094
27.400530340202046	1.7340845	1.3168464
27.41857070765629	1.7614285	1.3271881
27.436611767973726	1.7897424	1.3378125
27.454653521681404	1.7808788	1.3344957
27.472695969306564	1.7750416	1.3323069
27.490739111376627	1.768902	1.3300008
27.508782948419153	1.7603794	1.326793
27.526827480961902	1.7416009	1.3196973
27.54487270953279	1.7824278	1.335076
27.562918634659898	1.7797011	1.3340544
27.580965256871508	1.7664186	1.3290668
27.599012576696026	1.7798414	1.3341069
27.617060594662068	1.811048	1.3457519
27.63510931129842	1.8388993	1.3560601
27.65315872713401	1.8207867	1.3493654
27.67120884269797	1.7747588	1.3322008
27.68925965851958	1.757021	1.3255267
27.707311175128307	1.8072765	1.3443499
27.725363393053787	1.8664883	1.3661948
27.74341631282583	1.9042	1.3799275
27.7614699349744	1.8892021	1.3744825
27.77952426002968	2.0411143	1.4286758
27.797579288521973	2.094256	1.4471544
27.815635020981784	2.5472224	1.596002
27.83369145793979	2.637215	1.6239504
27.85174859992682	2.448413	1.5647405
27.869806447473923	2.26306	1.5043471
27.887865001112267	2.0035553	1.41547
27.905924261373233	1.925337	1.3875651
27.92398422878836	1.9376097	1.3919805
27.94204490388936	1.9019862	1.3791251
27.96010628720813	1.8673348	1.3665045
27.978168379276728	1.8097593	1.3452729
27.9962311806274	1.775178	1.332358
28.014294691792568	1.8237594	1.3504664
28.0323589133048	1.8926574	1.3757389
28.050423845696887	1.8770089	1.3700397
28.068489489501758	1.8480332	1.3594239
28.086555845252523	1.8402735	1.3565668
28.104622913482487	1.8668787	1.3663377
28.122690694725115	1.8171841	1.3480297
28.14075918951405	1.8096093	1.3452172
28.15882839838312	1.8240349	1.3505684
28.176898321866304	1.89203	1.3755108
28.1949689604978	1.9332727	1.3904217
28.213040314811945	1.9456292	1.3948581
28.23111238534327	1.9202244	1.3857217
28.249185172626493	1.9068582	1.3808904
28.267258677196473	1.8981743	1.3777424
28.285332899588294	1.9034467	1.3796545
28.303407840337172	1.9361734	1.3914645
28.321483499978545	1.9220691	1.3863871
28.33955987904799	1.8838534	1.3725353
28.357636978081285	1.9127195	1.383011
28.37571479761439	1.913061	1.3831345
28.393793338183425	1.8991681	1.3781031
28.41187260032469	1.8797059	1.3710237
28.429952584574686	1.8962885	1.3770579
28.448033291470065	1.9685097	1.4030359
28.46611472154769	1.9815121	1.4076619
28.484196875344566	1.9670403	1.4025122
28.502279753397914	1.9609548	1.4003409
28.52036335624511	1.996411	1.4129441
28.538447684423716	2.0428314	1.4292766
28.556532738471482	2.0635066	1.4364911
28.574618518926325	2.0022614	1.4150128
28.59270502632635	1.9980593	1.4135273
28.61079226120985	1.9672027	1.40257
28.628880224115274	1.9958413	1.4127425
28.646968915581287	2.0427556	1.42925
28.66505833614671	2.0268722	1.4236826
28.68314848635055	1.9850667	1.408924
28.701239366732004	2.0150225	1.4195149
28.71933097783044	2.0801342	1.4422671
28.737423320185403	2.087066	1.444668
28.75551639433665	2.0877512	1.4449053
28.773610200824074	2.080367	1.4423478
28.791704740187793	2.1022136	1.4499012
28.80980001296809	2.134129	1.4608659
28.827896019705413	2.1692958	1.472853
28.845992760940433	2.1556692	1.4682198
28.86409023721397	2.153087	1.4673401
28.88218844906704	2.1825554	1.4773474
28.900287397040845	2.249902	1.4999673
28.918387081676755	2.3277485	1.525696
28.936487503516343	2.3950474	1.5475941
28.954588663101365	2.4072702	1.551538
28.97269056097374	2.380383	1.542849
28.990793197675597	2.3654199	1.5379921
29.00889657374923	2.3910387	1.5462984
29.027000689737125	2.4503527	1.5653602
29.04510554618196	2.4705892	1.5718108
29.06321114362659	2.457973	1.5677924
29.08131748261405	2.431219	1.5592366
29.099424563687567	2.447011	1.5642924
29.11753238739057	2.4942536	1.5793207
29.13564095426663	2.5765998	1.6051791
29.15375026485954	2.588959	1.6090243
29.171860319713275	2.6098256	1.6154954
29.18997111937199	2.6419897	1.6254199
29.20808266438002	2.718923	1.6489158
29.226194955281898	2.841077	1.6855495
29.244307992622335	2.923628	1.709862
29.26242177694624	2.9770114	1.7254019
29.2805363087987	2.9882565	1.7286574
29.29865158872498	2.9639454	1.7216113
29.316767617270557	2.9777982	1.7256298
29.334884394981064	2.9679902	1.7227856
29.353001922402367	2.9386964	1.7142626
29.37112020008047	2.9564168	1.7194234
29.389239228561596	3.0646346	1.7506098
29.407359008392152	3.2450383	1.801399
29.42547954011872	3.6243248	1.9037659
29.44360082428809	4.3018517	2.0740905
29.46172286144722	5.4168024	2.3274026
29.479845652143283	7.0385356	2.653024
29.497969196923606	9.129633	3.0215282
29.516093496335728	11.644393	3.412388
29.5342185509274	14.439332	3.7999122
29.55234436124651	16.91779	4.113124
29.570470927841175	18.321547	4.2803674
29.588598251259686	17.950775	4.2368355
29.60672633205055	16.464457	4.057642
29.624855170762405	14.327332	3.7851462
29.642984767944146	11.496172	3.3906004
29.66111512414481	8.703415	2.950155
29.67924623991366	6.5106463	2.5515969
29.697378115800138	5.10261	2.2588959
29.71551075235387	4.177853	2.0439796
29.733644150124675	3.7172153	1.9280081
29.751778309662576	3.5023425	1.8714546
29.769913231517766	3.4384816	1.8543143
29.78804891624066	3.4122477	1.847227
29.806185364381818	3.3952577	1.8426225
29.82432257649206	3.3950684	1.8425711
29.842460553122333	3.2979789	1.8160338
29.86059929482382	3.202844	1.7896491
29.878738802147872	3.236916	1.7991432
29.896879075646048	3.3186672	1.821721
29.915020115870114	3.3507574	1.8305074
29.933161923371976	3.3347156	1.8261204
29.951304498703777	3.334676	1.8261095
29.969447842417857	3.3337803	1.8258643
29.987591955066733	3.3270237	1.8240131
30.005736837203123	3.2083957	1.7911996
30.023882489379943	3.1198184	1.7663008
30.04202891215028	3.1743884	1.7816813
30.060176106067455	3.2036946	1.7898867
30.078324071684946	3.1743147	1.7816607
30.09647280955646	3.175056	1.7818687
30.114622320235863	3.1510215	1.7751117
30.132772604277257	3.0912914	1.7582068
30.1509236622349	3.0517979	1.7469395
30.16907549466328	3.0474503	1.7456948
30.18722810211705	3.0804625	1.7551246
30.205381485151097	3.0876641	1.7571751
30.22353564432045	3.0734391	1.7531227
30.241690580180403	3.0090878	1.7346722
30.25984629328638	2.9096248	1.7057623
30.278002784194037	2.876185	1.6959319
30.296160053459246	2.9623044	1.7211347
30.314318101638033	3.0204692	1.7379497
30.332476929286646	2.9833093	1.7272259
30.35063653696153	2.9464831	1.7165323
30.368796925219307	2.9247248	1.7101827
30.386958094616844	2.8805254	1.697211
30.40512004571115	2.8340156	1.6834534
30.423282779059463	2.8847306	1.6984495
30.441446295219233	2.9452364	1.7161691
30.459610594748067	2.9230824	1.7097024
30.47777567820382	2.8604803	1.6912955
30.495941546144504	2.7849288	1.6688106
30.51410819912835	2.8091567	1.6760539
30.532275637713795	2.908993	1.705577
30.55044386245946	2.8851855	1.6985834
30.56861287392416	2.8171828	1.6784465
30.586782672666956	2.8459876	1.6870055
30.604953259247047	2.8290353	1.6819736
30.623124634223885	2.7991831	1.6730759
30.641296798157075	2.7444475	1.6566374
30.659469751606462	2.7112443	1.6465857
30.677643495132074	2.7199714	1.6492336
30.695818029294152	2.7381139	1.6547247
30.713993354653116	2.7483888	1.6578265
30.73216947176962	2.7575166	1.6605772
30.75034638120448	2.7510948	1.6586424
30.768524083518756	2.7342935	1.6535699
30.786702579273673	2.7353663	1.6538943
30.80488186903069	2.7743747	1.6656455
30.82306195335144	2.8867311	1.6990383
30.841242832797782	3.0196912	1.7377259
30.85942450793176	3.2790418	1.8108125
30.877606979315637	3.6225672	1.9033042
30.895790247511883	4.034292	2.0085547
30.913974313083134	4.452844	2.1101763
30.932159176592283	4.7498956	2.1794255
30.95034483860237	4.842743	2.2006233
30.968531299676698	4.7523766	2.1799946
30.98671856037873	4.3948436	2.0963883
31.00490662127215	3.9513726	1.987806
31.023095482920848	3.5677135	1.8888392
31.04128514588892	3.107102	1.7626973
31.059475610740662	2.739924	1.6552715
31.07766687804056	2.5625274	1.6007897
31.09585894835335	2.510003	1.584299
31.11405182224393	2.5124867	1.5850825
31.132245500277417	2.4880965	1.5773702
31.15043998301914	2.4295764	1.5587099
31.168635271034628	2.3919885	1.5466055
31.18683136488964	2.3874474	1.5451367
31.20502826515008	2.460285	1.5685296
31.223225972382135	2.4415433	1.5625439
31.241424487152155	2.4007785	1.5494446
31.259623810026692	2.3867514	1.5449115
31.27782394157253	2.4459078	1.5639398
31.296024882356644	2.5149126	1.5858476
31.314226632946237	2.4461393	1.5640138
31.332429193908684	2.485081	1.576414
31.350632565811598	2.553292	1.5979024
31.368836749222787	2.5530899	1.5978391
31.387041744710295	2.5307338	1.5908281
31.40524755284232	2.53755	1.592969
31.423454174187317	2.4611056	1.5687912
31.441661609313922	2.404691	1.5507066
31.459869858791002	2.3725517	1.540309
31.478078923187628	2.3377218	1.5289611
31.496288803073064	2.3713863	1.5399306
31.514499499016807	2.382715	1.5436045
31.532711011588546	2.2796416	1.5098482
31.550923341358178	2.2145486	1.4881359
31.56913648889584	2.2593997	1.50313
31.587350454771844	2.3427637	1.5306089
31.605565239556732	2.312772	1.5207801
31.62378084382127	2.3003132	1.5166783
31.641997268136382	2.2752025	1.5083774
31.660214513073274	2.298488	1.5160764
31.67843257920331	2.2260222	1.491986
31.6966514670981	2.1996963	1.4831374
31.71487117732944	2.2476716	1.4992237
31.733091710469346	2.2898197	1.5132151
31.751313067090052	2.358891	1.5358682
31.769535247764008	2.318408	1.5226319
31.787758253063878	2.2238896	1.4912711
31.805982083562526	2.2081664	1.48599
31.824206739833024	2.224672	1.4915335
31.84243222244869	2.2287076	1.4928856
31.860658531983013	2.2008624	1.4835304
31.878885669009737	2.20163	1.4837891
31.897113634102784	2.2511415	1.5003805
31.91534242783632	2.2515376	1.5005125
31.933572050784694	2.219825	1.4899077
31.951802503522508	2.216235	1.4887024
31.970033786624548	2.1537116	1.4675529
31.988265900665834	2.1521695	1.4670274
32.006498846221575	2.1963308	1.4820023
32.02473262386724	2.2093194	1.486378
32.04296723417845	2.219044	1.4896456
32.0612026777311	2.202069	1.483937
32.07943895510129	2.1370232	1.4618561
32.097676066865304	2.160302	1.4697965
32.115914013599685	2.174761	1.4747071
32.13415279588115	2.1798098	1.4764179
32.152392414286666	2.1092737	1.4523339
32.1706328693934	2.0742178	1.4402145
32.18887416177875	2.051038	1.4321445
32.20711629202032	2.0864556	1.4444568
32.225359260695924	2.0977988	1.448378
32.243603068383614	2.107057	1.4515705
32.26184771566166	2.0459037	1.4303509
32.28009320310852	2.0500357	1.4317945
32.2983395313029	2.1169572	1.4549767
32.31658670082372	2.1563573	1.468454
32.33483471225012	2.138038	1.4622031
32.35308356616143	2.1772048	1.4755354
32.371333263137245	2.2378054	1.4959296
32.38958380375734	2.2589874	1.5029929
32.407835188601744	2.2058153	1.4851987
32.42608741825067	2.1723824	1.4739004
32.444340493284585	2.0680192	1.4380609
32.46259441428416	2.062579	1.4361682
32.48084918183028	2.0662847	1.4374577
32.49910479650405	2.0688453	1.438348
32.51736125888683	2.1377099	1.462091
32.53561856956014	2.1354938	1.4613329
32.5538767291058	2.1440806	1.464268
32.572135738105764	2.1422007	1.4636259
32.59039559714228	2.0889554	1.4453219
32.608656306797776	2.041778	1.428908
32.62691786765491	2.0394714	1.4281006
32.645180280296586	2.011388	1.4182341
32.663443545305896	1.9547129	1.3981105
32.68170766326619	1.9846369	1.4087714
32.69997263476099	2.044289	1.4297864
32.7182384603741	2.0309455	1.4251125
32.7365051406895	2.0096266	1.417613
32.75477267629144	1.9418017	1.3934854
32.77304106776434	1.9342906	1.3907877
32.79131031569289	1.9658957	1.402104
32.809580420661966	1.9019567	1.3791145
32.827851383256714	1.880871	1.3714485
32.84612320406245	1.9680438	1.4028698
32.86439588366476	2.140103	1.4629091
32.88266942264945	2.1248755	1.4576952
32.9009438216025	2.027949	1.4240608
32.9192190811102	2.0294805	1.4245983
32.937495201758985	1.9745384	1.4051827
32.95577218413556	1.9015802	1.378978
32.974050028826866	1.8924103	1.3756491
32.992328736420035	1.8449829	1.3583015
33.010608307502444	1.7892531	1.3376297
33.02888874266169	1.8307089	1.3530369
33.047170042485604	1.9179488	1.3849003
33.06545220756225	1.9396011	1.3926957
33.083735238479896	2.0560563	1.4338955
33.10201913582707	2.0768774	1.4411376
33.12030390019248	2.0484192	1.43123
33.138589532165135	2.0118926	1.418412
33.15687603233419	1.9879471	1.4099457
33.17516340128909	1.9913629	1.4111565
33.19345163961947	2.0341659	1.4262419
33.211740747915215	1.9940828	1.41212
33.23003072676643	1.934173	1.3907455
33.248321576763466	1.8958735	1.3769072
33.266613298496885	1.9765316	1.4058918
33.28490589255747	1.965323	1.4018998
33.30319935953626	1.9081012	1.3813404
33.32149370002451	1.8768368	1.3699769
33.339788914613706	1.9215463	1.3861985
33.358085003895575	1.9114053	1.3825358
33.376381968462034	1.9099305	1.3820024
33.39467980890529	1.9054643	1.3803855
33.41297852581774	1.9079493	1.3812854
33.43127811979204	1.9374137	1.3919101
33.44957859142105	1.9114622	1.3825564
33.467879941297866	1.8912058	1.3752112
33.486182170015844	1.8983543	1.3778077
33.50448527816853	1.9454464	1.3947926
33.522789266349754	1.9388229	1.3924162
33.541094135153514	1.9106009	1.3822448
33.55939988517411	1.8158704	1.3475424
33.57770651700602	1.7949729	1.339766
33.59601403124398	1.8103815	1.3455042
33.61432242848296	1.8954878	1.3767672
33.632631709318154	1.885218	1.3730325
33.650941874344994	1.8970933	1.3773501
33.66925292415916	1.9523658	1.3972708
33.68756485935654	1.9738476	1.4049369
33.70587768053328	1.9218522	1.3863089
33.724191388285746	1.8903764	1.3749096
33.74250598321054	1.9000828	1.3784349
33.760821465904506	1.8394966	1.3562804
33.77913783696474	1.8570055	1.3627199
33.79745509698852	1.899793	1.3783298
33.815773246573414	1.8936479	1.3760988
33.8340922863172	1.8668368	1.3663224
33.852412216817896	1.8242018	1.3506302
33.87073303867377	1.8185552	1.3485382
33.889054752483304	1.9296079	1.3891033
33.907377358845245	1.9941441	1.4121417
33.92570085835853	1.9831641	1.4082485
33.94402525162239	1.9635941	1.401283
33.96235053923627	1.87405	1.3689594
33.980676721799824	1.7763524	1.3327987
33.999003799912984	1.792435	1.3388186
34.01733177417592	1.9408628	1.3931485
34.03566064518901	2.068655	1.438282
34.0539904135529	2.0949874	1.4474071
34.07232107986846	1.9645166	1.4016122
34.090652644736785	1.8813639	1.3716282
34.108985108759235	1.9637283	1.401331
34.12731847253742	2.0039554	1.4156113
34.14565273667313	2.0301728	1.4248413
34.16398790176847	2.0843055	1.4437124
34.18232396842574	2.0084875	1.4172112
34.20066093724749	1.9120007	1.3827511
34.21899880883651	1.7371427	1.3180071
34.23733758379583	1.8332913	1.3539909
34.25567726272874	1.9170287	1.3845681
34.27401784623872	2.052392	1.4326172
34.29235933492957	1.9923346	1.4115008
34.31070172940526	1.9813323	1.407598
34.32904503027003	2.068406	1.4381955
34.347389238128386	2.0490184	1.4314393
34.36573435358502	1.9713737	1.4040562
34.38408037724492	2.0055077	1.4161595
34.402427309713296	1.9617722	1.4006327
34.42077515159559	1.8046278	1.3433644
34.43912390349752	1.9243681	1.387216
34.45747356602499	1.9310372	1.3896177
34.47582413978423	1.8775192	1.370226
34.49417562538163	1.8951626	1.376649
34.51252802342388	1.9469055	1.3953155
34.53088133451789	1.9912014	1.4110993
34.54923555927084	2.1322796	1.4602327
34.567590698290104	2.129794	1.4593813
34.58594675218336	2.065247	1.4370967
34.6043037215585	1.91662	1.3844205
34.62266160702365	2.076404	1.4409733
34.641020409187234	2.1843066	1.47794
34.65938012865785	2.0260284	1.4233862
34.677740766044394	1.8866687	1.3735605
34.69610232195598	1.9687456	1.4031199
34.714464797002016	2.0054617	1.4161433
34.73282819179208	1.8236974	1.3504435
34.751192506936064	1.7572315	1.3256061
34.76955774304408	1.8353797	1.3547618
34.7879239007265	1.8474139	1.3591961
34.80629098059391	1.9059901	1.380576
34.824658983257194	1.9633094	1.4011815
34.843027909327446	1.7715497	1.3309958
34.86139775941603	1.7525148	1.3238258
34.879768534134534	1.8617182	1.364448
34.89814023409483	1.8077397	1.3445221
34.91651285990901	1.801634	1.3422496
34.93488641218944	1.8585198	1.3632754
34.95326089154871	1.8682878	1.3668532
34.97163629859967	2.0105698	1.4179456
34.99001263395542	1.9720883	1.4043106
35.00838989822934	1.9522353	1.3972242
35.02676809203499	1.992163	1.41144
35.04514721598624	2.2091677	1.4863269
35.063527270697215	2.210892	1.4869069
35.081908256782256	2.0312474	1.4252183
35.10029017485597	1.8687844	1.3670349
35.11867302553321	2.0076456	1.4169141
35.137056809429104	2.1445959	1.4644439
35.155441527159006	2.015606	1.4197204
35.173827179338524	1.8701993	1.3675523
35.19221376658354	1.966664	1.402378
35.21060128951017	1.9532076	1.397572
35.2289897487348	1.888141	1.3740964
35.24737914487405	1.8043303	1.3432536
35.26576947854479	1.897403	1.3774625
35.28416075036418	2.187119	1.4788911
35.30255296094958	2.151197	1.4666959
35.32094611091867	2.0219843	1.421965
35.33934020088932	1.8096517	1.345233
35.35773523147969	1.8375682	1.3555694
35.3761312033082	1.8361462	1.3550447
35.394528116993506	1.5585599	1.248423
35.41292597315452	1.5670555	1.2518208
35.431324772410434	1.7285554	1.3147454
35.449724515380666	1.9700639	1.4035896
35.46812520268491	2.0757046	1.4407306
35.486526834943106	2.1727386	1.4740212
35.504929412775454	2.3608074	1.5364919
35.52333293680242	1.970464	1.4037322
35.54173740764471	1.6598923	1.2883681
35.560142825923286	1.8714368	1.3680047
35.5785491922594	1.760392	1.3267976
35.59695650727454	1.1663843	1.0799928
35.61536477159042	1.3578206	1.1652557
