0.008763373481513119	0.3822274	0.6182454
0.026290120649546365	0.19633481	0.44309685
0.043816868432600686	0.19651687	0.44330224
0.06134361724069026	0.19926375	0.44638968
0.07887036748382949	0.21233352	0.4607966
0.0963971195720331	0.2770326	0.5263389
0.11392387391531617	0.20668279	0.4546238
0.1314506309236943	0.20193407	0.44937074
0.1489773910071836	0.22279228	0.47200876
0.16650415457580078	0.22728942	0.4767488
0.18403092203956356	0.17530042	0.41868892
0.20155769380849	0.13321151	0.36498153
0.2190844702925996	0.11349198	0.33688572
0.2366112519019124	0.13851039	0.37216985
0.2541380390464497	0.1581713	0.39770755
0.27166483213623416	0.19934447	0.4464801
0.28919163158128947	0.19443439	0.44094715
0.3067184377916406	0.15527709	0.39405215
0.324245251177314	0.15189953	0.3897429
0.34177207214833777	0.108318545	0.32911783
0.3592989011147415	0.12890735	0.3590367
0.37682573848655654	0.15655935	0.3956758
0.39435258467381573	0.1510538	0.3886564
0.41187944008655414	0.12383328	0.35189953
0.42940630513480854	0.06844844	0.2616265
0.446933180228618	0.10447442	0.32322502
0.4644600657780234	0.1427472	0.377819
0.48198696219306775	0.12516062	0.35378048
0.49951386988379676	0.10715473	0.32734495
0.5170407892602581	0.11746397	0.34273016
0.5345677207325025	0.17159061	0.41423497
0.5520946647105822	0.18612114	0.43141758
0.5696216216045534	0.15863769	0.39829347
0.5871485918244737	0.16867065	0.41069534
0.6046755757804043	0.21530175	0.4640062
0.6222025738824094	0.20076512	0.4480682
0.6397295865405557	0.20359257	0.45121235
0.6572566141649129	0.18970048	0.4355462
0.6747836571655547	0.20852377	0.45664403
0.6923107159525568	0.21427366	0.46289703
0.7098377909359992	0.20356034	0.4511766
0.7273648825259653	0.20130229	0.44866723
0.7448919911325411	0.21958771	0.46860188
0.762419117165817	0.25136724	0.50136536
0.7799462610358868	0.22012626	0.46917614
0.7974734231528482	0.2059319	0.4537972
0.8150006039268024	0.17524576	0.41862366
0.8325278037678551	0.18248507	0.4271827
0.8500550230861152	0.19653359	0.44332108
0.8675822622916969	0.17071867	0.41318116
0.8851095217947171	0.15470049	0.39331982
0.9026368020052984	0.16364646	0.4045324
0.9201641033335665	0.17540006	0.4188079
0.9376914261896523	0.17635794	0.41994992
0.9552187709836915	0.17631847	0.41990292
0.9727461381258234	0.21092577	0.45926657
0.990273528026193	0.22631563	0.47572643
1.0078009410949496	0.21711434	0.46595532
1.0253283777422473	0.22345762	0.47271305
1.0428558383782454	0.2517203	0.5017174
1.0603833234131086	0.2895092	0.5380606
1.0779108332570058	0.35593563	0.5966034
1.0954383683201119	0.38460243	0.6201632
1.112965929012607	0.4315296	0.6569091
1.1304935157446763	0.56067127	0.74877983
1.1480211289265108	0.5751285	0.75837225
1.1655487689683062	1.4175295	1.1906005
1.1830764362802655	1.7387006	1.318598
1.200604131272596	2.1423066	1.463662
1.2181318543555117	2.4831858	1.5758127
1.235659605939232	2.4989219	1.5807979
1.253187386433982	4.185719	2.045903
1.270715196249994	6.6936455	2.587208
1.2882430357975057	12.009104	3.4654155
1.3057709054867608	16.26868	4.0334454
1.3232988057280106	22.083738	4.6993337
1.3408267369315112	27.191729	5.214569
1.358354699507526	31.04909	5.572171
1.3758826938663256	35.488525	5.957225
1.3934107204181858	37.296154	6.1070576
1.410938779573391	38.05784	6.1691036
1.4284668717422309	38.825684	6.2310257
1.4459949973350033	38.32651	6.1908407
1.4635231567620117	38.237103	6.1836157
1.4810513504335687	37.041992	6.086213
1.4985795787599925	36.228497	6.0190115
1.5161078421516088	35.411083	5.9507213
1.5336361410187505	34.850628	5.903442
1.5511644757717598	34.892662	5.907001
1.5686928468209842	35.74194	5.9784565
1.58622125457678	36.160587	6.013367
1.6037496994495108	36.83208	6.068944
1.621278181849548	36.785915	6.0651393
1.6388067021872719	37.536983	6.1267433
1.6563352608730693	37.250294	6.103302
1.673863858317336	36.520508	6.04322
1.6913924949304753	36.205547	6.0171046
1.7089211711228998	34.983253	5.9146643
1.7264498873050296	34.38225	5.863638
1.7439786438872935	33.34265	5.7743096
1.7615074412801288	32.233334	5.6774406
1.779036279893981	31.325493	5.596918
1.796565160139305	29.934847	5.471275
1.814094082426564	29.619482	5.4423785
1.8316230471662298	28.87008	5.3730884
1.849152054768784	28.152817	5.305923
1.8666811056447168	27.781889	5.2708526
1.8842102002045273	27.530777	5.246978
1.901739338858724	27.090359	5.2048397
1.9192685220178245	26.403872	5.1384697
1.9367977500923557	25.255331	5.0254683
1.9543270234928547	24.69416	4.9693217
1.971856342629867	23.939245	4.8927746
1.9893857079139496	23.325796	4.8296785
2.006915119755667	22.668804	4.7611766
2.0244445785655945	22.15238	4.7066317
2.0419740847543175	21.926157	4.6825376
2.0595036387324317	21.628405	4.650635
2.0770332409105414	21.27133	4.6120853
2.094562891699263	21.001947	4.582788
2.1120925915092217	20.34363	4.510391
2.129622340751053	20.123343	4.4859047
2.1471521398354043	188.20319	13.718717
2.1646819891729323	444.53934	21.0841
2.182211889174303	440.72058	20.993345
2.1997418402501974	452.93033	21.28216
2.2172718428113023	433.0435	20.809696
2.234801897268317	321.0089	17.916721
2.2523320040319548	17.488688	4.1819477
2.269862163512935	17.115412	4.137078
2.287392376121992	16.763903	4.0943747
2.304922642269869	16.467123	4.0579705
2.322452962367322	16.160343	4.019993
2.3399833368251164	15.863439	3.9828932
2.357513766054032	15.6750965	3.9591787
2.3750442504648586	15.350468	3.9179673
2.3925747904683963	15.103186	3.8862817
2.410105386475459	14.678472	3.8312492
2.4276360388968707	14.332614	3.7858438
2.445166748143469	14.294919	3.780862
2.4626975146261025	14.256312	3.7757533
2.4802283387556323	14.065406	3.7503874
2.4977592209429305	13.761922	3.7097065
2.5152901615988825	13.325043	3.6503482
2.5328211611343865	13.111342	3.6209588
2.5503522199603523	12.793166	3.5767536
2.5678833384877024	12.449402	3.528371
2.5854145171273712	12.255073	3.5007246
2.6029457562903064	12.169333	3.4884572
2.620477056387469	12.003218	3.464566
2.6380084178298326	11.797109	3.434692
2.655539841028383	11.438887	3.3821423
2.673071326394119	11.3177805	3.3641908
2.6906028743380523	11.14738	3.3387692
2.708134485271211	11.1606045	3.340749
2.7256661596046325	10.98322	3.314094
2.743197897749369	10.631264	3.260562
2.760729700116486	10.544415	3.2472165
2.778261567117063	10.331648	3.214288
2.795793499162193	10.251435	3.2017863
2.8133254966629817	10.079198	3.1747754
2.830857560030551	9.966943	3.1570466
2.8483896896760337	10.047863	3.1698365
2.865921886010578	10.070158	3.1733513
2.883454149445347	9.95968	3.155896
2.9009864803915177	9.692772	3.1133218
2.91851887926028	9.532423	3.0874622
2.9360513464628384	9.376957	3.0621817
2.953583882410413	9.225476	3.0373468
2.9711164875142373	8.96397	2.993989
2.9886491621855606	8.79821	2.9661777
3.0061819068356455	8.640437	2.939462
3.023714721875769	8.582543	2.9295979
3.041247607717225	8.498898	2.9152868
3.0587805647713213	8.390661	2.896664
3.0763135934493806	8.296305	2.8803306
3.0938466941627407	8.129106	2.8511586
3.1113798673227544	8.17733	2.8596032
3.1289131133407904	8.129444	2.851218
3.1464464326282315	8.045629	2.8364818
3.1639798255964786	7.9948163	2.8275106
3.1815132926569443	7.84195	2.8003483
3.1990468342210603	7.7831016	2.7898211
3.216580450700272	7.6201224	2.760457
3.2341141425060416	7.482774	2.735466
3.251647910049847	7.2677593	2.6958783
3.2691817537431813	7.115603	2.6675088
3.286715673997555	7.152044	2.6743305
3.3042496712244938	7.1862626	2.6807206
3.32178374583554	7.1784334	2.6792598
3.339317898242251	7.041695	2.6536193
3.3568521288562034	6.8764944	2.622307
3.3743864380889876	6.7861376	2.6050217
3.3919208263522127	6.8098407	2.6095672
3.4094552940575023	6.770104	2.6019423
3.4269898416164972	6.7207837	2.5924475
3.444524469440858	6.6830893	2.5851672
3.4620591779422587	6.596993	2.5684612
3.479593967532391	6.550958	2.559484
3.4971288386229658	6.537129	2.556781
3.5146637916257086	6.5325446	2.5558844
3.5321988269523628	6.476495	2.544896
3.5497339450146903	6.449281	2.5395434
3.5672691462244708	6.355168	2.5209458
3.5848044309934988	6.2792234	2.505838
3.60233979973359	6.2719097	2.504378
3.619875252856575	6.3001204	2.510004
3.6374107907743034	6.229178	2.4958322
3.6549464138986427	6.194432	2.4888616
3.6724821226414788	6.1687684	2.4837005
3.690017917414714	6.300031	2.5099864
3.7075537986302702	6.3785815	2.5255854
3.7250897667000857	6.442862	2.5382793
3.7426258220361235	6.5688944	2.5629854
3.7601619650503553	6.8012443	2.6079195
3.777698196154779	7.293387	2.700627
3.7952345157614067	8.385285	2.8957357
3.8127709242822716	9.242297	3.0401146
3.830307422129425	11.384346	3.3740697
3.847844009714936	30.181501	5.493769
3.8653806874508954	97.7382	9.886263
3.882917455749409	97.08709	9.853278
3.900454315022606	96.88241	9.842886
3.917991265682631	41.413643	6.4353433
3.9355283081416506	10.99624	3.316058
3.9530654428118495	8.801417	2.9667182
3.970602670105433	7.6803217	2.7713394
3.9881399904346244	6.7863393	2.6050603
4.005677404211669	6.6723623	2.5830917
4.023214911848827	6.5464506	2.5586033
4.0407525137583855	6.4619856	2.5420437
4.058290210352644	6.4934373	2.5482223
4.075828002043927	6.4981866	2.549154
4.0933658892445814	6.385699	2.526994
4.110903872366966	6.2759585	2.5051863
4.128441951823468	6.170085	2.4839656
4.145980128026488	6.161157	2.4821677
4.163518401388452	6.179982	2.485957
4.181056772321807	6.1377373	2.4774456
4.1985952412390155	6.1412635	2.4781573
4.216133808552567	6.126346	2.4751456
4.233672474674966	6.246037	2.4992073
4.251211240018741	6.458177	2.5412943
4.268750104996445	6.7637677	2.6007245
4.286289070020643	7.719875	2.7784662
4.303828135503928	9.411159	3.0677612
4.3213673018589125	29.653408	5.445494
4.3389065694982305	90.75978	9.526793
4.356445938834537	166.02025	12.884885
4.3739854102805085	171.64278	13.101251
4.391524984248844	172.61226	13.138199
4.409064661152262	136.6174	11.688345
4.426604441403504	96.78016	9.83769
4.444144325415337	75.77866	8.705094
4.461684313600543	21.81922	4.671105
4.47922440637193	22.289944	4.721223
4.496764604142329	20.56715	4.535102
4.5143049073245916	18.628937	4.3161254
4.531845316331589	16.451431	4.0560365
4.5493858315762195	13.524083	3.6775105
4.566926453471405	11.27296	3.357523
4.584467182430081	9.346613	3.057223
4.602008018865218	8.296468	2.880359
4.619548963189798	7.6326203	2.7627196
4.637090015816834	7.1674156	2.677203
4.654631177159353	6.8276734	2.6129818
4.672172447630417	6.475701	2.5447397
4.689713827643102	6.214593	2.4929085
4.7072553176105085	6.073934	2.4645352
4.724796917945764	6.062193	2.462152
4.742338629062015	6.0140767	2.4523613
4.759880451372434	5.9325113	2.4356747
4.777422385290215	5.819337	2.4123302
4.794964431228581	5.81244	2.4109
4.812506589600768	5.751804	2.3982918
4.830048860820047	5.665184	2.3801646
4.847591245299709	5.6658354	2.3803015
4.8651337434530655	5.7008524	2.3876457
4.882676355693457	5.742111	2.3962703
4.900219082434242	5.716316	2.3908818
4.917761924088813	5.599067	2.3662348
4.935304881070575	5.6157904	2.369766
4.952847953792969	5.576746	2.3615134
4.970391142669449	5.5945196	2.3652737
4.9879344481135055	5.563877	2.3587873
5.005477870538642	5.440779	2.332548
5.023021410358394	5.349195	2.3128326
5.040565067986324	5.435892	2.3315
5.05810884383601	5.5267034	2.3508942
5.075652738321066	5.5619545	2.3583796
5.09319675185512	5.49396	2.3439198
5.110740884851836	5.433054	2.3308911
5.128285137724894	5.4537954	2.3353362
5.145829510888007	5.445818	2.3336277
5.163374004754908	5.425295	2.3292263
5.1809186197393595	5.379104	2.3192897
5.198463356255145	5.370711	2.3174794
5.216008214716077	5.42705	2.329603
5.233553195535998	5.446545	2.3337834
5.251098299128764	5.4554553	2.3356917
5.268643525908272	5.3687677	2.3170602
5.286188876288432	5.2824917	2.2983673
5.3037343506831895	5.2655735	2.2946837
5.32127994950651	5.2780037	2.2973907
5.3388256731723915	5.3270497	2.3080401
5.356371522094851	5.327369	2.3081095
5.373917496687938	5.28612	2.2991564
5.391463597365729	5.2738986	2.296497
5.40900982454232	5.252197	2.2917671
5.426556178631843	5.202295	2.280854
5.444102660048449	5.1865396	2.2773976
5.4616492692063225	5.2016087	2.2807035
5.479196006519669	5.2214284	2.2850444
5.496742872402727	5.1660285	2.2728899
5.514289867269756	5.1175036	2.26219
5.531836991535049	5.0593133	2.2492917
5.549384245612924	5.0411468	2.2452497
5.566931629917724	5.108197	2.260132
5.584479144863822	5.168855	2.2735116
5.6020267908656205	5.236636	2.2883697
5.619574568337545	5.1484027	2.269009
5.637122477694054	5.1196513	2.2626646
5.654670519349629	5.139615	2.267072
5.672218693718784	5.189484	2.278044
5.689767001216059	5.1793423	2.275817
5.707315442256021	5.19248	2.2787013
5.724864017253266	5.1436005	2.2679508
5.7424127266224225	5.227347	2.2863393
5.75996157077814	5.2740984	2.2965405
5.777510550135105	5.3032465	2.302878
5.795059665108022	5.2628927	2.2940996
5.812608916111639	5.18921	2.2779837
5.830158303560715	5.188698	2.2778714
5.847707827870055	5.1893735	2.2780197
5.86525748945448	5.313672	2.3051403
5.8828072887288485	5.4637585	2.3374684
5.900357226108044	5.6031895	2.3671057
5.917907302006979	5.66547	2.3802247
5.9354575168406	6.204002	2.4907835
5.9530078710238765	6.8025002	2.6081603
5.970558364971812	7.4514956	2.7297428
5.988108999099438	7.898218	2.810377
6.005659773821818	8.5004015	2.9155447
6.023210689554039	8.161554	2.8568435
6.040761746711227	8.546381	2.9234195
6.058312945708531	7.8360505	2.7992947
6.075864286961132	7.401463	2.720563
6.093415770884244	6.7863584	2.605064
6.1109673978931065	6.2359076	2.49718
6.128519168402993	5.6214905	2.3709683
6.146071082829204	5.388754	2.321369
6.163623141587075	5.266462	2.2948773
6.181175345091969	5.168416	2.273415
6.198727693759281	5.1332355	2.2656646
6.216280188004435	5.171827	2.2741652
6.233832828242885	5.1908913	2.2783527
6.251385614890126	5.215729	2.283797
6.268938548361669	5.2393975	2.288973
6.286491629073067	5.188901	2.277916
6.304044857439898	5.1424723	2.2677019
6.321598233877777	5.0624843	2.2499964
6.339151758802344	5.028073	2.2423365
6.356705432629277	5.019879	2.2405086
6.37425925577428	5.0017796	2.236466
6.391813228653095	5.0520577	2.2476783
6.409367351681486	5.089922	2.2560856
6.426921625275259	5.1548305	2.270425
6.44447604985025	5.131883	2.265366
6.46203062582232	5.0919733	2.25654
6.47958535360737	5.020523	2.2406523
6.497140233621328	5.0218287	2.2409437
6.514695266280161	4.9696074	2.2292616
6.532250451999859	4.954541	2.22588
6.549805791196454	4.9939437	2.2347133
6.567361284286002	5.025738	2.2418158
6.584916931684597	5.058302	2.2490668
6.602472733808367	5.032761	2.2433817
6.6200286910734665	5.0141244	2.239224
6.637584803896092	5.0343757	2.2437415
6.655141072692462	5.0641513	2.250367
6.672697497878842	5.0479846	2.246772
6.690254079871514	5.0570803	2.2487953
6.707810819086808	5.0367875	2.244279
6.725367715941078	5.022654	2.241128
6.742924770850719	5.0388584	2.2447402
6.760481984232151	4.996667	2.2353225
6.778039356501836	5.0080304	2.2378628
6.795596888076266	4.945088	2.2237554
6.813154579371963	4.989285	2.2336707
6.830712430805492	4.9735837	2.2301533
6.84827044279344	5.028762	2.24249
6.865828615752445	4.9499598	2.2248504
6.883386950099159	4.981615	2.2319531
6.900945446250287	5.026369	2.2419565
6.918504104622553	5.055419	2.248426
6.936062925632727	5.069439	2.2515414
6.953621909697607	5.043148	2.2456954
6.971181057234028	5.0614276	2.2497616
6.988740368658859	5.105904	2.2596247
7.006299844389007	5.224307	2.2856743
7.023859484841407	5.315366	2.3055077
7.041419290433036	5.381241	2.31975
7.058979261580902	5.445622	2.3335857
7.0765393987020495	5.6449995	2.3759208
7.094099702213559	6.045674	2.4587953
7.111660172532549	6.456712	2.541006
7.129220810076164	6.8181877	2.611166
7.146781615261595	7.4402213	2.7276769
7.16434258850606	7.84738	2.8013177
7.181903730226821	8.261911	2.8743541
7.1994650408411704	8.334175	2.886897
7.217026520766437	8.364555	2.8921542
7.234588170419983	8.668702	2.944266
7.252149990219215	8.672723	2.9449487
7.269711980581568	8.574388	2.9282055
7.2872741419245175	8.284539	2.8782876
7.304836474665574	7.8783374	2.8068376
7.322398979222286	7.528662	2.7438407
7.339961656012233	7.3217993	2.7058823
7.357524505453039	6.9537272	2.636992
7.375087527962357	6.6873913	2.585999
7.392650723957886	6.382982	2.5264564
7.410214093857353	5.971225	2.443609
7.427777638078528	5.731846	2.3941274
7.445341357039213	5.6018953	2.3668323
7.4629052511572525	5.460746	2.336824
7.480469320850524	5.3593893	2.3150356
7.498033566536948	5.2950144	2.3010898
7.5155979886344735	5.1736245	2.2745602
7.5331625875610975	5.097288	2.2577174
7.550727363734844	5.0743766	2.2526376
7.568292317573788	5.113853	2.261383
7.585857449496025	5.2000985	2.2803724
7.603422759919705	5.231735	2.2872987
7.620988249263007	5.2464275	2.290508
7.638553917944147	5.2025585	2.2809117
7.656119766381391	5.2267256	2.2862034
7.673685794993023	5.2132535	2.283255
7.691252004197388	5.213733	2.28336
7.70881839441285	5.1855464	2.2771795
7.726384966057826	5.1816645	2.276327
7.743951719550762	5.1554174	2.2705545
7.761518655310149	5.157178	2.270942
7.779085773754511	5.233842	2.287759
7.796653075302419	5.272211	2.2961297
7.814220560372475	5.3396344	2.3107648
7.831788229383323	5.342219	2.3113241
7.8493560827536495	5.345315	2.3119938
7.866924120902174	5.2755227	2.2968507
7.884492344247663	5.288976	2.2997775
7.9020607532089135	5.298512	2.3018496
7.919629348204771	5.2954254	2.3011792
7.937198129654115	5.344507	2.311819
7.954767097975865	5.3524013	2.3135257
7.972336253588986	5.421669	2.3284478
7.989905596912472	5.45446	2.3354785
8.007475128365371	5.454233	2.33543
8.025044848366756	5.463766	2.33747
8.042614757335754	5.5438247	2.3545327
8.060184855691523	5.627744	2.3722868
8.07775514385327	5.775995	2.4033298
8.095325622240228	5.7882957	2.4058878
8.112896291271687	5.925683	2.4342725
8.130467151366968	5.9700136	2.443361
8.148038202945436	5.999808	2.4494505
8.165609446426497	5.930783	2.43532
8.183180882229594	5.951024	2.4394722
8.200752510774217	5.974712	2.4443223
8.218324332479893	6.037203	2.457072
8.235896347766193	6.0127697	2.452095
8.253468557052724	6.054443	2.4605777
8.27104096075914	6.048241	2.4593172
8.288613559305137	6.103914	2.47061
8.306186353110448	6.2413936	2.4982781
8.32375934259485	6.3764925	2.5251718
8.341332528178162	6.35793	2.5214937
8.358905910280246	6.352364	2.5203896
8.376479489321003	6.2823553	2.5064628
8.394053265720377	6.368044	2.5234983
8.411627239898356	6.37616	2.525106
8.42920141227497	6.344308	2.518791
8.44677578327029	6.304336	2.5108438
8.464350353304427	6.295907	2.5091646
8.48192512279754	6.3300085	2.515951
8.499500092169827	6.311888	2.5123472
8.51707526184153	6.2626796	2.5025346
8.534650632232934	6.2192526	2.4938428
8.552226203764365	6.183399	2.4866443
8.569801976856192	6.2048593	2.4909556
8.587377951928834	6.232569	2.4965115
8.60495412940274	6.378374	2.5255444
8.622530509698416	6.4021397	2.530245
8.6401070932364	6.528624	2.5551171
8.657683880437283	6.5643	2.562089
8.675260871721695	6.73816	2.5957966
8.692838067510303	6.8671165	2.6205184
8.710415468223834	6.9650965	2.6391468
8.727993074283043	7.075314	2.6599462
8.745570886108737	7.0923734	2.663151
8.763148904121765	7.1688743	2.6774755
8.78072712874302	7.2688766	2.6960855
8.798305560393441	7.5620008	2.7499092
8.815884199494006	7.6792755	2.7711506
8.833463046465745	7.8694634	2.8052564
8.851042101729728	7.991609	2.8269434
8.86862136570707	8.287061	2.8787255
8.886200838818924	8.423898	2.9023952
8.903780521486505	8.49757	2.915059
8.921360414131055	8.565745	2.9267294
8.938940517173874	8.668587	2.9442463
8.956520831036297	8.812019	2.9685047
8.97410135613971	9.11363	3.018879
8.99168209290554	9.373186	3.0615659
9.009263041755265	9.727666	3.1189206
9.026844203110405	9.892756	3.1452754
9.044425577392525	10.010603	3.1639538
9.062007165023239	10.074198	3.1739876
9.079588966424197	10.271013	3.204842
9.097170982017108	10.372308	3.2206068
9.11475321222372	11.361169	3.3706334
9.132335657465825	12.286905	3.5052683
9.149918318165264	12.406461	3.5222807
9.167501194743924	12.907862	3.5927513
9.18508428762374	12.533813	3.5403125
9.202667597226693	12.55557	3.5433838
9.220251123974803	12.271743	3.5031047
9.237834868290143	12.054081	3.4718988
9.255418830594836	11.901376	3.449837
9.273003011311046	11.356919	3.3700027
9.290587410860985	11.077132	3.3282325
9.308172029666911	10.403984	3.2255208
9.32575686815113	10.131616	3.1830199
9.343341926735997	8.834108	2.9722228
9.360927205843916	8.613039	2.934798
9.378512705897327	8.410888	2.9001532
9.396098427318728	8.207789	2.864924
9.413684370530664	8.110262	2.8478522
9.431270535955722	7.9547677	2.8204198
9.448856924016539	7.8667293	2.804769
9.466443535135806	7.780188	2.7892988
9.484030369736251	7.7963834	2.7922006
9.501617428240658	7.7673416	2.7869952
9.519204711071852	7.84618	2.8011034
9.536792218652714	7.910771	2.8126092
9.55437995140617	8.006945	2.8296545
9.571967909755191	7.997767	2.8280323
9.589556094122802	7.9294753	2.8159325
9.60714450493207	7.8800354	2.80714
9.624733142606116	7.821219	2.7966442
9.642322007568108	7.8387227	2.7997718
9.659911100241267	7.9072065	2.8119755
9.677500421048851	7.9595566	2.8212686
9.695089970414175	7.980098	2.8249066
9.712679748760609	8.067858	2.8403974
9.730269756511557	8.176171	2.8594005
9.747859994090492	8.256056	2.8733354
9.765450461920915	8.244106	2.8712552
9.78304116042639	8.198156	2.8632424
9.800632090030527	8.225311	2.8679802
9.81822325115699	8.318617	2.8842013
9.835814644229481	8.406477	2.8993926
9.853406269671762	8.419184	2.901583
9.870998127907646	8.4811	2.9122329
9.888590219360985	8.420061	2.901734
9.906182544455698	8.446034	2.9062061
9.923775103615734	8.467349	2.9098709
9.941367897265108	8.471005	2.910499
9.958960925827878	8.443803	2.9058223
9.97655418972816	8.305607	2.881945
9.994147689390106	8.318904	2.884251
10.011741425237934	8.267219	2.875277
10.029335397695904	8.353058	2.8901658
10.04692960718833	8.313654	2.8833408
10.06452405413958	8.313142	2.883252
10.082118738974064	8.25583	2.873296
10.099713662116246	8.306326	2.8820698
10.117308823990651	8.358342	2.8910797
10.134904225021844	8.380846	2.894969
10.152499865634445	8.331771	2.8864808
10.170095746253125	8.243239	2.8711042
10.18769186730261	8.251591	2.872558
10.205288229207675	8.228486	2.8685338
10.222884832393145	8.182296	2.8604712
10.2404816772839	8.105971	2.8470988
10.258078764304868	8.081905	2.8428693
10.275676093881035	8.132868	2.8518183
10.293273666437438	8.171209	2.8585327
10.310871482399158	8.248858	2.8720827
10.32846954219134	8.212236	2.8657
10.346067846239173	8.217675	2.8666487
10.363666394967908	8.179605	2.8600008
10.38126518880283	8.187377	2.8613594
10.398864228169298	8.221006	2.8672297
10.416463513492713	8.162109	2.8569405
10.434063045198531	8.106935	2.8472679
10.451662823712262	8.123062	2.8500986
10.469262849459467	8.212734	2.8657868
10.486863122865758	8.204595	2.8643663
10.504463644356806	8.187885	2.861448
10.522064414358338	8.084825	2.8433826
10.539665433296118	8.051133	2.837452
10.557266701595987	8.006705	2.8296123
10.574868219683818	7.9356737	2.8170328
10.592469987985552	7.8258915	2.7974794
10.610072006927185	7.6955366	2.7740831
10.627674276934751	7.589002	2.7548144
10.64527679843435	7.384171	2.7173831
10.662879571852143	7.307766	2.703288
10.680482597614331	7.193223	2.6820185
10.698085876147173	7.1020217	2.6649618
10.715689407876988	7.013729	2.6483445
10.733293193230146	6.93207	2.6328824
10.750897232633072	6.9099083	2.6286705
10.76850152651225	6.7529817	2.59865
10.786106075294207	6.6305313	2.5749817
10.803710879405534	6.4826317	2.5461013
10.821315939272877	6.3876486	2.5273798
10.83892125532294	6.293883	2.5087612
10.856526827982472	6.2811356	2.5062194
10.874132657678285	6.3244796	2.5148518
10.891738744837243	6.2788405	2.5057614
10.909345089886271	6.2204432	2.4940817
10.926951693252343	6.1612735	2.4821913
10.944558555362494	6.0623574	2.4621854
10.96216567664381	6.034669	2.4565563
10.979773057523436	5.964452	2.4422228
10.997380698428573	5.927725	2.434692
11.014988599786477	5.8219748	2.4128768
11.032596762024461	5.7993937	2.408193
11.050205185569892	5.77746	2.4036348
11.067813870850198	5.750283	2.3979747
11.085422818292859	5.5953803	2.3654556
11.10303202832541	5.4584866	2.3363404
11.120641501375454	5.3950334	2.322721
11.138251237870636	5.3763027	2.3186855
11.155861238238671	5.3334804	2.309433
11.173471502907317	5.25884	2.293216
11.191082032304402	5.181674	2.276329
11.208692826857805	5.1411867	2.2674186
11.226303886995465	5.102251	2.2588162
11.243915213145371	5.08818	2.2556994
11.261526805735578	5.021816	2.2409408
11.279138665194196	4.961292	2.2273958
11.296750791949393	4.9104977	2.2159643
11.314363186429393	4.8308372	2.1979165
11.331975849062479	4.776269	2.1854677
11.34958878027699	4.6817217	2.1637287
11.36720198050133	4.6763415	2.1624851
11.384815450163948	4.590177	2.14247
11.402429189693366	4.5530286	2.1337826
11.420043199518153	4.510478	2.1237886
11.437657480066942	63.478428	7.967335
11.455272031768422	85.20833	9.230836
11.472886855051353	107.58171	10.37216
11.490501950344528	99.190544	9.959445
11.508117318076819	84.53156	9.194105
11.52573295867715	45.908947	6.7756143
11.543348872574514	4.2216053	2.0546546
11.560965060197946	4.15884	2.0393236
11.57858152197655	4.1329336	2.0329618
11.59619825833949	4.099053	2.0246117
11.613815269715985	4.0500903	2.0124836
11.631432556535323	38.491776	6.204174
11.649050119226837	82.99741	9.1102915
11.666667958219929	93.39831	9.66428
11.68428607394406	107.744484	10.380004
11.701904466828756	82.61286	9.089162
11.719523137303586	65.45499	8.0904255
11.737142085798196	4.6528277	2.1570415
11.754761312742286	3.7313073	1.9316592
11.772380818565619	3.7202942	1.9288064
11.790000603698015	3.718864	1.9284357
11.80762066856935	3.675734	1.9172204
11.825241013609572	3.60389	1.8983914
11.842861639248683	3.579168	1.891869
11.860482545916748	3.559127	1.8865649
11.878103734043883	3.5467436	1.88328
11.895725204060282	3.4888034	1.8678339
11.91334695639619	3.497966	1.870285
11.930968991481919	3.4453766	1.8561726
11.948591309747824	3.3689973	1.8354828
11.966213911624347	3.3035052	1.8175547
11.98383679754198	3.2450702	1.8014078
12.001459967931268	3.2513666	1.8031546
12.019083423222835	3.3210635	1.8223785
12.036707163847352	3.3263443	1.8238268
12.05433119023556	3.3222027	1.8226911
12.071955502818259	3.2665534	1.8073609
12.089580102026313	3.233895	1.7983034
12.107204988290643	3.191032	1.786346
12.12483016204224	3.1547816	1.7761705
12.142455623712152	3.1375606	1.771316
12.16008137373149	3.105237	1.7621683
12.177707412531431	3.0927286	1.7586155
12.19533374054321	3.06856	1.7517306
12.212960358198126	3.0321305	1.7413014
12.230587265927545	3.0282538	1.7401879
12.248214464162889	3.0337844	1.7417762
12.265841953335649	3.0389676	1.7432635
12.283469733877375	2.999474	1.731899
12.301097806219685	2.9639053	1.7215997
12.31872617079425	2.9570413	1.719605
12.336354828032825	2.9635	1.7214819
12.353983778367205	2.9559202	1.7192789
12.371613022229262	2.9445734	1.7159759
12.389242560050928	2.9224072	1.709505
12.406872392264201	2.8960044	1.7017651
12.424502519301143	2.8582187	1.6906267
12.442132941593874	2.8933966	1.7009987
12.459763659574586	2.9158978	1.7076
12.477394673675532	2.8940594	1.7011936
12.49502598432903	2.852669	1.6889846
12.51265759196746	2.8312263	1.6826248
12.530289497023267	2.82262	1.6800654
12.547921699928967	2.807856	1.6756659
12.565554201117134	2.8030095	1.6742191
12.583187001020404	2.8016229	1.6738049
12.600820100071486	2.7932487	1.6713015
12.618453498703152	2.7803867	1.6674491
12.636087197348235	2.7733185	1.6653284
12.65372119643964	2.7792318	1.6671028
12.671355496410326	2.7845118	1.6686857
12.68899009769333	2.8139505	1.6774834
12.706625000721749	2.8589199	1.690834
12.724260205928752	2.8845017	1.6983821
12.741895713747551	2.872942	1.6949755
12.759531524611454	2.901408	1.703352
12.777167638953818	2.9159126	1.7076044
12.794804057208072	2.9757137	1.7250258
12.812440779807702	3.0025864	1.7327973
12.830077807186271	3.1853828	1.784764
12.847715139777405	3.2384622	1.7995728
12.865352778014795	3.4837172	1.8664719
12.882990722332197	3.5571637	1.8860445
12.90062897316344	3.665787	1.9146245
12.918267530942412	3.7552965	1.9378587
12.935906396103071	3.6685576	1.9153479
12.953545569079449	3.795939	1.9483169
12.971185050305628	3.599794	1.8973123
12.988824840215775	3.5823586	1.892712
13.006464939244115	3.5665476	1.8885305
13.024105347824943	3.39406	1.8422974
13.041746066392617	3.4896073	1.868049
13.05938709538157	3.3193102	1.8218974
13.077028435226296	3.378701	1.8381243
13.094670086361363	3.3055727	1.8181235
13.112312049221401	3.2447512	1.8013192
13.129954324241112	3.1364067	1.7709903
13.147596911855258	2.898262	1.7024282
13.165239812498685	2.8279943	1.6816641
13.182883026606293	2.7420506	1.6559138
13.200526554613058	2.714116	1.6474575
13.218170396954017	2.710217	1.6462736
13.235814554064284	2.7451954	1.6568631
13.253459026379034	2.7547421	1.6597416
13.271103814333523	2.7189372	1.6489199
13.288748918363058	2.6794848	1.6369132
13.306394338903031	2.659642	1.6308409
13.32404007638889	2.6641834	1.6322327
13.341686131256164	2.725235	1.6508286
13.359332503940449	2.707021	1.6453027
13.376979194877402	2.7452743	1.6568869
13.394626204502751	2.7644386	1.6626601
13.412273533252307	2.7551801	1.6598735
13.429921181561937	2.739288	1.6550795
13.447569149867581	2.720729	1.6494633
13.465217438605247	2.713983	1.6474171
13.482866048211022	2.6678464	1.6333543
13.500514979121052	2.668747	1.63363
13.518164231771568	2.6387188	1.6244134
13.535813806598844	2.6674998	1.6332482
13.553463704039254	2.6657417	1.6327099
13.571113924529229	2.6807663	1.6373045
13.588764468505275	2.7290561	1.6519855
13.606415336403956	2.7798874	1.6672994
13.624066528661917	2.8292687	1.682043
13.641718045715882	2.8522751	1.688868
13.659369888002635	2.8621192	1.6917799
13.67702205595903	2.8788056	1.6967044
13.694674550021993	2.9693727	1.7231869
13.712327370628532	3.0312877	1.7410593
13.729980518215713	3.1159694	1.7652109
13.747633993220681	3.2007413	1.7890615
13.765287796080647	3.2813153	1.8114401
13.7829419272329	3.365372	1.8344951
13.800596387114801	3.3608174	1.8332533
13.818251176163775	3.3613353	1.8333945
13.835906294817324	3.3854482	1.8399588
13.853561743513023	3.400437	1.8440274
13.871217522688525	3.4260385	1.8509561
13.888873632781538	3.4346397	1.853278
13.906530074229858	3.500197	1.8708813
13.92418684747135	3.5511143	1.8844401
13.941843952943948	3.549839	1.8841016
13.959501391085665	3.5281923	1.8783482
13.977159162334578	3.4624104	1.8607553
13.994817267128846	3.391776	1.8416775
14.012475705906693	3.325188	1.8235098
14.030134479106424	3.258829	1.8052227
14.047793587166414	3.1897562	1.7859888
14.065453030525108	3.1212819	1.766715
14.083112809621026	3.0462012	1.745337
14.100772924892766	2.952527	1.7182919
14.118433376778997	2.865851	1.6928824
14.136094165718458	2.7841327	1.6685721
14.153755292149969	2.7562702	1.6602018
14.171416756512416	2.7240582	1.650472
14.189078559244768	2.6580448	1.6303512
14.20674070078606	2.6110344	1.6158695
14.224403181575408	2.5838172	1.6074257
14.242066002051999	2.5228972	1.588363
14.259729162655093	2.5033057	1.5821838
14.277392663824022	2.461202	1.5688218
14.295056505998208	2.4712503	1.5720211
14.312720689617128	2.4453988	1.5637771
14.330385215120348	2.4086108	1.55197
14.348050082947497	2.320304	1.5232544
14.3657152935383	2.318855	1.5227787
14.383380847332528	2.354944	1.5345827
14.401046744770051	2.429694	1.5587475
14.418712986290798	2.463969	1.5697035
14.436379572334793	2.428076	1.5582285
14.454046503342123	2.41452	1.5538726
14.471713779752946	2.4263172	1.557664
14.489381402007504	2.436936	1.5610689
14.507049370546113	2.4178152	1.5549326
14.524717685809168	2.429128	1.558566
14.542386348237134	2.4368088	1.5610281
14.560055358270553	2.460645	1.5686443
14.577724716350051	2.460995	1.5687559
14.595394422916325	2.464812	1.569972
14.61306447841015	2.4618163	1.5690176
14.63073488327237	2.44938	1.5650495
14.648405637943917	2.4818158	1.575378
14.6660767428658	2.5394945	1.5935792
14.683748198479094	2.5680463	1.6025125
14.701420005224954	2.5420616	1.5943844
14.719092163544628	2.6090324	1.61525
14.73676467387942	2.6520967	1.628526
14.754437536670727	2.699298	1.642954
14.772110752360014	2.6667113	1.6330068
14.78978432138882	2.6944532	1.641479
14.807458244198777	2.7200677	1.6492628
14.82513252123159	2.7241516	1.6505004
14.842807152929028	2.6785064	1.6366143
14.860482139732962	2.6282365	1.6211836
14.87815748208531	2.60562	1.6141933
14.8958331804281	2.6406014	1.6249927
14.91350923520342	2.6412637	1.6251966
14.931185646853438	2.6823125	1.6377767
14.948862415820408	2.6894298	1.6399481
14.966539542546656	2.7253861	1.6508744
14.98421702747459	2.6860487	1.638917
15.001894871046696	2.6569653	1.63002
15.019573073705542	2.632153	1.6223911
15.037251635893766	2.616322	1.6175048
15.054930558054092	2.6517491	1.6284192
15.072609840629323	2.7581348	1.6607634
15.090289484062351	2.881132	1.6973897
15.107969488796124	3.1813438	1.7836322
15.125649855273691	3.5566175	1.8858997
15.14333058393817	4.0107837	2.0026941
15.161011675232768	4.955593	2.2261162
15.17869312960076	6.3478355	2.5194912
15.196374947485506	8.23582	2.8698118
15.214057129330447	11.451667	3.384031
15.231739675579114	16.217012	4.027035
15.249422586675102	21.338137	4.6193223
15.267105863062092	24.410742	4.940723
15.284789505183847	24.592524	4.959085
15.302473513484218	22.409086	4.733824
15.320157888407127	18.88068	4.3451905
15.337842630396578	14.648219	3.827299
15.355527739896656	11.352738	3.3693824
15.37321321735153	8.716283	2.9523351
15.39089906320545	6.386733	2.5271986
15.408585277902748	4.817274	2.194829
15.42627186188783	3.7139442	1.9271597
15.443958815605198	3.1835873	1.784261
15.461646139499424	2.889366	1.6998135
15.479333834015168	2.767491	1.6635778
15.497021899597165	2.756043	1.6601334
15.514710336690234	2.7630382	1.662239
15.53239914573928	2.6967573	1.6421807
15.550088327189297	2.5925872	1.6101513
15.567777881485336	2.5314116	1.5910411
15.58546780907256	2.5536761	1.5980226
15.6031581103962	2.574497	1.6045239
15.620848785901568	2.563203	1.6010007
15.638539836034063	2.4951112	1.5795921
15.656231261239173	2.4678342	1.5709342
15.673923061962451	2.4331064	1.5598418
15.691615238649552	2.4689572	1.5712916
15.709307791746202	2.4749973	1.5732124
15.727000721698221	2.481051	1.5751352
15.744694028951498	2.4338686	1.5600861
15.76238771395202	2.4140239	1.553713
15.780081777145844	2.4036856	1.5503824
15.797776218979125	2.418004	1.5549933
15.815471039898094	2.4338589	1.5600829
15.833166240349064	2.397217	1.5482949
15.850861820778437	2.4128563	1.5533372
15.868557781632699	2.3748624	1.5410589
15.886254123358412	2.3608038	1.5364908
15.903950846402232	2.3745632	1.5409617
15.921647951210897	2.3883865	1.5454406
15.939345438231225	2.3844185	1.5441562
15.957043307910133	2.3690772	1.5391806
15.974741560694602	2.3637621	1.5374532
15.992440197031714	2.36326	1.5372899
16.01013921736862	2.3750727	1.5411271
16.02783862215259	2.3980896	1.5485766
16.045538411830933	2.4467096	1.5641961
16.06323858685107	2.4453506	1.5637617
16.080939147660512	2.3862224	1.5447402
16.09864009470684	2.3756459	1.541313
16.11634142843774	2.3891354	1.5456828
16.134043149300954	2.4131103	1.5534189
16.15174525774433	2.3747463	1.5410212
16.169447754215817	2.3702161	1.5395507
16.18715063916342	2.3993464	1.5489824
16.204853913035244	2.4509902	1.5655639
16.222557576279478	2.4712155	1.57201
16.240261629344403	22.448282	4.737962
16.257966072678386	42.98095	6.555986
16.275670906729868	38.069878	6.170079
16.293376131947387	2.4800043	1.574803
16.31108174877957	2.5089304	1.5839604
16.328787757675133	2.556429	1.5988836
16.34649415908287	2.6062093	1.6143758
16.364200953451657	2.5992448	1.6122173
16.38190814123048	2.6360195	1.6235822
16.39961572286839	2.6350212	1.6232748
16.41732369881455	2.6972404	1.6423277
16.43503206951817	2.7210124	1.6495491
16.45274083542859	2.7651024	1.6628597
16.47044999699522	2.8108006	1.6765442
16.488159554667558	2.835949	1.6840276
16.505869508895184	2.8933122	1.7009739
16.523579860127786	2.9567668	1.7195252
16.541290608815117	2.9695256	1.7232312
16.559001755407035	3.022953	1.7386642
16.57671330035348	3.076834	1.7540907
16.59442524410448	3.1430013	1.7728512
16.61213758711015	3.1892495	1.785847
16.629850329820705	3.243946	1.8010958
16.647563472686436	3.296256	1.8155594
16.665277016157724	3.3473756	1.8295834
16.682990960685053	3.408718	1.8462714
16.70070530671898	3.4955862	1.8696487
16.718420054710155	3.5409858	1.8817507
16.736135205109335	3.6023352	1.8979819
16.753850758367335	3.6211345	1.9029279
16.771566714935087	3.6478817	1.9099429
16.789283075263597	3.7078807	1.9255859
16.80699983980398	3.7808545	1.9444419
16.82471700900741	3.8533127	1.9629856
16.84243458332518	3.8872569	1.9716128
16.860152563208665	3.9358728	1.9839034
16.87787094910932	3.9808047	1.9951954
16.89558974147871	4.062531	2.015572
16.913308940768466	4.173797	2.0429873
16.931028547430333	4.301581	2.0740254
16.94874856191613	4.3697104	2.0903852
16.966468984677785	4.3911266	2.0955014
16.98418981616729	4.4470987	2.1088145
17.00191105683676	4.5008016	2.1215093
17.019632707138374	4.569525	2.1376448
17.03735476752442	4.5340815	2.1293383
17.05507723844728	4.514863	2.1248207
17.072800120359403	4.5200467	2.1260402
17.090523413713353	4.5594077	2.135277
17.108247118961785	4.6323557	2.1522908
17.125971236557437	4.66294	2.1593843
17.143695766953133	4.6481934	2.155967
17.161420710601806	4.6942015	2.1666105
17.179146067956477	4.710535	2.1703768
17.19687183947025	4.682006	2.1637943
17.21459802559634	4.6189704	2.149179
17.232324626788028	4.6061573	2.146196
17.25005164349871	4.6370935	2.1533911
17.267779076181863	4.6677313	2.1604934
17.285506925291074	4.6449137	2.1552062
17.30323519127999	4.6718197	2.1614392
17.320963874602384	4.651154	2.1566534
17.33869297571211	4.637593	2.153507
17.356422495063114	4.5802264	2.1401463
17.37415243310944	4.5395045	2.1306114
17.391882790305218	4.5237064	2.1269007
17.40961356710468	4.5114717	2.1240225
17.42734476396215	4.5262184	2.127491
17.445076381332044	4.5086846	2.1233664
17.462808419668868	4.592131	2.1429257
17.48054087942723	4.7374663	2.176572
17.498273761061835	5.0477753	2.2467256
17.51600706502747	5.587354	2.3637586
17.533740791779024	6.439851	2.537686
17.551474941771485	8.008013	2.8298433
17.56920951545993	9.082016	3.0136383
17.586944513299528	11.171023	3.342308
17.60467993574556	12.770473	3.5735798
17.622415783253373	14.425916	3.7981462
17.64015205627843	15.78785	3.9733927
17.657888755276293	16.811016	4.100124
17.675625880702604	17.407246	4.1721992
17.69336343301311	17.267378	4.1554036
17.71110141266366	16.559301	4.069312
17.728839820110178	15.674893	3.9591532
17.746578655808705	14.744006	3.8397925
17.764317920215372	13.2217045	3.636166
17.7820576137864	11.554494	3.3991902
17.79979773697811	9.427449	3.0704153
17.81753829024692	7.4823422	2.735387
17.835279274049356	5.9087977	2.4308019
17.85302068884201	4.910106	2.2158759
17.870762535081607	4.273723	2.0672984
17.888504813224934	3.9129999	1.9781303
17.90624752372891	3.7525194	1.937142
17.923990667050536	3.6603541	1.9132051
17.941734243646895	3.549773	1.8840841
17.959478253975185	3.4836085	1.8664427
17.9772226984927	3.525095	1.8775237
17.994967577656833	3.5051146	1.8721951
18.01271289192506	3.4874523	1.8674722
18.030458641754965	3.4227977	1.8500805
18.04820482760425	3.3920267	1.8417455
18.06595144993067	3.3723035	1.8363832
18.083698509192125	3.3351321	1.8262345
18.101446005846576	3.2961266	1.8155237
18.119193940352105	3.3005276	1.8167354
18.136942313166887	3.2646189	1.8068256
18.1546911247492	3.2441797	1.8011607
18.1724403755574	3.214186	1.7928151
18.19019006604997	3.1876585	1.7854015
18.207940196685467	3.1615562	1.7780765
18.225690767922575	3.1321654	1.7697924
18.243441780220046	3.1099312	1.7634997
18.261193234036764	3.1181133	1.765818
18.278945129831676	3.1296084	1.7690699
18.29669746806386	3.1027596	1.7614652
18.314450249192483	3.086889	1.7569544
18.3322034736768	3.0593448	1.7490983
18.349957141976184	3.0767567	1.7540686
18.3677112545501	3.0726373	1.7528939
18.385465811858108	3.0820858	1.755587
18.403220814359884	3.068972	1.7518482
18.420976262515172	3.1002612	1.7607559
18.43873215678387	3.1105676	1.7636801
18.456488497625923	3.1452193	1.7734766
18.474245285501407	3.2589316	1.8052511
18.492002520870486	3.326646	1.8239095
18.50976020419343	3.39647	1.8429514
18.527518335930615	3.6840937	1.9193993
18.545276916542516	4.2856927	2.0701914
18.563035946489688	4.457951	2.111386
18.580795426232832	4.937303	2.2220042
18.598555356232698	4.812163	2.1936643
18.616315736950185	5.2214503	2.2850492
18.63407656884626	4.88814	2.210914
18.65183785238201	5.0974636	2.2577562
18.669599588018617	4.775523	2.185297
18.68736177621737	4.7536035	2.180276
18.705124417439652	4.726113	2.1739626
18.72288751214696	4.5213203	2.1263397
18.740651060800886	4.7246857	2.1736343
18.758415063863115	4.384125	2.0938303
18.77617952179546	4.5635786	2.1362534
18.793944435059814	4.265168	2.0652285
18.811709804118184	4.3322563	2.0814073
18.829475629432675	4.303501	2.0744882
18.8472419114655	4.0713763	2.0177653
18.86500865067897	4.130683	2.0324082
18.88277584753551	3.8142343	1.9530065
18.90054350249763	3.8372073	1.9588791
18.918311616027957	3.5013037	1.8711771
18.936080188589226	3.3653543	1.8344902
18.953849220644265	3.0090768	1.7346691
18.971618712656007	2.8680313	1.6935263
18.9893886650875	2.8449812	1.6867073
19.007159078401887	8.05049	2.8373387
19.024929953062408	32.890194	5.7349973
19.042701289532435	32.857075	5.732109
19.060473088275405	25.41317	5.0411477
19.07824534975489	2.7024715	1.6439196
19.096018074434568	2.7124312	1.6469461
19.113791262778197	2.6867988	1.6391457
19.13156491524966	2.663822	1.6321219
19.149339032312945	2.6059299	1.6142893
19.167113614432136	2.6051888	1.6140597
19.184888662071433	2.6025057	1.6132283
19.202664175695123	2.5878243	1.6086717
19.220440155767623	2.5970361	1.6115322
19.238216602753447	2.6125376	1.6163347
19.2559935171172	2.60627	1.6143947
19.27377089932361	2.560091	1.6000284
19.291548749837514	2.5206456	1.5876541
19.309327069123835	2.4749446	1.5731957
19.32710585764763	2.4948518	1.57951
19.344885115874032	2.4915838	1.5784751
19.362664844268313	2.5426815	1.5945787
19.380445043295822	2.5360584	1.5925007
19.39822571342203	2.5447927	1.5952406
19.41600685511252	2.514763	1.5858004
19.43378846883297	2.5029852	1.5820825
19.451570555049173	2.484068	1.5760926
19.469353114227037	2.497113	1.5802256
19.48713614683254	2.5289404	1.5902643
19.50491965333182	2.5585449	1.5995452
19.52270363419109	2.523349	1.5885053
19.540488089876686	2.4726863	1.5724777
19.55827302085503	2.4486086	1.5648031
19.576058427592674	2.4835763	1.5759367
19.593844310556282	2.4834979	1.5759118
19.611630670212598	2.4894981	1.5778143
19.629417507028506	2.5106447	1.5845014
19.64720482147098	2.535568	1.5923467
19.6649926140071	2.5404186	1.5938691
19.682780885104084	2.5104642	1.5844444
19.70056963522921	2.5233855	1.5885167
19.718358864849908	2.553664	1.5980188
19.7361485744337	2.5046234	1.5826002
19.753938764448215	2.4854727	1.5765382
19.771729435361202	2.4764054	1.5736599
19.789520587640506	2.5066226	1.5832317
19.807312221754092	2.5460126	1.595623
19.825104338170043	2.5484948	1.5964006
19.842896937356517	2.5559218	1.5987251
19.860690019781824	2.5304742	1.5907464
19.87848358591436	2.5441413	1.5950365
19.896277636222635	2.5350065	1.5921704
19.914072171175278	2.5427406	1.5945973
19.931867191241015	2.5643556	1.6013606
19.94966269688869	2.5512996	1.5972788
19.967458688587264	2.5157213	1.5861026
19.985255166805807	2.4824743	1.575587
20.00305213201348	2.463147	1.5694416
20.020849584679578	2.4629142	1.5693674
20.038647525273507	2.4636836	1.5696126
20.05644595426477	2.4527867	1.5661376
20.07424487212299	2.4665542	1.5705267
20.092044279317903	2.4558337	1.56711
20.109844176319353	2.4640737	1.5697368
20.127644563597304	2.4686828	1.5712042
20.145445441621817	2.4607959	1.5686924
20.16324681086307	2.3959613	1.5478894
20.181048671791373	2.363088	1.5372338
20.198851024877122	2.3700264	1.539489
20.216653870590836	2.4254694	1.5573919
20.234457209403146	2.4206502	1.555844
20.252261041784802	2.3753474	1.5412163
20.270065368206662	2.3494396	1.5327882
20.287870189139685	2.3541071	1.53431
20.305675505054968	2.3994064	1.5490018
20.323481316423702	2.4181714	1.555047
20.341287623717207	2.4092991	1.5521917
20.359094427406884	2.3841155	1.5440581
20.376901727964288	2.373228	1.5405285
20.39470952586107	2.3885992	1.5455093
20.41251782156899	2.3817477	1.5432912
20.430326615559935	2.3371017	1.5287582
20.448135908305886	2.3175466	1.522349
20.465945700278965	2.304991	1.5182197
20.483755991951384	2.323449	1.5242864
20.50156678379548	2.3512053	1.533364
20.519378076283708	2.378245	1.542156
20.537189869888635	2.4172995	1.5547667
20.55500216508294	2.4057093	1.5510349
20.572814962339415	2.3547444	1.5345176
20.59062826213098	2.296797	1.5155188
20.60844206493066	2.299982	1.5165691
20.626256371211593	2.3165169	1.5220108
20.644071181447032	2.3336504	1.527629
20.66188649611036	2.3400419	1.5297196
20.67970231567506	2.3039873	1.517889
20.697518640614742	2.2994697	1.5164002
20.715335471403122	2.2817054	1.5105315
20.73315280851404	2.3041613	1.5179464
20.750970652421447	2.3068016	1.5188159
20.768789003599412	2.3040125	1.5178974
20.786607862522136	2.2778485	1.5092543
20.8044272296639	2.2630394	1.5043402
20.82224710549913	2.232152	1.4940388
20.84006749050237	2.2356188	1.4951986
20.857888385148268	3.836831	1.958783
20.8757097899116	45.952366	6.7788177
20.893531705267254	64.77747	8.048446
20.911354131690224	83.80862	9.154705
20.92917706965566	69.0889	8.311974
20.94700051963877	50.15404	7.0819516
20.96482448211493	29.410648	5.4231586
20.982648957559622	4.17183	2.0425057
21.00047394644843	2.305335	1.518333
21.01829944925707	2.277786	1.5092336
21.036125466461375	2.2313182	1.4937598
21.053951998537297	2.2662318	1.5054009
21.071779045960906	2.2873104	1.5123856
21.089606609208378	2.2505624	1.5001875
21.10743468875603	2.224634	1.4915206
21.12526328508028	2.2267878	1.4922426
21.143092398657675	2.2241013	1.4913421
21.16092202996488	2.2337525	1.4945743
21.17875217947867	2.232226	1.4940635
21.19658284767596	2.218114	1.4893334
21.21441403503377	2.2321565	1.4940404
21.232245742029225	2.2334697	1.4944798
21.2500779691396	2.2055414	1.4851065
21.26791071684227	2.182849	1.4774468
21.28574398561475	2.199828	1.4831817
21.30357777593465	2.1910436	1.4802175
21.321412088279704	2.174544	1.4746336
21.339246923127792	2.1575446	1.4688582
21.357082280956888	2.1908085	1.4801381
21.3749181622451	2.1997414	1.4831525
21.392754567470647	2.1791494	1.4761943
21.41059149711187	2.153796	1.4675816
21.42842895164726	2.1375663	1.4620419
21.446266931555378	2.1148038	1.4542365
21.464105437314945	2.0876904	1.4448842
21.481944469404798	2.0875082	1.4448211
21.49978402830388	2.0829203	1.4432325
21.51762411449127	2.0540135	1.433183
21.53546472844617	2.0631657	1.4363724
21.553305870647876	2.0685189	1.4382347
21.571147541575865	2.0894086	1.4454787
21.58898974170967	2.1016502	1.4497069
21.60683247152899	2.1139534	1.4539441
21.62467573151363	2.093077	1.4467471
21.642519522143523	2.0435548	1.4295295
21.660363843898722	2.0149302	1.4194824
21.6782086972594	2.0491266	1.4314771
21.696054082705864	2.114141	1.4540086
21.713900000718535	2.1253123	1.4578451
21.73174645177795	2.1049302	1.4508377
21.749593436364794	2.077526	1.4413626
21.767440954959845	2.0915956	1.446235
21.785289008044032	2.0873375	1.4447621
21.803137596098388	2.0389397	1.4279145
21.820986719604086	1.9893154	1.4104309
21.838836379042412	1.9986273	1.4137281
21.85668657489478	2.0025108	1.4151009
21.87453730764273	2.0105367	1.417934
21.892388577767914	2.029951	1.4247636
21.91024038575213	2.0358825	1.4268435
21.928092732077285	2.0203133	1.4213772
21.945945617225426	2.0092583	1.4174831
21.963799041678694	2.0324612	1.4256442
21.981653005919398	31.344421	5.598609
21.999507510429943	78.12728	8.8389635
22.01736255569286	73.06459	8.547783
22.035218142190818	4.16614	2.0411124
22.05307427040661	1.9855795	1.4091059
22.07093094082315	1.9946843	1.4123329
22.088788153923474	2.0169554	1.4201956
22.106645910190746	2.0052648	1.4160737
22.12450421010827	1.9879221	1.4099369
22.142363054159464	1.9706541	1.4037999
22.16022244282787	1.9519416	1.397119
22.178082376597164	1.930035	1.389257
22.195942855951145	1.9041346	1.3799038
22.213803881373742	1.9392986	1.3925871
22.231665453349002	1.9672073	1.4025717
22.24952757236111	1.9848185	1.4088359
22.26739023889438	2.000449	1.4143723
22.28525345343323	1.985696	1.4091473
22.30311721646225	1.9735444	1.4048289
22.320981528466113	1.9809157	1.4074501
22.33884638992964	1.9554337	1.3983682
22.356711801337788	1.9562162	1.398648
22.37457776317561	1.9611279	1.4004028
22.392444275928337	1.9648956	1.4017473
22.410311340081282	1.9711264	1.4039681
22.428178956119904	1.9712948	1.404028
22.446047124529805	1.9191945	1.38535
22.46391584579669	1.9024817	1.3793048
22.481785120406414	1.9319205	1.3899355
22.49965494884496	1.9641328	1.4014752
22.51752533159841	1.9745728	1.4051949
22.53539626915302	1.9878526	1.4099122
22.553267761995137	1.9576921	1.3991755
22.571139810611264	1.956591	1.398782
22.589012415488025	1.9479249	1.3956808
22.60688557711216	1.9492679	1.3961618
22.624759295970566	1.9211754	1.3860646
22.642633572550263	1.9135772	1.383321
22.660508407338362	1.8828455	1.3721682
22.67838380082217	1.8931056	1.3759017
22.696259753489077	1.8900079	1.3747755
22.714136265826614	1.9329851	1.3903183
22.73201333832246	1.9138986	1.3834373
22.74989097146439	1.9275426	1.3883597
22.76776916574035	1.9033347	1.379614
22.785647921638393	1.9125063	1.382934
22.803527239646712	1.9144866	1.3836497
22.82140712025363	1.9185002	1.3850993
22.839287563947593	1.9441164	1.3943157
22.85716857121719	1.9618661	1.4006664
22.875050142551135	1.9555196	1.3983989
22.892932278438277	1.969175	1.403273
22.910814979367604	1.932613	1.3901845
22.928698245828222	1.886446	1.3734795
22.946582078309387	1.8793104	1.3708794
22.96446647730047	1.8968616	1.3772659
22.98235144329098	1.8900545	1.3747926
23.000236976770562	1.8726519	1.3684487
23.018123078229	1.8543682	1.3617519
23.03600974815619	1.8474935	1.3592254
23.053896987042194	1.8987838	1.3779637
23.071784795377173	1.9150561	1.3838556
23.08967317365145	1.9290669	1.3889085
23.10756212235546	1.9121413	1.382802
23.125451641979787	1.898714	1.3779383
23.143341733015134	1.89626	1.3770475
23.161232395952357	1.9217278	1.386264
23.179123631282426	1.9760845	1.4057328
23.197015439496468	2.0151408	1.4195565
23.214907821085717	2.0089998	1.4173919
23.23280077654157	1.9492246	1.3961463
23.250694306355538	1.9606848	1.4002446
23.268588411019277	1.9507594	1.3966959
23.28648309102458	1.9536768	1.3977399
23.304378346863356	1.9298499	1.3891903
23.322274179027676	1.9369235	1.391734
23.340170588009723	1.9192573	1.3853726
23.358067574301852	1.9045179	1.3800427
23.37596513839651	1.961768	1.4006313
23.39386328078629	2.0040464	1.4156435
23.411762001963947	1.9856344	1.4091254
23.429661302422353	1.941257	1.39329
23.4475611826545	1.9147239	1.3837355
23.46546164315356	1.9402838	1.3929406
23.48336268441279	1.9585183	1.3994707
23.501264306925638	1.9188223	1.3852156
23.51916651118564	1.8983531	1.3778074
23.537069297686497	1.9049377	1.3801948
23.554972666922037	1.935938	1.3913798
23.57287661938623	1.9193872	1.3854195
23.59078115557318	1.9233435	1.3868467
23.608686275977128	1.9185586	1.3851204
23.62659198109246	1.9020528	1.3791493
23.6444982714137	1.9177831	1.3848405
23.66240514743549	1.9417909	1.3934816
23.68031260965263	1.9086509	1.3815393
23.698220658560068	1.8797529	1.3710408
23.716129294652845	1.8774439	1.3701985
23.7340385184262	1.8532313	1.3613344
23.75194833037546	1.8423561	1.3573341
23.769858730996123	1.8567301	1.3626188
23.78776972078382	1.8770235	1.3700451
23.80568130023431	1.9221569	1.3864187
23.823593469843495	1.9307271	1.3895061
23.841506230107424	1.932583	1.3901737
23.859419581522275	1.8976544	1.3775538
23.87733352458438	1.8882542	1.3741376
23.89524805979019	1.8539102	1.3615837
23.913163187636318	1.8676395	1.3666161
23.931078908619508	1.8955868	1.3768032
23.948995223236633	1.9490322	1.3960774
23.966912131984735	1.9631567	1.401127
23.98482963536096	2.0215273	1.4218042
24.002747733862616	2.0675952	1.4379135
24.020666427987155	2.0833771	1.4433908
24.038585718232156	2.0441303	1.4297309
24.056505605095353	1.9950985	1.4124795
24.074426089074617	2.0205917	1.4214752
24.092347170667946	2.0812817	1.4426647
24.110268850373515	2.0806592	1.442449
24.128191128689586	2.0635147	1.4364939
24.146114006114626	2.0471072	1.4307716
24.164037483147187	2.107492	1.4517204
24.181961560286005	2.0540226	1.4331862
24.199886238029926	2.0386953	1.4278289
24.21781151687797	2.0521085	1.4325182
24.235737397329274	2.0539608	1.4331646
24.253663879883135	2.03597	1.4268742
24.271590965038975	2.0575166	1.4344046
24.289518653296376	2.1091244	1.4522824
24.30744694515505	2.1371362	1.4618948
24.32537584111486	2.109561	1.4524328
24.34330534167581	2.0386343	1.4278076
24.361235447338046	2.019084	1.4209447
24.379166158601876	2.021065	1.4216417
24.39709747596772	2.0622382	1.4360495
24.41502939993615	2.069209	1.4384745
24.432961931007917	2.0408778	1.4285929
24.450895069683856	1.9995204	1.414044
24.468828816465	1.9920589	1.4114032
24.4867631718525	1.9679278	1.4028285
24.504698136347656	1.9780868	1.4064448
24.52263371045192	1.9896811	1.4105606
24.540569894666874	2.0732975	1.4398949
24.558506689494266	2.0963826	1.447889
24.57644409543597	2.077541	1.4413677
24.594382112994012	1.9670281	1.4025078
24.61232074267057	1.9584738	1.3994548
24.630259984967953	1.9996886	1.4141035
24.64819984038863	2.038236	1.427668
24.66614030943522	2.0459633	1.4303718
24.684081392610462	2.0367649	1.4271528
24.702023090417274	2.0259511	1.4233592
24.7199654033587	2.0184243	1.4207126
24.737908331937927	2.0273247	1.4238415
24.755851876658305	2.0611014	1.4356537
24.773796038023324	2.093008	1.4467232
24.79174081653661	2.095039	1.4474249
24.809686212701962	2.0833893	1.443395
24.827632227023294	2.111995	1.4532704
24.8455788600047	2.1421354	1.4636036
24.8635261121504	2.1336029	1.4606857
24.88147398396475	2.0947738	1.4473333
24.899422475952303	2.1115751	1.453126
24.917371588617698	2.1048305	1.4508034
24.935321322465768	2.1487892	1.4658749
24.953271678001478	2.265171	1.5050485
24.97122265572994	2.4697566	1.571546
24.989174256156414	2.7743938	1.6656512
25.00712647978632	3.2000425	1.7888663
25.02507932712521	3.7835493	1.9451348
25.043032798678798	4.389614	2.0951407
25.060986894952933	5.0854254	2.2550888
25.078941616453637	5.7654467	2.4011345
25.096896963687055	6.6865396	2.5858345
25.114852937159508	7.8975544	2.8102589
25.132809537377444	8.349279	2.889512
25.150766764847468	8.369055	2.892932
25.168724620076347	7.6975336	2.774443
25.186683103570985	6.6719503	2.5830119
25.204642215838426	5.4583383	2.3363087
25.222601957385894	4.1134076	2.0281537
25.24056232872074	3.1551058	1.7762618
25.25852333035048	2.657522	1.6301907
25.276484962782778	2.3188822	1.5227877
25.294447226525435	2.1145337	1.4541436
25.312410122086423	2.0127661	1.4187199
25.330373649973843	2.0004833	1.4143844
25.348337810695988	1.9873258	1.4097254
25.366302604761245	1.9501588	1.3964809
25.384268032678207	1.9372101	1.391837
25.40223409495558	1.9313793	1.3897407
25.420200792102257	1.9066014	1.3807974
25.438168124627246	1.8803512	1.371259
25.45613609303974	1.9071503	1.3809961
25.474104697849057	1.9533702	1.3976302
25.492073939564698	1.9484577	1.3958716
25.510043818696285	1.8999809	1.378398
25.528014335753614	1.8681477	1.366802
25.54598549124664	1.8794425	1.3709276
25.56395728568544	1.8394568	1.3562658
25.58192971958028	1.8245903	1.3507739
25.59990279344156	1.8271929	1.351737
25.617876507779833	1.8375633	1.3555675
25.635850863105826	1.8323001	1.3536248
25.653825859930386	1.8282039	1.3521109
25.671801498764548	1.8240529	1.3505751
25.68977778011949	1.8293163	1.3525221
25.707754704506524	1.8488796	1.3597351
25.725732272437153	1.858839	1.3633925
25.743710484423012	1.876985	1.370031
25.761689340975888	1.8639477	1.3652648
25.77966884260774	1.8621649	1.3646116
25.797648989830662	1.8485806	1.3596252
25.815629783156922	1.8184253	1.34849
25.83361122309895	1.8878659	1.3739964
25.85159331016929	1.8986424	1.3779123
25.869576044880695	1.8765396	1.3698684
25.887559427746034	1.7959957	1.3401476
25.90554345927836	1.7478293	1.322055
25.92352813999086	1.799898	1.3416028
25.94151347039689	1.8457165	1.3585715
25.959499451009965	1.8616345	1.3644173
25.97748608234374	1.8651899	1.3657196
25.995473364912062	1.8763536	1.3698006
26.013461299228904	1.8509943	1.3605125
26.03144988580839	1.7768724	1.3329937
26.04943912516483	1.7555909	1.3249872
26.067429017812675	1.7546449	1.3246301
26.085419564266537	1.7887833	1.3374541
26.103410765041186	1.8304359	1.352936
26.12140262065155	1.8557454	1.3622575
26.139395131612723	1.8738437	1.3688841
26.157388298439948	1.8250796	1.350955
26.17538212164861	1.8190097	1.3487066
26.193376601754295	1.8261137	1.3513378
26.211371739272714	1.8152218	1.3473017
26.229367534719746	1.7954246	1.3399346
26.247363988611433	1.8108472	1.3456773
26.26536110146397	1.870371	1.3676151
26.283358873793727	1.9166688	1.384438
26.301357306117204	1.884694	1.3728416
26.319356398951104	1.8772435	1.3701254
26.33735615281224	1.8607731	1.3641015
26.35535656821762	1.8768113	1.3699676
26.373357645684404	1.8430752	1.357599
26.39135938572991	1.7767256	1.3329387
26.409361788871614	1.7586792	1.326152
26.427364855627165	1.7895333	1.3377343
26.445368586514352	1.8350873	1.354654
26.46337298205115	1.790092	1.3379432
26.48137804275568	1.7883846	1.337305
26.499383769146217	1.7565007	1.3253304
26.517390161741215	1.7599025	1.3266132
26.53539722105928	1.7695748	1.3302536
26.553404947619182	1.8308189	1.3530775
26.571413341939856	1.8696189	1.3673401
26.589422404540397	1.8521271	1.3609288
26.60743213594006	1.8269061	1.3516309
26.62544253665827	1.816389	1.3477348
26.64345360721459	1.8145643	1.3470577
26.66146534812879	1.793099	1.3390665
26.679477759920758	1.811426	1.3458923
26.69749084311057	1.8100544	1.3453826
26.71550459821847	1.8390213	1.3561052
26.733519025764842	1.8593098	1.3635651
26.751534126270258	1.8829618	1.3722105
26.769549900255434	1.8644372	1.365444
26.787566348241267	1.82222	1.3498963
26.80558347074881	1.7867676	1.3367003
26.823601268299267	1.7888749	1.3374883
26.841619741414036	1.7971864	1.3405918
26.85963889061465	1.8238846	1.3505127
26.877658716422832	1.8108013	1.3456602
26.89567921936045	1.7947822	1.3396949
26.913700399949544	1.8009617	1.3419992
26.93172225871233	1.8345196	1.3544444
26.949744796171174	1.8322613	1.3536105
26.967768012848605	1.80418	1.3431977
26.98579190926733	1.7982136	1.3409749
27.003816485950225	1.8117456	1.346011
27.021841743420318	1.7974235	1.3406802
27.039867682200814	1.7824558	1.3350865
27.057894302815072	1.8211704	1.3495075
27.07592160578664	1.8829069	1.3721906
27.0939495916392	1.8777176	1.3702984
27.111978260896635	1.8432027	1.357646
27.13000761408296	1.788542	1.3373638
27.148037651722397	1.786789	1.3367083
27.166068374339304	1.7642912	1.3282663
27.184099782458215	1.7867007	1.3366753
27.20213187660384	1.8161068	1.34763
27.22016465730105	1.8095114	1.3451809
27.23819812507487	1.816021	1.3475982
27.256232280450533	1.8310293	1.3531553
27.274267123953383	1.8485937	1.35963
27.292302656108987	1.8119113	1.3460726
27.31033887744306	1.791104	1.3383213
27.32837578848146	1.7898413	1.3378495
27.34641338975026	1.7692488	1.3301312
27.364451681775673	1.813636	1.3467131
27.382490665084074	1.8375599	1.3555663
27.400530340202046	1.8532467	1.36134
27.41857070765629	1.8118826	1.346062
27.436611767973726	1.7800407	1.3341817
27.454653521681404	1.7892783	1.3376391
27.472695969306564	1.8372891	1.3554664
27.490739111376627	1.8299799	1.3527675
27.508782948419153	1.8041738	1.3431954
27.526827480961902	1.767633	1.3295236
27.54487270953279	1.7556078	1.3249935
27.562918634659898	1.7944105	1.3395561
27.580965256871508	1.8576374	1.3629518
27.599012576696026	1.8891611	1.3744676
27.617060594662068	1.87038	1.3676184
27.63510931129842	1.8097439	1.3452672
27.65315872713401	1.7983038	1.3410085
27.67120884269797	1.8118445	1.3460478
27.68925965851958	1.8636565	1.3651581
27.707311175128307	1.8573031	1.3628291
27.725363393053787	1.8436338	1.3578048
27.74341631282583	1.8997053	1.3782979
27.7614699349744	1.9557216	1.3984711
27.77952426002968	2.147487	1.4654306
27.797579288521973	2.184033	1.4778473
27.815635020981784	2.5871189	1.6084523
27.83369145793979	2.6472464	1.6270361
27.85174859992682	2.4457135	1.5638777
27.869806447473923	2.3116515	1.5204116
27.887865001112267	1.9717742	1.4041988
27.905924261373233	1.829786	1.3526958
27.92398422878836	1.8487823	1.3596994
27.94204490388936	1.8856401	1.3731861
27.96010628720813	1.8926405	1.3757327
27.978168379276728	1.8592514	1.3635436
27.9962311806274	1.8386179	1.3559564
28.014294691792568	1.8163126	1.3477064
28.0323589133048	1.8298713	1.3527274
28.050423845696887	1.781544	1.3347449
28.068489489501758	1.7717003	1.3310523
28.086555845252523	1.844023	1.3579481
28.104622913482487	1.9003243	1.3785225
28.122690694725115	1.8415458	1.3570356
28.14075918951405	1.8095617	1.3451995
28.15882839838312	1.9053155	1.3803316
28.176898321866304	1.9281896	1.3885927
28.1949689604978	1.8347017	1.3545116
28.213040314811945	1.8267001	1.3515548
28.23111238534327	1.907157	1.3809985
28.249185172626493	1.9579138	1.3992547
28.267258677196473	1.9595193	1.3998283
28.285332899588294	1.9367443	1.3916696
28.303407840337172	1.9206954	1.3858916
28.321483499978545	1.9264854	1.3879789
28.33955987904799	1.923966	1.387071
28.357636978081285	1.9220841	1.3863925
28.37571479761439	1.9167411	1.3844641
28.393793338183425	1.9567486	1.3988383
28.41187260032469	2.005523	1.4161649
28.429952584574686	1.9770461	1.4060748
28.448033291470065	1.937124	1.391806
28.46611472154769	1.9938248	1.4120287
28.484196875344566	1.9842964	1.4086505
28.502279753397914	1.950398	1.3965665
28.52036335624511	1.9403409	1.3929611
28.538447684423716	1.9683423	1.4029763
28.556532738471482	1.984602	1.408759
28.574618518926325	1.9966176	1.4130172
28.59270502632635	1.9808816	1.4074379
28.61079226120985	2.0115252	1.4182825
28.628880224115274	2.023135	1.4223695
28.646968915581287	2.0461736	1.4304452
28.66505833614671	2.033928	1.4261584
28.68314848635055	1.970551	1.4037632
28.701239366732004	1.9625607	1.4009142
28.71933097783044	2.0609262	1.4355927
28.737423320185403	2.1342075	1.4608927
28.75551639433665	2.152506	1.4671421
28.773610200824074	2.0938218	1.4470044
28.791704740187793	2.0894406	1.4454898
28.80980001296809	2.0750346	1.440498
28.827896019705413	2.0951047	1.4474477
28.845992760940433	2.1110804	1.4529557
28.86409023721397	2.1933646	1.4810013
28.88218844906704	2.2709465	1.506966
28.900287397040845	2.2904243	1.5134147
28.918387081676755	2.2645917	1.504856
28.936487503516343	2.3078425	1.5191585
28.954588663101365	2.2992213	1.5163183
28.97269056097374	2.3070526	1.5188985
28.990793197675597	2.3494046	1.5327767
29.00889657374923	2.422227	1.5563505
29.027000689737125	2.415135	1.5540705
29.04510554618196	2.4040973	1.5505152
29.06321114362659	2.452431	1.566024
29.08131748261405	2.541635	1.5942506
29.099424563687567	2.5067954	1.5832863
29.11753238739057	2.4975533	1.580365
29.13564095426663	2.5242631	1.588793
29.15375026485954	2.5567393	1.5989807
29.171860319713275	2.616032	1.6174152
29.18997111937199	2.723177	1.6502051
29.20808266438002	2.7683535	1.663837
29.226194955281898	2.8091915	1.6760643
29.244307992622335	2.8279352	1.6816466
29.26242177694624	2.8148692	1.6777571
29.2805363087987	2.885551	1.698691
29.29865158872498	2.962205	1.7211057
29.316767617270557	2.9684339	1.7229143
29.334884394981064	2.957528	1.7197465
29.353001922402367	2.9107919	1.7061043
29.37112020008047	2.9662645	1.7222847
29.389239228561596	3.1488192	1.7744913
29.407359008392152	3.3879027	1.8406256
29.42547954011872	3.730587	1.9314728
29.44360082428809	4.3924365	2.095814
29.46172286144722	5.4906764	2.3432193
29.479845652143283	6.9880567	2.6434932
29.497969196923606	9.159661	3.0264933
29.516093496335728	11.71995	3.4234412
29.5342185509274	14.518642	3.8103337
29.55234436124651	16.74336	4.091865
29.570470927841175	17.877542	4.228184
29.588598251259686	17.3694	4.167661
29.60672633205055	16.18075	4.02253
29.624855170762405	14.154095	3.7621927
29.642984767944146	11.357243	3.370051
29.66111512414481	8.637997	2.9390469
29.67924623991366	6.3845577	2.5267682
29.697378115800138	4.931347	2.2206635
29.71551075235387	4.1220436	2.0302815
29.733644150124675	3.7297728	1.931262
29.751778309662576	3.5266352	1.8779337
29.769913231517766	3.3855274	1.8399802
29.78804891624066	3.3780544	1.8379484
29.806185364381818	3.3938308	1.8422352
29.82432257649206	3.3525698	1.8310024
29.842460553122333	3.3193312	1.8219032
29.86059929482382	3.3386586	1.8271997
29.878738802147872	3.277245	1.8103163
29.896879075646048	3.16736	1.7797079
29.915020115870114	3.263526	1.8065232
29.933161923371976	3.3129568	1.820153
29.951304498703777	3.3025782	1.8172997
29.969447842417857	3.2553506	1.8042591
29.987591955066733	3.1814005	1.7836481
30.005736837203123	3.150632	1.775002
30.023882489379943	3.2249253	1.7958077
30.04202891215028	3.2784657	1.8106534
30.060176106067455	3.1507645	1.7750393
30.078324071684946	3.1165416	1.765373
30.09647280955646	3.2295237	1.7970876
30.114622320235863	3.2303088	1.797306
30.132772604277257	3.2257137	1.7960272
30.1509236622349	3.1821947	1.7838707
30.16907549466328	3.1028216	1.7614828
30.18722810211705	3.0764134	1.7539707
30.205381485151097	3.0883892	1.7573813
30.22353564432045	3.0564246	1.7482634
30.241690580180403	3.0157409	1.7365888
30.25984629328638	3.0608923	1.7495406
30.278002784194037	3.1445844	1.7732977
30.296160053459246	3.1462312	1.7737619
30.314318101638033	3.0518227	1.7469467
30.332476929286646	2.991362	1.7295555
30.35063653696153	2.9883385	1.7286811
30.368796925219307	2.969954	1.7233554
30.386958094616844	2.920505	1.7089485
30.40512004571115	2.8887188	1.6996231
30.423282779059463	2.8279343	1.6816463
30.441446295219233	2.8102558	1.6763817
30.459610594748067	2.8356383	1.6839354
30.47777567820382	2.8373537	1.6844447
30.495941546144504	2.7914062	1.6707501
30.51410819912835	2.771409	1.664755
30.532275637713795	2.8237727	1.6804085
30.55044386245946	2.8203058	1.6793766
30.56861287392416	2.8073611	1.6755182
30.586782672666956	2.7701585	1.6643794
30.604953259247047	2.78772	1.6696466
30.623124634223885	2.7685719	1.6639026
30.641296798157075	2.7500975	1.6583418
30.659469751606462	2.7500532	1.6583284
30.677643495132074	2.7382426	1.6547636
30.695818029294152	2.737897	1.6546592
30.713993354653116	2.7379117	1.6546636
30.73216947176962	2.7056863	1.6448971
30.75034638120448	2.7014115	1.6435971
30.768524083518756	2.7610164	1.6616306
30.786702579273673	2.7934692	1.6713674
30.80488186903069	2.8610964	1.6914775
30.82306195335144	2.9428365	1.7154697
30.841242832797782	3.116257	1.7652923
30.85942450793176	3.449385	1.857252
30.877606979315637	3.8741422	1.968284
30.895790247511883	4.2536516	2.0624382
30.913974313083134	4.646537	2.1555827
30.932159176592283	4.930034	2.220368
30.95034483860237	4.9418836	2.2230349
30.968531299676698	4.646861	2.155658
30.98671856037873	4.254377	2.0626142
31.00490662127215	3.8424428	1.960215
31.023095482920848	3.490627	1.868322
31.04128514588892	3.106826	1.7626191
31.059475610740662	2.7866135	1.6693152
31.07766687804056	2.5850003	1.6077936
31.09585894835335	2.516668	1.586401
31.11405182224393	2.515648	1.5860794
31.132245500277417	2.4764314	1.5736681
31.15043998301914	2.4305544	1.5590235
31.168635271034628	2.421651	1.5561655
31.18683136488964	2.399333	1.5489781
31.20502826515008	2.406069	1.5511509
31.223225972382135	2.4762747	1.5736184
31.241424487152155	2.4980214	1.580513
31.259623810026692	2.4086034	1.5519676
31.27782394157253	2.368783	1.5390851
31.296024882356644	2.3823469	1.5434853
31.314226632946237	2.3827002	1.5435997
31.332429193908684	2.3849933	1.5443424
31.350632565811598	2.365013	1.5378598
31.368836749222787	2.3950548	1.5475965
31.387041744710295	2.4819756	1.5754287
31.40524755284232	2.5210855	1.5877926
31.423454174187317	2.5842693	1.6075662
31.441661609313922	2.5782673	1.6056983
31.459869858791002	2.517746	1.5867407
31.478078923187628	2.4444582	1.5634763
31.496288803073064	2.3471801	1.532051
31.514499499016807	2.2873535	1.5123999
31.532711011588546	2.319336	1.5229366
31.550923341358178	2.3660924	1.5382107
31.56913648889584	2.3257926	1.5250549
31.587350454771844	2.2849698	1.5116117
31.605565239556732	2.2943692	1.5147176
31.62378084382127	2.3647673	1.53778
31.641997268136382	2.3152444	1.5215927
31.660214513073274	2.295455	1.5150759
31.67843257920331	2.340892	1.5299975
31.6966514670981	2.3526676	1.5338408
31.71487117732944	2.3326557	1.5273033
31.733091710469346	2.2577775	1.5025903
31.751313067090052	2.2343333	1.4947686
31.769535247764008	2.2297857	1.4932467
31.787758253063878	2.2519035	1.5006344
31.805982083562526	2.2216227	1.490511
31.824206739833024	2.2694688	1.5064756
31.84243222244869	2.2746575	1.5081967
31.860658531983013	2.331576	1.5269499
31.878885669009737	2.3860908	1.5446976
31.897113634102784	2.3433113	1.5307878
31.91534242783632	2.2916772	1.5138286
31.933572050784694	2.3032887	1.517659
31.951802503522508	2.2322633	1.4940761
31.970033786624548	2.2456987	1.4985656
31.988265900665834	2.3144143	1.5213199
32.006498846221575	2.267248	1.5057384
32.02473262386724	2.1934297	1.4810232
32.04296723417845	2.1809363	1.4767994
32.0612026777311	2.2392402	1.496409
32.07943895510129	2.2388391	1.4962751
32.097676066865304	2.2035134	1.4844236
32.115914013599685	2.1952672	1.4816434
32.13415279588115	2.1024897	1.4499965
32.152392414286666	2.0632794	1.436412
32.1706328693934	2.1126611	1.4534996
32.18887416177875	2.1777437	1.475718
32.20711629202032	2.1987576	1.4828209
32.225359260695924	2.192132	1.480585
32.243603068383614	2.1374102	1.4619884
32.26184771566166	2.0790079	1.4418765
32.28009320310852	2.155533	1.4681734
32.2983395313029	2.1798387	1.4764277
32.31658670082372	2.120259	1.456111
32.33483471225012	2.0429802	1.4293286
32.35308356616143	2.0190625	1.4209372
32.371333263137245	1.9735539	1.4048324
32.38958380375734	1.9572153	1.399005
32.407835188601744	1.9904913	1.4108477
32.42608741825067	2.0381465	1.4276366
32.444340493284585	2.1003358	1.4492536
32.46259441428416	2.121684	1.4566002
32.48084918183028	2.1040475	1.4505335
32.49910479650405	2.0522044	1.4325517
32.51736125888683	2.008898	1.417356
32.53561856956014	2.0156217	1.4197259
32.5538767291058	1.9862497	1.4093437
32.572135738105764	1.9497942	1.3963503
32.59039559714228	2.028474	1.4242451
32.608656306797776	2.1411276	1.4632592
32.62691786765491	2.179858	1.4764342
32.645180280296586	2.1513975	1.4667643
32.663443545305896	2.093459	1.446879
32.68170766326619	2.0332708	1.4259281
32.69997263476099	2.0147626	1.4194233
32.7182384603741	2.0354068	1.4266769
32.7365051406895	1.9765586	1.4059013
32.75477267629144	1.9691912	1.4032787
32.77304106776434	2.0208325	1.4215599
32.79131031569289	2.1014695	1.4496446
32.809580420661966	2.0405638	1.428483
32.827851383256714	1.9829967	1.4081892
32.84612320406245	2.032277	1.4255795
32.86439588366476	2.0379653	1.4275732
32.88266942264945	1.9502275	1.3965055
32.9009438216025	1.9382225	1.3922006
32.9192190811102	1.987785	1.4098883
32.937495201758985	1.9682078	1.4029284
32.95577218413556	1.9411238	1.3932422
32.974050028826866	1.8961651	1.3770131
32.992328736420035	1.889368	1.3745428
33.010608307502444	2.006017	1.4163393
33.02888874266169	2.0550437	1.4335424
33.047170042485604	1.9777644	1.4063301
33.06545220756225	1.8717841	1.3681316
33.083735238479896	1.9062132	1.3806568
33.10201913582707	1.9162782	1.384297
33.12030390019248	1.9141557	1.3835301
33.138589532165135	1.9057779	1.3804991
33.15687603233419	1.9255639	1.3876469
33.17516340128909	1.9384012	1.3922647
33.19345163961947	1.9516033	1.3969979
33.211740747915215	1.9560279	1.3985807
33.23003072676643	1.9345095	1.3908665
33.248321576763466	1.9544052	1.3980005
33.266613298496885	1.8955427	1.3767871
33.28490589255747	1.9582688	1.3993815
33.30319935953626	1.9936951	1.4119827
33.32149370002451	1.9823225	1.4079497
33.339788914613706	1.8407279	1.3567343
33.358085003895575	1.8056041	1.3437277
33.376381968462034	1.8576903	1.3629712
33.39467980890529	1.8310739	1.3531718
33.41297852581774	1.8173268	1.3480827
33.43127811979204	1.7953178	1.3398947
33.44957859142105	1.8920536	1.3755194
33.467879941297866	1.9065645	1.380784
33.486182170015844	1.8365635	1.3551987
33.50448527816853	1.8588651	1.363402
33.522789266349754	1.8892587	1.3745031
33.541094135153514	1.9244968	1.3872623
33.55939988517411	2.002002	1.4149212
33.57770651700602	1.9827225	1.4080918
33.59601403124398	1.9494795	1.3962376
33.61432242848296	1.9320054	1.389966
33.632631709318154	1.9930953	1.4117702
33.650941874344994	2.0081027	1.4170754
33.66925292415916	1.995758	1.412713
33.68756485935654	1.9566213	1.3987927
33.70587768053328	1.9204072	1.3857876
33.724191388285746	1.8854338	1.373111
33.74250598321054	1.9157586	1.3841094
33.760821465904506	2.0289664	1.424418
33.77913783696474	2.0269377	1.4237056
33.79745509698852	2.0013616	1.4146949
33.815773246573414	1.9954938	1.4126195
33.8340922863172	1.991694	1.4112738
33.852412216817896	2.017962	1.4205499
33.87073303867377	2.1025047	1.4500016
33.889054752483304	2.0381947	1.4276536
33.907377358845245	1.9929533	1.41172
33.92570085835853	1.9817126	1.4077331
33.94402525162239	1.9907349	1.4109341
33.96235053923627	1.9756393	1.4055744
33.980676721799824	2.1147976	1.4542344
33.999003799912984	2.1399612	1.4628606
34.01733177417592	2.1352386	1.4612455
34.03566064518901	2.109875	1.4525409
34.0539904135529	2.0174246	1.4203607
34.07232107986846	1.8753519	1.3694348
34.090652644736785	1.9396698	1.3927203
34.108985108759235	1.9720211	1.4042867
34.12731847253742	1.9706038	1.403782
34.14565273667313	1.9038264	1.3797921
34.16398790176847	1.9201187	1.3856834
34.18232396842574	1.7741803	1.3319836
34.20066093724749	1.8930012	1.3758638
34.21899880883651	2.0047784	1.415902
34.23733758379583	1.9245946	1.3872976
34.25567726272874	1.8634914	1.3650976
34.27401784623872	2.0327673	1.4257514
34.29235933492957	2.0851054	1.4439894
34.31070172940526	2.031734	1.425389
34.32904503027003	1.9963874	1.4129357
34.347389238128386	1.9503577	1.3965521
34.36573435358502	1.8178588	1.34828
34.38408037724492	1.7996511	1.3415108
34.402427309713296	1.9692795	1.4033102
34.42077515159559	2.1163933	1.454783
34.43912390349752	2.1028326	1.4501147
34.45747356602499	2.1305718	1.4596479
34.47582413978423	2.1296446	1.4593302
34.49417562538163	2.0509243	1.4321048
34.51252802342388	1.9880795	1.4099927
34.53088133451789	1.8868588	1.3736298
34.54923555927084	1.7359244	1.3175448
34.567590698290104	1.7872783	1.3368913
34.58594675218336	1.9483951	1.3958492
34.6043037215585	1.9923428	1.4115038
34.62266160702365	2.005127	1.416025
34.641020409187234	1.972981	1.4046284
34.65938012865785	1.9356542	1.3912779
34.677740766044394	2.0159926	1.4198565
34.69610232195598	2.124319	1.4575044
34.714464797002016	2.0102499	1.4178329
34.73282819179208	1.8065703	1.3440871
34.751192506936064	1.866828	1.3663192
34.76955774304408	1.9431376	1.3939648
34.7879239007265	1.9440256	1.3942832
34.80629098059391	1.8834255	1.3723795
34.824658983257194	1.9739655	1.4049789
34.843027909327446	1.9851966	1.40897
34.86139775941603	1.9926867	1.4116256
34.879768534134534	1.9749753	1.4053382
34.89814023409483	1.953049	1.3975153
34.91651285990901	1.8158376	1.3475302
34.93488641218944	1.753717	1.3242798
34.95326089154871	1.8795353	1.3709614
34.97163629859967	2.129895	1.4594159
34.99001263395542	2.3297029	1.5263364
35.00838989822934	2.4235535	1.5567766
35.02676809203499	2.2528453	1.5009481
35.04514721598624	2.1974854	1.4823918
35.063527270697215	2.0500555	1.4318014
35.081908256782256	1.9543227	1.3979709
35.10029017485597	1.9678731	1.402809
35.11867302553321	2.0525858	1.4326848
35.137056809429104	2.122155	1.4567618
35.155441527159006	1.9945247	1.4122764
35.173827179338524	1.853845	1.3615597
35.19221376658354	1.9036441	1.379726
35.21060128951017	1.985868	1.4092083
35.2289897487348	2.125043	1.4577527
35.24737914487405	2.2221804	1.490698
35.26576947854479	2.2557487	1.501915
35.28416075036418	2.0529711	1.4328192
35.30255296094958	1.9134188	1.3832638
35.32094611091867	1.9058119	1.3805115
35.33934020088932	1.8041593	1.34319
35.35773523147969	1.8206124	1.3493007
35.3761312033082	1.974923	1.4053196
35.394528116993506	2.0712142	1.4391713
35.41292597315452	1.8718822	1.3681675
35.431324772410434	2.0024178	1.4150681
35.449724515380666	2.2236245	1.4911822
35.46812520268491	1.8869123	1.3736492
35.486526834943106	1.4281499	1.1950523
35.504929412775454	1.6632622	1.2896752
35.52333293680242	2.0766463	1.4410573
35.54173740764471	2.0744343	1.4402896
35.560142825923286	1.6517954	1.2852219
35.5785491922594	1.4643182	1.2100902
35.59695650727454	1.3158003	1.1470834
35.61536477159042	1.5913184	1.2614747
