0.008763373481513119	0.56609195	0.7523908
0.026290120649546365	0.18888974	0.43461448
0.043816868432600686	0.14562035	0.38160235
0.06134361724069026	0.1718286	0.41452214
0.07887036748382949	0.19528446	0.44191
0.0963971195720331	0.19629005	0.44304633
0.11392387391531617	0.20612259	0.45400727
0.1314506309236943	0.2992207	0.5470107
0.1489773910071836	0.3037139	0.5511024
0.16650415457580078	0.2591584	0.509076
0.18403092203956356	0.15816283	0.3976969
0.20155769380849	0.09293096	0.30484578
0.2190844702925996	0.058797784	0.24248254
0.2366112519019124	0.07030646	0.26515365
0.2541380390464497	0.13076663	0.3616167
0.27166483213623416	0.14911906	0.3861594
0.28919163158128947	0.1351684	0.36765257
0.3067184377916406	0.08722975	0.29534683
0.324245251177314	0.09641183	0.31050256
0.34177207214833777	0.08951779	0.29919523
0.3592989011147415	0.102982804	0.32090935
0.37682573848655654	0.10481639	0.3237536
0.39435258467381573	0.11105088	0.33324298
0.41187944008655414	0.145173	0.38101575
0.42940630513480854	0.22768922	0.4771679
0.446933180228618	0.2560047	0.50596905
0.4644600657780234	0.28450915	0.533394
0.48198696219306775	0.26232976	0.51218134
0.49951386988379676	0.18341216	0.42826647
0.5170407892602581	0.16703796	0.4087028
0.5345677207325025	0.16078894	0.40098497
0.5520946647105822	0.19183123	0.43798542
0.5696216216045534	0.23097107	0.4805945
0.5871485918244737	0.2564273	0.5063865
0.6046755757804043	0.2415293	0.4914563
0.6222025738824094	0.20881282	0.4569604
0.6397295865405557	0.15682389	0.39600995
0.6572566141649129	0.14637992	0.38259628
0.6747836571655547	0.1753076	0.4186975
0.6923107159525568	0.24221589	0.49215433
0.7098377909359992	0.27513042	0.52452874
0.7273648825259653	0.24934337	0.49934295
0.7448919911325411	0.23273507	0.48242623
0.762419117165817	0.18780878	0.4333691
0.7799462610358868	0.21236663	0.46083254
0.7974734231528482	0.2065546	0.4544828
0.8150006039268024	0.20569758	0.45353895
0.8325278037678551	0.17219724	0.41496655
0.8500550230861152	0.19703077	0.44388148
0.8675822622916969	0.19922459	0.4463458
0.8851095217947171	0.25476572	0.5047432
0.9026368020052984	0.23477867	0.48453966
0.9201641033335665	0.2482086	0.49820536
0.9376914261896523	0.25146478	0.50146264
0.9552187709836915	0.23958881	0.4894781
0.9727461381258234	0.2539799	0.5039642
0.990273528026193	0.24097076	0.49088773
1.0078009410949496	0.26245534	0.51230395
1.0253283777422473	0.28617817	0.5349562
1.0428558383782454	0.36691713	0.60573685
1.0603833234131086	0.40000382	0.63245857
1.0779108332570058	0.4275811	0.65389687
1.0954383683201119	0.37080476	0.6089374
1.112965929012607	0.3445116	0.5869511
1.1304935157446763	0.47325203	0.68793315
1.1480211289265108	0.53616244	0.73223114
1.1655487689683062	1.4230694	1.1929247
1.1830764362802655	1.6544111	1.2862391
1.200604131272596	2.0622826	1.436065
1.2181318543555117	2.3681004	1.5388633
1.235659605939232	2.4202797	1.5557249
1.253187386433982	3.941849	1.985409
1.270715196249994	6.3725233	2.5243857
1.2882430357975057	11.963385	3.4588127
1.3057709054867608	16.827866	4.102178
1.3232988057280106	22.747583	4.7694426
1.3408267369315112	27.395609	5.2340813
1.358354699507526	30.81496	5.5511227
1.3758826938663256	34.6231	5.8841395
1.3934107204181858	36.460327	6.0382385
1.410938779573391	37.013924	6.083907
1.4284668717422309	37.75441	6.1444616
1.4459949973350033	37.54514	6.127409
1.4635231567620117	37.970345	6.1620083
1.4810513504335687	37.650734	6.136019
1.4985795787599925	36.7469	6.061922
1.5161078421516088	36.108715	6.0090528
1.5336361410187505	35.185905	5.931771
1.5511644757717598	35.1563	5.9292746
1.5686928468209842	35.36996	5.947265
1.58622125457678	35.721085	5.9767118
1.6037496994495108	36.756077	6.062679
1.621278181849548	36.608387	6.0504866
1.6388067021872719	37.51042	6.124575
1.6563352608730693	37.3671	6.1128635
1.673863858317336	36.56394	6.046812
1.6913924949304753	35.986023	5.998835
1.7089211711228998	34.509895	5.874512
1.7264498873050296	33.602634	5.7967777
1.7439786438872935	32.559757	5.7061157
1.7615074412801288	31.733002	5.6332054
1.779036279893981	31.289942	5.5937414
1.796565160139305	30.582624	5.530156
1.814094082426564	30.213808	5.496709
1.8316230471662298	29.605135	5.44106
1.849152054768784	28.391003	5.328321
1.8666811056447168	27.835487	5.2759347
1.8842102002045273	27.100119	5.2057776
1.901739338858724	26.360355	5.1342335
1.9192685220178245	25.510788	5.0508204
1.9367977500923557	24.793043	4.9792614
1.9543270234928547	24.592169	4.959049
1.971856342629867	24.227423	4.922136
1.9893857079139496	23.793104	4.8778176
2.006915119755667	23.014378	4.7973304
2.0244445785655945	22.175663	4.709104
2.0419740847543175	21.779558	4.6668572
2.0595036387324317	21.430252	4.629282
2.0770332409105414	21.071148	4.590332
2.094562891699263	20.781359	4.5586576
2.1120925915092217	20.046215	4.4773
2.129622340751053	19.779243	4.4473863
2.1471521398354043	187.87625	13.706796
2.1646819891729323	444.44556	21.081877
2.182211889174303	440.66656	20.99206
2.1997418402501974	453.1167	21.286537
2.2172718428113023	433.02335	20.809214
2.234801897268317	320.86118	17.912598
2.2523320040319548	17.285103	4.1575356
2.269862163512935	16.872797	4.107651
2.287392376121992	16.46203	4.057343
2.304922642269869	16.169813	4.0211706
2.322452962367322	16.005966	4.000746
2.3399833368251164	15.822192	3.977712
2.357513766054032	15.476594	3.9340303
2.3750442504648586	15.113562	3.8876164
2.3925747904683963	14.765568	3.8425992
2.410105386475459	14.557614	3.8154442
2.4276360388968707	14.306635	3.7824113
2.445166748143469	14.188479	3.7667599
2.4626975146261025	13.880291	3.7256262
2.4802283387556323	13.714941	3.703369
2.4977592209429305	13.427441	3.6643472
2.5152901615988825	13.260323	3.6414726
2.5328211611343865	12.957905	3.599709
2.5503522199603523	12.653102	3.5571198
2.5678833384877024	12.24833	3.4997613
2.5854145171273712	12.012671	3.46593
2.6029457562903064	11.751101	3.4279878
2.620477056387469	11.544087	3.397659
2.6380084178298326	11.387967	3.3746061
2.655539841028383	11.254984	3.3548448
2.673071326394119	11.302963	3.361988
2.6906028743380523	11.163875	3.3412385
2.708134485271211	11.121745	3.334928
2.7256661596046325	10.963174	3.3110683
2.743197897749369	10.659854	3.2649431
2.760729700116486	10.411439	3.2266762
2.778261567117063	10.153587	3.1864693
2.795793499162193	10.103702	3.178632
2.8133254966629817	10.290279	3.2078466
2.830857560030551	10.231236	3.1986303
2.8483896896760337	10.258166	3.2028372
2.865921886010578	9.923867	3.150217
2.883454149445347	9.756699	3.1235714
2.9009864803915177	9.551917	3.0906177
2.91851887926028	9.433061	3.0713289
2.9360513464628384	9.273755	3.045284
2.953583882410413	9.21339	3.0353568
2.9711164875142373	9.052534	3.008743
2.9886491621855606	8.874891	2.9790757
3.0061819068356455	8.594241	2.9315937
3.023714721875769	8.404302	2.8990173
3.041247607717225	8.431807	2.9037573
3.0587805647713213	8.297601	2.8805556
3.0763135934493806	8.288462	2.878969
3.0938466941627407	8.140757	2.8532012
3.1113798673227544	8.070817	2.8409183
3.1289131133407904	8.001851	2.8287544
3.1464464326282315	7.8627834	2.8040655
3.1639798255964786	7.767544	2.7870314
3.1815132926569443	7.5943317	2.7557814
3.1990468342210603	7.5489016	2.7475264
3.216580450700272	7.435073	2.726733
3.2341141425060416	7.3927145	2.7189546
3.251647910049847	7.359493	2.7128384
3.2691817537431813	7.252619	2.6930687
3.286715673997555	7.2087812	2.6849174
3.3042496712244938	7.1303587	2.670273
3.32178374583554	6.9864	2.64318
3.339317898242251	6.9718084	2.6404183
3.3568521288562034	6.9450665	2.6353495
3.3743864380889876	6.96509	2.6391456
3.3919208263522127	6.9578815	2.6377797
3.4094552940575023	6.8335385	2.6141038
3.4269898416164972	6.6867423	2.5858736
3.444524469440858	6.451052	2.5398922
3.4620591779422587	6.3321147	2.5163693
3.479593967532391	6.2282753	2.4956512
3.4971288386229658	6.2836595	2.506723
3.5146637916257086	6.3526487	2.520446
3.5321988269523628	6.333677	2.5166798
3.5497339450146903	6.272795	2.504555
3.5672691462244708	6.2994447	2.5098693
3.5848044309934988	6.2789826	2.5057898
3.60233979973359	6.392293	2.5282984
3.619875252856575	6.324494	2.5148547
3.6374107907743034	6.296275	2.509238
3.6549464138986427	6.2491293	2.499826
3.6724821226414788	6.2147374	2.4929376
3.690017917414714	6.2403893	2.4980772
3.7075537986302702	6.249734	2.4999468
3.7250897667000857	6.3139706	2.5127616
3.7426258220361235	6.414236	2.5326343
3.7601619650503553	6.6684933	2.5823426
3.777698196154779	7.2245564	2.6878536
3.7952345157614067	8.321453	2.884693
3.8127709242822716	9.100448	3.0166948
3.830307422129425	11.390948	3.375048
3.847844009714936	30.259508	5.5008645
3.8653806874508954	97.784065	9.888582
3.882917455749409	97.1079	9.854334
3.900454315022606	96.80468	9.838937
3.917991265682631	41.246967	6.42238
3.9355283081416506	10.951144	3.3092513
3.9530654428118495	8.7892065	2.9646597
3.970602670105433	7.584106	2.7539256
3.9881399904346244	6.6383677	2.576503
4.005677404211669	6.4691057	2.5434437
4.023214911848827	6.419449	2.533663
4.0407525137583855	6.39685	2.5291996
4.058290210352644	6.3480105	2.5195258
4.075828002043927	6.3028874	2.5105553
4.0933658892445814	6.2895904	2.5079055
4.110903872366966	6.243052	2.49861
4.128441951823468	6.1805286	2.4860668
4.145980128026488	6.107507	2.471337
4.163518401388452	5.9929914	2.4480586
4.181056772321807	5.9911427	2.4476812
4.1985952412390155	5.9551396	2.4403155
4.216133808552567	6.0552993	2.4607518
4.233672474674966	6.1656494	2.4830725
4.251211240018741	6.4019504	2.5302076
4.268750104996445	6.64417	2.5776286
4.286289070020643	7.579232	2.7530406
4.303828135503928	9.175186	3.029057
4.3213673018589125	29.335562	5.416231
4.3389065694982305	90.480225	9.51211
4.356445938834537	165.74933	12.874367
4.3739854102805085	171.23364	13.085628
4.391524984248844	172.06093	13.1172
4.409064661152262	136.0201	11.6627655
4.426604441403504	96.41948	9.819342
4.444144325415337	75.507225	8.689489
4.461684313600543	21.635046	4.651349
4.47922440637193	22.00636	4.6910934
4.496764604142329	20.263287	4.501476
4.5143049073245916	18.413496	4.291095
4.531845316331589	16.210545	4.0262322
4.5493858315762195	13.305909	3.6477265
4.566926453471405	11.046964	3.3236973
4.584467182430081	9.15015	3.0249214
4.602008018865218	8.046214	2.836585
4.619548963189798	7.538457	2.745625
4.637090015816834	7.161546	2.6761065
4.654631177159353	6.9098024	2.6286502
4.672172447630417	6.512066	2.5518749
4.689713827643102	6.188151	2.4875994
4.7072553176105085	5.962625	2.4418488
4.724796917945764	5.7869606	2.4056103
4.742338629062015	5.7563157	2.3992324
4.759880451372434	5.722653	2.3922067
4.777422385290215	5.6217575	2.3710246
4.794964431228581	5.578911	2.3619719
4.812506589600768	5.578555	2.3618965
4.830048860820047	5.622734	2.3712306
4.847591245299709	5.7002997	2.38753
4.8651337434530655	5.699588	2.3873808
4.882676355693457	5.6529336	2.37759
4.900219082434242	5.6156087	2.3697276
4.917761924088813	5.5163255	2.348686
4.935304881070575	5.5076795	2.3468447
4.952847953792969	5.4282517	2.329861
4.970391142669449	5.407418	2.3253856
4.9879344481135055	5.4059525	2.3250704
5.005477870538642	5.453648	2.3353047
5.023021410358394	5.435003	2.3313093
5.040565067986324	5.409043	2.3257349
5.05810884383601	5.366978	2.316674
5.075652738321066	5.349852	2.3129747
5.09319675185512	5.379766	2.3194323
5.110740884851836	5.419968	2.3280826
5.128285137724894	5.452108	2.334975
5.145829510888007	5.4258823	2.3293524
5.163374004754908	5.422273	2.3285775
5.1809186197393595	5.300089	2.3021922
5.198463356255145	5.2916813	2.3003654
5.216008214716077	5.225592	2.2859554
5.233553195535998	5.245726	2.290355
5.251098299128764	5.269791	2.2956026
5.268643525908272	5.2409716	2.289317
5.286188876288432	5.2634783	2.2942271
5.3037343506831895	5.2501574	2.2913222
5.32127994950651	5.2667994	2.294951
5.3388256731723915	5.294411	2.3009589
5.356371522094851	5.2565074	2.2927074
5.373917496687938	5.217327	2.284147
5.391463597365729	5.159234	2.2713947
5.40900982454232	5.1673307	2.2731764
5.426556178631843	5.119571	2.262647
5.444102660048449	5.1044536	2.2593038
5.4616492692063225	5.082638	2.2544706
5.479196006519669	5.1236296	2.2635436
5.496742872402727	5.10566	2.2595708
5.514289867269756	5.101328	2.258612
5.531836991535049	5.113638	2.2613354
5.549384245612924	5.116981	2.2620745
5.566931629917724	5.19382	2.2789953
5.584479144863822	5.1854844	2.277166
5.6020267908656205	5.1509795	2.269577
5.619574568337545	5.0738506	2.252521
5.637122477694054	5.0427322	2.2456028
5.654670519349629	5.010659	2.2384503
5.672218693718784	4.994691	2.2348804
5.689767001216059	5.0613413	2.2497425
5.707315442256021	5.195976	2.2794683
5.724864017253266	5.188044	2.2777278
5.7424127266224225	5.1888957	2.2779148
5.75996157077814	5.0967755	2.257604
5.777510550135105	5.147042	2.2687092
5.795059665108022	5.1990156	2.280135
5.812608916111639	5.169593	2.2736738
5.830158303560715	5.2506824	2.2914367
5.847707827870055	5.2637324	2.2942824
5.86525748945448	5.3534384	2.3137498
5.8828072887288485	5.4807506	2.3411002
5.900357226108044	5.534187	2.3524852
5.917907302006979	5.5568376	2.3572946
5.9354575168406	6.220914	2.494176
5.9530078710238765	6.892693	2.6253939
5.970558364971812	7.493036	2.737341
5.988108999099438	7.8236465	2.7970781
6.005659773821818	8.339767	2.8878655
6.023210689554039	8.095494	2.8452582
6.040761746711227	8.461119	2.9088001
6.058312945708531	7.750247	2.7839265
6.075864286961132	7.2344646	2.689696
6.093415770884244	6.581199	2.5653849
6.1109673978931065	6.114716	2.4727952
6.128519168402993	5.556596	2.3572433
6.146071082829204	5.415831	2.3271937
6.163623141587075	5.263507	2.2942333
6.181175345091969	5.1905494	2.2782776
6.198727693759281	5.143928	2.268023
6.216280188004435	5.1396756	2.2670853
6.233832828242885	5.130194	2.2649932
6.251385614890126	5.1865826	2.277407
6.268938548361669	5.1643867	2.2725286
6.286491629073067	5.0292726	2.242604
6.304044857439898	4.9598527	2.2270727
6.321598233877777	4.8872023	2.2107017
6.339151758802344	4.937715	2.222097
6.356705432629277	4.978941	2.231354
6.37425925577428	4.980151	2.2316253
6.391813228653095	4.9185705	2.2177851
6.409367351681486	4.920078	2.2181249
6.426921625275259	4.9478836	2.2243838
6.44447604985025	4.981444	2.2319148
6.46203062582232	5.0519404	2.2476523
6.47958535360737	5.0113516	2.2386048
6.497140233621328	4.959342	2.226958
6.514695266280161	4.994632	2.2348673
6.532250451999859	5.0396643	2.2449195
6.549805791196454	5.132917	2.2655942
6.567361284286002	5.207639	2.2820253
6.584916931684597	5.1790853	2.2757604
6.602472733808367	5.108245	2.2601426
6.6200286910734665	5.011097	2.238548
6.637584803896092	5.013226	2.2390234
6.655141072692462	5.076211	2.2530448
6.672697497878842	5.1278205	2.2644691
6.690254079871514	5.07905	2.2536747
6.707810819086808	5.0139203	2.2391784
6.725367715941078	5.021188	2.2408006
6.742924770850719	5.0008445	2.2362568
6.760481984232151	5.0118246	2.2387104
6.778039356501836	5.016164	2.2396793
6.795596888076266	4.981299	2.2318823
6.813154579371963	4.9881973	2.2334273
6.830712430805492	5.015433	2.2395163
6.84827044279344	5.0247397	2.2415931
6.865828615752445	5.035247	2.2439356
6.883386950099159	5.1014614	2.2586415
6.900945446250287	5.1021557	2.2587953
6.918504104622553	5.0320992	2.2432342
6.936062925632727	4.9717355	2.229739
6.953621909697607	4.9896984	2.2337632
6.971181057234028	5.0211067	2.2407825
6.988740368658859	5.089248	2.2559361
7.006299844389007	5.160292	2.2716277
7.023859484841407	5.174734	2.274804
7.041419290433036	5.267942	2.2951999
7.058979261580902	5.4190106	2.3278768
7.0765393987020495	5.718694	2.391379
7.094099702213559	6.072723	2.4642894
7.111660172532549	6.3113775	2.5122454
7.129220810076164	6.678325	2.5842457
7.146781615261595	7.1955953	2.6824608
7.16434258850606	7.5170474	2.7417235
7.181903730226821	7.9304442	2.8161044
7.1994650408411704	8.116636	2.8489711
7.217026520766437	8.236621	2.8699515
7.234588170419983	8.415403	2.9009314
7.252149990219215	8.409805	2.8999665
7.269711980581568	8.313092	2.8832433
7.2872741419245175	8.1473055	2.8543484
7.304836474665574	7.7098713	2.7766654
7.322398979222286	7.3888326	2.7182407
7.339961656012233	7.143451	2.6727235
7.357524505453039	6.836624	2.6146939
7.375087527962357	6.567702	2.5627527
7.392650723957886	6.244248	2.4988494
7.410214093857353	5.807588	2.4098938
7.427777638078528	5.572975	2.360715
7.445341357039213	5.3667083	2.3166156
7.4629052511572525	5.250801	2.2914627
7.480469320850524	5.259548	2.2933705
7.498033566536948	5.1998982	2.2803285
7.5155979886344735	5.225926	2.2860284
7.5331625875610975	5.280969	2.2980359
7.550727363734844	5.2664347	2.2948713
7.568292317573788	5.187495	2.2776074
7.585857449496025	5.155058	2.2704751
7.603422759919705	5.10897	2.260303
7.620988249263007	5.149328	2.2692132
7.638553917944147	5.229975	2.2869139
7.656119766381391	5.227638	2.2864027
7.673685794993023	5.265874	2.2947493
7.691252004197388	5.2004347	2.280446
7.70881839441285	5.173727	2.2745829
7.726384966057826	5.2138624	2.2833884
7.743951719550762	5.288875	2.2997553
7.761518655310149	5.292574	2.3005595
7.779085773754511	5.290053	2.3000114
7.796653075302419	5.234936	2.2879982
7.814220560372475	5.249464	2.2911708
7.831788229383323	5.2046475	2.2813697
7.8493560827536495	5.225093	2.2858462
7.866924120902174	5.2611103	2.293711
7.884492344247663	5.243528	2.289875
7.9020607532089135	5.2433243	2.2898307
7.919629348204771	5.254196	2.2922034
7.937198129654115	5.274283	2.2965808
7.954767097975865	5.2764297	2.297048
7.972336253588986	5.261104	2.2937098
7.989905596912472	5.2857237	2.2990701
8.007475128365371	5.3013997	2.302477
8.025044848366756	5.32448	2.3074834
8.042614757335754	5.3604155	2.315257
8.060184855691523	5.4353185	2.331377
8.07775514385327	5.6929674	2.385994
8.095325622240228	5.811891	2.4107864
8.112896291271687	5.8099823	2.4103904
8.130467151366968	5.809503	2.4102912
8.148038202945436	5.762613	2.4005442
8.165609446426497	5.850596	2.4188006
8.183180882229594	5.871531	2.4231243
8.200752510774217	5.8801436	2.4249008
8.218324332479893	5.8846226	2.4258242
8.235896347766193	5.924529	2.4340355
8.253468557052724	5.967976	2.442944
8.27104096075914	5.9863396	2.4466996
8.288613559305137	5.9959726	2.4486675
8.306186353110448	6.0102563	2.4515824
8.32375934259485	6.151567	2.4802353
8.341332528178162	6.266058	2.5032096
8.358905910280246	6.3499045	2.5199018
8.376479489321003	6.430918	2.5359256
8.394053265720377	6.409464	2.5316918
8.411627239898356	6.3215976	2.5142787
8.42920141227497	6.2128673	2.4925623
8.44677578327029	6.136823	2.4772613
8.464350353304427	6.153641	2.4806533
8.48192512279754	6.163097	2.4825585
8.499500092169827	6.229089	2.4958143
8.51707526184153	6.224084	2.4948113
8.534650632232934	6.248511	2.4997022
8.552226203764365	6.218311	2.493654
8.569801976856192	6.2785025	2.505694
8.587377951928834	6.3221526	2.514389
8.60495412940274	6.359671	2.521839
8.622530509698416	6.354088	2.5207317
8.6401070932364	6.408882	2.531577
8.657683880437283	6.4734435	2.5442963
8.675260871721695	6.628496	2.5745866
8.692838067510303	6.851884	2.6176105
8.710415468223834	7.1170783	2.6677852
8.727993074283043	7.2332497	2.68947
8.745570886108737	7.21246	2.6856024
8.763148904121765	7.185033	2.6804912
8.78072712874302	7.154196	2.674733
8.798305560393441	7.3446727	2.7101057
8.815884199494006	7.4870048	2.7362392
8.833463046465745	7.7253213	2.7794461
8.851042101729728	7.8792157	2.806994
8.86862136570707	8.164783	2.8574083
8.886200838818924	8.317231	2.883961
8.903780521486505	8.289	2.8790622
8.921360414131055	8.316849	2.8838947
8.938940517173874	8.453462	2.9074838
8.956520831036297	8.674314	2.9452188
8.97410135613971	9.052558	3.0087469
8.99168209290554	9.309848	3.0512044
9.009263041755265	9.569569	3.093472
9.026844203110405	9.758994	3.1239388
9.044425577392525	9.848841	3.1382864
9.062007165023239	9.880053	3.143255
9.079588966424197	10.189415	3.1920862
9.097170982017108	10.281163	3.2064252
9.11475321222372	11.354864	3.3696978
9.132335657465825	12.221024	3.495858
9.149918318165264	12.348534	3.514048
9.167501194743924	12.998551	3.6053505
9.18508428762374	12.63689	3.5548403
9.202667597226693	12.562567	3.5443711
9.220251123974803	12.191645	3.4916537
9.237834868290143	11.94355	3.455944
9.255418830594836	11.815605	3.4373834
9.273003011311046	11.261026	3.3557453
9.290587410860985	10.952151	3.3094034
9.308172029666911	10.276654	3.205722
9.32575686815113	10.020065	3.1654487
9.343341926735997	8.752109	2.9583962
9.360927205843916	8.52121	2.919111
9.378512705897327	8.27813	2.877174
9.396098427318728	8.050098	2.8372695
9.413684370530664	7.9763927	2.824251
9.431270535955722	7.992705	2.8271372
9.448856924016539	7.9650717	2.8222458
9.466443535135806	7.8082156	2.7943184
9.484030369736251	7.7402086	2.782123
9.501617428240658	7.684338	2.772064
9.519204711071852	7.668747	2.7692502
9.536792218652714	7.713036	2.7772353
9.55437995140617	7.7162666	2.7778168
9.571967909755191	7.721043	2.7786765
9.589556094122802	7.741637	2.7823799
9.60714450493207	7.758515	2.7854111
9.624733142606116	7.8706183	2.8054621
9.642322007568108	7.975314	2.82406
9.659911100241267	8.0141945	2.8309352
9.677500421048851	8.046282	2.836597
9.695089970414175	8.121047	2.849745
9.712679748760609	8.1522875	2.855221
9.730269756511557	8.155249	2.8557396
9.747859994090492	8.053052	2.83779
9.765450461920915	8.057567	2.8385854
9.78304116042639	8.083194	2.8430958
9.800632090030527	8.198951	2.863381
9.81822325115699	8.301387	2.8812127
9.835814644229481	8.369321	2.892978
9.853406269671762	8.383287	2.8953907
9.870998127907646	8.37174	2.893396
9.888590219360985	8.417122	2.9012277
9.906182544455698	8.338245	2.887602
9.923775103615734	8.289931	2.879224
9.941367897265108	8.249587	2.8722095
9.958960925827878	8.309519	2.8826237
9.97655418972816	8.194336	2.862575
9.994147689390106	8.189415	2.8617153
10.011741425237934	8.16456	2.8573694
10.029335397695904	8.275508	2.8767183
10.04692960718833	8.301845	2.881292
10.06452405413958	8.3053255	2.8818963
10.082118738974064	8.310933	2.882869
10.099713662116246	8.265863	2.8750415
10.117308823990651	8.181362	2.8603082
10.134904225021844	8.170803	2.8584616
10.152499865634445	8.2247095	2.8678753
10.170095746253125	8.266934	2.8752277
10.18769186730261	8.266435	2.875141
10.205288229207675	8.251957	2.872622
10.222884832393145	8.191186	2.8620248
10.2404816772839	8.163596	2.8572009
10.258078764304868	8.181296	2.8602965
10.275676093881035	8.20291	2.8640723
10.293273666437438	8.229514	2.868713
10.310871482399158	8.191744	2.8621223
10.32846954219134	8.137289	2.8525934
10.346067846239173	8.058238	2.8387036
10.363666394967908	8.054385	2.8380249
10.38126518880283	8.085549	2.8435102
10.398864228169298	8.177454	2.8596249
10.416463513492713	8.203816	2.8642304
10.434063045198531	8.20115	2.863765
10.451662823712262	8.129934	2.851304
10.469262849459467	8.090026	2.8442972
10.486863122865758	7.8777847	2.806739
10.504463644356806	7.9216743	2.8145468
10.522064414358338	7.883822	2.8078144
10.539665433296118	7.9307547	2.8161595
10.557266701595987	7.90488	2.8115618
10.574868219683818	7.868251	2.8050404
10.592469987985552	7.8498096	2.8017511
10.610072006927185	7.7303295	2.780347
10.627674276934751	7.6001644	2.7568395
10.64527679843435	7.415671	2.723173
10.662879571852143	7.253184	2.6931736
10.680482597614331	7.229118	2.6887019
10.698085876147173	7.070257	2.6589956
10.715689407876988	6.976374	2.6412826
10.733293193230146	6.8635387	2.6198356
10.750897232633072	6.817329	2.6110015
10.76850152651225	6.7681556	2.601568
10.786106075294207	6.584434	2.5660152
10.803710879405534	6.452176	2.5401134
10.821315939272877	6.3855367	2.526962
10.83892125532294	6.312035	2.5123763
10.856526827982472	6.3526115	2.5204387
10.874132657678285	6.324035	2.5147634
10.891738744837243	6.3531394	2.5205436
10.909345089886271	6.3135257	2.512673
10.926951693252343	6.2323194	2.4964614
10.944558555362494	6.129144	2.4757109
10.96216567664381	6.0524635	2.4601755
10.979773057523436	6.032002	2.4560134
10.997380698428573	5.9368596	2.436567
11.014988599786477	5.8163166	2.411704
11.032596762024461	5.726639	2.3930397
11.050205185569892	5.678132	2.382883
11.067813870850198	5.6301246	2.3727884
11.085422818292859	5.5832233	2.3628845
11.10303202832541	5.4944415	2.3440225
11.120641501375454	5.457831	2.3362
11.138251237870636	5.3428597	2.3114626
11.155861238238671	5.2738833	2.2964938
11.173471502907317	5.166855	2.2730718
11.191082032304402	5.1376305	2.2666342
11.208692826857805	5.081543	2.2542279
11.226303886995465	5.027321	2.242169
11.243915213145371	4.938716	2.2223222
11.261526805735578	4.919231	2.217934
11.279138665194196	4.9219356	2.2185435
11.296750791949393	4.8925714	2.2119157
11.314363186429393	4.832981	2.1984043
11.331975849062479	4.778282	2.185928
11.34958878027699	4.689452	2.1655142
11.36720198050133	4.6530724	2.157098
11.384815450163948	4.5917025	2.1428258
11.402429189693366	4.57612	2.1391866
11.420043199518153	4.50449	2.1223783
11.437657480066942	63.429104	7.964239
11.455272031768422	85.13495	9.22686
11.472886855051353	107.55312	10.370782
11.490501950344528	99.195786	9.959708
11.508117318076819	84.560295	9.195667
11.52573295867715	45.94798	6.778494
11.543348872574514	4.212509	2.0524397
11.560965060197946	4.1088643	2.0270333
11.57858152197655	4.0274296	2.0068457
11.59619825833949	3.964281	1.9910502
11.613815269715985	3.9741707	1.9935322
11.631432556535323	38.46726	6.202198
11.649050119226837	83.02768	9.111953
11.666667958219929	93.43766	9.666316
11.68428607394406	107.712555	10.378466
11.701904466828756	82.527954	9.08449
11.719523137303586	65.34512	8.083633
11.737142085798196	4.5746713	2.138848
11.754761312742286	3.6929088	1.9216943
11.772380818565619	3.6681037	1.9152294
11.790000603698015	3.6589696	1.9128433
11.80762066856935	3.590896	1.8949659
11.825241013609572	3.5084157	1.8730766
11.842861639248683	3.453452	1.8583466
11.860482545916748	3.4693105	1.8626086
11.878103734043883	3.521151	1.8764731
11.895725204060282	3.5227149	1.8768897
11.91334695639619	3.4949126	1.8694686
11.930968991481919	3.4164753	1.848371
11.948591309747824	3.3572233	1.8322726
11.966213911624347	3.2865868	1.8128946
11.98383679754198	3.2821681	1.8116755
12.001459967931268	3.2339895	1.7983296
12.019083423222835	3.2252862	1.7959082
12.036707163847352	3.2120037	1.7922064
12.05433119023556	3.2394412	1.7998447
12.071955502818259	3.2068498	1.7907679
12.089580102026313	3.1633446	1.7785794
12.107204988290643	3.1258838	1.7680169
12.12483016204224	3.1046991	1.7620157
12.142455623712152	3.115834	1.7651725
12.16008137373149	3.1393788	1.7718292
12.177707412531431	3.1456578	1.7736002
12.19533374054321	3.123167	1.7672484
12.212960358198126	3.0651019	1.7507433
12.230587265927545	3.0212643	1.7381785
12.248214464162889	3.0047605	1.7334245
12.265841953335649	3.0462825	1.7453603
12.283469733877375	3.0634599	1.7502742
12.301097806219685	3.017267	1.7370282
12.31872617079425	2.977122	1.7254338
12.336354828032825	2.945007	1.7161022
12.353983778367205	2.9330993	1.7126293
12.371613022229262	2.914013	1.707048
12.389242560050928	2.9024265	1.703651
12.406872392264201	2.9266393	1.7107424
12.424502519301143	2.9307988	1.7119576
12.442132941593874	2.9125373	1.7066158
12.459763659574586	2.8682454	1.6935894
12.477394673675532	2.8325555	1.6830198
12.49502598432903	2.8364112	1.6841649
12.51265759196746	2.848337	1.6877017
12.530289497023267	2.81464	1.677689
12.547921699928967	2.808809	1.6759502
12.565554201117134	2.7890813	1.6700543
12.583187001020404	2.7544115	1.659642
12.600820100071486	2.7154806	1.6478715
12.618453498703152	2.7470806	1.657432
12.636087197348235	2.7885487	1.6698948
12.65372119643964	2.8071594	1.675458
12.671355496410326	2.8146725	1.6776986
12.68899009769333	2.7994864	1.6731666
12.706625000721749	2.8383808	1.6847495
12.724260205928752	2.89706	1.7020751
12.741895713747551	2.9517207	1.7180573
12.759531524611454	3.004916	1.7334694
12.777167638953818	2.9937522	1.7302463
12.794804057208072	2.9964957	1.7310389
12.812440779807702	2.9881833	1.7286363
12.830077807186271	3.1745036	1.7817136
12.847715139777405	3.2293103	1.7970282
12.865352778014795	3.502001	1.8713634
12.882990722332197	3.6028364	1.8981138
12.90062897316344	3.6987386	1.9232105
12.918267530942412	3.7615395	1.9394689
12.935906396103071	3.6332684	1.9061134
12.953545569079449	3.7738228	1.9426329
12.971185050305628	3.5337527	1.8798279
12.988824840215775	3.5484352	1.8837291
13.006464939244115	3.570771	1.8896483
13.024105347824943	3.469826	1.8627468
13.041746066392617	3.5436707	1.8824639
13.05938709538157	3.3303819	1.8249334
13.077028435226296	3.3662798	1.8347424
13.094670086361363	3.3186293	1.8217106
13.112312049221401	3.2023904	1.7895224
13.129954324241112	3.0958004	1.7594887
13.147596911855258	2.9086354	1.7054722
13.165239812498685	2.8875487	1.6992788
13.182883026606293	2.8250923	1.680801
13.200526554613058	2.734604	1.6536638
13.218170396954017	2.701674	1.643677
13.235814554064284	2.6958706	1.6419107
13.253459026379034	2.7029243	1.6440573
13.271103814333523	2.6921587	1.6407799
13.288748918363058	2.6523852	1.6286145
13.306394338903031	2.650028	1.6278907
13.32404007638889	2.6445723	1.6262141
13.341686131256164	2.6759088	1.6358205
13.359332503940449	2.687753	1.6394368
13.376979194877402	2.6813984	1.6374975
13.394626204502751	2.7194102	1.6490635
13.412273533252307	2.744438	1.6566346
13.429921181561937	2.7223682	1.64996
13.447569149867581	2.7279963	1.6516647
13.465217438605247	2.7206924	1.6494522
13.482866048211022	2.7193983	1.6490598
13.500514979121052	2.7139149	1.6473964
13.518164231771568	2.6791103	1.6367987
13.535813806598844	2.6235394	1.6197344
13.553463704039254	2.6188996	1.6183014
13.571113924529229	2.6408803	1.6250786
13.588764468505275	2.6801867	1.6371276
13.606415336403956	2.7164314	1.64816
13.624066528661917	2.7414756	1.6557401
13.641718045715882	2.795445	1.6719584
13.659369888002635	2.8451712	1.6867635
13.67702205595903	2.9050777	1.7044288
13.694674550021993	2.9577084	1.7197989
13.712327370628532	3.0084095	1.7344767
13.729980518215713	3.114505	1.764796
13.747633993220681	3.2694504	1.8081622
13.765287796080647	3.3050838	1.8179889
13.7829419272329	3.3522925	1.8309267
13.800596387114801	3.3334947	1.825786
13.818251176163775	3.3098576	1.8193014
13.835906294817324	3.3415704	1.8279963
13.853561743513023	3.3870325	1.8403893
13.871217522688525	3.4458685	1.8563051
13.888873632781538	3.4399421	1.8547081
13.906530074229858	3.4551036	1.8587909
13.92418684747135	3.4871612	1.8673942
13.941843952943948	3.5143979	1.8746728
13.959501391085665	3.5069137	1.8726755
13.977159162334578	3.4203782	1.8494265
13.994817267128846	3.355085	1.8316891
14.012475705906693	3.2593312	1.8053617
14.030134479106424	3.1837025	1.7842933
14.047793587166414	3.093912	1.7589519
14.065453030525108	3.0348337	1.7420774
14.083112809621026	3.0183966	1.7373533
14.100772924892766	3.0003653	1.7321563
14.118433376778997	2.9443834	1.7159206
14.136094165718458	2.8421001	1.6858529
14.153755292149969	2.7294762	1.6521126
14.171416756512416	2.6483495	1.627375
14.189078559244768	2.5766783	1.6052035
14.20674070078606	2.5360606	1.5925014
14.224403181575408	2.4887269	1.57757
14.242066002051999	2.4740207	1.572902
14.259729162655093	2.444781	1.5635796
14.277392663824022	2.463237	1.5694703
14.295056505998208	2.4337633	1.5600523
14.312720689617128	2.44459	1.5635185
14.330385215120348	2.4273124	1.5579834
14.348050082947497	2.4634924	1.5695517
14.3657152935383	2.4410253	1.562378
14.383380847332528	2.422521	1.556445
14.401046744770051	2.3939672	1.547245
14.418712986290798	2.3808548	1.5430019
14.436379572334793	2.3919072	1.5465792
14.454046503342123	2.3804975	1.5428861
14.471713779752946	2.3725204	1.5402988
14.489381402007504	2.3862686	1.5447552
14.507049370546113	2.3619995	1.5368798
14.524717685809168	2.362425	1.5370183
14.542386348237134	2.3777807	1.5420054
14.560055358270553	2.4135513	1.5535609
14.577724716350051	2.4509666	1.5655563
14.595394422916325	2.432538	1.5596596
14.61306447841015	2.428987	1.5585208
14.63073488327237	2.4169948	1.5546687
14.648405637943917	2.4783545	1.5742791
14.6660767428658	2.4933171	1.5790241
14.683748198479094	2.4950547	1.5795742
14.701420005224954	2.4964063	1.580002
14.719092163544628	2.5510254	1.597193
14.73676467387942	2.5917559	1.6098931
14.754437536670727	2.6478345	1.6272168
14.772110752360014	2.663784	1.6321104
14.78978432138882	2.667224	1.6331638
14.807458244198777	2.6412704	1.6251986
14.82513252123159	2.6301098	1.6217613
14.842807152929028	2.661532	1.6314203
14.860482139732962	2.6722252	1.6346942
14.87815748208531	2.671184	1.6343757
14.8958331804281	2.712123	1.6468524
14.91350923520342	2.6995885	1.6430424
14.931185646853438	2.7052329	1.6447592
14.948862415820408	2.662969	1.6318606
14.966539542546656	2.667686	1.6333052
14.98421702747459	2.6559293	1.6297022
15.001894871046696	2.6469526	1.6269459
15.019573073705542	2.6242235	1.6199455
15.037251635893766	2.6035452	1.6135505
15.054930558054092	2.642146	1.625468
15.072609840629323	2.6985278	1.6427196
15.090289484062351	2.8457448	1.6869335
15.107969488796124	3.1480756	1.7742817
15.125649855273691	3.5545113	1.8853412
15.14333058393817	4.0826516	2.0205572
15.161011675232768	5.027574	2.2422252
15.17869312960076	6.373984	2.524675
15.196374947485506	8.145363	2.8540082
15.214057129330447	11.089898	3.33015
15.231739675579114	15.755756	3.9693522
15.249422586675102	20.797976	4.5604796
15.267105863062092	24.03725	4.90278
15.284789505183847	24.399408	4.9395757
15.302473513484218	22.490768	4.742443
15.320157888407127	19.013525	4.3604503
15.337842630396578	14.901879	3.8602953
15.355527739896656	11.629601	3.41022
15.37321321735153	9.023946	3.0039883
15.39089906320545	6.547608	2.5588293
15.408585277902748	4.874037	2.2077222
15.42627186188783	3.729651	1.9312304
15.443958815605198	3.218789	1.7940984
15.461646139499424	2.9500608	1.7175741
15.479333834015168	2.8196962	1.679195
15.497021899597165	2.771883	1.6648973
15.514710336690234	2.7082243	1.6456684
15.53239914573928	2.658132	1.6303779
15.550088327189297	2.5833392	1.6072769
15.567777881485336	2.5537746	1.5980533
15.58546780907256	2.519275	1.5872225
15.6031581103962	2.4855134	1.5765511
15.620848785901568	2.4527094	1.5661129
15.638539836034063	2.4309075	1.5591367
15.656231261239173	2.4458265	1.5639138
15.673923061962451	2.4214475	1.5561001
15.691615238649552	2.3886817	1.545536
15.709307791746202	2.3576748	1.5354722
15.727000721698221	2.3831153	1.5437342
15.744694028951498	2.4138358	1.5536524
15.76238771395202	2.3749785	1.5410966
15.780081777145844	2.347696	1.5322193
15.797776218979125	2.3168871	1.5221324
15.815471039898094	2.352249	1.5337043
15.833166240349064	2.3896914	1.5458627
15.850861820778437	2.4107249	1.5526509
15.868557781632699	2.430581	1.5590321
15.886254123358412	2.4187772	1.5552418
15.903950846402232	2.3694642	1.5393064
15.921647951210897	2.3345728	1.5279309
15.939345438231225	2.3444514	1.5311601
15.957043307910133	2.3360775	1.5284232
15.974741560694602	2.343535	1.5308609
15.992440197031714	2.3514965	1.533459
16.01013921736862	2.3550782	1.5346264
16.02783862215259	2.3781059	1.5421108
16.045538411830933	2.3761785	1.5414858
16.06323858685107	2.3773892	1.5418785
16.080939147660512	2.411036	1.5527511
16.09864009470684	2.4078956	1.5517396
16.11634142843774	2.4269307	1.557861
16.134043149300954	2.413262	1.5534678
16.15174525774433	2.3839781	1.5440136
16.169447754215817	2.375105	1.5411376
16.18715063916342	2.388526	1.5454856
16.204853913035244	2.4421015	1.5627224
16.222557576279478	2.4667344	1.570584
16.240261629344403	22.477835	4.7410793
16.257966072678386	43.011654	6.558327
16.275670906729868	38.126556	6.1746707
16.293376131947387	2.544908	1.5952768
16.31108174877957	2.5456295	1.5955029
16.328787757675133	2.5554574	1.5985798
16.34649415908287	2.5832412	1.6072465
16.364200953451657	2.616445	1.6175429
16.38190814123048	2.626326	1.6205944
16.39961572286839	2.6621146	1.6315988
16.41732369881455	2.7013984	1.6435931
16.43503206951817	2.730832	1.6525229
16.45274083542859	2.7140193	1.647428
16.47044999699522	2.6928713	1.640997
16.488159554667558	2.756458	1.6602584
16.505869508895184	2.825077	1.6807965
16.523579860127786	2.887747	1.6993372
16.541290608815117	2.9375987	1.7139424
16.559001755407035	2.9725332	1.7241036
16.57671330035348	3.0325258	1.7414149
16.59442524410448	3.0730202	1.7530032
16.61213758711015	3.122677	1.7671099
16.629850329820705	3.2109454	1.7919111
16.647563472686436	3.3333683	1.8257514
16.665277016157724	3.3757458	1.8373203
16.682990960685053	3.4217389	1.8497943
16.70070530671898	3.4228213	1.8500868
16.718420054710155	3.4670231	1.8619944
16.736135205109335	3.5550852	1.8854934
16.753850758367335	3.608639	1.8996418
16.771566714935087	3.632899	1.9060166
16.789283075263597	3.6817865	1.9187982
16.80699983980398	3.7219844	1.9292445
16.82471700900741	3.812078	1.9524543
16.84243458332518	3.9097483	1.9773084
16.860152563208665	3.9725702	1.9931308
16.87787094910932	4.0171223	2.004276
16.89558974147871	4.059533	2.0148282
16.913308940768466	4.161933	2.0400815
16.931028547430333	4.2341766	2.0577116
16.94874856191613	4.297485	2.0730376
16.966468984677785	4.344299	2.0842981
16.98418981616729	4.3638306	2.0889783
17.00191105683676	4.3895454	2.0951242
17.019632707138374	4.4297013	2.1046855
17.03735476752442	4.447253	2.1088512
17.05507723844728	4.4914217	2.1192975
17.072800120359403	4.552314	2.1336153
17.090523413713353	4.598611	2.144437
17.108247118961785	4.581402	2.140421
17.125971236557437	4.5678587	2.137255
17.143695766953133	4.589682	2.1423542
17.161420710601806	4.629872	2.1517136
17.179146067956477	4.6715193	2.1613698
17.19687183947025	4.70368	2.168797
17.21459802559634	4.733945	2.1757631
17.232324626788028	4.70637	2.169417
17.25005164349871	4.628241	2.1513348
17.267779076181863	4.618487	2.1490664
17.285506925291074	4.6190543	2.1491985
17.30323519127999	4.636341	2.1532164
17.320963874602384	4.6350713	2.1529217
17.33869297571211	4.5626297	2.1360314
17.356422495063114	4.5224457	2.1266043
17.37415243310944	4.4868956	2.1182294
17.391882790305218	4.5006323	2.1214693
17.40961356710468	4.5302916	2.1284482
17.42734476396215	4.534683	2.1294796
17.445076381332044	4.5364237	2.1298883
17.462808419668868	4.6218023	2.1498377
17.48054087942723	4.753548	2.1802633
17.498273761061835	5.030257	2.2428236
17.51600706502747	5.4964366	2.344448
17.533740791779024	6.191567	2.488286
17.551474941771485	7.6206546	2.7605534
17.56920951545993	8.676646	2.9456148
17.586944513299528	10.9804125	3.3136706
17.60467993574556	12.651696	3.5569222
17.622415783253373	14.409224	3.7959483
17.64015205627843	15.831637	3.978899
17.657888755276293	16.999767	4.1230774
17.675625880702604	17.446005	4.1768413
17.69336343301311	17.292795	4.1584606
17.71110141266366	16.448593	4.0556865
17.728839820110178	15.483196	3.9348693
17.746578655808705	14.554373	3.8150194
17.764317920215372	13.032796	3.6100965
17.7820576137864	11.501531	3.3913906
17.79979773697811	9.476955	3.0784664
17.81753829024692	7.5411973	2.746124
17.835279274049356	5.86324	2.4214127
17.85302068884201	4.833745	2.198578
17.870762535081607	4.212848	2.0525224
17.888504813224934	3.904981	1.9761025
17.90624752372891	3.701221	1.9238558
17.923990667050536	3.5590668	1.8865489
17.941734243646895	3.4688184	1.8624765
17.959478253975185	3.4250937	1.8507009
17.9772226984927	3.4134238	1.8475454
17.994967577656833	3.4008222	1.8441318
18.01271289192506	3.3528838	1.8310882
18.030458641754965	3.3144639	1.8205669
18.04820482760425	3.3292594	1.8246258
18.06595144993067	3.3693333	1.8355744
18.083698509192125	3.3096426	1.8192424
18.101446005846576	3.2195587	1.7943128
18.119193940352105	3.1723967	1.7811223
18.136942313166887	3.162339	1.7782966
18.1546911247492	3.1530967	1.7756962
18.1724403755574	3.1103442	1.7636168
18.19019006604997	3.1058981	1.7623558
18.207940196685467	3.1099715	1.7635112
18.225690767922575	3.1420927	1.7725949
18.243441780220046	3.113801	1.7645966
18.261193234036764	3.104226	1.7618815
18.278945129831676	3.076958	1.754126
18.29669746806386	3.092398	1.7585216
18.314450249192483	3.0552218	1.7479193
18.3322034736768	3.0463967	1.745393
18.349957141976184	3.001447	1.7324685
18.3677112545501	3.0009086	1.732313
18.385465811858108	3.0302513	1.7407616
18.403220814359884	3.088523	1.7574193
18.420976262515172	3.121604	1.7668061
18.43873215678387	3.1639168	1.7787403
18.456488497625923	3.256188	1.804491
18.474245285501407	3.3411043	1.8278688
18.492002520870486	3.3467264	1.829406
18.50976020419343	3.3631015	1.8338761
18.527518335930615	3.6087213	1.8996634
18.545276916542516	4.225166	2.0555208
18.563035946489688	4.373695	2.0913382
18.580795426232832	4.81049	2.1932828
18.598555356232698	4.685541	2.164611
18.616315736950185	5.035852	2.2440703
18.63407656884626	4.7170897	2.1718862
18.65183785238201	4.8974986	2.2130294
18.669599588018617	4.625485	2.1506941
18.68736177621737	4.621774	2.1498313
18.705124417439652	4.5829782	2.1407893
18.72288751214696	4.3999095	2.0975962
18.740651060800886	4.5410275	2.1309686
18.758415063863115	4.3184166	2.07808
18.77617952179546	4.5177593	2.125502
18.793944435059814	4.259112	2.0637615
18.811709804118184	4.226154	2.055761
18.829475629432675	4.1253743	2.0311017
18.8472419114655	3.9218075	1.9803554
18.86500865067897	4.0531597	2.013246
18.88277584753551	3.7311904	1.931629
18.90054350249763	3.7737613	1.9426172
18.918311616027957	3.4677835	1.8621986
18.936080188589226	3.368952	1.8354706
18.953849220644265	3.0195255	1.7376782
18.971618712656007	2.8354821	1.683889
18.9893886650875	2.7901669	1.6703793
19.007159078401887	7.9560823	2.8206527
19.024929953062408	32.84437	5.731001
19.042701289532435	32.83724	5.7303786
19.060473088275405	25.409796	5.040813
19.07824534975489	2.6733015	1.6350234
19.096018074434568	2.626174	1.6205474
19.113791262778197	2.5811186	1.606586
19.13156491524966	2.547348	1.5960413
19.149339032312945	2.579801	1.6061759
19.167113614432136	2.58581	1.6080453
19.184888662071433	2.5759075	1.6049634
19.202664175695123	2.5165715	1.5863706
19.220440155767623	2.495818	1.5798157
19.238216602753447	2.5380878	1.5931377
19.2559935171172	2.5646772	1.6014609
19.27377089932361	2.5706484	1.6033242
19.291548749837514	2.5169065	1.5864761
19.309327069123835	2.4688516	1.571258
19.32710585764763	2.4368768	1.5610499
19.344885115874032	2.4646173	1.5699099
19.362664844268313	2.4866529	1.5769124
19.380445043295822	2.5155265	1.5860411
19.39822571342203	2.5385246	1.5932748
19.41600685511252	2.5664752	1.6020222
19.43378846883297	2.5049582	1.582706
19.451570555049173	2.4476457	1.5644953
19.469353114227037	2.3956292	1.5477821
19.48713614683254	2.3993745	1.5489914
19.50491965333182	2.405672	1.5510229
19.52270363419109	2.4410827	1.5623964
19.540488089876686	2.4775093	1.5740106
19.55827302085503	2.5244567	1.588854
19.576058427592674	2.5239422	1.588692
19.593844310556282	2.5242512	1.5887892
19.611630670212598	2.4916348	1.5784913
19.629417507028506	2.4848688	1.5763466
19.64720482147098	2.481014	1.5751235
19.6649926140071	2.5158155	1.5861323
19.682780885104084	2.5057874	1.5829679
19.70056963522921	2.4938846	1.5792037
19.718358864849908	2.4887984	1.5775926
19.7361485744337	2.4658391	1.570299
19.753938764448215	2.49044	1.5781127
19.771729435361202	2.4958112	1.5798137
19.789520587640506	2.4592156	1.5681887
19.807312221754092	2.4473972	1.5644159
19.825104338170043	2.4693882	1.5714288
19.842896937356517	2.4996586	1.5810308
19.860690019781824	2.4876268	1.5772213
19.87848358591436	2.5011294	1.5814959
19.896277636222635	2.4881816	1.5773971
19.914072171175278	2.4910977	1.5783212
19.931867191241015	2.4893022	1.5777522
19.94966269688869	2.525818	1.5892823
19.967458688587264	2.546328	1.5957218
19.985255166805807	2.5321753	1.591281
20.00305213201348	2.4787235	1.5743963
20.020849584679578	2.4308617	1.5591221
20.038647525273507	2.4370341	1.5611002
20.05644595426477	2.4616625	1.5689687
20.07424487212299	2.4723446	1.5723691
20.092044279317903	2.4530218	1.5662125
20.109844176319353	2.4274259	1.5580199
20.127644563597304	2.412041	1.5530747
20.145445441621817	2.4000468	1.5492084
20.16324681086307	2.4027462	1.5500795
20.181048671791373	2.4002814	1.5492842
20.198851024877122	2.4028933	1.5501269
20.216653870590836	2.3980672	1.5485694
20.234457209403146	2.384771	1.5442704
20.252261041784802	2.372847	1.5404048
20.270065368206662	2.3460703	1.5316887
20.287870189139685	2.3326137	1.5272896
20.305675505054968	2.3648386	1.5378032
20.323481316423702	2.3887105	1.5455453
20.341287623717207	2.3619616	1.5368675
20.359094427406884	2.3271947	1.5255146
20.376901727964288	2.3276584	1.5256666
20.39470952586107	2.340376	1.5298287
20.41251782156899	2.3565197	1.535096
20.430326615559935	2.3550313	1.5346111
20.448135908305886	2.359118	1.5359421
20.465945700278965	2.3432207	1.5307583
20.483755991951384	2.3382814	1.529144
20.50156678379548	2.3409493	1.5300161
20.519378076283708	2.3581052	1.5356123
20.537189869888635	2.3544714	1.5344287
20.55500216508294	2.3277702	1.5257032
20.572814962339415	2.310369	1.5199898
20.59062826213098	2.2893052	1.513045
20.60844206493066	2.287469	1.512438
20.626256371211593	2.2778697	1.5092613
20.644071181447032	2.254172	1.5013901
20.66188649611036	2.2802699	1.5100563
20.67970231567506	2.282538	1.510807
20.697518640614742	2.3047552	1.518142
20.715335471403122	2.2916179	1.5138091
20.73315280851404	2.2814016	1.5104309
20.750970652421447	2.279008	1.5096383
20.768789003599412	2.290967	1.513594
20.786607862522136	2.2996624	1.5164638
20.8044272296639	2.306231	1.518628
20.82224710549913	2.312607	1.5207258
20.84006749050237	2.3108647	1.5201528
20.857888385148268	3.8421957	1.960152
20.8757097899116	45.94738	6.7784495
20.893531705267254	64.76921	8.047932
20.911354131690224	83.78589	9.153463
20.92917706965566	69.046524	8.309423
20.94700051963877	50.13577	7.080662
20.96482448211493	29.421427	5.4241524
20.982648957559622	4.111227	2.027616
21.00047394644843	2.181237	1.4769012
21.01829944925707	2.1570482	1.4686893
21.036125466461375	2.179055	1.4761622
21.053951998537297	2.2203422	1.4900813
21.071779045960906	2.242514	1.4975026
21.089606609208378	2.233023	1.4943303
21.10743468875603	2.2123985	1.4874134
21.12526328508028	2.204659	1.4848094
21.143092398657675	2.2138524	1.487902
21.16092202996488	2.2246253	1.4915178
21.17875217947867	2.2323976	1.494121
21.19658284767596	2.223012	1.4909768
21.21441403503377	2.1943877	1.4813466
21.232245742029225	2.1729097	1.4740793
21.2500779691396	2.1547904	1.4679204
21.26791071684227	2.1633089	1.4708191
21.28574398561475	2.1883106	1.479294
21.30357777593465	2.1776967	1.475702
21.321412088279704	2.1405687	1.4630682
21.339246923127792	2.1564152	1.4684738
21.357082280956888	2.1604936	1.4698617
21.3749181622451	2.1505473	1.4664744
21.392754567470647	2.1153173	1.454413
21.41059149711187	2.0958672	1.447711
21.42842895164726	2.1047332	1.4507699
21.446266931555378	2.1159785	1.4546403
21.464105437314945	2.1312156	1.4598683
21.481944469404798	2.1068664	1.4515048
21.49978402830388	2.0942144	1.4471401
21.51762411449127	2.0684342	1.4382052
21.53546472844617	2.07095	1.4390795
21.553305870647876	2.0698838	1.4387091
21.571147541575865	2.074036	1.4401513
21.58898974170967	2.0957983	1.4476871
21.60683247152899	2.1046464	1.45074
21.62467573151363	2.0841346	1.4436532
21.642519522143523	2.05469	1.433419
21.660363843898722	2.0818958	1.4428777
21.6782086972594	2.0748825	1.4404453
21.696054082705864	2.068306	1.4381607
21.713900000718535	2.06691	1.4376752
21.73174645177795	2.0942438	1.4471502
21.749593436364794	2.0614288	1.4357677
21.767440954959845	2.036364	1.4270123
21.785289008044032	1.999484	1.4140311
21.803137596098388	2.0023687	1.4150507
21.820986719604086	2.0064564	1.4164944
21.838836379042412	1.9933947	1.4118763
21.85668657489478	2.012322	1.4185634
21.87453730764273	2.0106046	1.4179579
21.892388577767914	2.0294533	1.4245888
21.91024038575213	2.0396109	1.4281495
21.928092732077285	2.0437458	1.4295963
21.945945617225426	2.0250225	1.4230329
21.963799041678694	1.9910476	1.4110448
21.981653005919398	31.29572	5.594258
21.999507510429943	78.11291	8.838151
22.01736255569286	73.07603	8.548451
22.035218142190818	4.199229	2.049202
22.05307427040661	2.0310779	1.4251589
22.07093094082315	2.0173564	1.4203367
22.088788153923474	2.0041518	1.4156806
22.106645910190746	1.9692252	1.4032909
22.12450421010827	1.9533646	1.3976282
22.142363054159464	1.9283366	1.3886456
22.16022244282787	1.9541895	1.3979234
22.178082376597164	1.9979441	1.4134865
22.195942855951145	2.022785	1.4222465
22.213803881373742	1.9941818	1.412155
22.231665453349002	1.9283819	1.3886619
22.24952757236111	1.9214731	1.3861722
22.26739023889438	1.9121916	1.3828201
22.28525345343323	1.9218414	1.386305
22.30311721646225	1.9359279	1.3913763
22.320981528466113	1.9663985	1.4022833
22.33884638992964	1.9653207	1.401899
22.356711801337788	1.9456333	1.3948596
22.37457776317561	1.938392	1.3922615
22.392444275928337	1.926131	1.3878512
22.410311340081282	1.9048167	1.380151
22.428178956119904	1.9232457	1.3868114
22.446047124529805	1.9575031	1.3991079
22.46391584579669	1.974495	1.4051672
22.481785120406414	1.981395	1.4076203
22.49965494884496	1.9858711	1.4092094
22.51752533159841	1.9701964	1.4036368
22.53539626915302	1.9633708	1.4012034
22.553267761995137	1.9592903	1.3997465
22.571139810611264	1.955866	1.3985227
22.589012415488025	1.9369775	1.3917534
22.60688557711216	1.8953799	1.3767279
22.624759295970566	1.8973868	1.3774567
22.642633572550263	1.9215436	1.3861976
22.660508407338362	1.9459321	1.3949667
22.67838380082217	1.9811002	1.4075156
22.696259753489077	1.9822505	1.4079242
22.714136265826614	1.9485844	1.395917
22.73201333832246	1.9110979	1.3824246
22.74989097146439	1.9341016	1.3907198
22.76776916574035	1.9333332	1.3904436
22.785647921638393	1.9151747	1.3838984
22.803527239646712	1.8845731	1.3727975
22.82140712025363	1.8946359	1.3764577
22.839287563947593	1.910761	1.3823028
22.85716857121719	1.9695749	1.4034154
22.875050142551135	1.9762585	1.4057946
22.892932278438277	1.9194832	1.3854542
22.910814979367604	1.9069494	1.3809234
22.928698245828222	1.8742645	1.3690377
22.946582078309387	1.8705324	1.3676741
22.96446647730047	1.843274	1.3576722
22.98235144329098	1.8604465	1.3639818
23.000236976770562	1.8232867	1.3502914
23.018123078229	1.8308417	1.353086
23.03600974815619	1.868997	1.3671126
23.053896987042194	1.908857	1.3816139
23.071784795377173	1.8924192	1.3756523
23.08967317365145	1.85104	1.3605293
23.10756212235546	1.824755	1.350835
23.125451641979787	1.828834	1.3523439
23.143341733015134	1.8837601	1.3725014
23.161232395952357	1.9210898	1.3860338
23.179123631282426	1.9234779	1.3868951
23.197015439496468	1.9129976	1.3831116
23.214907821085717	1.9212081	1.3860766
23.23280077654157	1.9342457	1.3907716
23.250694306355538	1.9587286	1.3995458
23.268588411019277	1.9222232	1.3864427
23.28648309102458	1.9050303	1.3802283
23.304378346863356	1.918488	1.385095
23.322274179027676	1.9644269	1.4015801
23.340170588009723	1.9990152	1.4138653
23.358067574301852	1.9856951	1.4091469
23.37596513839651	1.9539183	1.3978263
23.39386328078629	1.9184681	1.3850877
23.411762001963947	1.9162413	1.3842837
23.429661302422353	1.9356312	1.3912696
23.4475611826545	1.9560606	1.3985924
23.46546164315356	1.9726393	1.4045068
23.48336268441279	1.9646099	1.4016454
23.501264306925638	1.9182935	1.3850247
23.51916651118564	1.9106371	1.3822579
23.537069297686497	1.8949054	1.3765557
23.554972666922037	1.9107926	1.3823142
23.57287661938623	1.9018079	1.3790605
23.59078115557318	1.8841614	1.3726475
23.608686275977128	1.8906429	1.3750066
23.62659198109246	1.9087032	1.3815583
23.6444982714137	1.9285966	1.3887392
23.66240514743549	1.906192	1.3806491
23.68031260965263	1.8512913	1.3606217
23.698220658560068	1.8565446	1.3625507
23.716129294652845	1.8744023	1.3690882
23.7340385184262	1.9075902	1.3811554
23.75194833037546	1.8731332	1.3686246
23.769858730996123	1.8656365	1.365883
23.78776972078382	1.9062194	1.380659
23.80568130023431	1.9370714	1.3917872
23.823593469843495	1.9322025	1.3900368
23.841506230107424	1.9321587	1.3900211
23.859419581522275	1.8901719	1.3748353
23.87733352458438	1.8816153	1.3717198
23.89524805979019	1.8236561	1.3504281
23.913163187636318	1.8372089	1.3554368
23.931078908619508	1.8550658	1.362008
23.948995223236633	1.9041939	1.3799254
23.966912131984735	1.9330509	1.390342
23.98482963536096	1.9962388	1.4128832
24.002747733862616	2.0450466	1.4300512
24.020666427987155	2.0470896	1.4307654
24.038585718232156	2.0092509	1.4174805
24.056505605095353	1.9834255	1.4083414
24.074426089074617	2.0392787	1.4280332
24.092347170667946	2.031366	1.4252601
24.110268850373515	2.0550616	1.4335486
24.128191128689586	2.0650342	1.4370227
24.146114006114626	2.0902574	1.4457723
24.164037483147187	2.0620515	1.4359845
24.181961560286005	2.0264149	1.423522
24.199886238029926	2.026955	1.4237117
24.21781151687797	2.059026	1.4349307
24.235737397329274	2.079925	1.4421946
24.253663879883135	2.056691	1.4341167
24.271590965038975	2.0407012	1.4285312
24.289518653296376	2.0134635	1.4189657
24.30744694515505	2.0278158	1.424014
24.32537584111486	2.0248928	1.4229873
24.34330534167581	2.050613	1.4319961
24.361235447338046	2.0367384	1.4271435
24.379166158601876	1.9943626	1.412219
24.39709747596772	1.9906172	1.4108924
24.41502939993615	1.985207	1.4089737
24.432961931007917	1.9728891	1.4045957
24.450895069683856	2.0129337	1.418779
24.468828816465	2.0054617	1.4161433
24.4867631718525	2.0113947	1.4182365
24.504698136347656	1.9973079	1.4132614
24.52263371045192	2.0111825	1.4181616
24.540569894666874	1.9791032	1.406806
24.558506689494266	1.9539218	1.3978275
24.57644409543597	1.9408456	1.3931423
24.594382112994012	1.9525259	1.3973281
24.61232074267057	1.9414475	1.3933583
24.630259984967953	1.9147422	1.3837421
24.64819984038863	1.889489	1.3745868
24.66614030943522	1.8755497	1.3695071
24.684081392610462	1.8721182	1.3682537
24.702023090417274	1.8895717	1.3746169
24.7199654033587	1.9412818	1.3932989
24.737908331937927	1.9690032	1.4032117
24.755851876658305	1.9957867	1.4127232
24.773796038023324	2.0064504	1.4164923
24.79174081653661	2.0562754	1.4339719
24.809686212701962	2.0881948	1.4450588
24.827632227023294	2.1093152	1.4523481
24.8455788600047	2.1146119	1.4541705
24.8635261121504	2.0938118	1.447001
24.88147398396475	2.0914342	1.4461792
24.899422475952303	2.1209567	1.4563504
24.917371588617698	2.1562371	1.4684131
24.935321322465768	2.1695251	1.4729308
24.953271678001478	2.2579856	1.5026596
24.97122265572994	2.4552832	1.5669343
24.989174256156414	2.8130758	1.6772226
25.00712647978632	3.2099564	1.7916352
25.02507932712521	3.7823591	1.9448289
25.043032798678798	4.3276453	2.0802994
25.060986894952933	5.001028	2.2362978
25.078941616453637	5.7300596	2.3937542
25.096896963687055	6.6895714	2.5864205
25.114852937159508	7.8007936	2.7929902
25.132809537377444	8.229927	2.868785
25.150766764847468	8.21901	2.8668816
25.168724620076347	7.722286	2.7789001
25.186683103570985	6.706281	2.589649
25.204642215838426	5.5552545	2.3569586
25.222601957385894	4.228071	2.0562274
25.24056232872074	3.2665775	1.8073676
25.25852333035048	2.6483064	1.6273618
25.276484962782778	2.2976687	1.5158063
25.294447226525435	2.0961359	1.4478039
25.312410122086423	2.0268922	1.4236896
25.330373649973843	1.9586439	1.3995156
25.348337810695988	1.8949058	1.3765558
25.366302604761245	1.8930819	1.3758931
25.384268032678207	1.9098216	1.381963
25.40223409495558	1.8833586	1.3723551
25.420200792102257	1.8847034	1.372845
25.438168124627246	1.8669924	1.3663793
25.45613609303974	1.8172284	1.3480462
25.474104697849057	1.823559	1.3503922
25.492073939564698	1.8651057	1.3656888
25.510043818696285	1.8854812	1.3731283
25.528014335753614	1.9012153	1.3788457
25.54598549124664	1.8855577	1.3731561
25.56395728568544	1.803813	1.3430611
25.58192971958028	1.7814422	1.3347068
25.59990279344156	1.804558	1.3433384
25.617876507779833	1.8104696	1.345537
25.635850863105826	1.8202202	1.3491554
25.653825859930386	1.8537177	1.361513
25.671801498764548	1.8229845	1.3501794
25.68977778011949	1.822706	1.3500763
25.707754704506524	1.8157054	1.3474811
25.725732272437153	1.8966806	1.3772002
25.743710484423012	1.8954273	1.3767452
25.761689340975888	1.8938514	1.3761728
25.77966884260774	1.8530258	1.3612589
25.797648989830662	1.7947212	1.3396721
25.815629783156922	1.7447109	1.320875
25.83361122309895	1.7403127	1.3192091
25.85159331016929	1.7862567	1.3365091
25.869576044880695	1.8547317	1.3618853
25.887559427746034	1.8674785	1.3665571
25.90554345927836	1.8656301	1.3658807
25.92352813999086	1.8466307	1.3589079
25.94151347039689	1.826322	1.3514148
25.959499451009965	1.8148866	1.3471773
25.97748608234374	1.8241323	1.3506044
25.995473364912062	1.8296794	1.3526564
26.013461299228904	1.799857	1.3415875
26.03144988580839	1.7617224	1.3272989
26.04943912516483	1.7907523	1.33819
26.067429017812675	1.8490227	1.3597877
26.085419564266537	1.8706625	1.3677217
26.103410765041186	1.8528092	1.3611794
26.12140262065155	1.8422889	1.3573095
26.139395131612723	1.8124454	1.3462709
26.157388298439948	1.8187224	1.3486001
26.17538212164861	1.8019152	1.3423543
26.193376601754295	1.7895454	1.3377389
26.211371739272714	1.7853721	1.3361782
26.229367534719746	1.8264719	1.3514702
26.247363988611433	1.8232194	1.3502665
26.26536110146397	1.8093736	1.3451296
26.283358873793727	1.790425	1.3380677
26.301357306117204	1.8193924	1.3488486
26.319356398951104	1.824772	1.3508412
26.33735615281224	1.8086683	1.3448673
26.35535656821762	1.7811791	1.3346082
26.373357645684404	1.8108443	1.3456762
26.39135938572991	1.8450339	1.3583202
26.409361788871614	1.8591814	1.363518
26.427364855627165	1.8014021	1.3421632
26.445368586514352	1.7806835	1.3344226
26.46337298205115	1.8065572	1.3440822
26.48137804275568	1.7914661	1.3384566
26.499383769146217	1.7703993	1.3305635
26.517390161741215	1.7450114	1.3209888
26.53539722105928	1.783205	1.335367
26.553404947619182	1.8276505	1.3519063
26.571413341939856	1.8191978	1.3487763
26.589422404540397	1.7826897	1.3351741
26.60743213594006	1.7907827	1.3382013
26.62544253665827	1.8405695	1.3566759
26.64345360721459	1.8452332	1.3583937
26.66146534812879	1.8021455	1.3424401
26.679477759920758	1.7806835	1.3344226
26.69749084311057	1.8075391	1.3444475
26.71550459821847	1.8331201	1.3539276
26.733519025764842	1.8236294	1.3504182
26.751534126270258	1.8242301	1.3506407
26.769549900255434	1.8493884	1.3599222
26.787566348241267	1.8806996	1.371386
26.80558347074881	1.8700305	1.3674906
26.823601268299267	1.8479114	1.359379
26.841619741414036	1.8333006	1.3539943
26.85963889061465	1.8298974	1.352737
26.877658716422832	1.7887355	1.3374362
26.89567921936045	1.7759162	1.332635
26.913700399949544	1.7812686	1.3346417
26.93172225871233	1.8017461	1.3422914
26.949744796171174	1.8032585	1.3428546
26.967768012848605	1.7343806	1.3169589
26.98579190926733	1.6980463	1.303091
27.003816485950225	1.746036	1.3213766
27.021841743420318	1.7750119	1.3322958
27.039867682200814	1.7915573	1.3384907
27.057894302815072	1.7799451	1.3341459
27.07592160578664	1.7721794	1.3312323
27.0939495916392	1.7999381	1.3416177
27.111978260896635	1.8132441	1.3465675
27.13000761408296	1.8391837	1.356165
27.148037651722397	1.8296224	1.3526354
27.166068374339304	1.8631212	1.364962
27.184099782458215	1.8479681	1.3593999
27.20213187660384	1.7964355	1.3403118
27.22016465730105	1.7704437	1.3305802
27.23819812507487	1.7669729	1.3292754
27.256232280450533	1.770338	1.3305405
27.274267123953383	1.7584815	1.3260775
27.292302656108987	1.7517027	1.323519
27.31033887744306	1.7875372	1.3369881
27.32837578848146	1.8036314	1.3429935
27.34641338975026	1.7817065	1.3348057
27.364451681775673	1.7871783	1.3368539
27.382490665084074	1.7601057	1.3266897
27.400530340202046	1.8000458	1.3416579
27.41857070765629	1.8167149	1.3478557
27.436611767973726	1.809022	1.3449988
27.454653521681404	1.8064272	1.344034
27.472695969306564	1.8474581	1.3592123
27.490739111376627	1.8795813	1.3709782
27.508782948419153	1.8554947	1.3621655
27.526827480961902	1.8122702	1.3462058
27.54487270953279	1.804974	1.3434932
27.562918634659898	1.7916274	1.3385168
27.580965256871508	1.7748693	1.3322423
27.599012576696026	1.777572	1.3332561
27.617060594662068	1.8172606	1.3480581
27.63510931129842	1.7907296	1.3381815
27.65315872713401	1.7627766	1.327696
27.67120884269797	1.7490752	1.3225261
27.68925965851958	1.7489517	1.3224794
27.707311175128307	1.7296183	1.3151495
27.725363393053787	1.7094266	1.3074504
27.74341631282583	1.7317653	1.3159655
27.7614699349744	1.8278953	1.3519968
27.77952426002968	2.0933347	1.4468361
27.797579288521973	2.1016097	1.449693
27.815635020981784	2.3972864	1.5483173
27.83369145793979	2.441277	1.5624586
27.85174859992682	2.3468082	1.5319296
27.869806447473923	2.246711	1.4989033
27.887865001112267	1.9999993	1.4142133
27.905924261373233	1.8952014	1.3766632
27.92398422878836	1.8755187	1.3694957
27.94204490388936	1.8998226	1.3783405
27.96010628720813	1.9344529	1.3908461
27.978168379276728	1.9136695	1.3833544
27.9962311806274	1.8297627	1.3526872
28.014294691792568	1.8211151	1.349487
28.0323589133048	1.8870538	1.3737007
28.050423845696887	1.8812276	1.3715785
28.068489489501758	1.8560156	1.3623567
28.086555845252523	1.8248681	1.3508768
28.104622913482487	1.8249815	1.3509188
28.122690694725115	1.8249803	1.3509183
28.14075918951405	1.835587	1.3548384
28.15882839838312	1.8508095	1.3604445
28.176898321866304	1.8946722	1.3764709
28.1949689604978	1.9406987	1.3930897
28.213040314811945	1.9094979	1.3818458
28.23111238534327	1.8385708	1.3559391
28.249185172626493	1.8196418	1.348941
28.267258677196473	1.8174547	1.3481301
28.285332899588294	1.8497254	1.3600461
28.303407840337172	1.8762115	1.3697487
28.321483499978545	1.9182996	1.3850269
28.33955987904799	1.9580988	1.3993208
28.357636978081285	1.9688538	1.4031585
28.37571479761439	1.9531876	1.3975649
28.393793338183425	1.9246163	1.3873054
28.41187260032469	1.980251	1.4072139
28.429952584574686	2.0252478	1.423112
28.448033291470065	2.0420773	1.4290127
28.46611472154769	2.0373907	1.427372
28.484196875344566	2.0066004	1.4165453
28.502279753397914	2.0128856	1.418762
28.52036335624511	2.0041752	1.415689
28.538447684423716	1.947252	1.3954397
28.556532738471482	1.9560512	1.398589
28.574618518926325	1.9873853	1.4097465
28.59270502632635	1.9735751	1.4048399
28.61079226120985	1.9606507	1.4002323
28.628880224115274	2.01189	1.418411
28.646968915581287	2.0379846	1.42758
28.66505833614671	2.0407865	1.428561
28.68314848635055	2.0636187	1.4365301
28.701239366732004	2.1347485	1.4610778
28.71933097783044	2.1481833	1.4656682
28.737423320185403	2.097508	1.4482776
28.75551639433665	2.1019251	1.4498018
28.773610200824074	2.1041129	1.450556
28.791704740187793	2.1325746	1.4603337
28.80980001296809	2.1465325	1.4651049
28.827896019705413	2.1516542	1.4668518
28.845992760940433	2.192175	1.4805995
28.86409023721397	2.259208	1.5030662
28.88218844906704	2.2410798	1.4970237
28.900287397040845	2.2456126	1.4985368
28.918387081676755	2.257532	1.5025085
28.936487503516343	2.2090902	1.4863008
28.954588663101365	2.1746316	1.4746633
28.97269056097374	2.2427583	1.4975841
28.990793197675597	2.3297365	1.5263474
29.00889657374923	2.341602	1.5302294
29.027000689737125	2.3806207	1.5429261
29.04510554618196	2.4212558	1.5560385
29.06321114362659	2.4464304	1.564107
29.08131748261405	2.4611433	1.5688031
29.099424563687567	2.435361	1.5605643
29.11753238739057	2.4486039	1.5648016
29.13564095426663	2.498545	1.5806786
29.15375026485954	2.5614877	1.6004648
29.171860319713275	2.579061	1.6059455
29.18997111937199	2.6060839	1.614337
29.20808266438002	2.7304165	1.6523972
29.226194955281898	2.8139641	1.6774875
29.244307992622335	2.8942723	1.7012562
29.26242177694624	2.919138	1.7085485
29.2805363087987	2.9453285	1.716196
29.29865158872498	2.9605577	1.7206271
29.316767617270557	2.9221523	1.7094305
29.334884394981064	2.8454292	1.68684
29.353001922402367	2.9273453	1.7109487
29.37112020008047	3.0978124	1.7600603
29.389239228561596	3.259546	1.8054212
29.407359008392152	3.3745117	1.8369844
29.42547954011872	3.583523	1.8930196
29.44360082428809	4.25412	2.0625517
29.46172286144722	5.3547134	2.3140254
29.479845652143283	6.80521	2.6086798
29.497969196923606	8.881464	2.9801786
29.516093496335728	11.549152	3.3984044
29.5342185509274	14.3797	3.7920575
29.55234436124651	16.788403	4.0973654
29.570470927841175	18.324127	4.280669
29.588598251259686	17.887156	4.229321
29.60672633205055	16.461456	4.057272
29.624855170762405	14.346614	3.7876923
29.642984767944146	11.785426	3.4329908
29.66111512414481	8.974119	2.9956834
29.67924623991366	6.6614304	2.5809746
29.697378115800138	5.101616	2.2586758
29.71551075235387	4.259693	2.0639024
29.733644150124675	3.8053665	1.9507349
29.751778309662576	3.5229847	1.8769616
29.769913231517766	3.3334107	1.8257631
29.78804891624066	3.269446	1.8081609
29.806185364381818	3.235084	1.7986339
29.82432257649206	3.2725892	1.8090299
29.842460553122333	3.3459826	1.8292027
29.86059929482382	3.3771615	1.8377055
29.878738802147872	3.3532398	1.8311853
29.896879075646048	3.249008	1.8025005
29.915020115870114	3.1743066	1.7816584
29.933161923371976	3.166921	1.7795845
29.951304498703777	3.1164284	1.7653409
29.969447842417857	3.123652	1.7673856
29.987591955066733	3.175379	1.7819593
30.005736837203123	3.1966383	1.7879145
30.023882489379943	3.2396333	1.7998981
30.04202891215028	3.288955	1.8135476
30.060176106067455	3.238902	1.799695
30.078324071684946	3.1200092	1.7663548
30.09647280955646	3.111154	1.7638464
30.114622320235863	3.1420121	1.7725722
30.132772604277257	3.1616213	1.7780949
30.1509236622349	3.1518784	1.7753531
30.16907549466328	3.0947149	1.7591802
30.18722810211705	3.063453	1.7502723
30.205381485151097	3.032292	1.7413477
30.22353564432045	3.045849	1.7452362
30.241690580180403	2.9718342	1.7239009
30.25984629328638	2.93262	1.7124895
30.278002784194037	2.9483538	1.7170771
30.296160053459246	2.9582658	1.7199609
30.314318101638033	2.9275658	1.7110131
30.332476929286646	2.918173	1.7082661
30.35063653696153	2.9144804	1.7071849
30.368796925219307	2.9625874	1.7212168
30.386958094616844	2.947659	1.7168748
30.40512004571115	2.9577847	1.7198211
30.423282779059463	2.9546938	1.7189223
30.441446295219233	2.9833076	1.7272254
30.459610594748067	2.9286337	1.7113252
30.47777567820382	2.8129246	1.6771775
30.495941546144504	2.7296374	1.6521615
30.51410819912835	2.731537	1.6527363
30.532275637713795	2.7234852	1.6502985
30.55044386245946	2.719713	1.6491553
30.56861287392416	2.7402363	1.655366
30.586782672666956	2.6992714	1.642946
30.604953259247047	2.6936517	1.6412348
30.623124634223885	2.7438915	1.6564696
30.641296798157075	2.7379138	1.6546643
30.659469751606462	2.7621133	1.6619607
30.677643495132074	2.7552624	1.6598983
30.695818029294152	2.7219868	1.6498445
30.713993354653116	2.7332797	1.6532633
30.73216947176962	2.687446	1.6393431
30.75034638120448	2.698535	1.6427218
30.768524083518756	2.7644503	1.6626636
30.786702579273673	2.7541888	1.6595749
30.80488186903069	2.7792575	1.6671106
30.82306195335144	2.8700354	1.6941179
30.841242832797782	3.1128936	1.7643394
30.85942450793176	3.489742	1.8680851
30.877606979315637	3.8098834	1.9518923
30.895790247511883	4.133613	2.033129
30.913974313083134	4.509938	2.1236615
30.932159176592283	4.755658	2.1807473
30.95034483860237	4.761006	2.181973
30.968531299676698	4.535318	2.1296287
30.98671856037873	4.2235055	2.055117
31.00490662127215	3.8659928	1.9662127
31.023095482920848	3.5073538	1.8727931
31.04128514588892	3.1718194	1.7809602
31.059475610740662	2.8317044	1.6827669
31.07766687804056	2.624736	1.6201037
31.09585894835335	2.5754435	1.6048188
31.11405182224393	2.539365	1.5935385
31.132245500277417	2.49173	1.5785215
31.15043998301914	2.4740772	1.57292
31.168635271034628	2.4628367	1.5693427
31.18683136488964	2.4512963	1.5656617
31.20502826515008	2.4519422	1.5658679
31.223225972382135	2.4274898	1.5580404
31.241424487152155	2.4350064	1.5604507
31.259623810026692	2.4917655	1.5785327
31.27782394157253	2.4887843	1.5775881
31.296024882356644	2.438288	1.5615019
31.314226632946237	2.3651721	1.5379117
31.332429193908684	2.3461506	1.5317149
31.350632565811598	2.4029076	1.5501314
31.368836749222787	2.479346	1.5745939
31.387041744710295	2.5325418	1.5913962
31.40524755284232	2.4084415	1.5519154
31.423454174187317	2.4023168	1.549941
31.441661609313922	2.4511285	1.565608
31.459869858791002	2.4741335	1.5729378
31.478078923187628	2.409404	1.5522255
31.496288803073064	2.3327065	1.52732
31.514499499016807	2.3092408	1.5196186
31.532711011588546	2.348033	1.5323292
31.550923341358178	2.3548777	1.534561
31.56913648889584	2.301315	1.5170085
31.587350454771844	2.3117442	1.5204421
31.605565239556732	2.308894	1.5195045
31.62378084382127	2.2662559	1.5054089
31.641997268136382	2.2953374	1.5150371
31.660214513073274	2.3361971	1.5284623
31.67843257920331	2.3542264	1.5343488
31.6966514670981	2.3320682	1.527111
31.71487117732944	2.3006003	1.516773
31.733091710469346	2.2592404	1.503077
31.751313067090052	2.3372076	1.5287929
31.769535247764008	2.398947	1.5488534
31.787758253063878	2.3192606	1.5229119
31.805982083562526	2.1873975	1.4789853
31.824206739833024	2.1770246	1.4754744
31.84243222244869	2.2342434	1.4947386
31.860658531983013	2.2629292	1.5043036
31.878885669009737	2.310565	1.5200542
31.897113634102784	2.370415	1.5396152
31.91534242783632	2.3297765	1.5263605
31.933572050784694	2.201853	1.4838642
31.951802503522508	2.1532857	1.4674078
31.970033786624548	2.1543329	1.4677646
31.988265900665834	2.1852953	1.4782745
32.006498846221575	2.192845	1.4808258
32.02473262386724	2.2328913	1.4942862
32.04296723417845	2.248069	1.4993563
32.0612026777311	2.1595206	1.4695307
32.07943895510129	2.157124	1.4687151
32.097676066865304	2.1669068	1.4720417
32.115914013599685	2.168777	1.4726768
32.13415279588115	2.1827574	1.4774158
32.152392414286666	2.2373931	1.4957918
32.1706328693934	2.2222083	1.4907073
32.18887416177875	2.1927319	1.4807876
32.20711629202032	2.1793516	1.4762627
32.225359260695924	2.159126	1.4693965
32.243603068383614	2.2033262	1.4843606
32.26184771566166	2.2766488	1.5088568
32.28009320310852	2.2698998	1.5066187
32.2983395313029	2.1646438	1.4712728
32.31658670082372	2.0748034	1.4404178
32.33483471225012	2.0404074	1.4284283
32.35308356616143	2.130107	1.4594886
32.371333263137245	2.1633973	1.4708492
32.38958380375734	2.2241948	1.4913734
32.407835188601744	2.2146509	1.4881703
32.42608741825067	2.1231444	1.4571013
32.444340493284585	2.0836017	1.4434687
32.46259441428416	2.0898187	1.4456205
32.48084918183028	2.1004379	1.4492887
32.49910479650405	2.0960112	1.4477607
32.51736125888683	2.0917504	1.4462885
32.53561856956014	2.096671	1.4479886
32.5538767291058	2.1014595	1.4496411
32.572135738105764	2.01958	1.4211192
32.59039559714228	1.9204798	1.3858137
32.608656306797776	1.8998405	1.378347
32.62691786765491	1.9183415	1.3850421
32.645180280296586	2.0169876	1.4202069
32.663443545305896	2.1413255	1.4633268
32.68170766326619	2.1352246	1.4612408
32.69997263476099	2.0426726	1.429221
32.7182384603741	1.940034	1.392851
32.7365051406895	1.937384	1.3918995
32.75477267629144	2.0015798	1.414772
32.77304106776434	1.959958	1.399985
32.79131031569289	1.9120913	1.3827839
32.809580420661966	1.9488956	1.3960285
32.827851383256714	1.9341362	1.3907323
32.84612320406245	1.8610305	1.364196
32.86439588366476	2.0166268	1.4200798
32.88266942264945	2.1305013	1.4596237
32.9009438216025	2.1149678	1.4542929
32.9192190811102	2.0111685	1.4181567
32.937495201758985	1.9447225	1.394533
32.95577218413556	1.9472377	1.3954346
32.974050028826866	2.005799	1.4162624
32.992328736420035	2.0462441	1.4304699
33.010608307502444	1.9913428	1.4111495
33.02888874266169	1.8629886	1.3649133
33.047170042485604	1.8451048	1.3583463
33.06545220756225	1.8341475	1.354307
33.083735238479896	1.8515562	1.360719
33.10201913582707	1.8357618	1.3549029
33.12030390019248	1.8129413	1.3464551
33.138589532165135	1.8412914	1.3569419
33.15687603233419	1.9327849	1.3902464
33.17516340128909	1.9484763	1.3958783
33.19345163961947	1.8813411	1.3716199
33.211740747915215	1.8337159	1.3541477
33.23003072676643	1.9657075	1.4020369
33.248321576763466	2.003586	1.4154809
33.266613298496885	1.9466165	1.395212
33.28490589255747	1.8655527	1.3658524
33.30319935953626	1.9974037	1.4132954
33.32149370002451	2.0836844	1.4434973
33.339788914613706	2.0935535	1.4469117
33.358085003895575	2.0065482	1.4165268
33.376381968462034	1.97299	1.4046316
33.39467980890529	2.008875	1.4173478
33.41297852581774	1.9284582	1.3886894
33.43127811979204	1.9790045	1.406771
33.44957859142105	1.9976157	1.4133704
33.467879941297866	1.9264878	1.3879797
33.486182170015844	1.90732	1.3810576
33.50448527816853	1.9647833	1.4017073
33.522789266349754	1.8972684	1.3774136
33.541094135153514	1.8658819	1.3659729
33.55939988517411	1.8974248	1.3774705
33.57770651700602	1.9490778	1.3960937
33.59601403124398	1.9629245	1.401044
33.61432242848296	1.9546564	1.3980902
33.632631709318154	1.9744287	1.4051436
33.650941874344994	1.8403968	1.3566122
33.66925292415916	1.8134918	1.3466595
33.68756485935654	1.8633552	1.3650477
33.70587768053328	1.9347677	1.3909593
33.724191388285746	1.8999714	1.3783945
33.74250598321054	1.946821	1.3952852
33.760821465904506	1.9869686	1.4095987
33.77913783696474	2.0089107	1.4173604
33.79745509698852	1.9579803	1.3992785
33.815773246573414	1.937158	1.3918183
33.8340922863172	1.929881	1.3892015
33.852412216817896	2.0109591	1.418083
33.87073303867377	2.0467138	1.430634
33.889054752483304	2.0517673	1.4323992
33.907377358845245	1.921285	1.3861042
33.92570085835853	1.7870904	1.336821
33.94402525162239	1.8294017	1.3525537
33.96235053923627	1.9386042	1.3923377
33.980676721799824	1.8787028	1.3706578
33.999003799912984	1.8133239	1.3465972
34.01733177417592	2.0325446	1.4256734
34.03566064518901	2.1489038	1.465914
34.0539904135529	1.9399532	1.392822
34.07232107986846	1.8614929	1.3643653
34.090652644736785	1.9172136	1.3846349
34.108985108759235	1.9868048	1.4095407
34.12731847253742	1.9726433	1.4045082
34.14565273667313	1.9110433	1.3824049
34.16398790176847	1.953041	1.3975124
34.18232396842574	1.9938895	1.4120516
34.20066093724749	2.03738	1.4273682
34.21899880883651	2.0314465	1.4252882
34.23733758379583	1.9716843	1.4041668
34.25567726272874	1.8867807	1.3736013
34.27401784623872	1.8788598	1.370715
34.29235933492957	1.9498757	1.3963795
34.31070172940526	1.9196163	1.3855022
34.32904503027003	1.7936487	1.3392717
34.347389238128386	1.8165585	1.3477976
34.36573435358502	1.9918827	1.4113407
34.38408037724492	1.9363476	1.391527
34.402427309713296	1.8358932	1.3549514
34.42077515159559	1.8062251	1.3439587
34.43912390349752	1.910664	1.3822677
34.45747356602499	2.0811281	1.4426116
34.47582413978423	2.12012	1.4560632
34.49417562538163	1.9955436	1.4126371
34.51252802342388	1.9292612	1.3889785
34.53088133451789	1.8678136	1.3666798
34.54923555927084	1.8773267	1.3701557
34.567590698290104	1.8768529	1.3699828
34.58594675218336	1.8130416	1.3464923
34.6043037215585	1.838255	1.3558227
34.62266160702365	1.7544029	1.3245387
34.641020409187234	1.7749883	1.3322868
34.65938012865785	1.990823	1.4109653
34.677740766044394	2.1026192	1.450041
34.69610232195598	1.9816381	1.4077066
34.714464797002016	1.9237174	1.3869814
34.73282819179208	1.724669	1.3132665
34.751192506936064	1.6282818	1.2760415
34.76955774304408	1.7929713	1.3390188
34.7879239007265	1.8576035	1.3629394
34.80629098059391	1.8098532	1.3453078
34.824658983257194	1.8017993	1.3423111
34.843027909327446	1.6534896	1.2858808
34.86139775941603	1.8343625	1.3543864
34.879768534134534	1.9314892	1.3897803
34.89814023409483	1.8428183	1.3575044
34.91651285990901	1.8084128	1.3447723
34.93488641218944	1.9147334	1.3837389
34.95326089154871	1.9778374	1.4063561
34.97163629859967	2.1306572	1.4596771
34.99001263395542	2.290773	1.5135299
35.00838989822934	2.2820368	1.5106412
35.02676809203499	2.0357542	1.4267986
35.04514721598624	1.7624395	1.327569
35.063527270697215	1.7388659	1.3186606
35.081908256782256	2.1843305	1.4779481
35.10029017485597	2.3362064	1.5284654
35.11867302553321	2.0684252	1.438202
35.137056809429104	1.9926776	1.4116223
35.155441527159006	2.183685	1.4777297
35.173827179338524	2.3665805	1.5383694
35.19221376658354	2.1473844	1.4653957
35.21060128951017	1.8163121	1.3477062
35.2289897487348	1.9089882	1.3816614
35.24737914487405	1.9533834	1.397635
35.26576947854479	2.0810905	1.4425985
35.28416075036418	2.1704488	1.4732443
35.30255296094958	2.1116552	1.4531535
35.32094611091867	1.9960455	1.4128147
35.33934020088932	1.8007175	1.3419081
35.35773523147969	1.6542292	1.2861685
35.3761312033082	1.7976002	1.3407462
35.394528116993506	2.0325942	1.4256908
35.41292597315452	2.1664143	1.4718744
35.431324772410434	2.1544588	1.4678074
35.449724515380666	2.210661	1.4868292
35.46812520268491	2.3092961	1.5196369
35.486526834943106	2.282127	1.510671
35.504929412775454	2.1419544	1.4635417
35.52333293680242	2.040426	1.4284348
35.54173740764471	1.9488884	1.3960259
35.560142825923286	1.962278	1.4008133
35.5785491922594	2.2355134	1.4951633
35.59695650727454	2.0930724	1.4467455
35.61536477159042	1.4327071	1.1969575
