0.008763373481513119	0.0	0.0
0.026290120649546365	0.0	0.0
0.043816868432600686	0.03550094	0.18841693
0.06134361724069026	0.082251735	0.28679565
0.07887036748382949	0.06425331	0.25348237
0.0963971195720331	0.05312366	0.23048571
0.11392387391531617	0.059473846	0.2438726
0.1314506309236943	0.06791626	0.26060748
0.1489773910071836	0.13268624	0.36426124
0.16650415457580078	0.17463188	0.4178898
0.18403092203956356	0.19055708	0.43652844
0.20155769380849	0.16591215	0.40732315
0.2190844702925996	0.10944459	0.3308241
0.2366112519019124	0.12174187	0.34891528
0.2541380390464497	0.13300487	0.36469832
0.27166483213623416	0.12392362	0.35202786
0.28919163158128947	0.15345421	0.39173234
0.3067184377916406	0.15785493	0.3973096
0.324245251177314	0.18490349	0.43000406
0.34177207214833777	0.1880383	0.43363383
0.3592989011147415	0.23678349	0.48660403
0.37682573848655654	0.30785426	0.55484617
0.39435258467381573	0.33850002	0.58180755
0.41187944008655414	0.29252556	0.5408563
0.42940630513480854	0.23404965	0.4837868
0.446933180228618	0.17292017	0.41583672
0.4644600657780234	0.16895154	0.41103715
0.48198696219306775	0.1248405	0.35332775
0.49951386988379676	0.14938761	0.38650694
0.5170407892602581	0.1321499	0.3635243
0.5345677207325025	0.11316828	0.33640492
0.5520946647105822	0.09642715	0.3105272
0.5696216216045534	0.099605754	0.3156038
0.5871485918244737	0.11915253	0.34518477
0.6046755757804043	0.16396801	0.40492964
0.6222025738824094	0.18608719	0.43137825
0.6397295865405557	0.17500387	0.41833463
0.6572566141649129	0.18652864	0.43188962
0.6747836571655547	0.18718134	0.43264458
0.6923107159525568	0.20345466	0.4510595
0.7098377909359992	0.17259265	0.41544273
0.7273648825259653	0.18690011	0.43231946
0.7448919911325411	0.19360329	0.44000375
0.762419117165817	0.21997038	0.46901
0.7799462610358868	0.1840687	0.42903227
0.7974734231528482	0.14890778	0.38588572
0.8150006039268024	0.13441293	0.3666237
0.8325278037678551	0.15029968	0.38768503
0.8500550230861152	0.16947585	0.41167444
0.8675822622916969	0.16750154	0.4092695
0.8851095217947171	0.17178701	0.41447195
0.9026368020052984	0.1603631	0.4004536
0.9201641033335665	0.18192601	0.42652786
0.9376914261896523	0.19049744	0.43646014
0.9552187709836915	0.18712036	0.43257412
0.9727461381258234	0.22925964	0.47881064
0.990273528026193	0.2891772	0.537752
1.0078009410949496	0.34010234	0.58318293
1.0253283777422473	0.37291908	0.610671
1.0428558383782454	0.3468603	0.5889485
1.0603833234131086	0.33629423	0.5799088
1.0779108332570058	0.3230113	0.56834084
1.0954383683201119	0.28719714	0.53590775
1.112965929012607	0.3230799	0.5684012
1.1304935157446763	0.44832027	0.6695672
1.1480211289265108	0.49869204	0.7061813
1.1655487689683062	1.3120214	1.145435
1.1830764362802655	1.5514963	1.2455907
1.200604131272596	1.9700234	1.4035752
1.2181318543555117	2.1907282	1.4801109
1.235659605939232	2.1914864	1.480367
1.253187386433982	3.8116648	1.9523486
1.270715196249994	6.348438	2.5196106
1.2882430357975057	11.840992	3.4410741
1.3057709054867608	16.396713	4.0492854
1.3232988057280106	22.189056	4.710526
1.3408267369315112	26.876497	5.1842546
1.358354699507526	30.347803	5.508884
1.3758826938663256	34.552814	5.8781643
1.3934107204181858	36.58828	6.048825
1.410938779573391	36.990005	6.081941
1.4284668717422309	37.456863	6.120201
1.4459949973350033	37.16617	6.096406
1.4635231567620117	37.632652	6.134546
1.4810513504335687	37.013172	6.083845
1.4985795787599925	35.98146	5.998455
1.5161078421516088	35.338932	5.944656
1.5336361410187505	34.087936	5.8384876
1.5511644757717598	34.1656	5.8451347
1.5686928468209842	34.785763	5.8979454
1.58622125457678	35.70765	5.975588
1.6037496994495108	36.845192	6.070024
1.621278181849548	36.864346	6.0716014
1.6388067021872719	37.1606	6.095949
1.6563352608730693	36.616272	6.051138
1.673863858317336	35.716976	5.976368
1.6913924949304753	35.28458	5.9400826
1.7089211711228998	34.35111	5.860982
1.7264498873050296	33.42724	5.7816296
1.7439786438872935	32.46915	5.6981707
1.7615074412801288	31.434828	5.606677
1.779036279893981	30.984346	5.5663586
1.796565160139305	29.920223	5.4699383
1.814094082426564	29.152937	5.399346
1.8316230471662298	28.289467	5.318784
1.849152054768784	27.608837	5.254411
1.8666811056447168	27.264305	5.2215233
1.8842102002045273	26.366865	5.1348677
1.901739338858724	25.893541	5.0885696
1.9192685220178245	25.218441	5.0217967
1.9367977500923557	24.380335	4.9376445
1.9543270234928547	24.079588	4.907096
1.971856342629867	23.515903	4.84932
1.9893857079139496	23.43801	4.841282
2.006915119755667	22.898449	4.7852325
2.0244445785655945	22.200827	4.7117753
2.0419740847543175	21.707932	4.6591773
2.0595036387324317	20.953876	4.5775404
2.0770332409105414	20.666265	4.546016
2.094562891699263	20.398785	4.5165014
2.1120925915092217	19.916372	4.462776
2.129622340751053	19.590069	4.426067
2.1471521398354043	187.65065	13.698564
2.1646819891729323	443.99503	21.07119
2.182211889174303	440.13654	20.979431
2.1997418402501974	452.4516	21.27091
2.2172718428113023	432.32196	20.792353
2.234801897268317	320.27567	17.896248
2.2523320040319548	16.820568	4.101289
2.269862163512935	16.48827	4.060575
2.287392376121992	16.167566	4.020891
2.304922642269869	15.966775	3.9958446
2.322452962367322	15.7914915	3.973851
2.3399833368251164	15.56586	3.9453592
2.357513766054032	15.2849245	3.9095938
2.3750442504648586	15.042127	3.878418
2.3925747904683963	14.855005	3.8542192
2.410105386475459	14.511541	3.8094018
2.4276360388968707	14.185548	3.7663705
2.445166748143469	13.979742	3.7389493
2.4626975146261025	13.715151	3.7033973
2.4802283387556323	13.555041	3.6817172
2.4977592209429305	13.240594	3.6387627
2.5152901615988825	12.916099	3.5938973
2.5328211611343865	12.635303	3.5546172
2.5503522199603523	12.459697	3.5298295
2.5678833384877024	12.4354	3.5263863
2.5854145171273712	12.343231	3.5132935
2.6029457562903064	12.143888	3.4848082
2.620477056387469	12.082508	3.4759903
2.6380084178298326	11.785552	3.4330091
2.655539841028383	11.540083	3.3970697
2.673071326394119	11.042078	3.3229623
2.6906028743380523	10.894183	3.3006337
2.708134485271211	10.732482	3.2760468
2.7256661596046325	10.693455	3.2700849
2.743197897749369	10.517968	3.2431417
2.760729700116486	10.436887	3.230617
2.778261567117063	10.37053	3.2203307
2.795793499162193	10.239264	3.199885
2.8133254966629817	10.061092	3.1719224
2.830857560030551	9.710166	3.116114
2.8483896896760337	9.501741	3.0824895
2.865921886010578	9.337614	3.055751
2.883454149445347	9.338994	3.0559769
2.9009864803915177	9.2531	3.0418909
2.91851887926028	9.204367	3.03387
2.9360513464628384	9.033186	3.0055258
2.953583882410413	8.892308	2.9819973
2.9711164875142373	8.741593	2.9566185
2.9886491621855606	8.6207485	2.9361112
3.0061819068356455	8.473384	2.9109077
3.023714721875769	8.311772	2.8830144
3.041247607717225	8.142859	2.8535695
3.0587805647713213	8.045431	2.836447
3.0763135934493806	8.048472	2.836983
3.0938466941627407	8.089127	2.844139
3.1113798673227544	8.008676	2.8299603
3.1289131133407904	7.970067	2.8231306
3.1464464326282315	7.783081	2.7898173
3.1639798255964786	7.7193217	2.7783668
3.1815132926569443	7.5237637	2.742948
3.1990468342210603	7.5027747	2.7391193
3.216580450700272	7.4764075	2.734302
3.2341141425060416	7.4006085	2.720406
3.251647910049847	7.2408915	2.6908906
3.2691817537431813	7.1601386	2.6758435
3.286715673997555	7.134176	2.6709878
3.3042496712244938	7.0552506	2.6561723
3.32178374583554	7.0088706	2.647427
3.339317898242251	6.8304424	2.6135116
3.3568521288562034	6.7562776	2.599284
3.3743864380889876	6.6669827	2.58205
3.3919208263522127	6.6107287	2.5711339
3.4094552940575023	6.5309653	2.5555754
3.4269898416164972	6.5593324	2.5611193
3.444524469440858	6.5497866	2.5592551
3.4620591779422587	6.4888687	2.5473258
3.479593967532391	6.435914	2.5369103
3.4971288386229658	6.362001	2.5223007
3.5146637916257086	6.3358274	2.517107
3.5321988269523628	6.2551417	2.501028
3.5497339450146903	6.1709642	2.4841425
3.5672691462244708	6.2561903	2.5012379
3.5848044309934988	6.3321304	2.5163724
3.60233979973359	6.3107224	2.512115
3.619875252856575	6.298562	2.5096936
3.6374107907743034	6.2841177	2.5068142
3.6549464138986427	6.240723	2.498144
3.6724821226414788	6.1903195	2.4880352
3.690017917414714	6.2241664	2.494828
3.7075537986302702	6.3529124	2.5204985
3.7250897667000857	6.4150033	2.5327857
3.7426258220361235	6.504594	2.5504105
3.7601619650503553	6.6143794	2.5718436
3.777698196154779	7.12911	2.6700394
3.7952345157614067	8.368619	2.8928566
3.8127709242822716	9.408718	3.0673633
3.830307422129425	11.90446	3.450284
3.847844009714936	30.745869	5.5448956
3.8653806874508954	98.03782	9.901405
3.882917455749409	97.13626	9.855773
3.900454315022606	96.84367	9.840919
3.917991265682631	41.44884	6.4380774
3.9355283081416506	11.121358	3.33487
3.9530654428118495	8.742035	2.9566932
3.970602670105433	7.437709	2.7272162
3.9881399904346244	6.5757504	2.5643227
4.005677404211669	6.5275755	2.554912
4.023214911848827	6.4135766	2.532504
4.0407525137583855	6.3321147	2.5163693
4.058290210352644	6.348356	2.5195944
4.075828002043927	6.3597765	2.5218596
4.0933658892445814	6.3253374	2.5150223
4.110903872366966	6.1401978	2.4779422
4.128441951823468	6.053346	2.4603548
4.145980128026488	6.0264764	2.4548883
4.163518401388452	6.0304093	2.4556892
4.181056772321807	6.021398	2.4538536
4.1985952412390155	5.9993663	2.4493604
4.216133808552567	6.047292	2.4591243
4.233672474674966	6.0859404	2.46697
4.251211240018741	6.269936	2.503984
4.268750104996445	6.4778476	2.5451615
4.286289070020643	7.4626927	2.731793
4.303828135503928	9.110786	3.0184078
4.3213673018589125	29.468899	5.4285264
4.3389065694982305	90.6117	9.519018
4.356445938834537	165.79254	12.876045
4.3739854102805085	170.89665	13.072744
4.391524984248844	171.7234	13.104328
4.409064661152262	135.74515	11.650972
4.426604441403504	96.0615	9.801097
4.444144325415337	75.51011	8.689655
4.461684313600543	21.630112	4.6508183
4.47922440637193	22.050375	4.6957827
4.496764604142329	20.40319	4.516989
4.5143049073245916	18.460138	4.2965264
4.531845316331589	16.446795	4.0554647
4.5493858315762195	13.425626	3.6640997
4.566926453471405	11.044996	3.3234012
4.584467182430081	8.926999	2.9878085
4.602008018865218	7.8901424	2.8089397
4.619548963189798	7.315151	2.7046537
4.637090015816834	6.849061	2.6170712
4.654631177159353	6.65788	2.5802867
4.672172447630417	6.424748	2.5347087
4.689713827643102	6.2679005	2.5035775
4.7072553176105085	6.046048	2.4588714
4.724796917945764	5.833692	2.4153037
4.742338629062015	5.679942	2.3832629
4.759880451372434	5.6319923	2.3731818
4.777422385290215	5.5854654	2.363359
4.794964431228581	5.5808134	2.3623745
4.812506589600768	5.5779343	2.3617651
4.830048860820047	5.485184	2.342047
4.847591245299709	5.422534	2.3286335
4.8651337434530655	5.4382772	2.3320115
4.882676355693457	5.4718785	2.3392048
4.900219082434242	5.5431294	2.3543851
4.917761924088813	5.5031133	2.3458714
4.935304881070575	5.53747	2.353183
4.952847953792969	5.501128	2.3454485
4.970391142669449	5.4992013	2.3450377
4.9879344481135055	5.453738	2.335324
5.005477870538642	5.3810825	2.319716
5.023021410358394	5.3312016	2.3089395
5.040565067986324	5.319669	2.3064408
5.05810884383601	5.3349476	2.3097506
5.075652738321066	5.30004	2.3021815
5.09319675185512	5.231293	2.2872021
5.110740884851836	5.2755723	2.2968614
5.128285137724894	5.3743577	2.3182662
5.145829510888007	5.445941	2.333654
5.163374004754908	5.384413	2.3204339
5.1809186197393595	5.3096137	2.30426
5.198463356255145	5.2692804	2.2954912
5.216008214716077	5.164262	2.2725012
5.233553195535998	5.1355343	2.2661717
5.251098299128764	5.1116886	2.2609043
5.268643525908272	5.153707	2.2701778
5.286188876288432	5.195493	2.2793624
5.3037343506831895	5.2198944	2.2847087
5.32127994950651	5.200859	2.2805393
5.3388256731723915	5.191809	2.2785542
5.356371522094851	5.1679277	2.2733076
5.373917496687938	5.1036077	2.2591166
5.391463597365729	5.077464	2.2533228
5.40900982454232	5.0192657	2.2403717
5.426556178631843	5.025651	2.2417963
5.444102660048449	5.027947	2.2423084
5.4616492692063225	5.0384803	2.2446558
5.479196006519669	5.1202617	2.2627995
5.496742872402727	5.1402783	2.267218
5.514289867269756	5.0919137	2.256527
5.531836991535049	5.127349	2.264365
5.549384245612924	5.0692034	2.2514892
5.566931629917724	5.0475864	2.2466834
5.584479144863822	4.9909725	2.2340484
5.6020267908656205	5.0251145	2.2416768
5.619574568337545	5.1529713	2.2700157
5.637122477694054	5.148603	2.2690532
5.654670519349629	5.1236157	2.2635405
5.672218693718784	4.972894	2.2299986
5.689767001216059	4.906808	2.2151315
5.707315442256021	4.8789835	2.208842
5.724864017253266	4.9494557	2.2247372
5.7424127266224225	5.0246835	2.2415805
5.75996157077814	5.114312	2.2614846
5.777510550135105	5.0803876	2.2539716
5.795059665108022	5.095134	2.2572403
5.812608916111639	5.154625	2.27038
5.830158303560715	5.2736998	2.2964537
5.847707827870055	5.2615232	2.293801
5.86525748945448	5.293119	2.300678
5.8828072887288485	5.425828	2.3293407
5.900357226108044	5.507379	2.3467805
5.917907302006979	5.677895	2.3828335
5.9354575168406	6.2582264	2.5016448
5.9530078710238765	6.8621645	2.6195734
5.970558364971812	7.393408	2.719082
5.988108999099438	7.710402	2.776761
6.005659773821818	8.286757	2.8786728
6.023210689554039	8.015435	2.8311543
6.040761746711227	8.416624	2.901142
6.058312945708531	7.7805357	2.7893612
6.075864286961132	7.2688823	2.6960864
6.093415770884244	6.579818	2.5651155
6.1109673978931065	6.0386133	2.457359
6.128519168402993	5.4806905	2.3410873
6.146071082829204	5.380999	2.319698
6.163623141587075	5.279608	2.2977397
6.181175345091969	5.20636	2.281745
6.198727693759281	5.123288	2.2634683
6.216280188004435	5.129051	2.264741
6.233832828242885	5.162386	2.2720885
6.251385614890126	5.2714753	2.2959692
6.268938548361669	5.189781	2.278109
6.286491629073067	5.038869	2.2447424
6.304044857439898	4.93987	2.2225819
6.321598233877777	4.8328376	2.1983716
6.339151758802344	4.876213	2.208215
6.356705432629277	4.8793006	2.2089138
6.37425925577428	4.861531	2.2048879
6.391813228653095	4.8669195	2.2061095
6.409367351681486	4.870336	2.206884
6.426921625275259	4.918172	2.2176952
6.44447604985025	4.9450684	2.223751
6.46203062582232	4.9754567	2.2305732
6.47958535360737	4.9397397	2.2225525
6.497140233621328	4.884479	2.2100859
6.514695266280161	4.8488116	2.2020018
6.532250451999859	4.87168	2.2071881
6.549805791196454	4.9327035	2.220969
6.567361284286002	4.9429855	2.2232826
6.584916931684597	5.0191717	2.2403507
6.602472733808367	4.956557	2.2263327
6.6200286910734665	4.9609833	2.2273264
6.637584803896092	4.949111	2.2246597
6.655141072692462	4.974726	2.2304094
6.672697497878842	4.997053	2.235409
6.690254079871514	4.956324	2.2262802
6.707810819086808	4.954826	2.2259438
6.725367715941078	4.909316	2.2156978
6.742924770850719	4.874868	2.2079103
6.760481984232151	4.830829	2.1979148
6.778039356501836	4.77924	2.1861472
6.795596888076266	4.7888227	2.1883378
6.813154579371963	4.792172	2.189103
6.830712430805492	4.7873306	2.1879969
6.84827044279344	4.869425	2.2066774
6.865828615752445	4.8642974	2.2055151
6.883386950099159	4.8990254	2.2133741
6.900945446250287	4.9389324	2.2223709
6.918504104622553	4.960237	2.227159
6.936062925632727	4.9773026	2.2309868
6.953621909697607	4.943696	2.2234423
6.971181057234028	4.9863114	2.233005
6.988740368658859	4.9931693	2.23454
7.006299844389007	4.988441	2.233482
7.023859484841407	5.0111923	2.2385693
7.041419290433036	5.147121	2.2687268
7.058979261580902	5.2699566	2.2956386
7.0765393987020495	5.5087714	2.3470771
7.094099702213559	5.910748	2.431203
7.111660172532549	6.280277	2.506048
7.129220810076164	6.620637	2.5730598
7.146781615261595	7.1464524	2.673285
7.16434258850606	7.553711	2.7484016
7.181903730226821	8.034925	2.8345945
7.1994650408411704	8.184937	2.8609328
7.217026520766437	8.233905	2.8694782
7.234588170419983	8.36216	2.8917398
7.252149990219215	8.387482	2.8961148
7.269711980581568	8.291576	2.8795097
7.2872741419245175	8.135426	2.8522668
7.304836474665574	7.722566	2.7789505
7.322398979222286	7.334612	2.7082489
7.339961656012233	7.007647	2.647196
7.357524505453039	6.6374702	2.5763288
7.375087527962357	6.443616	2.5384278
7.392650723957886	6.251868	2.5003736
7.410214093857353	5.9761624	2.4446192
7.427777638078528	5.721351	2.3919346
7.445341357039213	5.52422	2.3503659
7.4629052511572525	5.337147	2.3102267
7.480469320850524	5.3189716	2.3062897
7.498033566536948	5.252828	2.291905
7.5155979886344735	5.2103357	2.282616
7.5331625875610975	5.173397	2.2745104
7.550727363734844	5.128307	2.2645764
7.568292317573788	5.150142	2.2693925
7.585857449496025	5.115797	2.2618127
7.603422759919705	5.156138	2.270713
7.620988249263007	5.185028	2.2770658
7.638553917944147	5.2606535	2.2936115
7.656119766381391	5.2441945	2.2900207
7.673685794993023	5.234559	2.287916
7.691252004197388	5.153918	2.270224
7.70881839441285	5.169815	2.2737226
7.726384966057826	5.2202325	2.284783
7.743951719550762	5.2425284	2.2896569
7.761518655310149	5.280812	2.2980018
7.779085773754511	5.2577147	2.2929707
7.796653075302419	5.2733893	2.2963862
7.814220560372475	5.220594	2.2848618
7.831788229383323	5.1980944	2.279933
7.8493560827536495	5.1817236	2.27634
7.866924120902174	5.2259836	2.286041
7.884492344247663	5.25633	2.2926688
7.9020607532089135	5.268538	2.2953296
7.919629348204771	5.219506	2.2846239
7.937198129654115	5.2559032	2.2925756
7.954767097975865	5.2565885	2.292725
7.972336253588986	5.2758465	2.296921
7.989905596912472	5.2131834	2.2832396
8.007475128365371	5.2630563	2.294135
8.025044848366756	5.3125744	2.3049023
8.042614757335754	5.4591937	2.3364918
8.060184855691523	5.4823465	2.3414412
8.07775514385327	5.630642	2.3728974
8.095325622240228	5.7588463	2.3997595
8.112896291271687	5.8379283	2.4161806
8.130467151366968	5.8549776	2.419706
8.148038202945436	5.807599	2.4098961
8.165609446426497	5.745448	2.3969665
8.183180882229594	5.821739	2.412828
8.200752510774217	5.874437	2.4237237
8.218324332479893	5.9559236	2.4404762
8.235896347766193	5.9123273	2.4315279
8.253468557052724	5.884233	2.4257438
8.27104096075914	5.8523226	2.4191575
8.288613559305137	5.933915	2.435963
8.306186353110448	5.9950314	2.4484754
8.32375934259485	6.074653	2.4646811
8.341332528178162	6.1306186	2.4760087
8.358905910280246	6.122423	2.474353
8.376479489321003	6.1133122	2.4725113
8.394053265720377	6.1513414	2.4801898
8.411627239898356	6.228248	2.4956458
8.42920141227497	6.1685762	2.483662
8.44677578327029	6.202036	2.4903886
8.464350353304427	6.1754627	2.4850478
8.48192512279754	6.140055	2.4779134
8.499500092169827	6.034383	2.4564981
8.51707526184153	6.0283847	2.455277
8.534650632232934	6.0528316	2.4602504
8.552226203764365	6.062493	2.462213
8.569801976856192	6.0567465	2.4610457
8.587377951928834	6.150951	2.4801111
8.60495412940274	6.242354	2.4984703
8.622530509698416	6.298734	2.509728
8.6401070932364	6.360404	2.521984
8.657683880437283	6.4218173	2.5341306
8.675260871721695	6.617039	2.5723605
8.692838067510303	6.7530575	2.5986645
8.710415468223834	6.9292746	2.6323516
8.727993074283043	7.0657644	2.6581507
8.745570886108737	7.0626063	2.6575565
8.763148904121765	7.177197	2.6790292
8.78072712874302	7.221319	2.6872513
8.798305560393441	7.371403	2.7150328
8.815884199494006	7.462863	2.7318242
8.833463046465745	7.5803986	2.7532523
8.851042101729728	7.7384152	2.7818007
8.86862136570707	8.031057	2.8339121
8.886200838818924	8.138935	2.852882
8.903780521486505	8.212247	2.865702
8.921360414131055	8.309644	2.8826454
8.938940517173874	8.466045	2.909647
8.956520831036297	8.653029	2.9416032
8.97410135613971	8.908748	2.9847524
8.99168209290554	9.069981	3.0116408
9.009263041755265	9.355249	3.0586352
9.026844203110405	9.580526	3.0952425
9.044425577392525	9.823484	3.1342437
9.062007165023239	9.871878	3.1419544
9.079588966424197	10.17756	3.1902287
9.097170982017108	10.262464	3.203508
9.11475321222372	11.343264	3.3679762
9.132335657465825	12.297109	3.5067234
9.149918318165264	12.418267	3.5239563
9.167501194743924	13.099531	3.6193275
9.18508428762374	12.717368	3.5661418
9.202667597226693	12.679338	3.5608058
9.220251123974803	12.263526	3.5019317
9.237834868290143	11.871016	3.445434
9.255418830594836	11.684257	3.418224
9.273003011311046	11.159394	3.340568
9.290587410860985	10.987543	3.3147464
9.308172029666911	10.360049	3.218703
9.32575686815113	9.990173	3.1607234
9.343341926735997	8.613847	2.9349356
9.360927205843916	8.400527	2.8983662
9.378512705897327	8.253368	2.8728676
9.396098427318728	8.09862	2.8458076
9.413684370530664	7.957674	2.820935
9.431270535955722	7.8033957	2.7934558
9.448856924016539	7.676129	2.7705827
9.466443535135806	7.5336514	2.7447498
9.484030369736251	7.557919	2.749167
9.501617428240658	7.582664	2.7536638
9.519204711071852	7.611867	2.7589612
9.536792218652714	7.643195	2.764633
9.55437995140617	7.6438637	2.7647538
9.571967909755191	7.653002	2.7664058
9.589556094122802	7.6593404	2.7675514
9.60714450493207	7.6555114	2.7668595
9.624733142606116	7.751245	2.7841058
9.642322007568108	7.840576	2.800103
9.659911100241267	7.901359	2.8109357
9.677500421048851	7.914432	2.81326
9.695089970414175	7.867594	2.804923
9.712679748760609	7.939902	2.817783
9.730269756511557	8.000102	2.8284452
9.747859994090492	8.078278	2.842231
9.765450461920915	8.012319	2.8306038
9.78304116042639	8.007508	2.829754
9.800632090030527	8.048071	2.8369122
9.81822325115699	8.203305	2.8641412
9.835814644229481	8.287984	2.878886
9.853406269671762	8.346316	2.8889992
9.870998127907646	8.326378	2.8855464
9.888590219360985	8.25272	2.8727548
9.906182544455698	8.223156	2.8676045
9.923775103615734	8.229265	2.8686695
9.941367897265108	8.2384205	2.8702648
9.958960925827878	8.258675	2.873791
9.97655418972816	8.173	2.858846
9.994147689390106	8.117205	2.8490708
10.011741425237934	8.103934	2.846741
10.029335397695904	8.116595	2.848964
10.04692960718833	8.150565	2.8549194
10.06452405413958	8.189588	2.8617456
10.082118738974064	8.262807	2.8745098
10.099713662116246	8.254172	2.8730075
10.117308823990651	8.168728	2.8580987
10.134904225021844	8.159297	2.8564484
10.152499865634445	8.056577	2.8384109
10.170095746253125	8.004713	2.82926
10.18769186730261	8.014561	2.8309999
10.205288229207675	8.13964	2.8530054
10.222884832393145	8.171439	2.858573
10.2404816772839	8.159893	2.8565526
10.258078764304868	8.084592	2.8433416
10.275676093881035	8.002812	2.8289242
10.293273666437438	7.948121	2.8192413
10.310871482399158	7.9749765	2.8240001
10.32846954219134	7.996733	2.8278496
10.346067846239173	8.097432	2.8455987
10.363666394967908	8.076139	2.841855
10.38126518880283	8.112084	2.8481722
10.398864228169298	8.196226	2.8629053
10.416463513492713	8.221655	2.8673427
10.434063045198531	8.134833	2.8521628
10.451662823712262	8.047371	2.836789
10.469262849459467	8.008421	2.8299153
10.486863122865758	7.955121	2.8204825
10.504463644356806	7.9520593	2.8199396
10.522064414358338	7.8710823	2.8055449
10.539665433296118	7.8369904	2.7994626
10.557266701595987	7.7699537	2.7874637
10.574868219683818	7.752485	2.7843285
10.592469987985552	7.6954155	2.7740612
10.610072006927185	7.54897	2.747539
10.627674276934751	7.4749517	2.7340357
10.64527679843435	7.3514767	2.7113607
10.662879571852143	7.2258296	2.6880903
10.680482597614331	7.0680566	2.6585817
10.698085876147173	6.944565	2.6352541
10.715689407876988	6.9202952	2.6306455
10.733293193230146	6.8377285	2.614905
10.750897232633072	6.7562804	2.5992846
10.76850152651225	6.649923	2.5787444
10.786106075294207	6.569449	2.5630937
10.803710879405534	6.506215	2.5507283
10.821315939272877	6.4123044	2.5322528
10.83892125532294	6.340888	2.518112
10.856526827982472	6.2583637	2.5016723
10.874132657678285	6.2644315	2.5028846
10.891738744837243	6.2146854	2.492927
10.909345089886271	6.1566334	2.4812565
10.926951693252343	6.071409	2.4640229
10.944558555362494	6.0578036	2.4612606
10.96216567664381	5.9656267	2.4424632
10.979773057523436	5.9141665	2.431906
10.997380698428573	5.784238	2.4050443
11.014988599786477	5.7707324	2.4022348
11.032596762024461	5.7939305	2.4070585
11.050205185569892	5.72974	2.3936875
11.067813870850198	5.590127	2.3643448
11.085422818292859	5.4550066	2.3355956
11.10303202832541	5.3813906	2.3197825
11.120641501375454	5.3508596	2.3131926
11.138251237870636	5.3315787	2.3090212
11.155861238238671	5.2988605	2.3019254
11.173471502907317	5.1884384	2.2778144
11.191082032304402	5.1148157	2.2615957
11.208692826857805	4.9762597	2.2307532
11.226303886995465	4.8991714	2.2134073
11.243915213145371	4.832109	2.198206
11.261526805735578	4.759624	2.1816564
11.279138665194196	4.7104034	2.1703465
11.296750791949393	4.699284	2.1677833
11.314363186429393	4.719237	2.1723804
11.331975849062479	4.6924214	2.1661997
11.34958878027699	4.6167073	2.1486526
11.36720198050133	4.556864	2.1346812
11.384815450163948	4.5070324	2.1229773
11.402429189693366	4.4852	2.117829
11.420043199518153	4.465821	2.1132488
11.437657480066942	63.463806	7.9664173
11.455272031768422	85.170006	9.22876
11.472886855051353	107.51091	10.368747
11.490501950344528	99.042015	9.951985
11.508117318076819	84.34435	9.183918
11.52573295867715	45.721912	6.761798
11.543348872574514	4.044472	2.0110874
11.560965060197946	4.082754	2.0205827
11.57858152197655	4.0414677	2.0103402
11.59619825833949	3.954661	1.9886329
11.613815269715985	3.8877416	1.9717357
11.631432556535323	38.454803	6.201194
11.649050119226837	83.019196	9.111487
11.666667958219929	93.40755	9.664758
11.68428607394406	107.65906	10.375888
11.701904466828756	82.47624	9.081643
11.719523137303586	65.34743	8.0837755
11.737142085798196	4.571324	2.1380653
11.754761312742286	3.7117662	1.9265945
11.772380818565619	3.653756	1.9114801
11.790000603698015	3.5833554	1.8929753
11.80762066856935	3.5123296	1.8741211
11.825241013609572	3.5081728	1.8730117
11.842861639248683	3.5229669	1.8769568
11.860482545916748	3.5276768	1.878211
11.878103734043883	3.482877	1.8662468
11.895725204060282	3.4427586	1.8554672
11.91334695639619	3.3959103	1.8427995
11.930968991481919	3.3874369	1.840499
11.948591309747824	3.3853955	1.8399445
11.966213911624347	3.400419	1.8440225
11.98383679754198	3.3580585	1.8325006
12.001459967931268	3.288906	1.8135341
12.019083423222835	3.2477455	1.8021502
12.036707163847352	3.1811376	1.7835743
12.05433119023556	3.1377072	1.7713574
12.071955502818259	3.1343825	1.7704188
12.089580102026313	3.158058	1.7770926
12.107204988290643	3.1489348	1.7745239
12.12483016204224	3.1353903	1.7707033
12.142455623712152	3.0968292	1.759781
12.16008137373149	3.0918138	1.7583554
12.177707412531431	3.0650477	1.7507278
12.19533374054321	3.0183883	1.737351
12.212960358198126	3.003407	1.733034
12.230587265927545	3.0211568	1.7381475
12.248214464162889	3.0178993	1.7372102
12.265841953335649	3.0269887	1.7398243
12.283469733877375	2.98409	1.7274519
12.301097806219685	2.9287364	1.7113551
12.31872617079425	2.8775496	1.6963341
12.336354828032825	2.8864133	1.6989448
12.353983778367205	2.8797228	1.6969746
12.371613022229262	2.841426	1.685653
12.389242560050928	2.836574	1.6842132
12.406872392264201	2.8643253	1.6924318
12.424502519301143	2.8885996	1.6995881
12.442132941593874	2.89727	1.7021369
12.459763659574586	2.8410945	1.6855546
12.477394673675532	2.764778	1.6627622
12.49502598432903	2.729638	1.6521616
12.51265759196746	2.7734652	1.6653724
12.530289497023267	2.7899954	1.6703279
12.547921699928967	2.8016756	1.6738206
12.565554201117134	2.7736413	1.6654253
12.583187001020404	2.7608817	1.6615901
12.600820100071486	2.735392	1.653902
12.618453498703152	2.711473	1.6466551
12.636087197348235	2.742529	1.6560582
12.65372119643964	2.7491534	1.6580571
12.671355496410326	2.7605553	1.6614919
12.68899009769333	2.780586	1.667509
12.706625000721749	2.7562687	1.6602014
12.724260205928752	2.8228443	1.6801323
12.741895713747551	2.8789432	1.6967449
12.759531524611454	2.9546325	1.7189045
12.777167638953818	2.9435444	1.7156761
12.794804057208072	2.9266891	1.7107569
12.812440779807702	2.97104	1.7236705
12.830077807186271	3.1479192	1.7742376
12.847715139777405	3.173616	1.7814646
12.865352778014795	3.3546848	1.8315799
12.882990722332197	3.4402204	1.854783
12.90062897316344	3.5694487	1.8892984
12.918267530942412	3.6931517	1.9217575
12.935906396103071	3.5777562	1.8914957
12.953545569079449	3.7523742	1.9371046
12.971185050305628	3.5735192	1.8903754
12.988824840215775	3.6167734	1.9017817
13.006464939244115	3.6214142	1.9030013
13.024105347824943	3.4715714	1.8632153
13.041746066392617	3.5543382	1.8852953
13.05938709538157	3.3624563	1.8337002
13.077028435226296	3.3633454	1.8339425
13.094670086361363	3.265733	1.8071339
13.112312049221401	3.1459188	1.7736738
13.129954324241112	3.0557733	1.748077
13.147596911855258	2.878311	1.6965586
13.165239812498685	2.8510942	1.6885184
13.182883026606293	2.7611988	1.6616855
13.200526554613058	2.691837	1.6406819
13.218170396954017	2.6643767	1.6322919
13.235814554064284	2.6678278	1.6333487
13.253459026379034	2.7020051	1.6437777
13.271103814333523	2.6563313	1.6298256
13.288748918363058	2.6527762	1.6287346
13.306394338903031	2.6519523	1.6284816
13.32404007638889	2.6656399	1.6326787
13.341686131256164	2.6657033	1.6326982
13.359332503940449	2.6305223	1.6218885
13.376979194877402	2.588923	1.6090131
13.394626204502751	2.620286	1.6187297
13.412273533252307	2.6699271	1.6339911
13.429921181561937	2.6744614	1.635378
13.447569149867581	2.6916568	1.6406269
13.465217438605247	2.6721237	1.6346632
13.482866048211022	2.6663847	1.6329068
13.500514979121052	2.6528482	1.6287566
13.518164231771568	2.63083	1.6219834
13.535813806598844	2.6258404	1.6204445
13.553463704039254	2.6345696	1.6231357
13.571113924529229	2.6211472	1.6189957
13.588764468505275	2.63365	1.6228524
13.606415336403956	2.6434467	1.625868
13.624066528661917	2.676409	1.6359735
13.641718045715882	2.7202332	1.649313
13.659369888002635	2.7591686	1.6610745
13.67702205595903	2.8507838	1.6884264
13.694674550021993	2.9586086	1.7200606
13.712327370628532	3.054496	1.7477117
13.729980518215713	3.125581	1.7679313
13.747633993220681	3.1749728	1.7818453
13.765287796080647	3.2181652	1.7939246
13.7829419272329	3.242834	1.8007871
13.800596387114801	3.2520952	1.8033566
13.818251176163775	3.2699227	1.8082927
13.835906294817324	3.315888	1.820958
13.853561743513023	3.3940585	1.8422971
13.871217522688525	3.4931934	1.8690087
13.888873632781538	3.5331922	1.8796787
13.906530074229858	3.5209854	1.8764288
13.92418684747135	3.4720612	1.8633468
13.941843952943948	3.5030289	1.8716381
13.959501391085665	3.5371475	1.8807306
13.977159162334578	3.4600976	1.8601338
13.994817267128846	3.4145734	1.8478564
14.012475705906693	3.2691886	1.8080897
14.030134479106424	3.2013295	1.7892259
14.047793587166414	3.1254723	1.7679006
14.065453030525108	3.0588849	1.7489668
14.083112809621026	2.985943	1.7279881
14.100772924892766	2.8807006	1.6972626
14.118433376778997	2.8291407	1.6820049
14.136094165718458	2.754628	1.6597072
14.153755292149969	2.68124	1.6374493
14.171416756512416	2.5992968	1.6122335
14.189078559244768	2.5337791	1.5917848
14.20674070078606	2.500297	1.5812328
14.224403181575408	2.4692059	1.5713707
14.242066002051999	2.4516625	1.5657786
14.259729162655093	2.4804444	1.5749427
14.277392663824022	2.4775574	1.5740259
14.295056505998208	2.4896278	1.5778555
14.312720689617128	2.4785285	1.5743343
14.330385215120348	2.454643	1.56673
14.348050082947497	2.4214344	1.5560958
14.3657152935383	2.3577578	1.5354992
14.383380847332528	2.3684132	1.538965
14.401046744770051	2.356839	1.5352
14.418712986290798	2.3408651	1.5299886
14.436379572334793	2.334025	1.5277516
14.454046503342123	2.34383	1.5309572
14.471713779752946	2.3507977	1.5332311
14.489381402007504	2.352989	1.5339456
14.507049370546113	2.3417099	1.5302646
14.524717685809168	2.3251646	1.524849
14.542386348237134	2.349144	1.5326917
14.560055358270553	2.3543968	1.5344044
14.577724716350051	2.377972	1.5420674
14.595394422916325	2.3897426	1.5458792
14.61306447841015	2.4546676	1.5667379
14.63073488327237	2.4745693	1.5730764
14.648405637943917	2.462313	1.5691758
14.6660767428658	2.4411557	1.5624198
14.683748198479094	2.4742272	1.5729676
14.701420005224954	2.5399437	1.5937201
14.719092163544628	2.5738554	1.604324
14.73676467387942	2.5959306	1.6111891
14.754437536670727	2.6073048	1.6147151
14.772110752360014	2.63307	1.6226737
14.78978432138882	2.631441	1.6221718
14.807458244198777	2.617714	1.6179351
14.82513252123159	2.6362183	1.6236435
14.842807152929028	2.676797	1.636092
14.860482139732962	2.6757808	1.6357814
14.87815748208531	2.6670148	1.6330998
14.8958331804281	2.6621614	1.6316131
14.91350923520342	2.6339667	1.62295
14.931185646853438	2.666121	1.6328261
14.948862415820408	2.6055071	1.6141584
14.966539542546656	2.6153538	1.6172055
14.98421702747459	2.5817294	1.6067761
15.001894871046696	2.6441286	1.6260777
15.019573073705542	2.6416783	1.625324
15.037251635893766	2.6125753	1.6163462
15.054930558054092	2.6213775	1.6190668
15.072609840629323	2.6631942	1.6319296
15.090289484062351	2.8360422	1.6840553
15.107969488796124	3.145331	1.7735081
15.125649855273691	3.5294309	1.878678
15.14333058393817	3.9896858	1.9974198
15.161011675232768	4.919412	2.217975
15.17869312960076	6.2786484	2.5057232
15.196374947485506	8.120829	2.8497066
15.214057129330447	11.172432	3.3425188
15.231739675579114	15.875334	3.9843862
15.249422586675102	21.144085	4.59827
15.267105863062092	24.415537	4.941208
15.284789505183847	24.954683	4.995466
15.302473513484218	22.937967	4.7893596
15.320157888407127	19.453817	4.4106483
15.337842630396578	15.110156	3.8871784
15.355527739896656	11.690226	3.4190972
15.37321321735153	8.993377	2.998896
15.39089906320545	6.5366073	2.556679
15.408585277902748	4.9035263	2.2143908
15.42627186188783	3.7718937	1.9421364
15.443958815605198	3.2202888	1.7945163
15.461646139499424	2.9185677	1.7083815
15.479333834015168	2.7767005	1.6663435
15.497021899597165	2.7178042	1.6485764
15.514710336690234	2.6576269	1.6302229
15.53239914573928	2.5920584	1.6099871
15.550088327189297	2.5223434	1.5881888
15.567777881485336	2.4776137	1.5740438
15.58546780907256	2.404193	1.550546
15.6031581103962	2.3789282	1.5423775
15.620848785901568	2.3885622	1.5454974
15.638539836034063	2.42737	1.558002
15.656231261239173	2.4196234	1.5555139
15.673923061962451	2.3911314	1.5463283
15.691615238649552	2.3774421	1.5418956
15.709307791746202	2.380632	1.5429296
15.727000721698221	2.4035726	1.5503459
15.744694028951498	2.3953204	1.5476823
15.76238771395202	2.3817108	1.5432792
15.780081777145844	2.3695662	1.5393395
15.797776218979125	2.3350775	1.5280961
15.815471039898094	2.317839	1.5224451
15.833166240349064	2.3022	1.5173002
15.850861820778437	2.3317873	1.5270191
15.868557781632699	2.3218343	1.5237566
15.886254123358412	2.32067	1.5233746
15.903950846402232	2.2868443	1.5122316
15.921647951210897	2.316305	1.5219412
15.939345438231225	2.340716	1.5299399
15.957043307910133	2.3404276	1.5298456
15.974741560694602	2.3597934	1.5361619
15.992440197031714	2.3887756	1.5455664
16.01013921736862	2.4137433	1.5536226
16.02783862215259	2.3981242	1.5485878
16.045538411830933	2.3715227	1.5399749
16.06323858685107	2.3697512	1.5393996
16.080939147660512	2.369643	1.5393645
16.09864009470684	2.3635333	1.5373787
16.11634142843774	2.311662	1.5204151
16.134043149300954	2.3006477	1.5167886
16.15174525774433	2.3287635	1.5260286
16.169447754215817	2.370829	1.5397497
16.18715063916342	2.3612828	1.5366466
16.204853913035244	2.3674722	1.5386592
16.222557576279478	2.377888	1.5420402
16.240261629344403	22.391527	4.7319684
16.257966072678386	42.952602	6.5538235
16.275670906729868	38.09451	6.172075
16.293376131947387	2.536234	1.5925558
16.31108174877957	2.5421274	1.594405
16.328787757675133	2.5507476	1.597106
16.34649415908287	2.5404003	1.5938634
16.364200953451657	2.5164177	1.5863221
16.38190814123048	2.527969	1.5899588
16.39961572286839	2.557598	1.5992492
16.41732369881455	2.616332	1.6175079
16.43503206951817	2.642136	1.6254649
16.45274083542859	2.6810343	1.6373864
16.47044999699522	2.741153	1.6556427
16.488159554667558	2.7890646	1.6700493
16.505869508895184	2.875029	1.6955911
16.523579860127786	2.91545	1.7074689
16.541290608815117	2.9564483	1.7194326
16.559001755407035	2.9927614	1.72996
16.57671330035348	3.0666049	1.7511724
16.59442524410448	3.1446195	1.7733074
16.61213758711015	3.1691062	1.7801983
16.629850329820705	3.2362738	1.7989646
16.647563472686436	3.3228927	1.8228803
16.665277016157724	3.355867	1.8319025
16.682990960685053	3.378496	1.8380685
16.70070530671898	3.3864691	1.8402362
16.718420054710155	3.4038982	1.8449657
16.736135205109335	3.4755268	1.8642765
16.753850758367335	3.542889	1.8822564
16.771566714935087	3.5710452	1.8897209
16.789283075263597	3.5820034	1.8926182
16.80699983980398	3.6728709	1.9164735
16.82471700900741	3.794091	1.9478426
16.84243458332518	3.8626516	1.9653629
16.860152563208665	3.8712451	1.967548
16.87787094910932	3.9296885	1.9823442
16.89558974147871	4.003893	2.000973
16.913308940768466	4.0684566	2.0170414
16.931028547430333	4.121215	2.0300775
16.94874856191613	4.214087	2.0528243
16.966468984677785	4.3073583	2.0754175
16.98418981616729	4.364727	2.0891929
17.00191105683676	4.4419293	2.1075885
17.019632707138374	4.4987226	2.1210191
17.03735476752442	4.548446	2.1327085
17.05507723844728	4.4962363	2.120433
17.072800120359403	4.5254345	2.127307
17.090523413713353	4.546633	2.1322834
17.108247118961785	4.5815353	2.1404521
17.125971236557437	4.5706096	2.1378984
17.143695766953133	4.5896173	2.1423392
17.161420710601806	4.5969424	2.1440482
17.179146067956477	4.6385956	2.15374
17.19687183947025	4.653082	2.1571004
17.21459802559634	4.6229525	2.1501052
17.232324626788028	4.598541	2.1444209
17.25005164349871	4.6062975	2.1462286
17.267779076181863	4.596527	2.1439512
17.285506925291074	4.5878577	2.1419284
17.30323519127999	4.4941616	2.1199439
17.320963874602384	4.465191	2.1130998
17.33869297571211	4.4772167	2.1159434
17.356422495063114	4.513323	2.1244583
17.37415243310944	4.483375	2.1173983
17.391882790305218	4.458336	2.1114771
17.40961356710468	4.4592743	2.1116993
17.42734476396215	4.4897566	2.1189046
17.445076381332044	4.459468	2.111745
17.462808419668868	4.5191092	2.1258197
17.48054087942723	4.62787	2.1512485
17.498273761061835	4.897016	2.2129202
17.51600706502747	5.292836	2.3006165
17.533740791779024	5.9518604	2.4396436
17.551474941771485	7.303317	2.702465
17.56920951545993	8.493821	2.914416
17.586944513299528	10.8589735	3.2952957
17.60467993574556	12.6560955	3.5575407
17.622415783253373	14.545319	3.8138325
17.64015205627843	16.153666	4.019162
17.657888755276293	17.470295	4.179748
17.675625880702604	18.004185	4.243134
17.69336343301311	17.670322	4.203608
17.71110141266366	16.659235	4.0815725
17.728839820110178	15.591989	3.9486692
17.746578655808705	14.608959	3.822167
17.764317920215372	13.021723	3.6085625
17.7820576137864	11.364459	3.3711214
17.79979773697811	9.345226	3.0569963
17.81753829024692	7.4186993	2.723729
17.835279274049356	5.7412243	2.3960853
17.85302068884201	4.716667	2.171789
17.870762535081607	4.1363196	2.0337944
17.888504813224934	3.8705177	1.9673631
17.90624752372891	3.6667178	1.9148675
17.923990667050536	3.5404558	1.8816099
17.941734243646895	3.4327378	1.852765
17.959478253975185	3.4420176	1.8552675
17.9772226984927	3.4392495	1.8545214
17.994967577656833	3.475713	1.8643265
18.01271289192506	3.4263096	1.8510293
18.030458641754965	3.4181097	1.848813
18.04820482760425	3.3972826	1.8431718
18.06595144993067	3.3666832	1.8348523
18.083698509192125	3.2920635	1.8144045
18.101446005846576	3.2087686	1.7913036
18.119193940352105	3.195216	1.7875167
18.136942313166887	3.2133303	1.7925764
18.1546911247492	3.2014186	1.7892509
18.1724403755574	3.1527746	1.7756054
18.19019006604997	3.124111	1.7675154
18.207940196685467	3.1122534	1.764158
18.225690767922575	3.1247942	1.7677088
18.243441780220046	3.1388552	1.7716814
18.261193234036764	3.1009102	1.7609402
18.278945129831676	3.0365105	1.7425586
18.29669746806386	3.019225	1.7375917
18.314450249192483	3.0233521	1.738779
18.3322034736768	2.9972932	1.7312692
18.349957141976184	2.9769511	1.7253844
18.3677112545501	2.9692428	1.7231491
18.385465811858108	3.0037987	1.733147
18.403220814359884	2.9984035	1.7315899
18.420976262515172	3.0215507	1.7382609
18.43873215678387	3.0504627	1.7465574
18.456488497625923	3.0978703	1.7600768
18.474245285501407	3.2017848	1.7893533
18.492002520870486	3.2580593	1.8050095
18.50976020419343	3.3478699	1.8297185
18.527518335930615	3.645704	1.9093727
18.545276916542516	4.214318	2.0528803
18.563035946489688	4.3600664	2.0880773
18.580795426232832	4.752402	2.1800003
18.598555356232698	4.6246066	2.1504898
18.616315736950185	4.9343038	2.2213292
18.63407656884626	4.606894	2.1463675
18.65183785238201	4.7629223	2.1824121
18.669599588018617	4.5349855	2.1295505
18.68736177621737	4.49507	2.120158
18.705124417439652	4.4677052	2.1136947
18.72288751214696	4.343305	2.0840597
18.740651060800886	4.512341	2.124227
18.758415063863115	4.2669306	2.065655
18.77617952179546	4.3956585	2.0965827
18.793944435059814	4.1663203	2.0411565
18.811709804118184	4.1414495	2.0350552
18.829475629432675	4.1193843	2.0296266
18.8472419114655	3.8914704	1.972681
18.86500865067897	3.9695861	1.992382
18.88277584753551	3.639536	1.9077568
18.90054350249763	3.6566455	1.9122357
18.918311616027957	3.3739936	1.8368434
18.936080188589226	3.307272	1.8185906
18.953849220644265	3.0177379	1.7371638
18.971618712656007	2.840865	1.6854866
18.9893886650875	2.7971768	1.6724763
19.007159078401887	7.979577	2.8248146
19.024929953062408	32.83742	5.7303944
19.042701289532435	32.788227	5.7261004
19.060473088275405	25.36368	5.036237
19.07824534975489	2.6299484	1.6217116
19.096018074434568	2.6434166	1.6258588
19.113791262778197	2.6652148	1.6325486
19.13156491524966	2.6296983	1.6216345
19.149339032312945	2.6003118	1.6125482
19.167113614432136	2.5932767	1.6103654
19.184888662071433	2.5814369	1.606685
19.202664175695123	2.5456724	1.5955163
19.220440155767623	2.49223	1.5786798
19.238216602753447	2.4938686	1.5791987
19.2559935171172	2.4765542	1.5737071
19.27377089932361	2.471834	1.5722067
19.291548749837514	2.443774	1.5632575
19.309327069123835	2.498123	1.5805452
19.32710585764763	2.509578	1.5841647
19.344885115874032	2.512785	1.5851766
19.362664844268313	2.5009866	1.5814508
19.380445043295822	2.483206	1.5758191
19.39822571342203	2.4411309	1.5624119
19.41600685511252	2.4145112	1.5538697
19.43378846883297	2.43887	1.5616882
19.451570555049173	2.47225	1.572339
19.469353114227037	2.4984424	1.5806462
19.48713614683254	2.4765499	1.5737058
19.50491965333182	2.4746432	1.5730999
19.52270363419109	2.5174434	1.5866454
19.540488089876686	2.494357	1.5793533
19.55827302085503	2.451641	1.5657717
19.576058427592674	2.3984149	1.5486816
19.593844310556282	2.425759	1.5574849
19.611630670212598	2.4638422	1.569663
19.629417507028506	2.4981596	1.5805568
19.64720482147098	2.5022273	1.581843
19.6649926140071	2.48736	1.5771366
19.682780885104084	2.4876804	1.5772382
19.70056963522921	2.466983	1.5706632
19.718358864849908	2.4735703	1.5727588
19.7361485744337	2.4436889	1.5632303
19.753938764448215	2.4565935	1.5673524
19.771729435361202	2.5043223	1.5825051
19.789520587640506	2.5343347	1.5919594
19.807312221754092	2.554853	1.5983907
19.825104338170043	2.542367	1.5944802
19.842896937356517	2.518497	1.5869774
19.860690019781824	2.4769921	1.5738463
19.87848358591436	2.514256	1.5856405
19.896277636222635	2.5102155	1.584366
19.914072171175278	2.513648	1.5854489
19.931867191241015	2.4922566	1.5786883
19.94966269688869	2.4909139	1.5782629
19.967458688587264	2.4715014	1.5721009
19.985255166805807	2.4533122	1.5663053
20.00305213201348	2.4359639	1.5607575
20.020849584679578	2.4330251	1.5598158
20.038647525273507	2.4445593	1.5635086
20.05644595426477	2.4490027	1.564929
20.07424487212299	2.4546304	1.566726
20.092044279317903	2.4470773	1.5643137
20.109844176319353	2.4137294	1.5536182
20.127644563597304	2.3738365	1.540726
20.145445441621817	2.3775485	1.5419301
20.16324681086307	2.4024954	1.5499985
20.181048671791373	2.39997	1.5491837
20.198851024877122	2.390087	1.5459906
20.216653870590836	2.3438437	1.5309616
20.234457209403146	2.343657	1.5309007
20.252261041784802	2.3483496	1.5324326
20.270065368206662	2.3569841	1.5352472
20.287870189139685	2.3355818	1.5282611
20.305675505054968	2.3403187	1.5298101
20.323481316423702	2.363598	1.5373998
20.341287623717207	2.3472073	1.5320598
20.359094427406884	2.3394115	1.5295135
20.376901727964288	2.357337	1.5353621
20.39470952586107	2.3787036	1.5423046
20.41251782156899	2.3733706	1.5405748
20.430326615559935	2.3555677	1.5347859
20.448135908305886	2.3345594	1.5279266
20.465945700278965	2.3228853	1.5241015
20.483755991951384	2.3242135	1.5245371
20.50156678379548	2.3526647	1.5338398
20.519378076283708	2.3615093	1.5367203
20.537189869888635	2.36262	1.5370817
20.55500216508294	2.3342977	1.5278409
20.572814962339415	2.3541868	1.534336
20.59062826213098	2.3499649	1.5329595
20.60844206493066	2.2993846	1.5163722
20.626256371211593	2.263385	1.5044551
20.644071181447032	2.3065934	1.5187473
20.66188649611036	2.3298774	1.5263935
20.67970231567506	2.3309186	1.5267346
20.697518640614742	2.313768	1.5211074
20.715335471403122	2.3135808	1.5210459
20.73315280851404	2.3070986	1.5189136
20.750970652421447	2.2846603	1.5115093
20.768789003599412	2.3052647	1.5183098
20.786607862522136	2.2929792	1.5142586
20.8044272296639	2.3072362	1.5189589
20.82224710549913	2.2915974	1.5138023
20.84006749050237	2.263017	1.5043328
20.857888385148268	3.8203995	1.9545842
20.8757097899116	45.926918	6.7769403
20.893531705267254	64.77556	8.0483265
20.911354131690224	83.75276	9.151653
20.92917706965566	68.9801	8.305426
20.94700051963877	50.050312	7.0746245
20.96482448211493	29.372307	5.4196224
20.982648957559622	4.1303005	2.032314
21.00047394644843	2.2571502	1.5023814
21.01829944925707	2.2540948	1.5013644
21.036125466461375	2.2353752	1.4951171
21.053951998537297	2.2144248	1.4880943
21.071779045960906	2.2060535	1.485279
21.089606609208378	2.237303	1.4957616
21.10743468875603	2.236381	1.4954535
21.12526328508028	2.233986	1.4946524
21.143092398657675	2.2017524	1.4838303
21.16092202996488	2.220066	1.4899886
21.17875217947867	2.185201	1.4782425
21.19658284767596	2.1826212	1.4773697
21.21441403503377	2.2287426	1.4928974
21.232245742029225	2.2594547	1.5031483
21.2500779691396	2.2173889	1.48909
21.26791071684227	2.180598	1.4766848
21.28574398561475	2.1593535	1.4694738
21.30357777593465	2.1304584	1.459609
21.321412088279704	2.127114	1.458463
21.339246923127792	2.122934	1.4570292
21.357082280956888	2.1164746	1.4548109
21.3749181622451	2.0846949	1.4438473
21.392754567470647	2.0787904	1.4418011
21.41059149711187	2.1112096	1.4530002
21.42842895164726	2.120832	1.4563076
21.446266931555378	2.0914242	1.4461757
21.464105437314945	2.081553	1.4427588
21.481944469404798	2.088842	1.4452827
21.49978402830388	2.1110275	1.4529375
21.51762411449127	2.108107	1.4519322
21.53546472844617	2.0991068	1.4488294
21.553305870647876	2.0853083	1.4440596
21.571147541575865	2.099712	1.4490383
21.58898974170967	2.0886416	1.4452133
21.60683247152899	2.0682702	1.4381481
21.62467573151363	2.0364878	1.4270556
21.642519522143523	2.0010543	1.4145863
21.660363843898722	1.9883221	1.4100788
21.6782086972594	1.9855794	1.4091059
21.696054082705864	2.0103698	1.417875
21.713900000718535	2.0148866	1.419467
21.73174645177795	2.01647	1.4200246
21.749593436364794	2.003512	1.4154546
21.767440954959845	1.9960309	1.4128096
21.785289008044032	1.9927835	1.4116598
21.803137596098388	1.9759833	1.4056967
21.820986719604086	1.9899796	1.4106663
21.838836379042412	1.9882958	1.4100695
21.85668657489478	2.0109258	1.4180712
21.87453730764273	2.0279584	1.424064
21.892388577767914	2.0320964	1.4255161
21.91024038575213	2.0107481	1.4180086
21.928092732077285	1.9595431	1.3998368
21.945945617225426	1.9470998	1.3953851
21.963799041678694	1.9831753	1.4082526
21.981653005919398	31.31409	5.5958996
21.999507510429943	78.10258	8.837566
22.01736255569286	73.05766	8.547378
22.035218142190818	4.17843	2.0441208
22.05307427040661	2.0010223	1.414575
22.07093094082315	1.9683378	1.4029746
22.088788153923474	1.9393733	1.3926138
22.106645910190746	1.932556	1.390164
22.12450421010827	1.9532017	1.3975699
22.142363054159464	1.9636372	1.4012984
22.16022244282787	1.9927278	1.41164
22.178082376597164	2.0175498	1.4204048
22.195942855951145	1.9891107	1.4103583
22.213803881373742	2.0010507	1.414585
22.231665453349002	1.9931573	1.4117922
22.24952757236111	1.9805627	1.4073247
22.26739023889438	1.9298307	1.3891834
22.28525345343323	1.9368596	1.391711
22.30311721646225	1.9376576	1.3919977
22.320981528466113	1.9490161	1.3960717
22.33884638992964	1.9351586	1.3910998
22.356711801337788	1.897167	1.3773768
22.37457776317561	1.8921394	1.3755506
22.392444275928337	1.9015394	1.3789632
22.410311340081282	1.927652	1.3883991
22.428178956119904	1.9265237	1.3879927
22.446047124529805	1.9363188	1.3915167
22.46391584579669	1.9343234	1.3907995
22.481785120406414	1.929366	1.3890162
22.49965494884496	1.9065742	1.3807875
22.51752533159841	1.8813962	1.37164
22.53539626915302	1.8884388	1.3742048
22.553267761995137	1.9219221	1.3863341
22.571139810611264	1.933909	1.3906506
22.589012415488025	1.9301804	1.3893093
22.60688557711216	1.908137	1.3813533
22.624759295970566	1.9076693	1.381184
22.642633572550263	1.896443	1.377114
22.660508407338362	1.9133459	1.3832375
22.67838380082217	1.9066013	1.3807974
22.696259753489077	1.9589036	1.3996084
22.714136265826614	1.9527457	1.3974068
22.73201333832246	1.9245095	1.3872669
22.74989097146439	1.8872074	1.3737566
22.76776916574035	1.8601807	1.3638844
22.785647921638393	1.8599224	1.3637897
22.803527239646712	1.8832864	1.3723288
22.82140712025363	1.9272391	1.3882504
22.839287563947593	1.9166731	1.3844396
22.85716857121719	1.8878832	1.3740026
22.875050142551135	1.8566946	1.3626058
22.892932278438277	1.8824065	1.3720082
22.910814979367604	1.8873688	1.3738154
22.928698245828222	1.8864766	1.3734907
22.946582078309387	1.8809539	1.3714787
22.96446647730047	1.8995314	1.3782349
22.98235144329098	1.9343138	1.3907961
23.000236976770562	1.9306141	1.3894655
23.018123078229	1.9083489	1.38143
23.03600974815619	1.8689777	1.3671056
23.053896987042194	1.8755662	1.3695132
23.071784795377173	1.9025048	1.3793131
23.08967317365145	1.916602	1.384414
23.10756212235546	1.9317824	1.3898858
23.125451641979787	1.9297824	1.3891661
23.143341733015134	1.8925658	1.3757056
23.161232395952357	1.8670409	1.366397
23.179123631282426	1.8511074	1.3605541
23.197015439496468	1.8873569	1.3738111
23.214907821085717	1.8993957	1.3781856
23.23280077654157	1.921576	1.3862092
23.250694306355538	1.9726793	1.404521
23.268588411019277	1.9640775	1.4014555
23.28648309102458	1.9642515	1.4015176
23.304378346863356	1.89872	1.3779405
23.322274179027676	1.8586328	1.3633169
23.340170588009723	1.8301508	1.3528306
23.358067574301852	1.8793726	1.3709021
23.37596513839651	1.891301	1.3752458
23.39386328078629	1.9399984	1.3928382
23.411762001963947	1.971205	1.4039961
23.429661302422353	1.9959861	1.4127938
23.4475611826545	1.9910544	1.4110472
23.46546164315356	1.9905623	1.4108729
23.48336268441279	1.9889925	1.4103165
23.501264306925638	1.947344	1.3954726
23.51916651118564	1.936389	1.391542
23.537069297686497	1.956657	1.3988056
23.554972666922037	1.9692725	1.4033077
23.57287661938623	1.9619832	1.4007081
23.59078115557318	1.9495424	1.3962601
23.608686275977128	1.9523671	1.3972713
23.62659198109246	1.9348999	1.3910068
23.6444982714137	1.9427482	1.393825
23.66240514743549	1.9341092	1.3907225
23.68031260965263	1.9016953	1.3790196
23.698220658560068	1.8959446	1.3769331
23.716129294652845	1.9133798	1.3832498
23.7340385184262	1.8759618	1.3696575
23.75194833037546	1.8534623	1.3614192
23.769858730996123	1.8906004	1.374991
23.78776972078382	1.9041494	1.3799092
23.80568130023431	1.89899	1.3780385
23.823593469843495	1.9236897	1.3869715
23.841506230107424	1.955214	1.3982897
23.859419581522275	1.9190334	1.3852918
23.87733352458438	1.8705429	1.3676779
23.89524805979019	1.8925532	1.375701
23.913163187636318	1.9514984	1.3969604
23.931078908619508	1.9719872	1.4042746
23.948995223236633	1.9869951	1.4096081
23.966912131984735	2.0091853	1.4174573
23.98482963536096	2.0466497	1.4306116
24.002747733862616	2.0330336	1.4258449
24.020666427987155	2.0298932	1.4247432
24.038585718232156	2.033168	1.425892
24.056505605095353	2.0415516	1.4288287
24.074426089074617	2.052177	1.4325421
24.092347170667946	2.0280626	1.4241006
24.110268850373515	2.0317113	1.4253811
24.128191128689586	2.0913289	1.4461428
24.146114006114626	2.1273959	1.4585595
24.164037483147187	2.0948148	1.4473475
24.181961560286005	2.02837	1.4242085
24.199886238029926	2.0076046	1.4168997
24.21781151687797	2.087971	1.4449813
24.235737397329274	2.0941246	1.447109
24.253663879883135	2.0636702	1.436548
24.271590965038975	2.0511215	1.4321737
24.289518653296376	2.0688946	1.4383652
24.30744694515505	2.0929608	1.4467069
24.32537584111486	2.063268	1.436408
24.34330534167581	2.0293477	1.4245517
24.361235447338046	2.028028	1.4240885
24.379166158601876	2.0191445	1.420966
24.39709747596772	2.0015855	1.4147741
24.41502939993615	1.9774208	1.4062079
24.432961931007917	1.953213	1.397574
24.450895069683856	1.9503473	1.3965484
24.468828816465	1.9323354	1.3900846
24.4867631718525	1.9201214	1.3856845
24.504698136347656	1.9826481	1.4080654
24.52263371045192	1.967491	1.4026728
24.540569894666874	1.9377384	1.3920268
24.558506689494266	1.88927	1.3745072
24.57644409543597	1.9060687	1.3806045
24.594382112994012	1.8979341	1.3776553
24.61232074267057	1.8882625	1.3741406
24.630259984967953	1.8932459	1.3759527
24.64819984038863	1.9233527	1.3868499
24.66614030943522	1.9505805	1.3966318
24.684081392610462	1.9712615	1.4040163
24.702023090417274	1.9838254	1.4084834
24.7199654033587	2.0078526	1.4169872
24.737908331937927	1.9831462	1.4082422
24.755851876658305	1.9645499	1.401624
24.773796038023324	1.9657041	1.4020357
24.79174081653661	2.0174167	1.420358
24.809686212701962	2.0528293	1.4327698
24.827632227023294	2.0747063	1.440384
24.8455788600047	2.0687551	1.4383168
24.8635261121504	2.0497851	1.431707
24.88147398396475	2.0611346	1.4356652
24.899422475952303	2.0672343	1.437788
24.917371588617698	2.075689	1.4407252
24.935321322465768	2.1482084	1.4656768
24.953271678001478	2.2625804	1.5041876
24.97122265572994	2.4705594	1.5718013
24.989174256156414	2.7958443	1.6720779
25.00712647978632	3.2544782	1.8040172
25.02507932712521	3.8003812	1.9494567
25.043032798678798	4.3546486	2.0867796
25.060986894952933	5.022767	2.241153
25.078941616453637	5.808477	2.4100783
25.096896963687055	6.795824	2.6068802
25.114852937159508	7.978748	2.8246677
25.132809537377444	8.501006	2.9156485
25.150766764847468	8.513821	2.9178452
25.168724620076347	7.9060025	2.8117614
25.186683103570985	6.796299	2.6069713
25.204642215838426	5.5343714	2.3525245
25.222601957385894	4.129895	2.0322144
25.24056232872074	3.1431367	1.7728894
25.25852333035048	2.5681124	1.6025331
25.276484962782778	2.2343266	1.4947664
25.294447226525435	2.0258706	1.4233308
25.312410122086423	1.9480844	1.3957379
25.330373649973843	1.9287554	1.3887963
25.348337810695988	1.920089	1.3856728
25.366302604761245	1.8936429	1.376097
25.384268032678207	1.8565303	1.3625455
25.40223409495558	1.8564259	1.3625072
25.420200792102257	1.8635356	1.3651137
25.438168124627246	1.856968	1.3627062
25.45613609303974	1.8546894	1.3618698
25.474104697849057	1.8572705	1.3628172
25.492073939564698	1.8236649	1.3504313
25.510043818696285	1.8322703	1.3536137
25.528014335753614	1.8592902	1.3635579
25.54598549124664	1.8554491	1.3621486
25.56395728568544	1.8698604	1.3674284
25.58192971958028	1.864225	1.3653662
25.59990279344156	1.8587419	1.3633568
25.617876507779833	1.8175298	1.3481579
25.635850863105826	1.8153802	1.3473605
25.653825859930386	1.8523865	1.361024
25.671801498764548	1.882497	1.3720411
25.68977778011949	1.9015191	1.3789558
25.707754704506524	1.9051775	1.3802817
25.725732272437153	1.8450974	1.3583436
25.743710484423012	1.8138874	1.3468064
25.761689340975888	1.8577285	1.3629851
25.77966884260774	1.8575063	1.3629036
25.797648989830662	1.806356	1.3440074
25.815629783156922	1.7704986	1.3306009
25.83361122309895	1.8028866	1.3427161
25.85159331016929	1.8402381	1.3565538
25.869576044880695	1.901489	1.3789449
25.887559427746034	1.9308188	1.389539
25.90554345927836	1.9301517	1.389299
25.92352813999086	1.878836	1.3707064
25.94151347039689	1.8525972	1.3611015
25.959499451009965	1.8607333	1.364087
25.97748608234374	1.822527	1.35001
25.995473364912062	1.7856189	1.3362706
26.013461299228904	1.751892	1.3235905
26.03144988580839	1.7845793	1.3358815
26.04943912516483	1.8205259	1.3492687
26.067429017812675	1.827569	1.3518761
26.085419564266537	1.8268017	1.3515923
26.103410765041186	1.806617	1.3441045
26.12140262065155	1.8304847	1.352954
26.139395131612723	1.835442	1.3547848
26.157388298439948	1.8707459	1.3677521
26.17538212164861	1.841622	1.3570638
26.193376601754295	1.8733819	1.3687154
26.211371739272714	1.8934691	1.3760338
26.229367534719746	1.8851012	1.3729899
26.247363988611433	1.869292	1.3672205
26.26536110146397	1.8091772	1.3450565
26.283358873793727	1.803035	1.3427714
26.301357306117204	1.8212775	1.3495471
26.319356398951104	1.8132755	1.3465792
26.33735615281224	1.815388	1.3473634
26.35535656821762	1.8025433	1.3425883
26.373357645684404	1.833439	1.3540454
26.39135938572991	1.8006772	1.3418931
26.409361788871614	1.7961111	1.3401906
26.427364855627165	1.7645115	1.3283491
26.445368586514352	1.7517419	1.3235339
26.46337298205115	1.7821774	1.3349822
26.48137804275568	1.7866443	1.3366542
26.499383769146217	1.7865707	1.3366266
26.517390161741215	1.7925553	1.3388635
26.53539722105928	1.7887704	1.3374492
26.553404947619182	1.7877995	1.3370862
26.571413341939856	1.7721449	1.3312193
26.589422404540397	1.7526636	1.323882
26.60743213594006	1.731452	1.3158464
26.62544253665827	1.746967	1.3217288
26.64345360721459	1.7886486	1.3374037
26.66146534812879	1.8059218	1.3438458
26.679477759920758	1.7578363	1.3258342
26.69749084311057	1.7510202	1.3232611
26.71550459821847	1.7666388	1.3291496
26.733519025764842	1.7623132	1.3275214
26.751534126270258	1.7576718	1.3257722
26.769549900255434	1.7517433	1.3235344
26.787566348241267	1.7324893	1.3162407
26.80558347074881	1.7093334	1.3074148
26.823601268299267	1.735809	1.3175011
26.841619741414036	1.7375942	1.3181784
26.85963889061465	1.756321	1.3252625
26.877658716422832	1.7980139	1.3409004
26.89567921936045	1.8168324	1.3478993
26.913700399949544	1.8170952	1.3479967
26.93172225871233	1.8355887	1.354839
26.949744796171174	1.8225753	1.3500279
26.967768012848605	1.7849883	1.3360345
26.98579190926733	1.7446474	1.320851
27.003816485950225	1.7928848	1.3389865
27.021841743420318	1.7998936	1.3416011
27.039867682200814	1.7777454	1.3333212
27.057894302815072	1.7247488	1.3132969
27.07592160578664	1.7274358	1.3143195
27.0939495916392	1.7382656	1.318433
27.111978260896635	1.8036283	1.3429923
27.13000761408296	1.8097081	1.345254
27.148037651722397	1.7971532	1.3405794
27.166068374339304	1.7557877	1.3250614
27.184099782458215	1.754116	1.3244305
27.20213187660384	1.7702125	1.3304933
27.22016465730105	1.7809973	1.3345401
27.23819812507487	1.7835714	1.3355042
27.256232280450533	1.7919424	1.3386345
27.274267123953383	1.8113021	1.3458462
27.292302656108987	1.8377526	1.3556373
27.31033887744306	1.862126	1.3645973
27.32837578848146	1.8635889	1.3651333
27.34641338975026	1.8264325	1.3514557
27.364451681775673	1.7532425	1.3241006
27.382490665084074	1.7441753	1.3206723
27.400530340202046	1.7415524	1.3196789
27.41857070765629	1.7230706	1.3126578
27.436611767973726	1.7584038	1.3260481
27.454653521681404	1.7751776	1.3323579
27.472695969306564	1.8121316	1.3461543
27.490739111376627	1.8109236	1.3457056
27.508782948419153	1.7974865	1.3407037
27.526827480961902	1.7935396	1.339231
27.54487270953279	1.8162067	1.3476671
27.562918634659898	1.8551223	1.3620287
27.580965256871508	1.8419603	1.3571883
27.599012576696026	1.8311584	1.353203
27.617060594662068	1.8158324	1.3475282
27.63510931129842	1.8021898	1.3424566
27.65315872713401	1.7711426	1.3308429
27.67120884269797	1.818504	1.3485192
27.68925965851958	1.8766329	1.3699025
27.707311175128307	1.8307285	1.3530442
27.725363393053787	1.8013219	1.3421333
27.74341631282583	1.7981694	1.3409584
27.7614699349744	1.8173108	1.3480767
27.77952426002968	1.984543	1.408738
27.797579288521973	2.0883222	1.4451028
27.815635020981784	2.4223752	1.5563982
27.83369145793979	2.4658446	1.5703008
27.85174859992682	2.3282206	1.5258508
27.869806447473923	2.211078	1.4869694
27.887865001112267	1.9965172	1.4129816
27.905924261373233	1.9154829	1.3840097
27.92398422878836	1.8966002	1.3771712
27.94204490388936	1.9302093	1.3893198
27.96010628720813	1.9048344	1.3801574
27.978168379276728	1.8935	1.376045
27.9962311806274	1.8468168	1.3589764
28.014294691792568	1.758382	1.3260399
28.0323589133048	1.7788419	1.3337322
28.050423845696887	1.8194021	1.3488522
28.068489489501758	1.8312703	1.3532444
28.086555845252523	1.810243	1.3454527
28.104622913482487	1.8161945	1.3476626
28.122690694725115	1.8038212	1.3430641
28.14075918951405	1.8287454	1.3523111
28.15882839838312	1.8645481	1.3654846
28.176898321866304	1.8214612	1.3496152
28.1949689604978	1.8467335	1.3589457
28.213040314811945	1.8456296	1.3585395
28.23111238534327	1.8645723	1.3654934
28.249185172626493	1.8708296	1.3677827
28.267258677196473	1.8727536	1.3684859
28.285332899588294	1.8787833	1.3706871
28.303407840337172	1.8763081	1.369784
28.321483499978545	1.9175508	1.3847566
28.33955987904799	1.9290045	1.3888861
28.357636978081285	1.95264	1.397369
28.37571479761439	1.9453121	1.3947445
28.393793338183425	1.9348583	1.3909918
28.41187260032469	1.9344206	1.3908345
28.429952584574686	1.9497143	1.3963217
28.448033291470065	2.0306242	1.4249997
28.46611472154769	2.0404694	1.42845
28.484196875344566	2.018435	1.4207164
28.502279753397914	2.0192404	1.4209998
28.52036335624511	1.9566765	1.3988125
28.538447684423716	1.9606363	1.4002272
28.556532738471482	2.002146	1.4149721
28.574618518926325	2.038097	1.4276193
28.59270502632635	2.0111423	1.4181474
28.61079226120985	1.9694409	1.4033678
28.628880224115274	1.9828742	1.4081457
28.646968915581287	1.9757811	1.4056247
28.66505833614671	1.9745355	1.4051816
28.68314848635055	1.9949085	1.4124123
28.701239366732004	2.0466013	1.4305947
28.71933097783044	2.0328746	1.4257891
28.737423320185403	2.0352342	1.4266163
28.75551639433665	2.0699651	1.4387374
28.773610200824074	2.104088	1.4505475
28.791704740187793	2.1340477	1.4608381
28.80980001296809	2.155843	1.4682789
28.827896019705413	2.1707597	1.4733498
28.845992760940433	2.1763542	1.4752471
28.86409023721397	2.140298	1.4629757
28.88218844906704	2.1186597	1.4555616
28.900287397040845	2.156913	1.4686433
28.918387081676755	2.224154	1.4913598
28.936487503516343	2.2579646	1.5026525
28.954588663101365	2.2800267	1.5099757
28.97269056097374	2.308051	1.5192271
28.990793197675597	2.3371382	1.5287702
29.00889657374923	2.364043	1.5375445
29.027000689737125	2.374404	1.5409101
29.04510554618196	2.4152946	1.5541219
29.06321114362659	2.4483514	1.5647209
29.08131748261405	2.4300945	1.558876
29.099424563687567	2.427975	1.5581961
29.11753238739057	2.4759476	1.5735145
29.13564095426663	2.5507765	1.597115
29.15375026485954	2.617774	1.6179537
29.171860319713275	2.6529121	1.6287763
29.18997111937199	2.6508217	1.6281344
29.20808266438002	2.6630538	1.6318866
29.226194955281898	2.728519	1.6518229
29.244307992622335	2.8046706	1.674715
29.26242177694624	2.809286	1.6760925
29.2805363087987	2.79456	1.6716937
29.29865158872498	2.782716	1.6681474
29.316767617270557	2.8450472	1.6867268
29.334884394981064	2.9160323	1.7076395
29.353001922402367	2.9975727	1.73135
29.37112020008047	3.0683076	1.7516586
29.389239228561596	3.173549	1.7814457
29.407359008392152	3.3458345	1.8291622
29.42547954011872	3.6591892	1.9129007
29.44360082428809	4.2361927	2.0582013
29.46172286144722	5.373518	2.318085
29.479845652143283	7.0279236	2.6510231
29.497969196923606	9.172406	3.028598
29.516093496335728	11.8944845	3.4488382
29.5342185509274	15.070915	3.8821278
29.55234436124651	17.71263	4.208637
29.570470927841175	19.095003	4.369783
29.588598251259686	18.868	4.343731
29.60672633205055	17.464066	4.179003
29.624855170762405	15.147297	3.8919528
29.642984767944146	12.100349	3.4785557
29.66111512414481	9.064553	3.0107396
29.67924623991366	6.6238694	2.5736878
29.697378115800138	5.0908504	2.2562914
29.71551075235387	4.252408	2.0621367
29.733644150124675	3.7649531	1.9403487
29.751778309662576	3.5531194	1.884972
29.769913231517766	3.4812849	1.8658202
29.78804891624066	3.4192305	1.8491161
29.806185364381818	3.3843265	1.8396538
29.82432257649206	3.310886	1.819584
29.842460553122333	3.2534945	1.8037446
29.86059929482382	3.263393	1.8064864
29.878738802147872	3.2871053	1.8130376
29.896879075646048	3.3096817	1.8192531
29.915020115870114	3.2825313	1.8117757
29.933161923371976	3.21964	1.7943355
29.951304498703777	3.223942	1.7955339
29.969447842417857	3.1867595	1.7851497
29.987591955066733	3.1106317	1.7636983
30.005736837203123	3.0834672	1.7559804
30.023882489379943	3.1254554	1.7678957
30.04202891215028	3.1213753	1.7667414
30.060176106067455	3.0738006	1.7532258
30.078324071684946	3.1211987	1.7666914
30.09647280955646	3.203847	1.7899293
30.114622320235863	3.1724253	1.7811303
30.132772604277257	3.0801194	1.7550269
30.1509236622349	3.0131893	1.735854
30.16907549466328	2.922876	1.709642
30.18722810211705	2.9775438	1.7255561
30.205381485151097	3.0393682	1.7433784
30.22353564432045	3.0045865	1.7333744
30.241690580180403	2.9710011	1.7236593
30.25984629328638	3.01602	1.7366693
30.278002784194037	2.9910252	1.7294581
30.296160053459246	2.9809396	1.7265397
30.314318101638033	2.9225352	1.7095424
30.332476929286646	2.975083	1.7248429
30.35063653696153	2.9499493	1.7175416
30.368796925219307	2.8986213	1.7025338
30.386958094616844	2.9143188	1.7071376
30.40512004571115	2.9305065	1.7118722
30.423282779059463	2.996045	1.7309088
30.441446295219233	2.9946687	1.7305111
30.459610594748067	2.88243	1.6977721
30.47777567820382	2.8219688	1.6798717
30.495941546144504	2.8273938	1.6814855
30.51410819912835	2.8423781	1.6859354
30.532275637713795	2.7723806	1.6650467
30.55044386245946	2.7685676	1.6639013
30.56861287392416	2.821257	1.6796598
30.586782672666956	2.752571	1.6590874
30.604953259247047	2.7286556	1.6518643
30.623124634223885	2.7962995	1.6722139
30.641296798157075	2.775482	1.6659777
30.659469751606462	2.7478647	1.6576685
30.677643495132074	2.7701988	1.6643914
30.695818029294152	2.7807834	1.6675681
30.713993354653116	2.7453682	1.6569153
30.73216947176962	2.6341672	1.6230117
30.75034638120448	2.6431813	1.6257864
30.768524083518756	2.6618936	1.6315311
30.786702579273673	2.713996	1.647421
30.80488186903069	2.8430908	1.6861467
30.82306195335144	2.9975233	1.7313358
30.841242832797782	3.1725426	1.7811632
30.85942450793176	3.4509485	1.8576728
30.877606979315637	3.8034306	1.9502386
30.895790247511883	4.2147875	2.0529947
30.913974313083134	4.6402884	2.1541328
30.932159176592283	4.9819117	2.2320197
30.95034483860237	4.9646316	2.2281454
30.968531299676698	4.6992846	2.1677833
30.98671856037873	4.367048	2.0897481
31.00490662127215	3.9957817	1.9989451
31.023095482920848	3.509903	1.8734735
31.04128514588892	3.0511158	1.7467443
31.059475610740662	2.678548	1.6366271
31.07766687804056	2.4765797	1.5737152
31.09585894835335	2.4023883	1.549964
31.11405182224393	2.3983674	1.5486664
31.132245500277417	2.458528	1.5679694
31.15043998301914	2.4734821	1.5727308
31.168635271034628	2.450966	1.565556
31.18683136488964	2.4930863	1.578951
31.20502826515008	2.5193112	1.5872338
31.223225972382135	2.4781747	1.574222
31.241424487152155	2.4196384	1.5555187
31.259623810026692	2.3642647	1.5376166
31.27782394157253	2.3546035	1.5344718
31.296024882356644	2.3730614	1.5404744
31.314226632946237	2.3536353	1.5341562
31.332429193908684	2.332319	1.5271932
31.350632565811598	2.330376	1.5265568
31.368836749222787	2.3544881	1.5344342
31.387041744710295	2.3747134	1.5410105
31.40524755284232	2.4588768	1.5680807
31.423454174187317	2.5438685	1.5949509
31.441661609313922	2.5725574	1.6039194
31.459869858791002	2.5073524	1.5834621
31.478078923187628	2.3667426	1.5384221
31.496288803073064	2.2833867	1.5110879
31.514499499016807	2.2577105	1.502568
31.532711011588546	2.255184	1.501727
31.550923341358178	2.199147	1.4829521
31.56913648889584	2.195845	1.4818383
31.587350454771844	2.2181003	1.4893289
31.605565239556732	2.2108169	1.4868816
31.62378084382127	2.2580516	1.5026815
31.641997268136382	2.2752843	1.5084045
31.660214513073274	2.2769501	1.5089567
31.67843257920331	2.2363124	1.4954305
31.6966514670981	2.200692	1.483473
31.71487117732944	2.1522202	1.4670447
31.733091710469346	2.165871	1.4716898
31.751313067090052	2.2273748	1.4924392
31.769535247764008	2.2602372	1.5034086
31.787758253063878	2.2703917	1.5067819
31.805982083562526	2.334739	1.5279852
31.824206739833024	2.3325324	1.527263
31.84243222244869	2.2452054	1.4984009
31.860658531983013	2.1756144	1.4749964
31.878885669009737	2.2170355	1.4889714
31.897113634102784	2.299912	1.516546
31.91534242783632	2.2793202	1.5097418
31.933572050784694	2.2219522	1.4906214
31.951802503522508	2.1828496	1.477447
31.970033786624548	2.1596425	1.4695722
31.988265900665834	2.131868	1.4600917
32.006498846221575	2.1453142	1.4646891
32.02473262386724	2.1412773	1.4633104
32.04296723417845	2.1481273	1.4656491
32.0612026777311	2.0621989	1.4360359
32.07943895510129	2.0707672	1.439016
32.097676066865304	2.1487923	1.465876
32.115914013599685	2.203239	1.4843311
32.13415279588115	2.1825461	1.4773443
32.152392414286666	2.1216428	1.456586
32.1706328693934	2.1389196	1.4625045
32.18887416177875	2.165464	1.4715515
32.20711629202032	2.128142	1.4588153
32.225359260695924	2.0875177	1.4448245
32.243603068383614	2.0963738	1.447886
32.26184771566166	2.0437515	1.4295983
32.28009320310852	1.9837562	1.4084588
32.2983395313029	2.0119698	1.4184393
32.31658670082372	2.1179478	1.4553171
32.33483471225012	2.167953	1.4723971
32.35308356616143	2.1692798	1.4728475
32.371333263137245	2.1300411	1.4594661
32.38958380375734	2.108565	1.4520899
32.407835188601744	2.1655903	1.4715945
32.42608741825067	2.2684784	1.5061469
32.444340493284585	2.3341901	1.5278057
32.46259441428416	2.2107794	1.486869
32.48084918183028	2.0577137	1.4344733
32.49910479650405	1.9553427	1.3983357
32.51736125888683	2.014337	1.4192734
32.53561856956014	2.082467	1.4430755
32.5538767291058	1.9927912	1.4116626
32.572135738105764	1.9913466	1.4111508
32.59039559714228	2.060688	1.4355097
32.608656306797776	2.1132941	1.4537174
32.62691786765491	2.064696	1.436905
32.645180280296586	1.967417	1.4026464
32.663443545305896	1.8734022	1.3687228
32.68170766326619	1.8837531	1.3724989
32.69997263476099	1.9425832	1.3937658
32.7182384603741	1.9566692	1.3988099
32.7365051406895	2.016345	1.4199806
32.75477267629144	2.0134163	1.418949
32.77304106776434	2.0120285	1.4184599
32.79131031569289	2.064689	1.4369025
32.809580420661966	2.036601	1.4270953
32.827851383256714	2.005553	1.4161755
32.84612320406245	1.9934452	1.4118942
32.86439588366476	1.9826363	1.4080611
32.88266942264945	1.8201078	1.3491137
32.9009438216025	1.8258094	1.3512251
32.9192190811102	1.9147857	1.3837578
32.937495201758985	1.956351	1.3986962
32.95577218413556	2.0464852	1.4305542
32.974050028826866	2.0881002	1.445026
32.992328736420035	2.026209	1.4234498
33.010608307502444	1.8941603	1.376285
33.02888874266169	1.8536941	1.3615043
33.047170042485604	1.921095	1.3860357
33.06545220756225	1.9486412	1.3959374
33.083735238479896	1.8248163	1.3508576
33.10201913582707	1.8219445	1.3497943
33.12030390019248	1.8837557	1.3724998
33.138589532165135	1.9448193	1.3945678
33.15687603233419	2.042156	1.4290402
33.17516340128909	2.0199702	1.4212565
33.19345163961947	1.8756245	1.3695344
33.211740747915215	1.7811111	1.3345828
33.23003072676643	1.7421038	1.3198878
33.248321576763466	1.8044759	1.3433079
33.266613298496885	1.8740501	1.3689595
33.28490589255747	1.9568987	1.3988919
33.30319935953626	1.9994986	1.4140363
33.32149370002451	1.923776	1.3870026
33.339788914613706	1.8650032	1.3656512
33.358085003895575	1.8711344	1.3678942
33.376381968462034	1.927276	1.3882637
33.39467980890529	1.9865443	1.4094483
33.41297852581774	1.8989483	1.3780234
33.43127811979204	1.8324045	1.3536633
33.44957859142105	1.9593848	1.3997803
33.467879941297866	2.1516004	1.4668335
33.486182170015844	2.1713502	1.4735502
33.50448527816853	1.9143128	1.383587
33.522789266349754	1.7262802	1.3138798
33.541094135153514	1.7538512	1.3243304
33.55939988517411	1.8816613	1.3717366
33.57770651700602	1.9682096	1.402929
33.59601403124398	2.0350382	1.4265476
33.61432242848296	2.0731683	1.4398501
33.632631709318154	2.0213697	1.4217488
33.650941874344994	2.0033965	1.4154139
33.66925292415916	1.988499	1.4101415
33.68756485935654	1.9269923	1.3881615
33.70587768053328	1.8946122	1.3764491
33.724191388285746	1.9244298	1.3872381
33.74250598321054	1.9680669	1.402878
33.760821465904506	1.9005799	1.3786153
33.77913783696474	1.9717194	1.4041792
33.79745509698852	2.069092	1.4384339
33.815773246573414	2.0479302	1.4310591
33.8340922863172	1.9727864	1.4045591
33.852412216817896	1.8585224	1.3632764
33.87073303867377	1.768568	1.3298752
33.889054752483304	1.7812786	1.3346455
33.907377358845245	1.9281647	1.3885837
33.92570085835853	2.0440536	1.429704
33.94402525162239	1.8864697	1.3734882
33.96235053923627	1.719718	1.3113801
33.980676721799824	1.8907678	1.375052
33.999003799912984	2.041083	1.4286648
34.01733177417592	2.0062594	1.4164249
34.03566064518901	1.8809235	1.3714676
34.0539904135529	1.8399519	1.3564483
34.07232107986846	1.8145705	1.34706
34.090652644736785	1.8600453	1.3638347
34.108985108759235	1.9282022	1.3885971
34.12731847253742	1.9613672	1.4004883
34.14565273667313	2.0075397	1.4168768
34.16398790176847	2.092136	1.4464217
34.18232396842574	2.025826	1.4233152
34.20066093724749	1.8881	1.3740815
34.21899880883651	1.9435588	1.3941158
34.23733758379583	2.00848	1.4172086
34.25567726272874	1.946089	1.395023
34.27401784623872	1.7884452	1.3373276
34.29235933492957	1.8511375	1.3605652
34.31070172940526	2.0815008	1.4427407
34.32904503027003	2.0547779	1.4334496
34.347389238128386	1.9151325	1.3838831
34.36573435358502	1.963886	1.4013872
34.38408037724492	1.9832081	1.4082642
34.402427309713296	1.9078585	1.3812525
34.42077515159559	1.9088266	1.3816029
34.43912390349752	1.9559615	1.398557
34.45747356602499	1.9542444	1.3979429
34.47582413978423	1.9397104	1.3927349
34.49417562538163	2.102924	1.4501462
34.51252802342388	2.0546143	1.4333926
34.53088133451789	1.9267086	1.3880593
34.54923555927084	1.881351	1.3716235
34.567590698290104	1.8615817	1.3643979
34.58594675218336	1.8576242	1.3629469
34.6043037215585	1.8323492	1.353643
34.62266160702365	1.6411083	1.2810575
34.641020409187234	1.6631442	1.2896295
34.65938012865785	1.8689091	1.3670806
34.677740766044394	2.0094109	1.4175369
34.69610232195598	1.9973334	1.4132705
34.714464797002016	1.8969734	1.3773066
34.73282819179208	1.8633176	1.3650339
34.751192506936064	1.8435175	1.357762
34.76955774304408	1.8663715	1.366152
34.7879239007265	1.8947161	1.3764869
34.80629098059391	1.9661976	1.4022117
34.824658983257194	2.0995238	1.4489733
34.843027909327446	2.009338	1.4175111
34.86139775941603	1.7819928	1.334913
34.879768534134534	1.767364	1.3294225
34.89814023409483	1.8371842	1.3554276
34.91651285990901	1.8282305	1.3521208
34.93488641218944	1.9824523	1.4079958
34.95326089154871	2.1086614	1.452123
34.97163629859967	2.0024364	1.4150747
34.99001263395542	2.0386739	1.4278214
35.00838989822934	2.1033525	1.4502939
35.02676809203499	1.9671267	1.402543
35.04514721598624	1.8284879	1.3522159
35.063527270697215	1.9675623	1.4026983
35.081908256782256	1.9763697	1.4058342
35.10029017485597	1.8786775	1.3706486
35.11867302553321	1.7548895	1.3247224
35.137056809429104	1.6672949	1.2912377
35.155441527159006	1.8449837	1.3583018
35.173827179338524	2.0805721	1.4424188
35.19221376658354	2.0270262	1.4237367
35.21060128951017	1.9850327	1.4089118
35.2289897487348	2.155438	1.468141
35.24737914487405	2.2743266	1.508087
35.26576947854479	2.2439005	1.4979655
35.28416075036418	2.1879258	1.4791639
35.30255296094958	2.3219562	1.5237967
35.32094611091867	2.1767201	1.4753712
35.33934020088932	2.1105614	1.4527771
35.35773523147969	2.391596	1.5464786
35.3761312033082	2.2019587	1.4838998
35.394528116993506	1.8767014	1.3699275
35.41292597315452	1.7394646	1.3188877
35.431324772410434	1.9452239	1.3947128
35.449724515380666	2.0625777	1.4361677
35.46812520268491	2.3046863	1.5181193
35.486526834943106	2.1499085	1.4662566
35.504929412775454	1.8531889	1.3613188
35.52333293680242	1.6516128	1.2851509
35.54173740764471	1.5966563	1.2635887
35.560142825923286	1.763364	1.3279171
35.5785491922594	1.8491327	1.3598281
35.59695650727454	1.7431961	1.3203015
35.61536477159042	0.7646945	0.87446815
