0.008763373481513119	0.051685803	0.22734512
0.026290120649546365	0.44298872	0.66557395
0.043816868432600686	0.37061176	0.6087789
0.06134361724069026	0.2558193	0.5057858
0.07887036748382949	0.12936637	0.35967538
0.0963971195720331	0.056627702	0.23796576
0.11392387391531617	0.10032807	0.31674606
0.1314506309236943	0.1271071	0.35652083
0.1489773910071836	0.1118605	0.33445552
0.16650415457580078	0.12010909	0.34656757
0.18403092203956356	0.17887829	0.42294005
0.20155769380849	0.16166393	0.40207455
0.2190844702925996	0.097273305	0.3118867
0.2366112519019124	0.07372911	0.27153105
0.2541380390464497	0.09090466	0.301504
0.27166483213623416	0.17076202	0.4132336
0.28919163158128947	0.2022149	0.4496831
0.3067184377916406	0.1747208	0.41799617
0.324245251177314	0.15633719	0.39539498
0.34177207214833777	0.10298957	0.32091987
0.3592989011147415	0.108410075	0.32925686
0.37682573848655654	0.1270972	0.35650694
0.39435258467381573	0.12020149	0.34670088
0.41187944008655414	0.1516431	0.38941377
0.42940630513480854	0.16603464	0.40747347
0.446933180228618	0.16589893	0.40730694
0.4644600657780234	0.14776383	0.3844006
0.48198696219306775	0.15847597	0.3980904
0.49951386988379676	0.16697267	0.4086229
0.5170407892602581	0.16509527	0.40631917
0.5345677207325025	0.15606955	0.3950564
0.5520946647105822	0.16475718	0.40590292
0.5696216216045534	0.127814	0.35751083
0.5871485918244737	0.13848782	0.3721395
0.6046755757804043	0.16077536	0.40096804
0.6222025738824094	0.19073768	0.43673524
0.6397295865405557	0.19337061	0.43973926
0.6572566141649129	0.16928904	0.4114475
0.6747836571655547	0.19378573	0.440211
0.6923107159525568	0.22731112	0.47677156
0.7098377909359992	0.23343296	0.48314902
0.7273648825259653	0.21868318	0.46763575
0.7448919911325411	0.17629628	0.41987652
0.762419117165817	0.188003	0.43359312
0.7799462610358868	0.15859379	0.39823836
0.7974734231528482	0.17242774	0.4152442
0.8150006039268024	0.19417009	0.44064736
0.8325278037678551	0.22428694	0.47358942
0.8500550230861152	0.21759689	0.4664728
0.8675822622916969	0.20559916	0.45343044
0.8851095217947171	0.17488484	0.41819236
0.9026368020052984	0.20564446	0.4534804
0.9201641033335665	0.25997338	0.50987583
0.9376914261896523	0.29847336	0.5463272
0.9552187709836915	0.30373242	0.55111927
0.9727461381258234	0.2761803	0.5255286
0.990273528026193	0.23320179	0.4829097
1.0078009410949496	0.20953771	0.45775288
1.0253283777422473	0.22096266	0.47006667
1.0428558383782454	0.21794887	0.46684995
1.0603833234131086	0.26543775	0.5152065
1.0779108332570058	0.34857178	0.5903997
1.0954383683201119	0.37279534	0.6105697
1.112965929012607	0.41435382	0.6437032
1.1304935157446763	0.5289378	0.7272811
1.1480211289265108	0.54988635	0.74154323
1.1655487689683062	1.1927383	1.0921255
1.1830764362802655	1.3871688	1.1777813
1.200604131272596	1.8216413	1.349682
1.2181318543555117	2.3824584	1.5435214
1.235659605939232	2.4343402	1.5602373
1.253187386433982	4.002602	2.0006504
1.270715196249994	6.5946636	2.5680077
1.2882430357975057	12.020872	3.467113
1.3057709054867608	16.811934	4.100236
1.3232988057280106	22.440376	4.7371273
1.3408267369315112	27.049747	5.2009373
1.358354699507526	30.705322	5.5412383
1.3758826938663256	34.433987	5.8680477
1.3934107204181858	36.92929	6.0769477
1.410938779573391	37.733944	6.142796
1.4284668717422309	38.756763	6.225493
1.4459949973350033	38.05878	6.16918
1.4635231567620117	37.59543	6.131511
1.4810513504335687	36.493973	6.041024
1.4985795787599925	35.90296	5.991908
1.5161078421516088	35.736763	5.9780235
1.5336361410187505	34.796673	5.8988705
1.5511644757717598	34.971664	5.9136844
1.5686928468209842	35.728615	5.9773417
1.58622125457678	36.393085	6.032668
1.6037496994495108	37.652794	6.136187
1.621278181849548	37.527695	6.125985
1.6388067021872719	38.282288	6.1872683
1.6563352608730693	37.335766	6.1103
1.673863858317336	36.36037	6.0299563
1.6913924949304753	35.725468	5.9770784
1.7089211711228998	34.84886	5.9032927
1.7264498873050296	34.12511	5.84167
1.7439786438872935	32.85514	5.7319403
1.7615074412801288	31.603897	5.621734
1.779036279893981	31.032833	5.570712
1.796565160139305	30.31642	5.506035
1.814094082426564	30.136597	5.489681
1.8316230471662298	29.598959	5.4404926
1.849152054768784	28.394096	5.328611
1.8666811056447168	27.654253	5.258731
1.8842102002045273	26.877283	5.1843305
1.901739338858724	26.492025	5.1470404
1.9192685220178245	26.002842	5.099298
1.9367977500923557	25.313425	5.0312448
1.9543270234928547	24.909098	4.9909015
1.971856342629867	24.159243	4.9152055
1.9893857079139496	23.822884	4.880869
2.006915119755667	23.198633	4.816496
2.0244445785655945	22.4795	4.7412553
2.0419740847543175	22.15837	4.7072678
2.0595036387324317	21.589016	4.646398
2.0770332409105414	21.2788	4.612895
2.094562891699263	20.930223	4.574956
2.1120925915092217	20.643587	4.5435214
2.129622340751053	19.941578	4.4655995
2.1471521398354043	187.92902	13.70872
2.1646819891729323	443.9809	21.070854
2.182211889174303	440.35556	20.98465
2.1997418402501974	452.62292	21.274937
2.2172718428113023	432.68765	20.801146
2.234801897268317	320.85516	17.91243
2.2523320040319548	17.469233	4.179621
2.269862163512935	16.912828	4.112521
2.287392376121992	16.432749	4.053733
2.304922642269869	16.15241	4.0190063
2.322452962367322	15.963145	3.9953904
2.3399833368251164	15.818294	3.9772217
2.357513766054032	15.599204	3.9495828
2.3750442504648586	15.358246	3.9189599
2.3925747904683963	15.008745	3.8741121
2.410105386475459	14.553988	3.814969
2.4276360388968707	14.253984	3.775445
2.445166748143469	14.147499	3.761316
2.4626975146261025	13.930505	3.7323592
2.4802283387556323	13.583131	3.68553
2.4977592209429305	13.237316	3.6383123
2.5152901615988825	13.092367	3.6183376
2.5328211611343865	12.978093	3.6025121
2.5503522199603523	12.817154	3.5801053
2.5678833384877024	12.577928	3.5465374
2.5854145171273712	12.4161415	3.5236545
2.6029457562903064	12.247618	3.4996598
2.620477056387469	11.991573	3.4628851
2.6380084178298326	11.604454	3.406531
2.655539841028383	11.444154	3.382921
2.673071326394119	11.318732	3.3643324
2.6906028743380523	11.265792	3.3564553
2.708134485271211	11.072453	3.3275294
2.7256661596046325	10.914436	3.3037004
2.743197897749369	10.724441	3.2748191
2.760729700116486	10.454089	3.2332783
2.778261567117063	10.289365	3.207704
2.795793499162193	10.158142	3.187184
2.8133254966629817	10.102669	3.1784697
2.830857560030551	9.886419	3.1442678
2.8483896896760337	9.788673	3.1286855
2.865921886010578	9.703326	3.1150162
2.883454149445347	9.570016	3.0935442
2.9009864803915177	9.492911	3.0810568
2.91851887926028	9.193279	3.032042
2.9360513464628384	9.065293	3.0108626
2.953583882410413	8.985271	2.9975443
2.9711164875142373	8.864026	2.9772515
2.9886491621855606	8.750711	2.9581602
3.0061819068356455	8.643993	2.9400668
3.023714721875769	8.577875	2.928801
3.041247607717225	8.60416	2.933285
3.0587805647713213	8.562155	2.926116
3.0763135934493806	8.363704	2.8920069
3.0938466941627407	8.125258	2.850484
3.1113798673227544	7.9782577	2.824581
3.1289131133407904	7.917187	2.8137498
3.1464464326282315	7.8414693	2.8002625
3.1639798255964786	7.8249197	2.7973058
3.1815132926569443	7.831574	2.798495
3.1990468342210603	7.7699437	2.7874618
3.216580450700272	7.6329484	2.762779
3.2341141425060416	7.4456477	2.7286713
3.251647910049847	7.2974043	2.7013707
3.2691817537431813	7.2411776	2.6909437
3.286715673997555	7.1078854	2.6660619
3.3042496712244938	7.0502477	2.6552303
3.32178374583554	6.991178	2.6440835
3.339317898242251	6.874035	2.621838
3.3568521288562034	6.7588434	2.5997775
3.3743864380889876	6.7095485	2.5902796
3.3919208263522127	6.722198	2.5927203
3.4094552940575023	6.6805	2.5846663
3.4269898416164972	6.5766115	2.5644906
3.444524469440858	6.5174794	2.5529354
3.4620591779422587	6.53405	2.5561788
3.479593967532391	6.5335274	2.5560765
3.4971288386229658	6.463028	2.5422485
3.5146637916257086	6.3810587	2.5260758
3.5321988269523628	6.2514467	2.5002894
3.5497339450146903	6.2896585	2.507919
3.5672691462244708	6.3038845	2.5107539
3.5848044309934988	6.2824063	2.5064728
3.60233979973359	6.2604237	2.5020838
3.619875252856575	6.3377743	2.5174937
3.6374107907743034	6.3001404	2.510008
3.6549464138986427	6.273085	2.5046127
3.6724821226414788	6.25884	2.5017674
3.690017917414714	6.2479706	2.499594
3.7075537986302702	6.3348308	2.516909
3.7250897667000857	6.398642	2.5295537
3.7426258220361235	6.6218657	2.5732987
3.7601619650503553	6.9900055	2.6438618
3.777698196154779	7.5125813	2.7409089
3.7952345157614067	8.501901	2.915802
3.8127709242822716	9.284524	3.0470517
3.830307422129425	11.461943	3.385549
3.847844009714936	30.258474	5.5007706
3.8653806874508954	97.81532	9.890162
3.882917455749409	97.14866	9.856401
3.900454315022606	96.88803	9.843172
3.917991265682631	41.36644	6.431675
3.9355283081416506	11.060922	3.3257964
3.9530654428118495	8.815369	2.9690688
3.970602670105433	7.5753427	2.752334
3.9881399904346244	6.6797957	2.58453
4.005677404211669	6.611325	2.5712497
4.023214911848827	6.5464272	2.5585988
4.0407525137583855	6.4778333	2.5451589
4.058290210352644	6.3966107	2.5291522
4.075828002043927	6.277074	2.505409
4.0933658892445814	6.290892	2.5081651
4.110903872366966	6.2836485	2.5067208
4.128441951823468	6.233907	2.4967794
4.145980128026488	6.1738863	2.4847307
4.163518401388452	6.1612725	2.482191
4.181056772321807	6.1289144	2.4756644
4.1985952412390155	6.195561	2.4890883
4.216133808552567	6.2502856	2.5000572
4.233672474674966	6.388522	2.5275526
4.251211240018741	6.568148	2.5628397
4.268750104996445	6.7823076	2.6042864
4.286289070020643	7.6095285	2.7585373
4.303828135503928	9.309685	3.0511775
4.3213673018589125	29.67077	5.4470882
4.3389065694982305	90.84129	9.53107
4.356445938834537	165.93765	12.881679
4.3739854102805085	171.23827	13.085804
4.391524984248844	172.02037	13.115654
4.409064661152262	136.14005	11.667907
4.426604441403504	96.589836	9.828012
4.444144325415337	75.8764	8.710707
4.461684313600543	22.034674	4.6941104
4.47922440637193	22.53538	4.747144
4.496764604142329	20.762941	4.5566373
4.5143049073245916	18.732103	4.32806
4.531845316331589	16.488811	4.060642
4.5493858315762195	13.491728	3.6731088
4.566926453471405	11.161636	3.3409035
4.584467182430081	9.200704	3.033266
4.602008018865218	8.152654	2.8552852
4.619548963189798	7.4628115	2.7318146
4.637090015816834	6.953218	2.6368954
4.654631177159353	6.7196474	2.5922282
4.672172447630417	6.4494905	2.5395846
4.689713827643102	6.3281875	2.515589
4.7072553176105085	6.122859	2.474441
4.724796917945764	5.9860005	2.4466305
4.742338629062015	5.956207	2.440534
4.759880451372434	5.8177085	2.4119925
4.777422385290215	5.7431054	2.3964777
4.794964431228581	5.6957498	2.386577
4.812506589600768	5.6431727	2.3755362
4.830048860820047	5.6077323	2.368065
4.847591245299709	5.5729065	2.3607004
4.8651337434530655	5.6072097	2.3679547
4.882676355693457	5.6189904	2.370441
4.900219082434242	5.682879	2.383879
4.917761924088813	5.7290916	2.393552
4.935304881070575	5.71936	2.3915184
4.952847953792969	5.6493406	2.3768342
4.970391142669449	5.531163	2.3518424
4.9879344481135055	5.438612	2.3320832
5.005477870538642	5.457488	2.3361268
5.023021410358394	5.4931607	2.3437493
5.040565067986324	5.531003	2.3518085
5.05810884383601	5.516354	2.348692
5.075652738321066	5.5341496	2.3524773
5.09319675185512	5.5271583	2.350991
5.110740884851836	5.442152	2.332842
5.128285137724894	5.3934674	2.3223839
5.145829510888007	5.272837	2.2962658
5.163374004754908	5.3154173	2.3055189
5.1809186197393595	5.3321624	2.3091476
5.198463356255145	5.4265075	2.3294866
5.216008214716077	5.4299245	2.3302197
5.233553195535998	5.39453	2.3226128
5.251098299128764	5.43102	2.3304548
5.268643525908272	5.3149085	2.3054085
5.286188876288432	5.321655	2.3068712
5.3037343506831895	5.302414	2.3026972
5.32127994950651	5.323294	2.3072264
5.3388256731723915	5.315439	2.3055236
5.356371522094851	5.272238	2.2961354
5.373917496687938	5.268745	2.2953746
5.391463597365729	5.322786	2.3071163
5.40900982454232	5.2828646	2.2984483
5.426556178631843	5.180443	2.2760587
5.444102660048449	5.105398	2.259513
5.4616492692063225	4.980103	2.2316144
5.479196006519669	4.9568496	2.2263982
5.496742872402727	4.994815	2.2349083
5.514289867269756	5.0596347	2.2493632
5.531836991535049	5.053936	2.248096
5.549384245612924	5.035631	2.2440212
5.566931629917724	5.094209	2.2570355
5.584479144863822	5.156212	2.2707293
5.6020267908656205	5.2042174	2.2812755
5.619574568337545	5.2211585	2.2849855
5.637122477694054	5.1800556	2.2759736
5.654670519349629	5.2116566	2.2829053
5.672218693718784	5.1702657	2.2738218
5.689767001216059	5.1810236	2.2761862
5.707315442256021	5.147901	2.2688987
5.724864017253266	5.1660886	2.2729032
5.7424127266224225	5.1360283	2.2662807
5.75996157077814	5.130196	2.2649937
5.777510550135105	5.1230283	2.2634108
5.795059665108022	5.1311107	2.2651956
5.812608916111639	5.0989523	2.258086
5.830158303560715	5.211028	2.2827675
5.847707827870055	5.2239685	2.2856002
5.86525748945448	5.34788	2.3125484
5.8828072887288485	5.4776125	2.34043
5.900357226108044	5.531506	2.3519154
5.917907302006979	5.5411158	2.3539574
5.9354575168406	6.168291	2.4836044
5.9530078710238765	6.830314	2.613487
5.970558364971812	7.4168453	2.7233887
5.988108999099438	7.744816	2.7829509
6.005659773821818	8.274509	2.8765447
6.023210689554039	8.009014	2.8300202
6.040761746711227	8.439884	2.9051478
6.058312945708531	7.903588	2.811332
6.075864286961132	7.4713926	2.7333848
6.093415770884244	6.8248525	2.6124418
6.1109673978931065	6.2521935	2.5004387
6.128519168402993	5.6608486	2.3792539
6.146071082829204	5.4576635	2.3361642
6.163623141587075	5.254758	2.292326
6.181175345091969	5.1323695	2.2654734
6.198727693759281	5.1468005	2.268656
6.216280188004435	5.230747	2.2870827
6.233832828242885	5.3010764	2.3024065
6.251385614890126	5.3738484	2.3181562
6.268938548361669	5.286157	2.2991645
6.286491629073067	5.16463	2.2725823
6.304044857439898	5.1052923	2.2594893
6.321598233877777	5.078901	2.2536416
6.339151758802344	5.0746965	2.2527087
6.356705432629277	5.0703473	2.251743
6.37425925577428	5.0757904	2.2529514
6.391813228653095	5.1033764	2.2590654
6.409367351681486	5.141193	2.2674198
6.426921625275259	5.1376805	2.2666452
6.44447604985025	5.051163	2.2474792
6.46203062582232	4.985884	2.2329094
6.47958535360737	4.90223	2.214098
6.497140233621328	4.935593	2.2216194
6.514695266280161	4.9593954	2.22697
6.532250451999859	4.8852596	2.2102623
6.549805791196454	4.8619103	2.204974
6.567361284286002	4.935101	2.2215087
6.584916931684597	5.092579	2.2566743
6.602472733808367	5.147423	2.2687933
6.6200286910734665	5.1111946	2.260795
6.637584803896092	5.0228086	2.2411623
6.655141072692462	4.9882216	2.2334328
6.672697497878842	5.003912	2.2369425
6.690254079871514	5.017662	2.2400138
6.707810819086808	5.0083303	2.2379298
6.725367715941078	4.9606223	2.2272456
6.742924770850719	4.8889837	2.2111046
6.760481984232151	4.8838315	2.2099392
6.778039356501836	4.8896856	2.2112634
6.795596888076266	4.934178	2.2213008
6.813154579371963	4.936949	2.2219245
6.830712430805492	4.927531	2.2198043
6.84827044279344	4.924818	2.2191932
6.865828615752445	4.923843	2.2189734
6.883386950099159	4.9676957	2.2288327
6.900945446250287	4.9995146	2.2359595
6.918504104622553	5.0471473	2.2465856
6.936062925632727	5.04037	2.245077
6.953621909697607	5.0394883	2.2448804
6.971181057234028	5.0343566	2.2437372
6.988740368658859	5.043351	2.2457407
7.006299844389007	5.132065	2.2654061
7.023859484841407	5.1843204	2.2769103
7.041419290433036	5.2985325	2.3018541
7.058979261580902	5.3995748	2.3236985
7.0765393987020495	5.621746	2.3710222
7.094099702213559	5.9681454	2.4429789
7.111660172532549	6.3344703	2.5168374
7.129220810076164	6.7830243	2.604424
7.146781615261595	7.504676	2.7394664
7.16434258850606	7.7513895	2.7841318
7.181903730226821	8.151904	2.855154
7.1994650408411704	8.114431	2.8485842
7.217026520766437	8.198924	2.8633764
7.234588170419983	8.496534	2.9148815
7.252149990219215	8.433223	2.9040012
7.269711980581568	8.37379	2.8937502
7.2872741419245175	8.121773	2.8498724
7.304836474665574	7.738512	2.7818182
7.322398979222286	7.4041915	2.7210643
7.339961656012233	7.093996	2.6634557
7.357524505453039	6.799343	2.607555
7.375087527962357	6.529235	2.5552368
7.392650723957886	6.239154	2.49783
7.410214093857353	5.9107084	2.4311948
7.427777638078528	5.7260895	2.3929248
7.445341357039213	5.57912	2.3620162
7.4629052511572525	5.3996406	2.3237126
7.480469320850524	5.314312	2.3052793
7.498033566536948	5.308316	2.3039784
7.5155979886344735	5.284919	2.2988951
7.5331625875610975	5.1604323	2.2716584
7.550727363734844	5.084555	2.254896
7.568292317573788	5.064608	2.2504685
7.585857449496025	5.1674137	2.2731946
7.603422759919705	5.2480216	2.2908561
7.620988249263007	5.225454	2.2859251
7.638553917944147	5.193814	2.278994
7.656119766381391	5.1909704	2.2783701
7.673685794993023	5.196438	2.2795696
7.691252004197388	5.217683	2.2842247
7.70881839441285	5.2047677	2.281396
7.726384966057826	5.253401	2.2920299
7.743951719550762	5.212731	2.2831407
7.761518655310149	5.2353125	2.2880805
7.779085773754511	5.2794995	2.2977161
7.796653075302419	5.28606	2.2991433
7.814220560372475	5.27916	2.2976422
7.831788229383323	5.213978	2.2834136
7.8493560827536495	5.192018	2.2786
7.866924120902174	5.21249	2.2830877
7.884492344247663	5.218497	2.2844028
7.9020607532089135	5.242359	2.28962
7.919629348204771	5.300112	2.3021972
7.937198129654115	5.30589	2.3034518
7.954767097975865	5.318874	2.3062685
7.972336253588986	5.320593	2.306641
7.989905596912472	5.312851	2.3049622
8.007475128365371	5.332429	2.3092053
8.025044848366756	5.37816	2.319086
8.042614757335754	5.523257	2.350161
8.060184855691523	5.570864	2.3602679
8.07775514385327	5.694944	2.386408
8.095325622240228	5.819105	2.4122822
8.112896291271687	5.8792562	2.4247177
8.130467151366968	5.9671893	2.442783
8.148038202945436	5.95834	2.4409711
8.165609446426497	5.948852	2.4390268
8.183180882229594	5.974486	2.444276
8.200752510774217	5.963807	2.4420907
8.218324332479893	6.0264244	2.4548776
8.235896347766193	6.021952	2.4539666
8.253468557052724	6.009966	2.451523
8.27104096075914	5.988781	2.4471986
8.288613559305137	6.0164623	2.4528477
8.306186353110448	6.1097293	2.4717867
8.32375934259485	6.1889477	2.4877596
8.341332528178162	6.2737308	2.5047417
8.358905910280246	6.3794208	2.5257516
8.376479489321003	6.3245273	2.5148613
8.394053265720377	6.34816	2.5195556
8.411627239898356	6.2904973	2.5080864
8.42920141227497	6.267805	2.5035584
8.44677578327029	6.199884	2.4899566
8.464350353304427	6.0905485	2.4679036
8.48192512279754	6.1211405	2.474094
8.499500092169827	6.1338453	2.47666
8.51707526184153	6.169321	2.4838119
8.534650632232934	6.222892	2.4945724
8.552226203764365	6.269895	2.5039759
8.569801976856192	6.2694573	2.5038884
8.587377951928834	6.220414	2.4940758
8.60495412940274	6.240687	2.4981368
8.622530509698416	6.338429	2.5176237
8.6401070932364	6.4609003	2.54183
8.657683880437283	6.5323935	2.5558548
8.675260871721695	6.63009	2.574896
8.692838067510303	6.852806	2.6177864
8.710415468223834	7.070365	2.659016
8.727993074283043	7.254855	2.6934838
8.745570886108737	7.2242603	2.6877985
8.763148904121765	7.261307	2.6946812
8.78072712874302	7.31131	2.7039435
8.798305560393441	7.5717854	2.7516878
8.815884199494006	7.7592616	2.785545
8.833463046465745	7.9013996	2.810943
8.851042101729728	7.986914	2.826113
8.86862136570707	8.21265	2.8657722
8.886200838818924	8.350465	2.889717
8.903780521486505	8.353347	2.8902156
8.921360414131055	8.465782	2.9096017
8.938940517173874	8.66233	2.9431837
8.956520831036297	8.892463	2.9820232
8.97410135613971	9.123982	3.0205932
8.99168209290554	9.263059	3.0435274
9.009263041755265	9.47462	3.078087
9.026844203110405	9.771977	3.1260161
9.044425577392525	10.005538	3.1631532
9.062007165023239	10.104036	3.1786847
9.079588966424197	10.280191	3.2062738
9.097170982017108	10.257371	3.202713
9.11475321222372	11.236824	3.3521373
9.132335657465825	12.10547	3.4792914
9.149918318165264	12.238269	3.4983237
9.167501194743924	12.724895	3.567197
9.18508428762374	12.474654	3.5319476
9.202667597226693	12.497222	3.535141
9.220251123974803	12.244654	3.499236
9.237834868290143	11.904738	3.4503243
9.255418830594836	11.695846	3.419919
9.273003011311046	11.176136	3.343073
9.290587410860985	10.995459	3.3159401
9.308172029666911	10.372687	3.2206657
9.32575686815113	10.095637	3.1773632
9.343341926735997	8.841464	2.97346
9.360927205843916	8.546981	2.923522
9.378512705897327	8.346121	2.8889654
9.396098427318728	8.09372	2.8449464
9.413684370530664	8.006642	2.829601
9.431270535955722	7.9284735	2.8157544
9.448856924016539	7.874584	2.806169
9.466443535135806	7.769769	2.7874305
9.484030369736251	7.8164935	2.7957993
9.501617428240658	7.805562	2.7938435
9.519204711071852	7.7910385	2.791243
9.536792218652714	7.7805357	2.7893612
9.55437995140617	7.8860126	2.8082044
9.571967909755191	7.993115	2.8272097
9.589556094122802	8.007714	2.8297906
9.60714450493207	7.996593	2.8278248
9.624733142606116	7.9788074	2.8246782
9.642322007568108	8.035423	2.8346822
9.659911100241267	8.02412	2.8326879
9.677500421048851	7.9912877	2.8268867
9.695089970414175	7.955596	2.8205667
9.712679748760609	8.013336	2.8307836
9.730269756511557	8.105603	2.8470342
9.747859994090492	8.152446	2.855249
9.765450461920915	8.195493	2.862777
9.78304116042639	8.253193	2.872837
9.800632090030527	8.295923	2.8802645
9.81822325115699	8.315406	2.8836446
9.835814644229481	8.271891	2.8760896
9.853406269671762	8.329345	2.8860605
9.870998127907646	8.3685	2.8928359
9.888590219360985	8.40957	2.8999257
9.906182544455698	8.400949	2.898439
9.923775103615734	8.35979	2.89133
9.941367897265108	8.429631	2.9033828
9.958960925827878	8.388841	2.8963494
9.97655418972816	8.333479	2.8867764
9.994147689390106	8.254192	2.873011
10.011741425237934	8.278539	2.877245
10.029335397695904	8.298821	2.8807676
10.04692960718833	8.292702	2.8797052
10.06452405413958	8.297678	2.880569
10.082118738974064	8.222929	2.867565
10.099713662116246	8.128884	2.8511198
10.117308823990651	8.105043	2.8469357
10.134904225021844	8.135294	2.8522437
10.152499865634445	8.206627	2.864721
10.170095746253125	8.227326	2.8683317
10.18769186730261	8.251548	2.8725507
10.205288229207675	8.20204	2.8639205
10.222884832393145	8.200537	2.863658
10.2404816772839	8.0929575	2.8448124
10.258078764304868	7.941521	2.8180704
10.275676093881035	7.87382	2.8060327
10.293273666437438	7.87538	2.8063107
10.310871482399158	7.991187	2.8268688
10.32846954219134	8.099645	2.8459876
10.346067846239173	8.226221	2.868139
10.363666394967908	8.256901	2.8734822
10.38126518880283	8.192707	2.8622906
10.398864228169298	8.142619	2.8535275
10.416463513492713	8.084901	2.843396
10.434063045198531	8.103097	2.8465939
10.451662823712262	8.111601	2.8480873
10.469262849459467	8.208025	2.8649652
10.486863122865758	8.150439	2.8548975
10.504463644356806	8.075433	2.8417306
10.522064414358338	7.972536	2.8235679
10.539665433296118	7.922443	2.8146834
10.557266701595987	7.8794723	2.8070397
10.574868219683818	7.8221755	2.7968152
10.592469987985552	7.743611	2.7827344
10.610072006927185	7.622972	2.760973
10.627674276934751	7.521643	2.7425613
10.64527679843435	7.346894	2.7105155
10.662879571852143	7.209968	2.6851385
10.680482597614331	7.176177	2.6788387
10.698085876147173	7.086572	2.6620617
10.715689407876988	7.0424294	2.6537576
10.733293193230146	6.9359903	2.633627
10.750897232633072	6.7991076	2.6075099
10.76850152651225	6.722531	2.5927844
10.786106075294207	6.6208143	2.5730944
10.803710879405534	6.5229588	2.5540085
10.821315939272877	6.4008074	2.5299816
10.83892125532294	6.3015327	2.5102854
10.856526827982472	6.2673965	2.5034769
10.874132657678285	6.3338804	2.51672
10.891738744837243	6.2983446	2.5096502
10.909345089886271	6.2174697	2.4934855
10.926951693252343	6.053615	2.4604096
10.944558555362494	5.948903	2.4390373
10.96216567664381	5.956633	2.4406214
10.979773057523436	6.019688	2.4535053
10.997380698428573	6.0632796	2.4623728
11.014988599786477	5.9980745	2.4490967
11.032596762024461	5.9216485	2.4334438
11.050205185569892	5.7927675	2.406817
11.067813870850198	5.6732645	2.3818614
11.085422818292859	5.5135098	2.3480864
11.10303202832541	5.466104	2.33797
11.120641501375454	5.437814	2.331912
11.138251237870636	5.363988	2.3160286
11.155861238238671	5.252613	2.291858
11.173471502907317	5.153467	2.270125
11.191082032304402	5.102939	2.2589686
11.208692826857805	5.100002	2.2583184
11.226303886995465	5.0545053	2.2482228
11.243915213145371	4.9897327	2.233771
11.261526805735578	4.9281554	2.219945
11.279138665194196	4.8708673	2.207004
11.296750791949393	4.8581505	2.2041214
11.314363186429393	4.7842865	2.1873012
11.331975849062479	4.76698	2.1833415
11.34958878027699	4.7077074	2.1697252
11.36720198050133	4.6979184	2.1674683
11.384815450163948	4.651863	2.156818
11.402429189693366	4.5825686	2.1406934
11.420043199518153	4.496625	2.1205246
11.437657480066942	63.429382	7.964257
11.455272031768422	85.14887	9.227614
11.472886855051353	107.555595	10.370901
11.490501950344528	99.17421	9.958625
11.508117318076819	84.46707	9.190597
11.52573295867715	45.79773	6.767402
11.543348872574514	4.0915155	2.0227494
11.560965060197946	4.0899963	2.022374
11.57858152197655	4.0585794	2.0145917
11.59619825833949	4.0427346	2.0106552
11.613815269715985	4.0565643	2.0140915
11.631432556535323	38.57211	6.2106447
11.649050119226837	83.08745	9.1152315
11.666667958219929	93.456375	9.667284
11.68428607394406	107.69638	10.3776865
11.701904466828756	82.50265	9.0830965
11.719523137303586	65.314476	8.0817375
11.737142085798196	4.599931	2.1447449
11.754761312742286	3.695155	1.9222785
11.772380818565619	3.6639693	1.9141498
11.790000603698015	3.6337974	1.9062521
11.80762066856935	3.608362	1.8995689
11.825241013609572	3.5778337	1.8915162
11.842861639248683	3.5821226	1.8926497
11.860482545916748	3.5116816	1.8739481
11.878103734043883	3.4841645	1.8665917
11.895725204060282	3.4329655	1.8528264
11.91334695639619	3.4140513	1.8477151
11.930968991481919	3.3577542	1.8324176
11.948591309747824	3.346847	1.829439
11.966213911624347	3.3155	1.8208514
11.98383679754198	3.302225	1.8172026
12.001459967931268	3.264588	1.8068172
12.019083423222835	3.2850695	1.812476
12.036707163847352	3.2805345	1.8112246
12.05433119023556	3.2420619	1.8005726
12.071955502818259	3.1905499	1.786211
12.089580102026313	3.1289802	1.7688924
12.107204988290643	3.1085255	1.7631011
12.12483016204224	3.0626209	1.7500346
12.142455623712152	3.072362	1.7528155
12.16008137373149	3.0704181	1.7522608
12.177707412531431	3.1046915	1.7620134
12.19533374054321	3.1405632	1.7721634
12.212960358198126	3.1131268	1.7644055
12.230587265927545	3.0993059	1.7604846
12.248214464162889	3.052153	1.7470412
12.265841953335649	3.0121558	1.7355564
12.283469733877375	2.9905713	1.7293268
12.301097806219685	2.9535086	1.7185775
12.31872617079425	2.9584255	1.7200074
12.336354828032825	2.9582984	1.7199705
12.353983778367205	2.9629965	1.7213356
12.371613022229262	2.9594789	1.7203135
12.389242560050928	2.9097803	1.7058078
12.406872392264201	2.8753288	1.6956794
12.424502519301143	2.8808641	1.6973108
12.442132941593874	2.887411	1.6992384
12.459763659574586	2.9049854	1.7044017
12.477394673675532	2.8688738	1.693775
12.49502598432903	2.8782043	1.6965271
12.51265759196746	2.8384151	1.6847596
12.530289497023267	2.8274121	1.681491
12.547921699928967	2.7920196	1.6709337
12.565554201117134	2.8263152	1.6811649
12.583187001020404	2.816343	1.6781964
12.600820100071486	2.851487	1.6886346
12.618453498703152	2.7960217	1.672131
12.636087197348235	2.7691698	1.6640823
12.65372119643964	2.7762907	1.6662204
12.671355496410326	2.7912593	1.6707063
12.68899009769333	2.825889	1.6810381
12.706625000721749	2.8938568	1.701134
12.724260205928752	2.9437015	1.7157218
12.741895713747551	2.9533644	1.7185355
12.759531524611454	2.9530017	1.71843
12.777167638953818	2.9658997	1.7221788
12.794804057208072	2.9701054	1.7233994
12.812440779807702	3.0236204	1.7388561
12.830077807186271	3.1818376	1.7837706
12.847715139777405	3.2216194	1.7948871
12.865352778014795	3.4385448	1.8543314
12.882990722332197	3.5391333	1.8812585
12.90062897316344	3.623514	1.903553
12.918267530942412	3.7501488	1.9365301
12.935906396103071	3.6439884	1.9089234
12.953545569079449	3.85987	1.9646552
12.971185050305628	3.6414213	1.9082508
12.988824840215775	3.6280124	1.9047343
13.006464939244115	3.5833232	1.8929667
13.024105347824943	3.4303455	1.8521192
13.041746066392617	3.5471196	1.8833798
13.05938709538157	3.341871	1.8280785
13.077028435226296	3.360263	1.833102
13.094670086361363	3.2412736	1.8003538
13.112312049221401	3.152968	1.7756598
13.129954324241112	3.0718954	1.7526823
13.147596911855258	2.9102597	1.7059484
13.165239812498685	2.9095588	1.7057428
13.182883026606293	2.805414	1.674937
13.200526554613058	2.7772605	1.6665115
13.218170396954017	2.7263498	1.6511662
13.235814554064284	2.7437117	1.6564153
13.253459026379034	2.754225	1.6595858
13.271103814333523	2.716836	1.6482828
13.288748918363058	2.7273083	1.6514564
13.306394338903031	2.6691847	1.6337639
13.32404007638889	2.6264725	1.6206396
13.341686131256164	2.628725	1.6213343
13.359332503940449	2.6162083	1.6174697
13.376979194877402	2.6145396	1.6169538
13.394626204502751	2.6470406	1.6269728
13.412273533252307	2.7243464	1.6505594
13.429921181561937	2.7355773	1.6539581
13.447569149867581	2.7644475	1.6626627
13.465217438605247	2.7290056	1.6519703
13.482866048211022	2.684198	1.6383522
13.500514979121052	2.7048059	1.6446294
13.518164231771568	2.67661	1.6360348
13.535813806598844	2.6907053	1.640337
13.553463704039254	2.6723523	1.6347331
13.571113924529229	2.6617212	1.6314782
13.588764468505275	2.6956236	1.6418355
13.606415336403956	2.726363	1.6511701
13.624066528661917	2.7283494	1.6517717
13.641718045715882	2.7524877	1.6590623
13.659369888002635	2.8095686	1.6761768
13.67702205595903	2.9146273	1.707228
13.694674550021993	3.0310223	1.7409831
13.712327370628532	3.08062	1.7551695
13.729980518215713	3.145479	1.7735498
13.747633993220681	3.1826308	1.7839929
13.765287796080647	3.2289464	1.796927
13.7829419272329	3.2734668	1.8092724
13.800596387114801	3.308159	1.8188345
13.818251176163775	3.2840776	1.8122025
13.835906294817324	3.3068407	1.818472
13.853561743513023	3.3211274	1.822396
13.871217522688525	3.3463204	1.829295
13.888873632781538	3.3945203	1.8424224
13.906530074229858	3.4283264	1.8515741
13.92418684747135	3.4793398	1.8652989
13.941843952943948	3.4882789	1.8676934
13.959501391085665	3.482831	1.8662344
13.977159162334578	3.4078143	1.8460267
13.994817267128846	3.348714	1.8299493
14.012475705906693	3.2637193	1.8065767
14.030134479106424	3.1756685	1.7820406
14.047793587166414	3.1234481	1.767328
14.065453030525108	3.080631	1.7551726
14.083112809621026	3.0332165	1.7416131
14.100772924892766	2.9867754	1.7282289
14.118433376778997	2.9322886	1.7123927
14.136094165718458	2.8212733	1.6796646
14.153755292149969	2.6705148	1.634171
14.171416756512416	2.6221173	1.6192954
14.189078559244768	2.613785	1.6167204
14.20674070078606	2.5908751	1.6096196
14.224403181575408	2.5484943	1.5964004
14.242066002051999	2.512124	1.5849682
14.259729162655093	2.522816	1.5883374
14.277392663824022	2.5411909	1.5941113
14.295056505998208	2.5029829	1.5820818
14.312720689617128	2.4650571	1.57005
14.330385215120348	2.4217792	1.5562067
14.348050082947497	2.4030905	1.5501904
14.3657152935383	2.3737187	1.5406878
14.383380847332528	2.3771656	1.541806
14.401046744770051	2.375504	1.541267
14.418712986290798	2.3785448	1.5422531
14.436379572334793	2.3898854	1.5459254
14.454046503342123	2.392798	1.5468671
14.471713779752946	2.3852687	1.5444316
14.489381402007504	2.369694	1.539381
14.507049370546113	2.3287103	1.5260112
14.524717685809168	2.3586357	1.5357851
14.542386348237134	2.3748488	1.5410545
14.560055358270553	2.3800251	1.542733
14.577724716350051	2.4195735	1.5554979
14.595394422916325	2.4580033	1.5678021
14.61306447841015	2.529488	1.5904365
14.63073488327237	2.4964013	1.5800004
14.648405637943917	2.500662	1.5813482
14.6660767428658	2.464144	1.5697592
14.683748198479094	2.5185337	1.5869889
14.701420005224954	2.573262	1.604139
14.719092163544628	2.6627529	1.6317943
14.73676467387942	2.6760118	1.635852
14.754437536670727	2.6735897	1.6351116
14.772110752360014	2.6659443	1.632772
14.78978432138882	2.6563056	1.6298176
14.807458244198777	2.6467872	1.626895
14.82513252123159	2.640443	1.624944
14.842807152929028	2.6866782	1.639109
14.860482139732962	2.6617968	1.6315014
14.87815748208531	2.6367733	1.6238145
14.8958331804281	2.649562	1.6277475
14.91350923520342	2.6377761	1.6241232
14.931185646853438	2.6538436	1.6290622
14.948862415820408	2.634721	1.6231824
14.966539542546656	2.6420496	1.6254382
14.98421702747459	2.6286862	1.6213224
15.001894871046696	2.6428776	1.625693
15.019573073705542	2.662992	1.6318676
15.037251635893766	2.6773329	1.6362557
15.054930558054092	2.7054436	1.6448233
15.072609840629323	2.7627966	1.6621662
15.090289484062351	2.8875318	1.699274
15.107969488796124	3.2006936	1.7890482
15.125649855273691	3.5849383	1.8933933
15.14333058393817	4.0989265	2.0245805
15.161011675232768	5.063251	2.250167
15.17869312960076	6.419865	2.5337453
15.196374947485506	8.223796	2.867716
15.214057129330447	11.327789	3.365678
15.231739675579114	16.077538	4.0096803
15.249422586675102	21.099571	4.593427
15.267105863062092	24.191341	4.9184694
15.284789505183847	24.338144	4.9333706
15.302473513484218	22.139341	4.705246
15.320157888407127	18.533533	4.305059
15.337842630396578	14.338031	3.7865593
15.355527739896656	11.138856	3.3374925
15.37321321735153	8.585823	2.9301574
15.39089906320545	6.292265	2.5084388
15.408585277902748	4.7157373	2.1715748
15.42627186188783	3.6929686	1.9217098
15.443958815605198	3.1959171	1.7877128
15.461646139499424	2.8745184	1.6954405
15.479333834015168	2.6824672	1.6378239
15.497021899597165	2.6130855	1.6165041
15.514710336690234	2.6305006	1.6218818
15.53239914573928	2.6432905	1.6258199
15.550088327189297	2.5976667	1.6117278
15.567777881485336	2.5573878	1.5991834
15.58546780907256	2.487026	1.5770308
15.6031581103962	2.458089	1.5678294
15.620848785901568	2.4318063	1.559425
15.638539836034063	2.4624274	1.5692123
15.656231261239173	2.4524286	1.5660232
15.673923061962451	2.4861383	1.5767493
15.691615238649552	2.4775722	1.5740305
15.709307791746202	2.4408793	1.5623314
15.727000721698221	2.3799994	1.5427246
15.744694028951498	2.3609035	1.5365232
15.76238771395202	2.3387759	1.5293057
15.780081777145844	2.3257284	1.525034
15.797776218979125	2.3195655	1.523012
15.815471039898094	2.363332	1.5373132
15.833166240349064	2.4171915	1.554732
15.850861820778437	2.4296021	1.5587181
15.868557781632699	2.4141936	1.5537676
15.886254123358412	2.3924043	1.5467399
15.903950846402232	2.4212852	1.5560479
15.921647951210897	2.4440355	1.5633411
15.939345438231225	2.458899	1.5680877
15.957043307910133	2.4110312	1.5527496
15.974741560694602	2.3808086	1.5429869
15.992440197031714	2.3728344	1.5404007
16.01013921736862	2.3871891	1.5450531
16.02783862215259	2.3825414	1.5435483
16.045538411830933	2.370026	1.5394889
16.06323858685107	2.3804338	1.5428654
16.080939147660512	2.3969839	1.5482196
16.09864009470684	2.4167044	1.5545753
16.11634142843774	2.382786	1.5436275
16.134043149300954	2.3914	1.5464152
16.15174525774433	2.4211762	1.5560129
16.169447754215817	2.4640117	1.569717
16.18715063916342	2.483666	1.575965
16.204853913035244	2.4838912	1.5760366
16.222557576279478	2.4833183	1.5758548
16.240261629344403	22.442081	4.7373075
16.257966072678386	42.959003	6.5543118
16.275670906729868	38.07188	6.1702414
16.293376131947387	2.536242	1.5925583
16.31108174877957	2.5679762	1.6024907
16.328787757675133	2.550242	1.5969477
16.34649415908287	2.5520916	1.5975267
16.364200953451657	2.5543852	1.5982444
16.38190814123048	2.5981443	1.611876
16.39961572286839	2.6198373	1.6185912
16.41732369881455	2.682448	1.637818
16.43503206951817	2.7402737	1.6553773
16.45274083542859	2.7701104	1.6643648
16.47044999699522	2.783142	1.6682752
16.488159554667558	2.7609615	1.6616142
16.505869508895184	2.838926	1.6849113
16.523579860127786	2.894988	1.7014664
16.541290608815117	2.9829965	1.7271353
16.559001755407035	3.019471	1.7376624
16.57671330035348	3.088791	1.7574956
16.59442524410448	3.166044	1.7793381
16.61213758711015	3.2480886	1.8022454
16.629850329820705	3.277486	1.8103828
16.647563472686436	3.3228998	1.8228823
16.665277016157724	3.3505301	1.8304453
16.682990960685053	3.4192517	1.8491218
16.70070530671898	3.462376	1.8607461
16.718420054710155	3.4930537	1.8689712
16.736135205109335	3.514038	1.8745768
16.753850758367335	3.573506	1.8903719
16.771566714935087	3.6177347	1.9020344
16.789283075263597	3.7080665	1.925634
16.80699983980398	3.7460387	1.9354686
16.82471700900741	3.848452	1.9617472
16.84243458332518	3.9001253	1.9748734
16.860152563208665	3.9975464	1.9993865
16.87787094910932	4.0890574	2.0221417
16.89558974147871	4.1615868	2.0399969
16.913308940768466	4.198779	2.0490923
16.931028547430333	4.2302504	2.0567572
16.94874856191613	4.292107	2.0717402
16.966468984677785	4.352298	2.0862162
16.98418981616729	4.363113	2.0888066
17.00191105683676	4.3541346	2.0866563
17.019632707138374	4.419914	2.102359
17.03735476752442	4.5117564	2.1240895
17.05507723844728	4.5702386	2.1378117
17.072800120359403	4.615775	2.1484356
17.090523413713353	4.63567	2.1530607
17.108247118961785	4.673991	2.1619415
17.125971236557437	4.6520815	2.1568685
17.143695766953133	4.648987	2.1561508
17.161420710601806	4.675234	2.1622288
17.179146067956477	4.681611	2.1637032
17.19687183947025	4.674581	2.162078
17.21459802559634	4.6358094	2.153093
17.232324626788028	4.6145525	2.148151
17.25005164349871	4.602882	2.1454327
17.267779076181863	4.6676507	2.1604745
17.285506925291074	4.630821	2.1519344
17.30323519127999	4.580686	2.1402538
17.320963874602384	4.551563	2.1334393
17.33869297571211	4.524477	2.1270819
17.356422495063114	4.5349193	2.129535
17.37415243310944	4.4785233	2.1162522
17.391882790305218	4.463773	2.1127644
17.40961356710468	4.4688473	2.1139648
17.42734476396215	4.440699	2.1072967
17.445076381332044	4.465113	2.1130815
17.462808419668868	4.5535693	2.1339095
17.48054087942723	4.7357464	2.176177
17.498273761061835	4.9890094	2.233609
17.51600706502747	5.445746	2.3336122
17.533740791779024	6.1349545	2.4768841
17.551474941771485	7.582458	2.7536263
17.56920951545993	8.736883	2.955822
17.586944513299528	10.8806715	3.2985864
17.60467993574556	12.521443	3.5385652
17.622415783253373	14.173246	3.7647371
17.64015205627843	15.59166	3.9486275
17.657888755276293	16.6541	4.0809436
17.675625880702604	17.2203	4.149735
17.69336343301311	16.972692	4.119793
17.71110141266366	16.17741	4.022115
17.728839820110178	15.181417	3.896334
17.746578655808705	14.335981	3.7862885
17.764317920215372	12.946922	3.5981832
17.7820576137864	11.53644	3.3965335
17.79979773697811	9.5420065	3.0890138
17.81753829024692	7.5947704	2.755861
17.835279274049356	5.8856955	2.4260452
17.85302068884201	4.812957	2.1938453
17.870762535081607	4.153778	2.038082
17.888504813224934	3.816509	1.9535887
17.90624752372891	3.6788898	1.9180433
17.923990667050536	3.5833461	1.8929728
17.941734243646895	3.5202353	1.876229
17.959478253975185	3.4481435	1.8569177
17.9772226984927	3.4404194	1.8548368
17.994967577656833	3.4311662	1.8523407
18.01271289192506	3.423632	1.8503059
18.030458641754965	3.3711069	1.8360574
18.04820482760425	3.3685145	1.8353513
18.06595144993067	3.3027956	1.8173596
18.083698509192125	3.2437563	1.8010432
18.101446005846576	3.2159126	1.7932966
18.119193940352105	3.2338593	1.7982935
18.136942313166887	3.2432616	1.8009058
18.1546911247492	3.1818366	1.7837703
18.1724403755574	3.1356194	1.770768
18.19019006604997	3.1609728	1.7779125
18.207940196685467	3.192246	1.7866857
18.225690767922575	3.1968002	1.7879598
18.243441780220046	3.1565397	1.7766653
18.261193234036764	3.1103647	1.7636226
18.278945129831676	3.077893	1.7543925
18.29669746806386	3.0623243	1.7499498
18.314450249192483	3.0654037	1.7508295
18.3322034736768	3.0900853	1.7578639
18.349957141976184	3.0934465	1.7588196
18.3677112545501	3.0815916	1.7554463
18.385465811858108	3.0342274	1.7419034
18.403220814359884	3.0523024	1.7470839
18.420976262515172	3.1123514	1.7641858
18.43873215678387	3.1506789	1.7750152
18.456488497625923	3.1592546	1.7774292
18.474245285501407	3.2595308	1.8054171
18.492002520870486	3.3247929	1.8234015
18.50976020419343	3.3939881	1.842278
18.527518335930615	3.6883104	1.9204974
18.545276916542516	4.288279	2.070816
18.563035946489688	4.481907	2.1170514
18.580795426232832	4.953848	2.2257242
18.598555356232698	4.83856	2.1996727
18.616315736950185	5.0929933	2.256766
18.63407656884626	4.7060056	2.169333
18.65183785238201	4.909873	2.2158234
18.669599588018617	4.6640787	2.1596477
18.68736177621737	4.6684093	2.1606503
18.705124417439652	4.64815	2.1559567
18.72288751214696	4.4564714	2.1110356
18.740651060800886	4.600744	2.1449344
18.758415063863115	4.372064	2.090948
18.77617952179546	4.546217	2.132186
18.793944435059814	4.3178916	2.0779538
18.811709804118184	4.3127317	2.0767117
18.829475629432675	4.3008857	2.0738578
18.8472419114655	4.0655723	2.0163264
18.86500865067897	4.1350684	2.0334868
18.88277584753551	3.7314074	1.9316851
18.90054350249763	3.7756183	1.9430951
18.918311616027957	3.4259088	1.850921
18.936080188589226	3.336337	1.8265643
18.953849220644265	3.0325623	1.7414254
18.971618712656007	2.8864498	1.6989555
18.9893886650875	2.860888	1.691416
19.007159078401887	8.029366	2.8336134
19.024929953062408	32.91028	5.736748
19.042701289532435	32.852768	5.7317333
19.060473088275405	25.388945	5.0387444
19.07824534975489	2.622846	1.6195203
19.096018074434568	2.600955	1.6127477
19.113791262778197	2.6137402	1.6167066
19.13156491524966	2.6403744	1.6249229
19.149339032312945	2.641615	1.6253046
19.167113614432136	2.6216967	1.6191654
19.184888662071433	2.5949893	1.6108971
19.202664175695123	2.5482526	1.5963247
19.220440155767623	2.4980452	1.5805205
19.238216602753447	2.4682732	1.5710739
19.2559935171172	2.4739163	1.5728688
19.27377089932361	2.504864	1.5826762
19.291548749837514	2.4967394	1.5801075
19.309327069123835	2.49709	1.5802183
19.32710585764763	2.4905145	1.5781364
19.344885115874032	2.5306516	1.5908022
19.362664844268313	2.539302	1.5935187
19.380445043295822	2.5213068	1.5878624
19.39822571342203	2.5052838	1.5828089
19.41600685511252	2.4571936	1.5675439
19.43378846883297	2.4385056	1.5615715
19.451570555049173	2.4106052	1.5526124
19.469353114227037	2.4267418	1.5578003
19.48713614683254	2.4314141	1.5592992
19.50491965333182	2.4740264	1.5729039
19.52270363419109	2.4755034	1.5733733
19.540488089876686	2.5118616	1.5848854
19.55827302085503	2.51357	1.5854243
19.576058427592674	2.566245	1.6019504
19.593844310556282	2.566284	1.6019626
19.611630670212598	2.512323	1.5850309
19.629417507028506	2.4704983	1.5717819
19.64720482147098	2.481989	1.5754329
19.6649926140071	2.4772809	1.573938
19.682780885104084	2.4540787	1.5665499
19.70056963522921	2.487823	1.5772834
19.718358864849908	2.4974182	1.5803221
19.7361485744337	2.4978657	1.5804638
19.753938764448215	2.4689925	1.5713028
19.771729435361202	2.4858587	1.5766606
19.789520587640506	2.521161	1.5878165
19.807312221754092	2.5591376	1.5997305
19.825104338170043	2.5502367	1.596946
19.842896937356517	2.5198083	1.5873904
19.860690019781824	2.4800065	1.5748036
19.87848358591436	2.5218682	1.5880392
19.896277636222635	2.5113506	1.5847242
19.914072171175278	2.5224836	1.5882329
19.931867191241015	2.5243473	1.5888195
19.94966269688869	2.55445	1.5982647
19.967458688587264	2.527547	1.5898261
19.985255166805807	2.5064774	1.5831858
20.00305213201348	2.5039995	1.5824031
20.020849584679578	2.4783127	1.5742657
20.038647525273507	2.4367404	1.5610062
20.05644595426477	2.4155047	1.5541894
20.07424487212299	2.4406903	1.5622709
20.092044279317903	2.4706123	1.5718181
20.109844176319353	2.4548085	1.5667828
20.127644563597304	2.4491112	1.5649637
20.145445441621817	2.4280803	1.5582299
20.16324681086307	2.424311	1.5570198
20.181048671791373	2.3790102	1.542404
20.198851024877122	2.3673267	1.538612
20.216653870590836	2.3731863	1.540515
20.234457209403146	2.387414	1.5451258
20.252261041784802	2.400226	1.5492663
20.270065368206662	2.3893325	1.5457466
20.287870189139685	2.3711896	1.5398668
20.305675505054968	2.3660648	1.5382018
20.323481316423702	2.3639998	1.5375304
20.341287623717207	2.3297865	1.5263638
20.359094427406884	2.2986407	1.5161269
20.376901727964288	2.3138692	1.5211408
20.39470952586107	2.3209233	1.5234576
20.41251782156899	2.3377361	1.5289657
20.430326615559935	2.3283563	1.5258952
20.448135908305886	2.3155172	1.5216824
20.465945700278965	2.3319545	1.5270739
20.483755991951384	2.3762445	1.5415072
20.50156678379548	2.3688288	1.5390999
20.519378076283708	2.3407748	1.5299591
20.537189869888635	2.2968826	1.5155469
20.55500216508294	2.3304672	1.5265868
20.572814962339415	2.327086	1.525479
20.59062826213098	2.3133953	1.520985
20.60844206493066	2.3051896	1.518285
20.626256371211593	2.345475	1.5314944
20.644071181447032	2.3651056	1.53789
20.66188649611036	2.3752189	1.5411745
20.67970231567506	2.3769035	1.541721
20.697518640614742	2.3701742	1.539537
20.715335471403122	2.3364449	1.5285434
20.73315280851404	2.330465	1.526586
20.750970652421447	2.2973845	1.5157125
20.768789003599412	2.2881098	1.5126499
20.786607862522136	2.2849605	1.5116086
20.8044272296639	2.3013237	1.5170114
20.82224710549913	2.303044	1.5175784
20.84006749050237	2.292228	1.5140105
20.857888385148268	3.8304443	1.9571521
20.8757097899116	45.923023	6.776653
20.893531705267254	64.754875	8.047041
20.911354131690224	83.79895	9.154177
20.92917706965566	69.04763	8.30949
20.94700051963877	50.10236	7.078302
20.96482448211493	29.365797	5.4190216
20.982648957559622	4.136159	2.0337548
21.00047394644843	2.260514	1.5035006
21.01829944925707	2.2306712	1.4935431
21.036125466461375	2.2319262	1.4939632
21.053951998537297	2.2792814	1.5097289
21.071779045960906	2.2809644	1.5102862
21.089606609208378	2.2716274	1.5071919
21.10743468875603	2.2367256	1.4955686
21.12526328508028	2.23317	1.4943795
21.143092398657675	2.1900136	1.4798695
21.16092202996488	2.155029	1.4680017
21.17875217947867	2.1500952	1.4663203
21.19658284767596	2.1800516	1.4764998
21.21441403503377	2.1846838	1.4780676
21.232245742029225	2.16915	1.4728035
21.2500779691396	2.151117	1.4666687
21.26791071684227	2.1740055	1.474451
21.28574398561475	2.180549	1.4766681
21.30357777593465	2.1525888	1.4671704
21.321412088279704	2.1350653	1.4611863
21.339246923127792	2.1621695	1.4704317
21.357082280956888	2.1901894	1.4799289
21.3749181622451	2.215133	1.4883323
21.392754567470647	2.2042134	1.4846593
21.41059149711187	2.1433103	1.4640049
21.42842895164726	2.1057386	1.4511163
21.446266931555378	2.1100147	1.4525889
21.464105437314945	2.1392798	1.4626278
21.481944469404798	2.1508477	1.4665768
21.49978402830388	2.162904	1.4706814
21.51762411449127	2.1522517	1.4670554
21.53546472844617	2.13387	1.4607772
21.553305870647876	2.0902507	1.4457699
21.571147541575865	2.0846531	1.4438328
21.58898974170967	2.0770667	1.4412032
21.60683247152899	2.1273277	1.4585361
21.62467573151363	2.1267397	1.4583346
21.642519522143523	2.1198459	1.4559691
21.660363843898722	2.0895889	1.445541
21.6782086972594	2.080224	1.4422982
21.696054082705864	2.058171	1.4346327
21.713900000718535	2.049593	1.4316399
21.73174645177795	2.0507843	1.432056
21.749593436364794	2.0494196	1.4315795
21.767440954959845	2.0391216	1.4279782
21.785289008044032	2.0530956	1.4328628
21.803137596098388	2.0884047	1.4451314
21.820986719604086	2.0847998	1.4438835
21.838836379042412	2.060815	1.4355539
21.85668657489478	2.0255153	1.423206
21.87453730764273	2.0194316	1.4210671
21.892388577767914	1.9780372	1.4064271
21.91024038575213	1.9974746	1.4133204
21.928092732077285	1.9921366	1.4114307
21.945945617225426	1.9984727	1.4136735
21.963799041678694	2.0168104	1.4201446
21.981653005919398	31.347382	5.598873
21.999507510429943	78.16029	8.840831
22.01736255569286	73.10551	8.550176
22.035218142190818	4.218777	2.0539663
22.05307427040661	2.0498855	1.4317421
22.07093094082315	2.0426893	1.4292269
22.088788153923474	2.0132053	1.4188746
22.106645910190746	2.0320482	1.4254993
22.12450421010827	2.0366683	1.4271189
22.142363054159464	2.0170803	1.4202396
22.16022244282787	1.9834266	1.4083418
22.178082376597164	1.9991162	1.4139011
22.195942855951145	1.9884317	1.4101176
22.213803881373742	1.9809655	1.4074677
22.231665453349002	1.9622661	1.400809
22.24952757236111	1.9561812	1.3986355
22.26739023889438	1.9452819	1.3947337
22.28525345343323	1.9583372	1.399406
22.30311721646225	1.9873179	1.4097227
22.320981528466113	1.995665	1.41268
22.33884638992964	2.0006294	1.4144361
22.356711801337788	1.988771	1.4102379
22.37457776317561	2.0034094	1.4154185
22.392444275928337	2.018877	1.420872
22.410311340081282	1.9972744	1.4132496
22.428178956119904	1.9639065	1.4013945
22.446047124529805	1.9449512	1.394615
22.46391584579669	1.9519022	1.3971049
22.481785120406414	1.9615041	1.4005371
22.49965494884496	1.96407	1.4014528
22.51752533159841	1.9752195	1.4054251
22.53539626915302	1.9697951	1.4034939
22.553267761995137	1.9839907	1.408542
22.571139810611264	1.9313614	1.3897343
22.589012415488025	1.9481789	1.3957717
22.60688557711216	1.973894	1.4049534
22.624759295970566	1.9821192	1.4078776
22.642633572550263	1.9404519	1.3930011
22.660508407338362	1.9275346	1.3883568
22.67838380082217	1.8982172	1.377758
22.696259753489077	1.9297655	1.38916
22.714136265826614	1.9267259	1.3880655
22.73201333832246	1.8927404	1.375769
22.74989097146439	1.8939441	1.3762064
22.76776916574035	1.9091499	1.38172
22.785647921638393	1.9294153	1.3890339
22.803527239646712	1.910229	1.3821104
22.82140712025363	1.9299941	1.3892423
22.839287563947593	1.9372593	1.3918546
22.85716857121719	1.936649	1.3916353
22.875050142551135	1.9091489	1.3817196
22.892932278438277	1.8802502	1.3712221
22.910814979367604	1.9325469	1.3901607
22.928698245828222	1.9750887	1.4053785
22.946582078309387	1.9674708	1.4026656
22.96446647730047	1.9118534	1.3826979
22.98235144329098	1.930229	1.3893268
23.000236976770562	1.9461219	1.3950348
23.018123078229	1.9354657	1.3912102
23.03600974815619	1.9061794	1.3806446
23.053896987042194	1.9198523	1.3855873
23.071784795377173	1.8877058	1.3739381
23.08967317365145	1.8925667	1.3757058
23.10756212235546	1.9270326	1.388176
23.125451641979787	1.948178	1.3957715
23.143341733015134	1.9465833	1.3952001
23.161232395952357	1.9264121	1.3879524
23.179123631282426	1.9153172	1.3839499
23.197015439496468	1.9081596	1.3813615
23.214907821085717	1.9096138	1.3818878
23.23280077654157	1.9282064	1.3885987
23.250694306355538	1.9315655	1.3898077
23.268588411019277	1.9380641	1.3921437
23.28648309102458	1.9183316	1.3850385
23.304378346863356	1.9017864	1.3790528
23.322274179027676	1.8751934	1.369377
23.340170588009723	1.8844005	1.3727347
23.358067574301852	1.8986534	1.3779163
23.37596513839651	1.9200165	1.3856466
23.39386328078629	1.9102225	1.382108
23.411762001963947	1.9073787	1.3810788
23.429661302422353	1.9350969	1.3910776
23.4475611826545	1.9589846	1.3996373
23.46546164315356	1.9443952	1.3944157
23.48336268441279	1.9283698	1.3886576
23.501264306925638	1.9260204	1.3878114
23.51916651118564	1.9522951	1.3972455
23.537069297686497	1.9414655	1.3933648
23.554972666922037	1.9531689	1.3975582
23.57287661938623	1.9527177	1.3973968
23.59078115557318	1.9365131	1.3915865
23.608686275977128	1.9272634	1.3882592
23.62659198109246	1.9181263	1.3849643
23.6444982714137	1.8796197	1.3709922
23.66240514743549	1.8761395	1.3697224
23.68031260965263	1.901737	1.3790348
23.698220658560068	1.9337904	1.390608
23.716129294652845	1.9333694	1.3904566
23.7340385184262	1.9133393	1.3832351
23.75194833037546	1.9065057	1.3807627
23.769858730996123	1.8636547	1.3651574
23.78776972078382	1.8606224	1.3640463
23.80568130023431	1.8583468	1.363212
23.823593469843495	1.8654975	1.3658322
23.841506230107424	1.8947583	1.3765022
23.859419581522275	1.932011	1.389968
23.87733352458438	1.9189775	1.3852717
23.89524805979019	1.922947	1.3867036
23.913163187636318	1.9167495	1.3844672
23.931078908619508	1.974332	1.4051093
23.948995223236633	1.9840958	1.4085793
23.966912131984735	2.0399063	1.4282528
23.98482963536096	2.0489883	1.4314288
24.002747733862616	2.0526052	1.4326916
24.020666427987155	2.0394762	1.4281023
24.038585718232156	2.078609	1.4417381
24.056505605095353	2.0927796	1.4466443
24.074426089074617	2.099282	1.44889
24.092347170667946	2.1066775	1.4514399
24.110268850373515	2.1244946	1.4575646
24.128191128689586	2.1189363	1.4556566
24.146114006114626	2.0857031	1.4441963
24.164037483147187	2.0782754	1.4416225
24.181961560286005	2.0819013	1.4428796
24.199886238029926	2.0812137	1.4426413
24.21781151687797	2.105201	1.4509311
24.235737397329274	2.0810754	1.4425933
24.253663879883135	2.0670464	1.4377227
24.271590965038975	2.0543394	1.4332967
24.289518653296376	2.0585997	1.4347821
24.30744694515505	2.0339785	1.4261762
24.32537584111486	2.0241354	1.4227211
24.34330534167581	2.0221717	1.4220308
24.361235447338046	2.0337868	1.426109
24.379166158601876	2.0218298	1.4219106
24.39709747596772	1.9998897	1.4141746
24.41502939993615	1.9984742	1.413674
24.432961931007917	1.9942435	1.4121768
24.450895069683856	2.0060265	1.4163426
24.468828816465	1.9906726	1.4109119
24.4867631718525	1.9837581	1.4084594
24.504698136347656	1.9838811	1.4085032
24.52263371045192	2.003562	1.4154724
24.540569894666874	2.0219688	1.4219595
24.558506689494266	1.9877326	1.4098697
24.57644409543597	1.9260933	1.3878376
24.594382112994012	1.8846215	1.3728151
24.61232074267057	1.9239634	1.3870701
24.630259984967953	1.949355	1.396193
24.64819984038863	1.9593544	1.3997694
24.66614030943522	1.9808667	1.4074327
24.684081392610462	1.9731247	1.4046795
24.702023090417274	1.9802948	1.4072295
24.7199654033587	1.990344	1.4107956
24.737908331937927	1.9876107	1.4098265
24.755851876658305	2.0060854	1.4163635
24.773796038023324	1.9664938	1.4023173
24.79174081653661	1.9871384	1.4096589
24.809686212701962	2.0545173	1.4333588
24.827632227023294	2.0949533	1.4473953
24.8455788600047	2.1124709	1.4534341
24.8635261121504	2.056329	1.4339906
24.88147398396475	2.0557144	1.4337763
24.899422475952303	2.0592372	1.4350042
24.917371588617698	2.103384	1.4503047
24.935321322465768	2.142555	1.4637469
24.953271678001478	2.2764368	1.5087866
24.97122265572994	2.508862	1.5839387
24.989174256156414	2.8153186	1.6778911
25.00712647978632	3.3175168	1.8214052
25.02507932712521	3.8427892	1.9603033
25.043032798678798	4.3199053	2.0784383
25.060986894952933	4.8954945	2.2125764
25.078941616453637	5.645105	2.375943
25.096896963687055	6.631771	2.5752225
25.114852937159508	7.7775264	2.7888217
25.132809537377444	8.229212	2.8686602
25.150766764847468	8.284808	2.8783343
25.168724620076347	7.7871366	2.790544
25.186683103570985	6.755281	2.5990922
25.204642215838426	5.5767617	2.3615167
25.222601957385894	4.2548437	2.0627272
25.24056232872074	3.254659	1.8040674
25.25852333035048	2.643961	1.6260262
25.276484962782778	2.3024888	1.5173954
25.294447226525435	2.1109197	1.4529004
25.312410122086423	1.9987725	1.4137795
25.330373649973843	1.9518298	1.397079
25.348337810695988	1.9692739	1.4033082
25.366302604761245	1.9942834	1.412191
25.384268032678207	1.9999434	1.4141935
25.40223409495558	1.9535241	1.3976853
25.420200792102257	1.9097594	1.3819405
25.438168124627246	1.8869159	1.3736506
25.45613609303974	1.9026533	1.379367
25.474104697849057	1.9058769	1.380535
25.492073939564698	1.9219157	1.3863317
25.510043818696285	1.9619899	1.4007105
25.528014335753614	1.9586085	1.399503
25.54598549124664	1.8988788	1.3779981
25.56395728568544	1.8795598	1.3709704
25.58192971958028	1.8800502	1.3711492
25.59990279344156	1.8839114	1.3725566
25.617876507779833	1.8880087	1.3740484
25.635850863105826	1.831735	1.3534161
25.653825859930386	1.8124923	1.3462883
25.671801498764548	1.7898775	1.3378631
25.68977778011949	1.8529747	1.3612401
25.707754704506524	1.8583488	1.3632127
25.725732272437153	1.8242806	1.3506594
25.743710484423012	1.8542001	1.3616902
25.761689340975888	1.8645171	1.3654733
25.77966884260774	1.8490937	1.3598138
25.797648989830662	1.8060853	1.3439068
25.815629783156922	1.8275576	1.3518718
25.83361122309895	1.8460821	1.358706
25.85159331016929	1.885807	1.3732469
25.869576044880695	1.9149083	1.383802
25.887559427746034	1.8902899	1.3748782
25.90554345927836	1.8615887	1.3644005
25.92352813999086	1.8940779	1.376255
25.94151347039689	1.8970424	1.3773316
25.959499451009965	1.8707802	1.3677647
25.97748608234374	1.8046085	1.3433572
25.995473364912062	1.8066099	1.3441019
26.013461299228904	1.8082541	1.3447134
26.03144988580839	1.8217621	1.3497267
26.04943912516483	1.8473737	1.3591813
26.067429017812675	1.8651847	1.3657176
26.085419564266537	1.8390965	1.356133
26.103410765041186	1.7920609	1.3386787
26.12140262065155	1.771433	1.3309519
26.139395131612723	1.7508311	1.3231897
26.157388298439948	1.7434345	1.3203918
26.17538212164861	1.7695796	1.3302555
26.193376601754295	1.8566375	1.3625848
26.211371739272714	1.8413388	1.3569593
26.229367534719746	1.7870053	1.3367891
26.247363988611433	1.7741185	1.3319604
26.26536110146397	1.814309	1.3469629
26.283358873793727	1.8310962	1.35318
26.301357306117204	1.8672593	1.366477
26.319356398951104	1.859136	1.3635013
26.33735615281224	1.8493621	1.3599125
26.35535656821762	1.8320929	1.3535483
26.373357645684404	1.8200194	1.3490809
26.39135938572991	1.8190478	1.3487208
26.409361788871614	1.7962743	1.3402516
26.427364855627165	1.7671714	1.32935
26.445368586514352	1.7788343	1.3337295
26.46337298205115	1.7915131	1.3384742
26.48137804275568	1.8037319	1.3430309
26.499383769146217	1.7721514	1.3312217
26.517390161741215	1.7779742	1.333407
26.53539722105928	1.8105992	1.3455851
26.553404947619182	1.7535318	1.3242099
26.571413341939856	1.7322011	1.3161311
26.589422404540397	1.7388182	1.3186425
26.60743213594006	1.775214	1.3323716
26.62544253665827	1.8144014	1.3469971
26.64345360721459	1.8220503	1.3498335
26.66146534812879	1.7972943	1.3406321
26.679477759920758	1.8032575	1.3428543
26.69749084311057	1.8147546	1.3471283
26.71550459821847	1.7978611	1.3408434
26.733519025764842	1.7950135	1.3397812
26.751534126270258	1.7909023	1.338246
26.769549900255434	1.7828616	1.3352385
26.787566348241267	1.7743424	1.3320445
26.80558347074881	1.8133887	1.3466213
26.823601268299267	1.8386405	1.3559648
26.841619741414036	1.7995281	1.3414649
26.85963889061465	1.8111413	1.3457865
26.877658716422832	1.8131816	1.3465444
26.89567921936045	1.8154012	1.3473682
26.913700399949544	1.8140249	1.3468574
26.93172225871233	1.8431102	1.3576119
26.949744796171174	1.8399951	1.3564643
26.967768012848605	1.816818	1.347894
26.98579190926733	1.7948577	1.339723
27.003816485950225	1.7989755	1.3412589
27.021841743420318	1.8498516	1.3600925
27.039867682200814	1.8558316	1.3622891
27.057894302815072	1.8429995	1.3575711
27.07592160578664	1.818636	1.3485681
27.0939495916392	1.8101743	1.3454272
27.111978260896635	1.8147395	1.3471227
27.13000761408296	1.8114077	1.3458855
27.148037651722397	1.7901	1.3379462
27.166068374339304	1.8068016	1.3441732
27.184099782458215	1.8447937	1.3582318
27.20213187660384	1.8585645	1.3632917
27.22016465730105	1.8731787	1.3686411
27.23819812507487	1.8446574	1.3581817
27.256232280450533	1.8250257	1.3509351
27.274267123953383	1.8488923	1.3597398
27.292302656108987	1.8447345	1.3582101
27.31033887744306	1.8071891	1.3443173
27.32837578848146	1.8201672	1.3491358
27.34641338975026	1.8458352	1.3586152
27.364451681775673	1.8209074	1.34941
27.382490665084074	1.803919	1.3431005
27.400530340202046	1.8301507	1.3528306
27.41857070765629	1.8462012	1.3587499
27.436611767973726	1.8381374	1.3557793
27.454653521681404	1.8091576	1.3450493
27.472695969306564	1.7780079	1.3334196
27.490739111376627	1.7722512	1.3312593
27.508782948419153	1.793916	1.3393714
27.526827480961902	1.7952473	1.3398684
27.54487270953279	1.813374	1.3466158
27.562918634659898	1.8465841	1.3588908
27.580965256871508	1.8586729	1.3633316
27.599012576696026	1.8264874	1.3514761
27.617060594662068	1.8075774	1.3444618
27.63510931129842	1.7726724	1.3314174
27.65315872713401	1.8045828	1.3433477
27.67120884269797	1.8596387	1.3636857
27.68925965851958	1.8507965	1.3604398
27.707311175128307	1.8296131	1.3526319
27.725363393053787	1.8217986	1.3497401
27.74341631282583	1.8068717	1.3441993
27.7614699349744	1.8080279	1.3446293
27.77952426002968	2.0016448	1.414795
27.797579288521973	2.0752695	1.4405795
27.815635020981784	2.5319395	1.5912069
27.83369145793979	2.5781903	1.6056744
27.85174859992682	2.4384217	1.5615447
27.869806447473923	2.3080778	1.519236
27.887865001112267	1.9683555	1.4029809
27.905924261373233	1.8620462	1.3645681
27.92398422878836	1.9291962	1.3889551
27.94204490388936	1.9115171	1.3825762
27.96010628720813	1.8808228	1.3714309
27.978168379276728	1.8407102	1.3567277
27.9962311806274	1.8432841	1.357676
28.014294691792568	1.8134305	1.3466368
28.0323589133048	1.7798781	1.3341208
28.050423845696887	1.7664737	1.3290875
28.068489489501758	1.7827477	1.3351958
28.086555845252523	1.8210025	1.3494452
28.104622913482487	1.8240709	1.3505816
28.122690694725115	1.7977805	1.3408134
28.14075918951405	1.8197523	1.348982
28.15882839838312	1.8661411	1.3660678
28.176898321866304	1.8795137	1.3709536
28.1949689604978	1.8759106	1.3696389
28.213040314811945	1.8998142	1.3783375
28.23111238534327	1.9036746	1.3797371
28.249185172626493	1.9290661	1.3889083
28.267258677196473	1.9369146	1.3917308
28.285332899588294	1.9040384	1.379869
28.303407840337172	1.8650007	1.3656503
28.321483499978545	1.9234877	1.3868985
28.33955987904799	1.9394339	1.3926356
28.357636978081285	1.8903235	1.3748903
28.37571479761439	1.8688303	1.3670517
28.393793338183425	1.8995793	1.3782523
28.41187260032469	1.9270614	1.3881863
28.429952584574686	1.9260635	1.3878269
28.448033291470065	1.9251124	1.3874842
28.46611472154769	1.9501756	1.3964869
28.484196875344566	1.9201425	1.3856921
28.502279753397914	1.8627963	1.364843
28.52036335624511	1.941482	1.3933707
28.538447684423716	1.975803	1.4056326
28.556532738471482	1.9519068	1.3971065
28.574618518926325	1.946827	1.3952874
28.59270502632635	1.9859667	1.4092433
28.61079226120985	1.9625028	1.4008936
28.628880224115274	1.984695	1.408792
28.646968915581287	2.0211997	1.421689
28.66505833614671	2.0186708	1.4207994
28.68314848635055	2.0358992	1.4268494
28.701239366732004	2.0318286	1.4254223
28.71933097783044	2.0600924	1.4353023
28.737423320185403	2.106879	1.4515092
28.75551639433665	2.1332517	1.4605656
28.773610200824074	2.1552565	1.4680792
28.791704740187793	2.1678674	1.472368
28.80980001296809	2.1408262	1.4631562
28.827896019705413	2.137834	1.4621334
28.845992760940433	2.1605299	1.4698741
28.86409023721397	2.2119627	1.4872669
28.88218844906704	2.2343357	1.4947695
28.900287397040845	2.2587984	1.5029299
28.918387081676755	2.2507067	1.5002356
28.936487503516343	2.2680361	1.506
28.954588663101365	2.281551	1.5104804
28.97269056097374	2.2742531	1.5080627
28.990793197675597	2.2773483	1.5090885
29.00889657374923	2.319346	1.5229399
29.027000689737125	2.3420062	1.5303614
29.04510554618196	2.3652143	1.5379254
29.06321114362659	2.3449016	1.5313071
29.08131748261405	2.378164	1.5421298
29.099424563687567	2.5212877	1.5878563
29.11753238739057	2.5530963	1.5978411
29.13564095426663	2.5544455	1.5982633
29.15375026485954	2.5745718	1.6045473
29.171860319713275	2.6155066	1.6172528
29.18997111937199	2.6420386	1.6254349
29.20808266438002	2.6949232	1.6416221
29.226194955281898	2.6988766	1.6428258
29.244307992622335	2.729093	1.6519967
29.26242177694624	2.779802	1.6672739
29.2805363087987	2.838226	1.6847036
29.29865158872498	2.8808992	1.6973212
29.316767617270557	2.9196022	1.7086843
29.334884394981064	2.9580023	1.7198844
29.353001922402367	2.9245214	1.7101232
29.37112020008047	2.951626	1.7180297
29.389239228561596	3.1099975	1.7635185
29.407359008392152	3.330784	1.8250436
29.42547954011872	3.6896768	1.9208531
29.44360082428809	4.2530766	2.0622988
29.46172286144722	5.340506	2.3109536
29.479845652143283	6.950044	2.6362936
29.497969196923606	8.989548	2.9982574
29.516093496335728	11.424863	3.3800685
29.5342185509274	14.178373	3.765418
29.55234436124651	16.506847	4.062862
29.570470927841175	17.793991	4.218292
29.588598251259686	17.43696	4.175759
29.60672633205055	16.126665	4.015802
29.624855170762405	14.084638	3.7529504
29.642984767944146	11.499344	3.3910682
29.66111512414481	8.803223	2.9670224
29.67924623991366	6.5187335	2.5531812
29.697378115800138	5.0133314	2.239047
29.71551075235387	4.18464	2.0456393
29.733644150124675	3.767404	1.9409802
29.751778309662576	3.5206177	1.876331
29.769913231517766	3.4249222	1.8506545
29.78804891624066	3.330641	1.8250043
29.806185364381818	3.269046	1.8080504
29.82432257649206	3.2506127	1.8029456
29.842460553122333	3.3016279	1.8170382
29.86059929482382	3.3080542	1.8188057
29.878738802147872	3.2893932	1.8136685
29.896879075646048	3.3014805	1.8169976
29.915020115870114	3.3320196	1.825382
29.933161923371976	3.307356	1.8186138
29.951304498703777	3.2778556	1.8104849
29.969447842417857	3.2666016	1.8073742
29.987591955066733	3.1802204	1.7833172
30.005736837203123	3.1557822	1.7764522
30.023882489379943	3.1007643	1.7608987
30.04202891215028	3.0858512	1.7566592
30.060176106067455	3.1235545	1.7673581
30.078324071684946	3.149871	1.7747877
30.09647280955646	3.1266592	1.7682362
30.114622320235863	3.0601692	1.749334
30.132772604277257	3.117659	1.7656894
30.1509236622349	3.181648	1.7837175
30.16907549466328	3.183962	1.784366
30.18722810211705	3.2136028	1.7926525
30.205381485151097	3.1615813	1.7780836
30.22353564432045	3.0945776	1.7591411
30.241690580180403	3.0734642	1.7531298
30.25984629328638	3.1135933	1.7645377
30.278002784194037	3.0530443	1.7472963
30.296160053459246	3.05932	1.7490911
30.314318101638033	3.006946	1.7340548
30.332476929286646	2.968221	1.7228526
30.35063653696153	2.9992328	1.7318293
30.368796925219307	3.0118399	1.7354653
30.386958094616844	2.9275672	1.7110136
30.40512004571115	2.8666246	1.693111
30.423282779059463	2.8426843	1.6860262
30.441446295219233	2.8392467	1.6850065
30.459610594748067	2.8345945	1.6836255
30.47777567820382	2.7924047	1.671049
30.495941546144504	2.813692	1.6774063
30.51410819912835	2.805946	1.6750958
30.532275637713795	2.8384058	1.6847569
30.55044386245946	2.8585422	1.6907223
30.56861287392416	2.8819828	1.6976404
30.586782672666956	2.8635187	1.6921935
30.604953259247047	2.8240707	1.6804972
30.623124634223885	2.8162696	1.6781745
30.641296798157075	2.813539	1.6773608
30.659469751606462	2.8499863	1.6881902
30.677643495132074	2.8017614	1.6738462
30.695818029294152	2.7017996	1.6437151
30.713993354653116	2.6351414	1.6233119
30.73216947176962	2.6203003	1.6187341
30.75034638120448	2.666328	1.6328894
30.768524083518756	2.685787	1.6388371
30.786702579273673	2.7088208	1.6458496
30.80488186903069	2.8119762	1.6768948
30.82306195335144	2.8983774	1.7024622
30.841242832797782	3.0841706	1.7561806
30.85942450793176	3.4226468	1.8500397
30.877606979315637	3.8136983	1.9528693
30.895790247511883	4.1221986	2.03032
30.913974313083134	4.4182515	2.1019638
30.932159176592283	4.678051	2.1628802
30.95034483860237	4.817047	2.1947773
30.968531299676698	4.6394963	2.153949
30.98671856037873	4.304309	2.074683
31.00490662127215	3.9160526	1.9789019
31.023095482920848	3.5674922	1.8887806
31.04128514588892	3.179624	1.7831501
31.059475610740662	2.7389896	1.6549894
31.07766687804056	2.5245397	1.5888801
31.09585894835335	2.4956179	1.5797524
31.11405182224393	2.4803135	1.5749011
31.132245500277417	2.4620392	1.5690887
31.15043998301914	2.423383	1.5567219
31.168635271034628	2.4018729	1.5497977
31.18683136488964	2.4168808	1.5546321
31.20502826515008	2.3924086	1.5467412
31.223225972382135	2.4148228	1.55397
31.241424487152155	2.4311662	1.5592197
31.259623810026692	2.3788211	1.5423428
31.27782394157253	2.3767376	1.5416671
31.296024882356644	2.4108384	1.5526874
31.314226632946237	2.4105186	1.5525845
31.332429193908684	2.3837974	1.5439551
31.350632565811598	2.3644	1.5376605
31.368836749222787	2.3794932	1.5425606
31.387041744710295	2.4470153	1.5642939
31.40524755284232	2.548342	1.5963527
31.423454174187317	2.5728896	1.604023
31.441661609313922	2.544117	1.5950289
31.459869858791002	2.5148406	1.5858248
31.478078923187628	2.4187584	1.5552357
31.496288803073064	2.4008858	1.5494792
31.514499499016807	2.4416907	1.562591
31.532711011588546	2.3783765	1.5421985
31.550923341358178	2.331797	1.5270222
31.56913648889584	2.3120027	1.5205271
31.587350454771844	2.377588	1.541943
31.605565239556732	2.4554255	1.5669798
31.62378084382127	2.5137036	1.5854664
31.641997268136382	2.4563656	1.5672797
31.660214513073274	2.3721862	1.5401903
31.67843257920331	2.3089423	1.5195204
31.6966514670981	2.2719197	1.5072888
31.71487117732944	2.2552252	1.5017407
31.733091710469346	2.255119	1.5017054
31.751313067090052	2.3002234	1.5166488
31.769535247764008	2.3545969	1.5344696
31.787758253063878	2.3656392	1.5380634
31.805982083562526	2.2960787	1.5152817
31.824206739833024	2.2863925	1.5120821
31.84243222244869	2.2522743	1.5007579
31.860658531983013	2.2079732	1.4859251
31.878885669009737	2.2082527	1.486019
31.897113634102784	2.1815696	1.4770137
31.91534242783632	2.1356554	1.4613882
31.933572050784694	2.1063695	1.4513336
31.951802503522508	2.1621268	1.4704173
31.970033786624548	2.2220955	1.4906695
31.988265900665834	2.24894	1.4996467
32.006498846221575	2.222536	1.4908173
32.02473262386724	2.1758277	1.4750687
32.04296723417845	2.126064	1.458103
32.0612026777311	2.1294546	1.4592651
32.07943895510129	2.1390028	1.462533
32.097676066865304	2.1463885	1.4650558
32.115914013599685	2.0793262	1.4419869
32.13415279588115	2.0533376	1.4329472
32.152392414286666	2.0130208	1.4188097
32.1706328693934	2.0256436	1.423251
32.18887416177875	2.160904	1.4700013
32.20711629202032	2.264359	1.5047787
32.225359260695924	2.222341	1.4907519
32.243603068383614	2.143473	1.4640604
32.26184771566166	2.1084843	1.4520621
32.28009320310852	2.1558497	1.4682811
32.2983395313029	2.1859515	1.4784963
32.31658670082372	2.1683006	1.4725151
32.33483471225012	2.1080062	1.4518975
32.35308356616143	2.1145024	1.4541329
32.371333263137245	2.13267	1.4603664
32.38958380375734	2.1566732	1.4685616
32.407835188601744	2.1601465	1.4697437
32.42608741825067	2.1436787	1.4641306
32.444340493284585	2.1487582	1.4658643
32.46259441428416	2.2148192	1.4882269
32.48084918183028	2.148818	1.4658847
32.49910479650405	2.1579568	1.4689986
32.51736125888683	2.1330283	1.460489
32.53561856956014	2.0971937	1.4481691
32.5538767291058	2.1106977	1.4528241
32.572135738105764	2.1234837	1.4572178
32.59039559714228	2.1001203	1.4491792
32.608656306797776	2.0940049	1.4470677
32.62691786765491	2.0849574	1.4439381
32.645180280296586	2.0560822	1.4339045
32.663443545305896	1.9782325	1.4064965
32.68170766326619	2.0065517	1.4165281
32.69997263476099	2.0815763	1.4427669
32.7182384603741	2.0487053	1.43133
32.7365051406895	1.9383029	1.3922294
32.75477267629144	1.9276397	1.3883947
32.77304106776434	1.9846938	1.4087915
32.79131031569289	1.9718443	1.4042238
32.809580420661966	1.9105841	1.3822387
32.827851383256714	1.900525	1.3785952
32.84612320406245	1.9347979	1.3909701
32.86439588366476	1.9260055	1.3878059
32.88266942264945	1.9373497	1.3918871
32.9009438216025	1.9775202	1.4062433
32.9192190811102	2.050747	1.432043
32.937495201758985	2.0202293	1.4213477
32.95577218413556	1.9682838	1.4029554
32.974050028826866	1.947636	1.3955773
32.992328736420035	2.0002227	1.4142923
33.010608307502444	2.015265	1.4196002
33.02888874266169	2.009401	1.4175334
33.047170042485604	1.9509268	1.3967558
33.06545220756225	1.9389101	1.3924475
33.083735238479896	1.9093318	1.3817858
33.10201913582707	1.989262	1.410412
33.12030390019248	2.0131245	1.4188461
33.138589532165135	2.0161307	1.4199052
33.15687603233419	1.9419272	1.3935305
33.17516340128909	1.866378	1.3661544
33.19345163961947	1.86996	1.3674648
33.211740747915215	1.8587708	1.3633674
33.23003072676643	1.9727768	1.4045557
33.248321576763466	2.0170696	1.4202358
33.266613298496885	1.8711245	1.3678905
33.28490589255747	1.8366758	1.3552401
33.30319935953626	1.9181322	1.3849665
33.32149370002451	1.9432355	1.3939998
33.339788914613706	1.890186	1.3748404
33.358085003895575	1.9099399	1.3820057
33.376381968462034	1.7998139	1.3415715
33.39467980890529	1.8408536	1.3567806
33.41297852581774	1.8974408	1.3774762
33.43127811979204	1.9439191	1.394245
33.44957859142105	1.9059436	1.3805592
33.467879941297866	1.8671625	1.3664415
33.486182170015844	1.8430346	1.3575841
33.50448527816853	1.8582288	1.3631687
33.522789266349754	1.9878685	1.409918
33.541094135153514	2.0944045	1.4472058
33.55939988517411	2.027727	1.4239827
33.57770651700602	1.8914689	1.3753068
33.59601403124398	1.8264325	1.3514557
33.61432242848296	1.8814454	1.3716578
33.632631709318154	1.974288	1.4050936
33.650941874344994	2.0381281	1.4276303
33.66925292415916	2.0236318	1.4225441
33.68756485935654	1.961748	1.4006242
33.70587768053328	1.9329016	1.3902884
33.724191388285746	1.9849602	1.4088862
33.74250598321054	2.0673685	1.4378346
33.760821465904506	2.0183086	1.4206719
33.77913783696474	1.9489754	1.3960571
33.79745509698852	1.8955355	1.3767844
33.815773246573414	1.8651066	1.365689
33.8340922863172	1.9143122	1.3835868
33.852412216817896	2.0273426	1.4238478
33.87073303867377	1.9573888	1.399067
33.889054752483304	1.8439583	1.3579242
33.907377358845245	1.9283495	1.3886503
33.92570085835853	2.0239367	1.4226513
33.94402525162239	2.0049117	1.415949
33.96235053923627	1.9834454	1.4083484
33.980676721799824	1.8782494	1.3704923
33.999003799912984	1.8121499	1.3461611
34.01733177417592	1.8689098	1.3670808
34.03566064518901	1.9335718	1.3905293
34.0539904135529	1.9190332	1.3852917
34.07232107986846	1.8562391	1.3624387
34.090652644736785	1.8159188	1.3475603
34.108985108759235	1.9515198	1.3969681
34.12731847253742	2.0145543	1.4193499
34.14565273667313	1.9672854	1.4025995
34.16398790176847	2.0405564	1.4284805
34.18232396842574	2.0046246	1.4158477
34.20066093724749	1.8696132	1.367338
34.21899880883651	1.8873158	1.3737961
34.23733758379583	1.9772385	1.4061432
34.25567726272874	1.9585533	1.3994832
34.27401784623872	1.9378508	1.3920671
34.29235933492957	1.8815585	1.3716991
34.31070172940526	1.9308255	1.3895415
34.32904503027003	1.9901683	1.4107332
34.347389238128386	2.0281365	1.4241266
34.36573435358502	1.9717822	1.4042016
34.38408037724492	1.9340883	1.390715
34.402427309713296	1.9778419	1.4063576
34.42077515159559	1.9757656	1.4056193
34.43912390349752	1.8400593	1.3564879
34.45747356602499	1.8522409	1.3609706
34.47582413978423	2.0456486	1.4302617
34.49417562538163	2.1578557	1.4689642
34.51252802342388	2.0153291	1.4196229
34.53088133451789	1.8407617	1.3567467
34.54923555927084	1.8597304	1.3637193
34.567590698290104	1.8782222	1.3704824
34.58594675218336	1.8419751	1.3571938
34.6043037215585	1.8766016	1.369891
34.62266160702365	1.8594711	1.3636242
34.641020409187234	1.9264185	1.3879548
34.65938012865785	1.8614619	1.364354
34.677740766044394	1.9278642	1.3884755
34.69610232195598	2.0066922	1.4165776
34.714464797002016	2.1890259	1.4795357
34.73282819179208	2.3293512	1.5262212
34.751192506936064	2.2029681	1.4842399
34.76955774304408	2.0574641	1.4343864
34.7879239007265	2.048821	1.4313703
34.80629098059391	2.0094855	1.4175632
34.824658983257194	1.8523123	1.3609968
34.843027909327446	1.8146996	1.3471079
34.86139775941603	1.9858052	1.409186
34.879768534134534	2.2244537	1.4914602
34.89814023409483	2.2505522	1.500184
34.91651285990901	2.0807877	1.4424936
34.93488641218944	2.0598786	1.4352278
34.95326089154871	2.0617375	1.4358752
34.97163629859967	2.068001	1.4380546
34.99001263395542	1.9758593	1.4056526
35.00838989822934	1.8574975	1.3629004
35.02676809203499	1.7996433	1.3415078
35.04514721598624	1.8270125	1.3516703
35.063527270697215	1.9661919	1.4022096
35.081908256782256	2.0905747	1.445882
35.10029017485597	1.9668089	1.4024297
35.11867302553321	1.6418912	1.281363
35.137056809429104	1.5764933	1.2555848
35.155441527159006	1.6385722	1.2800673
35.173827179338524	1.8206621	1.3493191
35.19221376658354	2.190444	1.4800149
35.21060128951017	2.3012354	1.5169823
35.2289897487348	1.9939125	1.4120597
35.24737914487405	1.9919018	1.4113475
35.26576947854479	2.0133684	1.4189321
35.28416075036418	1.8811964	1.3715671
35.30255296094958	1.7107729	1.3079652
35.32094611091867	1.6098456	1.2687969
35.33934020088932	1.7803746	1.3343068
35.35773523147969	1.9758049	1.4056333
35.3761312033082	1.8286138	1.3522625
35.394528116993506	1.7571815	1.3255873
35.41292597315452	1.864164	1.3653439
35.431324772410434	1.9228895	1.3866829
35.449724515380666	2.0564873	1.4340458
35.46812520268491	1.9683326	1.4029728
35.486526834943106	1.9735223	1.404821
35.504929412775454	2.109449	1.4523942
35.52333293680242	2.1734817	1.4742733
35.54173740764471	1.8773727	1.3701725
35.560142825923286	1.6082093	1.2681519
35.5785491922594	1.594885	1.2628876
35.59695650727454	1.5331008	1.2381845
35.61536477159042	0.6898081	0.83054686
