0.008763373481513119	0.56609195	0.7523908
0.026290120649546365	0.18888974	0.43461448
0.043816868432600686	0.0908709	0.30144802
0.06134361724069026	0.0	0.0
0.07887036748382949	0.024181224	0.15550314
0.0963971195720331	0.06726666	0.25935817
0.11392387391531617	0.17172763	0.4144003
0.1314506309236943	0.21742858	0.46629238
0.1489773910071836	0.27473333	0.52415013
0.16650415457580078	0.23866786	0.48853645
0.18403092203956356	0.31340376	0.55982476
0.20155769380849	0.28128728	0.5303652
0.2190844702925996	0.29156002	0.539963
0.2366112519019124	0.20535883	0.45316535
0.2541380390464497	0.102821566	0.32065803
0.27166483213623416	0.12483759	0.35332364
0.28919163158128947	0.14497904	0.38076115
0.3067184377916406	0.21080643	0.4591366
0.324245251177314	0.21989991	0.46893486
0.34177207214833777	0.18724892	0.4327227
0.3592989011147415	0.14890736	0.38588518
0.37682573848655654	0.108940676	0.3300616
0.39435258467381573	0.13239238	0.36385763
0.41187944008655414	0.1361124	0.36893415
0.42940630513480854	0.124954395	0.3534889
0.446933180228618	0.108108945	0.32879925
0.4644600657780234	0.13281496	0.36443788
0.48198696219306775	0.14379686	0.37920555
0.49951386988379676	0.17484896	0.41814944
0.5170407892602581	0.16714363	0.40883204
0.5345677207325025	0.15674654	0.3959123
0.5520946647105822	0.11397424	0.3376007
0.5696216216045534	0.12649983	0.35566816
0.5871485918244737	0.14988208	0.38714606
0.6046755757804043	0.19494313	0.44152364
0.6222025738824094	0.22439866	0.47370735
0.6397295865405557	0.21378998	0.4623743
0.6572566141649129	0.21350797	0.4620692
0.6747836571655547	0.19083445	0.43684602
0.6923107159525568	0.18357182	0.42845282
0.7098377909359992	0.18831769	0.43395585
0.7273648825259653	0.17708771	0.4208179
0.7448919911325411	0.16457713	0.40568107
0.762419117165817	0.17018525	0.41253516
0.7799462610358868	0.1325767	0.36411083
0.7974734231528482	0.1357741	0.36847538
0.8150006039268024	0.18542081	0.43060517
0.8325278037678551	0.23497719	0.48474446
0.8500550230861152	0.24804401	0.49804017
0.8675822622916969	0.19709763	0.4439568
0.8851095217947171	0.16530971	0.40658298
0.9026368020052984	0.16331634	0.40412417
0.9201641033335665	0.18472938	0.42980155
0.9376914261896523	0.19789569	0.44485468
0.9552187709836915	0.2108256	0.4591575
0.9727461381258234	0.20931327	0.45750767
0.990273528026193	0.22818017	0.47768208
1.0078009410949496	0.24571857	0.4957001
1.0253283777422473	0.28888625	0.53748137
1.0428558383782454	0.26649433	0.5162309
1.0603833234131086	0.2720354	0.52157015
1.0779108332570058	0.27115107	0.5207217
1.0954383683201119	0.30329195	0.5507195
1.112965929012607	0.36705172	0.60584795
1.1304935157446763	0.49328262	0.70234084
1.1480211289265108	0.56585073	0.7522305
1.1655487689683062	1.4141743	1.1891906
1.1830764362802655	1.7142016	1.3092752
1.200604131272596	2.1844664	1.4779941
1.2181318543555117	2.672271	1.6347083
1.235659605939232	2.6815581	1.6375464
1.253187386433982	4.0513515	2.0127969
1.270715196249994	6.220491	2.4940913
1.2882430357975057	11.609065	3.4072077
1.3057709054867608	16.293932	4.0365744
1.3232988057280106	22.132088	4.7044754
1.3408267369315112	27.406164	5.23509
1.358354699507526	31.414495	5.6048636
1.3758826938663256	35.661133	5.9716945
1.3934107204181858	37.510105	6.1245494
1.410938779573391	37.985676	6.163252
1.4284668717422309	38.411926	6.197736
1.4459949973350033	37.83285	6.1508417
1.4635231567620117	37.915592	6.1575637
1.4810513504335687	37.345615	6.111106
1.4985795787599925	36.694496	6.057598
1.5161078421516088	36.183254	6.0152516
1.5336361410187505	34.993595	5.9155383
1.5511644757717598	35.094517	5.9240627
1.5686928468209842	35.611202	5.967512
1.58622125457678	36.143734	6.0119658
1.6037496994495108	36.958847	6.0793786
1.621278181849548	36.81167	6.067262
1.6388067021872719	37.888153	6.1553354
1.6563352608730693	37.561607	6.1287527
1.673863858317336	36.918022	6.0760202
1.6913924949304753	36.174366	6.014513
1.7089211711228998	35.014423	5.917299
1.7264498873050296	33.940117	5.8258147
1.7439786438872935	32.83842	5.7304816
1.7615074412801288	31.578436	5.619469
1.779036279893981	31.059235	5.573081
1.796565160139305	30.215248	5.49684
1.814094082426564	29.879902	5.4662514
1.8316230471662298	29.101301	5.3945622
1.849152054768784	28.31055	5.320766
1.8666811056447168	27.881096	5.2802553
1.8842102002045273	26.920868	5.1885324
1.901739338858724	26.172451	5.115902
1.9192685220178245	25.603266	5.059967
1.9367977500923557	25.181772	5.018144
1.9543270234928547	25.137749	5.013756
1.971856342629867	24.626287	4.962488
1.9893857079139496	23.914352	4.89023
2.006915119755667	23.249182	4.8217406
2.0244445785655945	22.53391	4.7469897
2.0419740847543175	22.116995	4.702871
2.0595036387324317	21.636078	4.6514597
2.0770332409105414	20.959826	4.5781903
2.094562891699263	20.395699	4.5161595
2.1120925915092217	20.014414	4.4737473
2.129622340751053	19.918211	4.462982
2.1471521398354043	188.44894	13.727671
2.1646819891729323	444.7391	21.088839
2.182211889174303	440.6903	20.992624
2.1997418402501974	452.66367	21.275894
2.2172718428113023	432.34198	20.792835
2.234801897268317	320.32156	17.89753
2.2523320040319548	16.830694	4.102523
2.269862163512935	16.70568	4.0872583
2.287392376121992	16.357925	4.044493
2.304922642269869	16.104189	4.0130024
2.322452962367322	15.672848	3.9588947
2.3399833368251164	15.344997	3.9172692
2.357513766054032	15.153148	3.8927045
2.3750442504648586	14.922253	3.8629332
2.3925747904683963	14.719568	3.836609
2.410105386475459	14.544769	3.8137605
2.4276360388968707	14.165977	3.7637715
2.445166748143469	13.899017	3.7281387
2.4626975146261025	13.803736	3.715338
2.4802283387556323	13.652019	3.6948638
2.4977592209429305	13.3786	3.657677
2.5152901615988825	13.044547	3.6117237
2.5328211611343865	12.847045	3.5842774
2.5503522199603523	12.646629	3.55621
2.5678833384877024	12.414008	3.523352
2.5854145171273712	12.153679	3.4862127
2.6029457562903064	11.888215	3.4479291
2.620477056387469	11.680616	3.4176917
2.6380084178298326	11.599128	3.4057493
2.655539841028383	11.5337515	3.3961377
2.673071326394119	11.4065695	3.3773613
2.6906028743380523	11.13449	3.3368382
2.708134485271211	10.805374	3.287153
2.7256661596046325	10.641177	3.2620816
2.743197897749369	10.658516	3.2647383
2.760729700116486	10.716488	3.2736046
2.778261567117063	10.624344	3.2595005
2.795793499162193	10.4106865	3.2265596
2.8133254966629817	10.037473	3.1681972
2.830857560030551	9.923472	3.1501544
2.8483896896760337	9.740266	3.12094
2.865921886010578	9.571519	3.0937872
2.883454149445347	9.451562	3.0743392
2.9009864803915177	9.298558	3.0493538
2.91851887926028	9.125765	3.020888
2.9360513464628384	9.040321	3.0067127
2.953583882410413	8.930607	2.9884121
2.9711164875142373	8.886319	2.980993
2.9886491621855606	8.704767	2.9503841
3.0061819068356455	8.485751	2.9130313
3.023714721875769	8.273374	2.8763473
3.041247607717225	8.153434	2.8554218
3.0587805647713213	8.082557	2.8429837
3.0763135934493806	8.110412	2.8478785
3.0938466941627407	8.233038	2.869327
3.1113798673227544	8.223344	2.8676374
3.1289131133407904	8.053866	2.8379335
3.1464464326282315	7.860863	2.803723
3.1639798255964786	7.596113	2.7561047
3.1815132926569443	7.4969726	2.73806
3.1990468342210603	7.4728374	2.733649
3.216580450700272	7.5029526	2.7391517
3.2341141425060416	7.424868	2.7248611
3.251647910049847	7.2735605	2.696954
3.2691817537431813	7.1665316	2.6770377
3.286715673997555	7.034033	2.6521752
3.3042496712244938	7.0808787	2.6609921
3.32178374583554	6.933294	2.6331148
3.339317898242251	6.939735	2.6343377
3.3568521288562034	6.818141	2.611157
3.3743864380889876	6.8318343	2.6137779
3.3919208263522127	6.707328	2.589851
3.4094552940575023	6.5782604	2.564812
3.4269898416164972	6.5405025	2.5574405
3.444524469440858	6.558833	2.5610218
3.4620591779422587	6.553112	2.5599046
3.479593967532391	6.517021	2.5528457
3.4971288386229658	6.460707	2.5417922
3.5146637916257086	6.3428044	2.5184925
3.5321988269523628	6.355524	2.5210164
3.5497339450146903	6.3210044	2.5141609
3.5672691462244708	6.4213142	2.5340312
3.5848044309934988	6.345635	2.5190544
3.60233979973359	6.35036	2.519992
3.619875252856575	6.2431006	2.4986198
3.6374107907743034	6.134279	2.4767475
3.6549464138986427	6.0538726	2.4604619
3.6724821226414788	6.0303082	2.4556687
3.690017917414714	6.050765	2.4598303
3.7075537986302702	6.213361	2.4926615
3.7250897667000857	6.3928437	2.5284073
3.7426258220361235	6.6282144	2.5745318
3.7601619650503553	6.9403105	2.6344469
3.777698196154779	7.307353	2.7032115
3.7952345157614067	8.341664	2.8881938
3.8127709242822716	9.134051	3.0222592
3.830307422129425	11.387678	3.3745635
3.847844009714936	30.18504	5.4940915
3.8653806874508954	97.68799	9.883723
3.882917455749409	97.062675	9.852039
3.900454315022606	96.84836	9.841156
3.917991265682631	41.354687	6.430761
3.9355283081416506	10.919833	3.304517
3.9530654428118495	8.754648	2.9588256
3.970602670105433	7.437155	2.7271147
3.9881399904346244	6.524776	2.5543642
4.005677404211669	6.4115586	2.5321057
4.023214911848827	6.349958	2.5199122
4.0407525137583855	6.3125434	2.5124776
4.058290210352644	6.279517	2.5058966
4.075828002043927	6.1912456	2.4882214
4.0933658892445814	6.1720967	2.4843705
4.110903872366966	6.0934668	2.468495
4.128441951823468	6.021603	2.4538956
4.145980128026488	6.053298	2.460345
4.163518401388452	6.074762	2.464703
4.181056772321807	6.115197	2.4728925
4.1985952412390155	6.1227612	2.4744215
4.216133808552567	6.246651	2.49933
4.233672474674966	6.2696104	2.5039191
4.251211240018741	6.411735	2.5321405
4.268750104996445	6.621505	2.5732284
4.286289070020643	7.513571	2.7410893
4.303828135503928	9.083002	3.013802
4.3213673018589125	29.387108	5.4209876
4.3389065694982305	90.50679	9.513506
4.356445938834537	165.86906	12.879017
4.3739854102805085	171.27702	13.087285
4.391524984248844	172.06061	13.1171875
4.409064661152262	136.10129	11.666245
4.426604441403504	96.25388	9.810906
4.444144325415337	75.21765	8.6728115
4.461684313600543	21.262352	4.6111116
4.47922440637193	21.754452	4.664167
4.496764604142329	20.397688	4.51638
4.5143049073245916	18.551914	4.3071933
4.531845316331589	16.48137	4.0597253
4.5493858315762195	13.485726	3.6722918
4.566926453471405	11.112102	3.3334818
4.584467182430081	9.09353	3.015548
4.602008018865218	7.9548626	2.8204365
4.619548963189798	7.547012	2.7471826
4.637090015816834	7.111987	2.666831
4.654631177159353	6.879519	2.6228838
4.672172447630417	6.4407864	2.5378704
4.689713827643102	6.135167	2.476927
4.7072553176105085	5.9251575	2.4341648
4.724796917945764	5.8004436	2.408411
4.742338629062015	5.7427216	2.3963976
4.759880451372434	5.700598	2.3875926
4.777422385290215	5.692004	2.3857923
4.794964431228581	5.6564035	2.3783195
4.812506589600768	5.6654134	2.3802128
4.830048860820047	5.6867867	2.3846984
4.847591245299709	5.6832447	2.3839557
4.8651337434530655	5.65196	2.3773851
4.882676355693457	5.625722	2.3718605
4.900219082434242	5.5760827	2.361373
4.917761924088813	5.451371	2.3348172
4.935304881070575	5.5217414	2.3498385
4.952847953792969	5.6020536	2.3668659
4.970391142669449	5.672476	2.381696
4.9879344481135055	5.599395	2.366304
5.005477870538642	5.497217	2.3446145
5.023021410358394	5.4476686	2.3340242
5.040565067986324	5.4026914	2.324369
5.05810884383601	5.4086437	2.325649
5.075652738321066	5.4345765	2.3312178
5.09319675185512	5.4232903	2.328796
5.110740884851836	5.376571	2.3187435
5.128285137724894	5.2912345	2.3002684
5.145829510888007	5.2511435	2.2915373
5.163374004754908	5.2824693	2.2983623
5.1809186197393595	5.3025455	2.3027258
5.198463356255145	5.3084865	2.3040154
5.216008214716077	5.3316627	2.3090394
5.233553195535998	5.353751	2.3138175
5.251098299128764	5.3850603	2.3205733
5.268643525908272	5.3698506	2.317294
5.286188876288432	5.278568	2.2975135
5.3037343506831895	5.1662526	2.2729392
5.32127994950651	5.1516657	2.2697282
5.3388256731723915	5.173055	2.274435
5.356371522094851	5.193881	2.2790089
5.373917496687938	5.150838	2.2695458
5.391463597365729	5.181452	2.2762802
5.40900982454232	5.1816845	2.2763314
5.426556178631843	5.227836	2.286446
5.444102660048449	5.2459483	2.2904036
5.4616492692063225	5.2369266	2.2884333
5.479196006519669	5.2497945	2.291243
5.496742872402727	5.196676	2.2796218
5.514289867269756	5.1677628	2.2732713
5.531836991535049	5.1668296	2.273066
5.549384245612924	5.1776657	2.2754486
5.566931629917724	5.2325845	2.2874844
5.584479144863822	5.165621	2.2728002
5.6020267908656205	5.199787	2.2803042
5.619574568337545	5.087616	2.2555745
5.637122477694054	5.0266705	2.2420237
5.654670519349629	5.04514	2.2461388
5.672218693718784	5.0894694	2.2559853
5.689767001216059	5.156652	2.2708263
5.707315442256021	5.1741767	2.2746816
5.724864017253266	5.1229377	2.2633908
5.7424127266224225	5.1057806	2.2595975
5.75996157077814	5.0700994	2.251688
5.777510550135105	5.122309	2.263252
5.795059665108022	5.166036	2.2728915
5.812608916111639	5.1873717	2.2775803
5.830158303560715	5.2813582	2.2981205
5.847707827870055	5.248037	2.2908595
5.86525748945448	5.3269343	2.3080153
5.8828072887288485	5.4227614	2.3286824
5.900357226108044	5.525779	2.3506975
5.917907302006979	5.640779	2.3750324
5.9354575168406	6.259664	2.5019321
5.9530078710238765	6.896119	2.6260462
5.970558364971812	7.4667554	2.7325366
5.988108999099438	7.823013	2.796965
6.005659773821818	8.351086	2.8898244
6.023210689554039	8.03761	2.835068
6.040761746711227	8.569383	2.9273508
6.058312945708531	7.86753	2.8049119
6.075864286961132	7.4223676	2.7244022
6.093415770884244	6.6757855	2.583754
6.1109673978931065	6.1549277	2.4809127
6.128519168402993	5.5544844	2.3567953
6.146071082829204	5.3880196	2.3212109
6.163623141587075	5.250524	2.291402
6.181175345091969	5.224144	2.2856386
6.198727693759281	5.177434	2.2753975
6.216280188004435	5.1656528	2.2728071
6.233832828242885	5.123462	2.2635067
6.251385614890126	5.1429267	2.2678022
6.268938548361669	5.1389303	2.2669208
6.286491629073067	5.013105	2.2389965
6.304044857439898	5.0367756	2.2442763
6.321598233877777	5.001395	2.2363799
6.339151758802344	4.9939084	2.2347054
6.356705432629277	4.9970064	2.2353985
6.37425925577428	4.9962516	2.2352297
6.391813228653095	5.004659	2.2371097
6.409367351681486	5.0043755	2.2370462
6.426921625275259	4.9714036	2.2296646
6.44447604985025	4.9695992	2.2292597
6.46203062582232	5.0121737	2.2387884
6.47958535360737	5.117707	2.262235
6.497140233621328	5.195396	2.2793412
6.514695266280161	5.242419	2.2896328
6.532250451999859	5.169396	2.2736306
6.549805791196454	5.1576996	2.271057
6.567361284286002	5.0864205	2.2553093
6.584916931684597	5.0829926	2.2545493
6.602472733808367	5.1436777	2.2679677
6.6200286910734665	5.1047754	2.259375
6.637584803896092	5.072692	2.2522638
6.655141072692462	5.010019	2.2383072
6.672697497878842	5.0185013	2.2402012
6.690254079871514	5.0187154	2.240249
6.707810819086808	4.9765368	2.2308152
6.725367715941078	4.9386477	2.222307
6.742924770850719	4.9399757	2.2226057
6.760481984232151	4.946242	2.2240148
6.778039356501836	4.9273443	2.2197623
6.795596888076266	4.921097	2.2183545
6.813154579371963	4.9640813	2.2280219
6.830712430805492	4.9794397	2.2314658
6.84827044279344	5.039306	2.24484
6.865828615752445	4.9666	2.228587
6.883386950099159	4.9839425	2.2324746
6.900945446250287	4.9339857	2.2212577
6.918504104622553	4.920342	2.2181845
6.936062925632727	4.9743214	2.2303188
6.953621909697607	5.0326	2.2433457
6.971181057234028	5.052179	2.2477052
6.988740368658859	5.036103	2.2441263
7.006299844389007	5.051591	2.2475746
7.023859484841407	5.16361	2.2723577
7.041419290433036	5.3313217	2.3089654
7.058979261580902	5.459305	2.3365154
7.0765393987020495	5.6781464	2.3828862
7.094099702213559	5.980887	2.4455853
7.111660172532549	6.3892355	2.5276937
7.129220810076164	6.747729	2.597639
7.146781615261595	7.32583	2.7066271
7.16434258850606	7.5213537	2.7425086
7.181903730226821	7.918032	2.8138998
7.1994650408411704	8.102469	2.8464837
7.217026520766437	8.285796	2.878506
7.234588170419983	8.474426	2.9110868
7.252149990219215	8.48679	2.9132094
7.269711980581568	8.41033	2.9000568
7.2872741419245175	8.239761	2.8704984
7.304836474665574	7.916237	2.8135808
7.322398979222286	7.5706024	2.7514727
7.339961656012233	7.3753095	2.7157521
7.357524505453039	6.9714127	2.6403432
7.375087527962357	6.64023	2.5768645
7.392650723957886	6.3161044	2.5131862
7.410214093857353	5.974751	2.4443305
7.427777638078528	5.806133	2.409592
7.445341357039213	5.5820756	2.3626416
7.4629052511572525	5.4186234	2.3277936
7.480469320850524	5.2578993	2.293011
7.498033566536948	5.1981573	2.2799468
7.5155979886344735	5.1498675	2.269332
7.5331625875610975	5.1604514	2.2716627
7.550727363734844	5.170054	2.2737753
7.568292317573788	5.1581044	2.271146
7.585857449496025	5.126077	2.264084
7.603422759919705	5.125115	2.2638717
7.620988249263007	5.135557	2.2661767
7.638553917944147	5.2008743	2.2805426
7.656119766381391	5.2240143	2.2856102
7.673685794993023	5.2485194	2.2909648
7.691252004197388	5.20953	2.2824395
7.70881839441285	5.2102795	2.2826037
7.726384966057826	5.216355	2.283934
7.743951719550762	5.264753	2.294505
7.761518655310149	5.2380137	2.2886708
7.779085773754511	5.2567887	2.2927687
7.796653075302419	5.2573524	2.2928917
7.814220560372475	5.2869124	2.2993288
7.831788229383323	5.2945685	2.300993
7.8493560827536495	5.3524213	2.31353
7.866924120902174	5.3964868	2.323034
7.884492344247663	5.428314	2.3298743
7.9020607532089135	5.435617	2.331441
7.919629348204771	5.389764	2.3215866
7.937198129654115	5.3457885	2.312096
7.954767097975865	5.3289943	2.3084614
7.972336253588986	5.3278832	2.3082209
7.989905596912472	5.3744307	2.318282
8.007475128365371	5.3517923	2.313394
8.025044848366756	5.3422356	2.3113277
8.042614757335754	5.4172225	2.3274927
8.060184855691523	5.517267	2.3488865
8.07775514385327	5.6606297	2.3792078
8.095325622240228	5.689544	2.3852766
8.112896291271687	5.7386637	2.3955507
8.130467151366968	5.790144	2.4062717
8.148038202945436	5.8088517	2.410156
8.165609446426497	5.856653	2.4200523
8.183180882229594	5.909573	2.4309614
8.200752510774217	5.8665633	2.4220989
8.218324332479893	5.8984957	2.4286819
8.235896347766193	5.864722	2.4217188
8.253468557052724	5.9408736	2.4373908
8.27104096075914	5.99752	2.4489834
8.288613559305137	6.0984907	2.4695122
8.306186353110448	6.146603	2.4792345
8.32375934259485	6.191768	2.4883263
8.341332528178162	6.171058	2.4841614
8.358905910280246	6.16976	2.4839003
8.376479489321003	6.1224427	2.4743571
8.394053265720377	6.209205	2.4918277
8.411627239898356	6.254435	2.500887
8.42920141227497	6.295525	2.5090885
8.44677578327029	6.33544	2.51703
8.464350353304427	6.2852483	2.5070398
8.48192512279754	6.259408	2.501881
8.499500092169827	6.2459936	2.4991987
8.51707526184153	6.250885	2.500177
8.534650632232934	6.235496	2.4970975
8.552226203764365	6.2223244	2.4944587
8.569801976856192	6.17941	2.485842
8.587377951928834	6.1956787	2.4891121
8.60495412940274	6.242787	2.4985569
8.622530509698416	6.228877	2.495772
8.6401070932364	6.3303847	2.5160255
8.657683880437283	6.399954	2.529813
8.675260871721695	6.6556025	2.5798454
8.692838067510303	6.8442593	2.6161535
8.710415468223834	7.0431104	2.6538858
8.727993074283043	7.150002	2.6739488
8.745570886108737	7.176229	2.6788485
8.763148904121765	7.254286	2.6933782
8.78072712874302	7.2071815	2.6846194
8.798305560393441	7.3932624	2.7190554
8.815884199494006	7.5420394	2.7462773
8.833463046465745	7.779328	2.7891448
8.851042101729728	7.8921156	2.809291
8.86862136570707	8.140871	2.8532212
8.886200838818924	8.252433	2.8727047
8.903780521486505	8.321938	2.8847768
8.921360414131055	8.454955	2.9077406
8.938940517173874	8.642521	2.9398165
8.956520831036297	8.881742	2.980225
8.97410135613971	9.15049	3.0249777
8.99168209290554	9.252217	3.0417457
9.009263041755265	9.472523	3.0777464
9.026844203110405	9.719003	3.1175315
9.044425577392525	9.876983	3.1427667
9.062007165023239	9.931286	3.1513944
9.079588966424197	10.291128	3.2079787
9.097170982017108	10.364152	3.2193403
9.11475321222372	11.419412	3.379262
9.132335657465825	12.288085	3.5054364
9.149918318165264	12.461205	3.5300431
9.167501194743924	13.124557	3.622783
9.18508428762374	12.819208	3.5803921
9.202667597226693	12.887144	3.5898669
9.220251123974803	12.448738	3.528277
9.237834868290143	12.04224	3.4701931
9.255418830594836	11.748998	3.4276812
9.273003011311046	11.256001	3.3549964
9.290587410860985	11.058612	3.3254492
9.308172029666911	10.414125	3.2270925
9.32575686815113	10.11364	3.1801949
9.343341926735997	8.776858	2.9625764
9.360927205843916	8.61841	2.9357128
9.378512705897327	8.538389	2.9220521
9.396098427318728	8.362012	2.8917143
9.413684370530664	8.208775	2.8650959
9.431270535955722	7.966355	2.8224733
9.448856924016539	7.87906	2.8069663
9.466443535135806	7.762579	2.7861404
9.484030369736251	7.8350616	2.799118
9.501617428240658	7.794895	2.791934
9.519204711071852	7.7335567	2.7809274
9.536792218652714	7.738207	2.7817633
9.55437995140617	7.8060107	2.7939239
9.571967909755191	7.874581	2.8061683
9.589556094122802	7.9022355	2.8110914
9.60714450493207	7.866547	2.8047366
9.624733142606116	7.9237223	2.8149107
9.642322007568108	7.975361	2.824068
9.659911100241267	7.9419055	2.8181386
9.677500421048851	7.9903316	2.8267174
9.695089970414175	8.058255	2.8387065
9.712679748760609	8.119183	2.849418
9.730269756511557	8.108411	2.847527
9.747859994090492	8.1434555	2.853674
9.765450461920915	8.167616	2.8579042
9.78304116042639	8.160357	2.856634
9.800632090030527	8.169041	2.8581533
9.81822325115699	8.224938	2.8679154
9.835814644229481	8.236145	2.8698685
9.853406269671762	8.276882	2.8769572
9.870998127907646	8.290006	2.879237
9.888590219360985	8.29275	2.8797135
9.906182544455698	8.299799	2.880937
9.923775103615734	8.281064	2.8776839
9.941367897265108	8.277676	2.877095
9.958960925827878	8.345561	2.8888686
9.97655418972816	8.373502	2.8937004
9.994147689390106	8.319471	2.8843493
10.011741425237934	8.249459	2.8721871
10.029335397695904	8.190089	2.861833
10.04692960718833	8.249971	2.8722763
10.06452405413958	8.241388	2.870782
10.082118738974064	8.2305765	2.8688982
10.099713662116246	8.191176	2.862023
10.117308823990651	8.161517	2.8568368
10.134904225021844	8.189815	2.8617852
10.152499865634445	8.275006	2.876631
10.170095746253125	8.349235	2.8895042
10.18769186730261	8.341152	2.8881054
10.205288229207675	8.322821	2.88493
10.222884832393145	8.240919	2.8707001
10.2404816772839	8.155881	2.8558502
10.258078764304868	8.09013	2.8443153
10.275676093881035	8.014981	2.8310742
10.293273666437438	8.01569	2.8311994
10.310871482399158	8.063286	2.8395925
10.32846954219134	8.114845	2.8486567
10.346067846239173	8.100407	2.8461213
10.363666394967908	8.078008	2.8421836
10.38126518880283	8.056338	2.838369
10.398864228169298	8.16263	2.8570316
10.416463513492713	8.114261	2.8485541
10.434063045198531	8.123862	2.850239
10.451662823712262	8.140949	2.8532348
10.469262849459467	8.24719	2.8717923
10.486863122865758	8.201398	2.8638084
10.504463644356806	8.164258	2.8573165
10.522064414358338	8.065922	2.8400567
10.539665433296118	7.974238	2.8238692
10.557266701595987	7.8742785	2.8061144
10.574868219683818	7.8814397	2.8073902
10.592469987985552	7.8252773	2.7973697
10.610072006927185	7.6853337	2.7722435
10.627674276934751	7.518968	2.7420738
10.64527679843435	7.418013	2.723603
10.662879571852143	7.3310633	2.7075937
10.680482597614331	7.2419753	2.6910918
10.698085876147173	7.153595	2.6746206
10.715689407876988	7.0420465	2.6536856
10.733293193230146	6.9698677	2.6400506
10.750897232633072	6.7997804	2.6076388
10.76850152651225	6.637953	2.5764225
10.786106075294207	6.5725	2.5636888
10.803710879405534	6.4570184	2.5410664
10.821315939272877	6.3454404	2.5190158
10.83892125532294	6.253627	2.5007253
10.856526827982472	6.1105394	2.4719505
10.874132657678285	6.1150155	2.4728558
10.891738744837243	6.11528	2.4729092
10.909345089886271	6.152227	2.4803684
10.926951693252343	6.1400747	2.4779174
10.944558555362494	6.0830426	2.4663825
10.96216567664381	5.975054	2.4443922
10.979773057523436	5.901481	2.4292965
10.997380698428573	5.859694	2.4206805
11.014988599786477	5.8425775	2.4171424
11.032596762024461	5.8063655	2.40964
11.050205185569892	5.7333274	2.3944368
11.067813870850198	5.634066	2.3736188
11.085422818292859	5.541053	2.353944
11.10303202832541	5.4609175	2.3368607
11.120641501375454	5.4088173	2.3256865
11.138251237870636	5.3561416	2.314334
11.155861238238671	5.2651415	2.2945895
11.173471502907317	5.23607	2.2882462
11.191082032304402	5.207267	2.2819436
11.208692826857805	5.1992693	2.2801907
11.226303886995465	5.0948653	2.257181
11.243915213145371	4.996693	2.2353284
11.261526805735578	4.910693	2.2160084
11.279138665194196	4.885364	2.210286
11.296750791949393	4.8495307	2.202165
11.314363186429393	4.8489485	2.2020328
11.331975849062479	4.821348	2.195757
11.34958878027699	4.7405314	2.1772761
11.36720198050133	4.6245255	2.150471
11.384815450163948	4.5720778	2.1382418
11.402429189693366	4.5095916	2.12358
11.420043199518153	4.5122046	2.124195
11.437657480066942	63.484535	7.967718
11.455272031768422	85.20017	9.230394
11.472886855051353	107.56054	10.37114
11.490501950344528	99.134865	9.956649
11.508117318076819	84.4973	9.192242
11.52573295867715	45.899525	6.774919
11.543348872574514	4.188912	2.046683
11.560965060197946	4.1147985	2.0284965
11.57858152197655	4.020839	2.005203
11.59619825833949	3.9671633	1.991774
11.613815269715985	3.9539282	1.9884487
11.631432556535323	38.512753	6.2058644
11.649050119226837	83.03835	9.112538
11.666667958219929	93.43888	9.666379
11.68428607394406	107.710686	10.378376
11.701904466828756	82.56597	9.086582
11.719523137303586	65.42713	8.088704
11.737142085798196	4.635546	2.1530318
11.754761312742286	3.7568355	1.9382558
11.772380818565619	3.7064233	1.9252074
11.790000603698015	3.6574905	1.9124566
11.80762066856935	3.6298828	1.9052252
11.825241013609572	3.6171553	1.901882
11.842861639248683	3.6310227	1.9055243
11.860482545916748	3.5449336	1.8827994
11.878103734043883	3.503436	1.8717468
11.895725204060282	3.4036937	1.8449103
11.91334695639619	3.3392634	1.8273652
11.930968991481919	3.3307536	1.8250352
11.948591309747824	3.3321886	1.8254284
11.966213911624347	3.3811982	1.8388034
11.98383679754198	3.3412209	1.8279006
12.001459967931268	3.2825494	1.8117807
12.019083423222835	3.193238	1.7869633
12.036707163847352	3.1797855	1.7831953
12.05433119023556	3.1888013	1.7857215
12.071955502818259	3.20874	1.7912956
12.089580102026313	3.2220602	1.7950099
12.107204988290643	3.2447522	1.8013196
12.12483016204224	3.200551	1.7890084
12.142455623712152	3.2000926	1.7888802
12.16008137373149	3.143179	1.7729013
12.177707412531431	3.138376	1.7715462
12.19533374054321	3.1271842	1.7683846
12.212960358198126	3.1197386	1.7662781
12.230587265927545	3.0750878	1.7535928
12.248214464162889	3.0441377	1.7447457
12.265841953335649	2.9998438	1.7320057
12.283469733877375	2.9848	1.7276574
12.301097806219685	2.939993	1.7146407
12.31872617079425	2.9150672	1.7073568
12.336354828032825	2.91534	1.7074367
12.353983778367205	2.9354239	1.7133079
12.371613022229262	2.94192	1.7152026
12.389242560050928	2.9492137	1.7173275
12.406872392264201	2.9300332	1.7117339
12.424502519301143	2.926315	1.7106476
12.442132941593874	2.9033883	1.7039331
12.459763659574586	2.8608806	1.6914138
12.477394673675532	2.846374	1.6871201
12.49502598432903	2.8099222	1.6762823
12.51265759196746	2.7476053	1.6575903
12.530289497023267	2.7198818	1.6492064
12.547921699928967	2.7415721	1.6557693
12.565554201117134	2.748967	1.6580008
12.583187001020404	2.7809596	1.6676209
12.600820100071486	2.784165	1.6685817
12.618453498703152	2.7953525	1.6719308
12.636087197348235	2.815043	1.677809
12.65372119643964	2.8036146	1.6743997
12.671355496410326	2.838004	1.6846377
12.68899009769333	2.8583155	1.6906554
12.706625000721749	2.8925152	1.7007396
12.724260205928752	2.9212203	1.7091578
12.741895713747551	2.9347217	1.7131029
12.759531524611454	2.979365	1.7260838
12.777167638953818	2.9856005	1.7278891
12.794804057208072	2.9709146	1.7236341
12.812440779807702	3.014555	1.7362474
12.830077807186271	3.190727	1.7862606
12.847715139777405	3.263404	1.8064893
12.865352778014795	3.4861555	1.8671249
12.882990722332197	3.580232	1.89215
12.90062897316344	3.6929836	1.9217137
12.918267530942412	3.7942343	1.9478794
12.935906396103071	3.6761065	1.9173175
12.953545569079449	3.8169634	1.9537051
12.971185050305628	3.56943	1.8892936
12.988824840215775	3.5718172	1.8899251
13.006464939244115	3.5641575	1.8878976
13.024105347824943	3.419477	1.8491828
13.041746066392617	3.5418265	1.8819741
13.05938709538157	3.3432796	1.8284637
13.077028435226296	3.4181583	1.8488262
13.094670086361363	3.3351202	1.8262311
13.112312049221401	3.2308264	1.79745
13.129954324241112	3.0960813	1.7595685
13.147596911855258	2.8902078	1.7000611
13.165239812498685	2.873853	1.6952442
13.182883026606293	2.8025045	1.6740682
13.200526554613058	2.7304404	1.6524044
13.218170396954017	2.6539745	1.6291023
13.235814554064284	2.6470916	1.6269885
13.253459026379034	2.6508396	1.6281399
13.271103814333523	2.6872427	1.6392812
13.288748918363058	2.6995358	1.6430265
13.306394338903031	2.7107913	1.6464481
13.32404007638889	2.7040377	1.6443958
13.341686131256164	2.733637	1.6533715
13.359332503940449	2.7525425	1.6590788
13.376979194877402	2.757018	1.6604271
13.394626204502751	2.7532935	1.6593051
13.412273533252307	2.6837163	1.6382052
13.429921181561937	2.633527	1.6228145
13.447569149867581	2.6724367	1.634759
13.465217438605247	2.7142985	1.6475128
13.482866048211022	2.7299585	1.6522586
13.500514979121052	2.7408543	1.6555525
13.518164231771568	2.7194598	1.6490785
13.535813806598844	2.6963892	1.6420686
13.553463704039254	2.6348417	1.6232195
13.571113924529229	2.6154242	1.6172273
13.588764468505275	2.6477962	1.627205
13.606415336403956	2.72942	1.6520957
13.624066528661917	2.8052387	1.6748847
13.641718045715882	2.8550937	1.6897023
13.659369888002635	2.9103622	1.7059784
13.67702205595903	2.9395454	1.7145102
13.694674550021993	3.0195482	1.7376847
13.712327370628532	3.0598404	1.7492399
13.729980518215713	3.1060631	1.7624027
13.747633993220681	3.1753545	1.7819524
13.765287796080647	3.192172	1.7866651
13.7829419272329	3.2808404	1.811309
13.800596387114801	3.3287888	1.8244969
13.818251176163775	3.3221958	1.8226892
13.835906294817324	3.3658943	1.8346374
13.853561743513023	3.4197407	1.8492541
13.871217522688525	3.4827778	1.8662202
13.888873632781538	3.4837797	1.8664886
13.906530074229858	3.5095015	1.8733664
13.92418684747135	3.5284052	1.878405
13.941843952943948	3.5214198	1.8765446
13.959501391085665	3.457939	1.8595535
13.977159162334578	3.3915215	1.8416084
13.994817267128846	3.375812	1.8373383
14.012475705906693	3.2853007	1.8125398
14.030134479106424	3.1982064	1.788353
14.047793587166414	3.1016545	1.7611514
14.065453030525108	3.0240474	1.7389789
14.083112809621026	2.9903636	1.7292668
14.100772924892766	2.9564712	1.7194393
14.118433376778997	2.9046474	1.7043025
14.136094165718458	2.8228493	1.6801337
14.153755292149969	2.7862062	1.6691933
14.171416756512416	2.734239	1.6535535
14.189078559244768	2.69686	1.6422119
14.20674070078606	2.6055694	1.6141776
14.224403181575408	2.5767071	1.6052125
14.242066002051999	2.5418375	1.5943141
14.259729162655093	2.5137315	1.5854752
14.277392663824022	2.4901025	1.5780059
14.295056505998208	2.462311	1.5691752
14.312720689617128	2.4445884	1.5635179
14.330385215120348	2.3966622	1.5481157
14.348050082947497	2.3943093	1.5473555
14.3657152935383	2.40772	1.551683
14.383380847332528	2.4157891	1.5542809
14.401046744770051	2.4026172	1.5500379
14.418712986290798	2.4113848	1.5528635
14.436379572334793	2.3875952	1.5451845
14.454046503342123	2.3617868	1.5368106
14.471713779752946	2.378003	1.5420774
14.489381402007504	2.4003801	1.549316
14.507049370546113	2.426299	1.5576582
14.524717685809168	2.4272058	1.5579492
14.542386348237134	2.4238572	1.5568742
14.560055358270553	2.4066865	1.5513499
14.577724716350051	2.3981092	1.5485829
14.595394422916325	2.3896859	1.5458609
14.61306447841015	2.435094	1.5604788
14.63073488327237	2.461746	1.5689952
14.648405637943917	2.4760215	1.573538
14.6660767428658	2.500298	1.581233
14.683748198479094	2.5353947	1.5922923
14.701420005224954	2.526912	1.5896263
14.719092163544628	2.6154046	1.6172212
14.73676467387942	2.6523235	1.6285956
14.754437536670727	2.7013032	1.6435642
14.772110752360014	2.6904457	1.6402578
14.78978432138882	2.6594195	1.6307727
14.807458244198777	2.6819198	1.6376568
14.82513252123159	2.668188	1.633459
14.842807152929028	2.708093	1.6456285
14.860482139732962	2.6966264	1.6421407
14.87815748208531	2.7035367	1.6442435
14.8958331804281	2.6826537	1.6378808
14.91350923520342	2.642398	1.6255455
14.931185646853438	2.670435	1.6341466
14.948862415820408	2.62882	1.6213636
14.966539542546656	2.668585	1.6335804
14.98421702747459	2.6440816	1.6260632
15.001894871046696	2.6922543	1.640809
15.019573073705542	2.6691616	1.6337569
15.037251635893766	2.6755095	1.6356984
15.054930558054092	2.6939814	1.6413352
15.072609840629323	2.7577658	1.6606522
15.090289484062351	2.8826656	1.6978414
15.107969488796124	3.123986	1.7674801
15.125649855273691	3.4810119	1.865747
15.14333058393817	3.9418483	1.9854089
15.161011675232768	4.8331685	2.1984468
15.17869312960076	6.181731	2.4863088
15.196374947485506	8.048353	2.836962
15.214057129330447	11.191369	3.3453503
15.231739675579114	15.977818	3.9972262
15.249422586675102	21.09941	4.5934095
15.267105863062092	24.349075	4.9344783
15.284789505183847	24.745474	4.974482
15.302473513484218	22.864565	4.7816906
15.320157888407127	19.331833	4.396798
15.337842630396578	15.127425	3.889399
15.355527739896656	11.778252	3.4319458
15.37321321735153	9.114048	3.018948
15.39089906320545	6.5801263	2.5651758
15.408585277902748	4.9007225	2.2137575
15.42627186188783	3.7832582	1.9450599
15.443958815605198	3.2520924	1.8033558
15.461646139499424	2.9507334	1.7177699
15.479333834015168	2.7830148	1.668237
15.497021899597165	2.699857	1.6431241
15.514710336690234	2.6540534	1.6291265
15.53239914573928	2.6144972	1.6169407
15.550088327189297	2.55508	1.5984617
15.567777881485336	2.5203626	1.587565
15.58546780907256	2.47485	1.5731655
15.6031581103962	2.433564	1.5599885
15.620848785901568	2.420977	1.555949
15.638539836034063	2.425115	1.5572782
15.656231261239173	2.4961774	1.5799296
15.673923061962451	2.4914186	1.5784228
15.691615238649552	2.4609575	1.568744
15.709307791746202	2.4221547	1.5563273
15.727000721698221	2.3955088	1.5477431
15.744694028951498	2.392679	1.5468286
15.76238771395202	2.3797643	1.5426484
15.780081777145844	2.3893933	1.5457662
15.797776218979125	2.4013696	1.5496353
15.815471039898094	2.413538	1.5535566
15.833166240349064	2.3999496	1.549177
15.850861820778437	2.3890328	1.5456496
15.868557781632699	2.400434	1.5493335
15.886254123358412	2.382239	1.5434504
15.903950846402232	2.3708916	1.53977
15.921647951210897	2.3533926	1.5340772
15.939345438231225	2.3405442	1.5298837
15.957043307910133	2.3174896	1.5223303
15.974741560694602	2.312735	1.5207679
15.992440197031714	2.3467824	1.5319211
16.01013921736862	2.367717	1.5387387
16.02783862215259	2.410673	1.5526342
16.045538411830933	2.418874	1.5552729
16.06323858685107	2.4174604	1.5548185
16.080939147660512	2.420795	1.5558904
16.09864009470684	2.3920982	1.546641
16.11634142843774	2.3783233	1.5421814
16.134043149300954	2.3673735	1.5386271
16.15174525774433	2.3615906	1.5367467
16.169447754215817	2.3683734	1.538952
16.18715063916342	2.4189405	1.5552944
16.204853913035244	2.454564	1.5667049
16.222557576279478	2.4732087	1.5726439
16.240261629344403	22.432629	4.7363095
16.257966072678386	42.97333	6.5554047
16.275670906729868	38.07628	6.170598
16.293376131947387	2.475446	1.573355
16.31108174877957	2.4966886	1.5800914
16.328787757675133	2.553521	1.5979741
16.34649415908287	2.5878916	1.6086925
16.364200953451657	2.6211216	1.6189878
16.38190814123048	2.6499107	1.6278546
16.39961572286839	2.649728	1.6277986
16.41732369881455	2.6461506	1.6266993
16.43503206951817	2.6832178	1.638053
16.45274083542859	2.731826	1.6528237
16.47044999699522	2.7818952	1.6679014
16.488159554667558	2.8701293	1.6941456
16.505869508895184	2.9070804	1.7050163
16.523579860127786	2.9256327	1.7104481
16.541290608815117	2.975846	1.725064
16.559001755407035	3.0232954	1.7387626
16.57671330035348	3.1008112	1.7609121
16.59442524410448	3.110215	1.7635802
16.61213758711015	3.1754792	1.7819874
16.629850329820705	3.2250426	1.7958404
16.647563472686436	3.3414779	1.827971
16.665277016157724	3.408425	1.846192
16.682990960685053	3.4605026	1.8602426
16.70070530671898	3.468652	1.8624318
16.718420054710155	3.4932039	1.8690115
16.736135205109335	3.5470002	1.8833481
16.753850758367335	3.5861597	1.8937159
16.771566714935087	3.633843	1.9062642
16.789283075263597	3.703552	1.9244615
16.80699983980398	3.7646544	1.9402717
16.82471700900741	3.8145814	1.9530953
16.84243458332518	3.8697937	1.9671791
16.860152563208665	3.9313872	1.9827726
16.87787094910932	4.0073023	2.0018249
16.89558974147871	4.038375	2.0095708
16.913308940768466	4.0986075	2.0245018
16.931028547430333	4.179434	2.0443664
16.94874856191613	4.274963	2.0675983
16.966468984677785	4.351799	2.0860965
16.98418981616729	4.410912	2.100217
17.00191105683676	4.4407244	2.1073027
17.019632707138374	4.488105	2.1185148
17.03735476752442	4.5227447	2.1266747
17.05507723844728	4.495287	2.1202092
17.072800120359403	4.5205936	2.1261687
17.090523413713353	4.561863	2.1358519
17.108247118961785	4.6537147	2.157247
17.125971236557437	4.6654835	2.1599731
17.143695766953133	4.673469	2.161821
17.161420710601806	4.6718087	2.1614368
17.179146067956477	4.6834354	2.1641247
17.19687183947025	4.7301974	2.1749017
17.21459802559634	4.7400274	2.1771605
17.232324626788028	4.719682	2.172483
17.25005164349871	4.6624446	2.1592696
17.267779076181863	4.6263328	2.150891
17.285506925291074	4.6291537	2.1515467
17.30323519127999	4.6511025	2.1566415
17.320963874602384	4.5935507	2.1432571
17.33869297571211	4.536187	2.1298327
17.356422495063114	4.5434685	2.1315413
17.37415243310944	4.542225	2.1312497
17.391882790305218	4.5394983	2.1306098
17.40961356710468	4.546286	2.1322021
17.42734476396215	4.5696473	2.1376734
17.445076381332044	4.552976	2.1337705
17.462808419668868	4.57408	2.1387098
17.48054087942723	4.6597824	2.158653
17.498273761061835	4.980548	2.231714
17.51600706502747	5.4691734	2.3386264
17.533740791779024	6.289175	2.5078228
17.551474941771485	7.774364	2.7882547
17.56920951545993	8.887017	2.98111
17.586944513299528	11.151276	3.3393526
17.60467993574556	12.878483	3.5886602
17.622415783253373	14.618944	3.8234727
17.64015205627843	15.937766	3.9922132
17.657888755276293	17.077198	4.132457
17.675625880702604	17.663687	4.202819
17.69336343301311	17.613817	4.196882
17.71110141266366	16.82655	4.102018
17.728839820110178	15.665828	3.958008
17.746578655808705	14.591858	3.8199291
17.764317920215372	12.95373	3.599129
17.7820576137864	11.374132	3.3725557
17.79979773697811	9.232406	3.0384874
17.81753829024692	7.3272843	2.7068956
17.835279274049356	5.6862717	2.3845904
17.85302068884201	4.779334	2.186169
17.870762535081607	4.197814	2.0488567
17.888504813224934	3.9335938	1.9833289
17.90624752372891	3.759552	1.9389564
17.923990667050536	3.61628	1.901652
17.941734243646895	3.5020988	1.8713895
17.959478253975185	3.4216678	1.8497751
17.9772226984927	3.3788438	1.8381631
17.994967577656833	3.351213	1.8306319
18.01271289192506	3.37386	1.836807
18.030458641754965	3.3651152	1.834425
18.04820482760425	3.3307843	1.8250437
18.06595144993067	3.298909	1.8162899
18.083698509192125	3.2852945	1.8125381
18.101446005846576	3.2736251	1.8093162
18.119193940352105	3.236309	1.7989744
18.136942313166887	3.2150671	1.7930608
18.1546911247492	3.2110138	1.7919302
18.1724403755574	3.2178745	1.7938435
18.19019006604997	3.1859016	1.7849094
18.207940196685467	3.1380029	1.7714409
18.225690767922575	3.0956619	1.7594494
18.243441780220046	3.0768118	1.7540843
18.261193234036764	3.07843	1.7545455
18.278945129831676	3.061853	1.7498151
18.29669746806386	3.116497	1.7653604
18.314450249192483	3.1321342	1.7697836
18.3322034736768	3.1016207	1.7611419
18.349957141976184	3.0293415	1.7405003
18.3677112545501	3.012405	1.7356281
18.385465811858108	3.0299065	1.7406627
18.403220814359884	3.0743215	1.7533743
18.420976262515172	3.0946531	1.7591627
18.43873215678387	3.1260226	1.7680562
18.456488497625923	3.1667147	1.7795265
18.474245285501407	3.2444427	1.8012336
18.492002520870486	3.3232787	1.8229862
18.50976020419343	3.4028928	1.8446932
18.527518335930615	3.697667	1.9229318
18.545276916542516	4.253225	2.0623348
18.563035946489688	4.4521723	2.110017
18.580795426232832	4.9153147	2.2170508
18.598555356232698	4.7984576	2.1905382
18.616315736950185	5.1026297	2.2589002
18.63407656884626	4.735572	2.176137
18.65183785238201	4.9547343	2.2259233
18.669599588018617	4.7760334	2.1854138
18.68736177621737	4.7891364	2.1884096
18.705124417439652	4.69415	2.1665988
18.72288751214696	4.424147	2.1033657
18.740651060800886	4.52246	2.1266077
18.758415063863115	4.300153	2.0736809
18.77617952179546	4.462775	2.112528
18.793944435059814	4.218673	2.053941
18.811709804118184	4.2054353	2.0507157
18.829475629432675	4.1913805	2.047286
18.8472419114655	4.027753	2.0069263
18.86500865067897	4.177448	2.0438805
18.88277584753551	3.8488035	1.9618368
18.90054350249763	3.7989926	1.9491005
18.918311616027957	3.4030194	1.8447275
18.936080188589226	3.299773	1.8165277
18.953849220644265	3.0256555	1.7394412
18.971618712656007	2.8522646	1.688865
18.9893886650875	2.8010492	1.6736336
19.007159078401887	7.9688535	2.8229158
19.024929953062408	32.891724	5.735131
19.042701289532435	32.86612	5.7328978
19.060473088275405	25.421267	5.0419507
19.07824534975489	2.6658707	1.6327494
19.096018074434568	2.6481366	1.6273097
19.113791262778197	2.6407895	1.6250507
19.13156491524966	2.6556172	1.6296065
19.149339032312945	2.6423218	1.625522
19.167113614432136	2.6091776	1.6152949
19.184888662071433	2.5852528	1.6078721
19.202664175695123	2.57603	1.6050016
19.220440155767623	2.5789814	1.6059208
19.238216602753447	2.564269	1.6013335
19.2559935171172	2.5557501	1.5986713
19.27377089932361	2.5433939	1.5948021
19.291548749837514	2.5106514	1.5845035
19.309327069123835	2.4962833	1.5799631
19.32710585764763	2.5353916	1.5922912
19.344885115874032	2.5558069	1.5986891
19.362664844268313	2.5302215	1.590667
19.380445043295822	2.511766	1.5848552
19.39822571342203	2.5078688	1.5836252
19.41600685511252	2.5175552	1.5866805
19.43378846883297	2.4833553	1.5758665
19.451570555049173	2.4481966	1.5646714
19.469353114227037	2.4819686	1.5754265
19.48713614683254	2.4800096	1.5748047
19.50491965333182	2.4898164	1.5779152
19.52270363419109	2.4626718	1.5692902
19.540488089876686	2.4648795	1.5699935
19.55827302085503	2.4473722	1.564408
19.576058427592674	2.4673824	1.5707904
19.593844310556282	2.5411496	1.5940983
19.611630670212598	2.534632	1.5920527
19.629417507028506	2.5057619	1.5829599
19.64720482147098	2.4470522	1.5643057
19.6649926140071	2.485476	1.5765393
19.682780885104084	2.4896564	1.5778645
19.70056963522921	2.480457	1.5749466
19.718358864849908	2.5113175	1.5847137
19.7361485744337	2.5432146	1.5947459
19.753938764448215	2.5191677	1.5871886
19.771729435361202	2.558306	1.5994705
19.789520587640506	2.5720112	1.6037492
19.807312221754092	2.5632806	1.6010249
19.825104338170043	2.495746	1.579793
19.842896937356517	2.4850328	1.5763987
19.860690019781824	2.500012	1.5811425
19.87848358591436	2.5411448	1.5940969
19.896277636222635	2.5033095	1.582185
19.914072171175278	2.4642246	1.5697849
19.931867191241015	2.447235	1.5643641
19.94966269688869	2.4840965	1.5761017
19.967458688587264	2.5138557	1.5855143
19.985255166805807	2.5248554	1.5889794
20.00305213201348	2.4842703	1.5761569
20.020849584679578	2.4579008	1.5677694
20.038647525273507	2.4350011	1.560449
20.05644595426477	2.4558902	1.5671281
20.07424487212299	2.4181466	1.555039
20.092044279317903	2.4090426	1.5521091
20.109844176319353	2.4352996	1.5605446
20.127644563597304	2.44422	1.5634001
20.145445441621817	2.4433048	1.5631074
20.16324681086307	2.4205604	1.555815
20.181048671791373	2.4185321	1.555163
20.198851024877122	2.4029915	1.5501585
20.216653870590836	2.3778005	1.5420119
20.234457209403146	2.3792892	1.5424944
20.252261041784802	2.3789296	1.542378
20.270065368206662	2.3620126	1.5368841
20.287870189139685	2.3561635	1.5349799
20.305675505054968	2.329521	1.5262768
20.323481316423702	2.3324125	1.5272238
20.341287623717207	2.311944	1.5205078
20.359094427406884	2.3357818	1.5283265
20.376901727964288	2.3595724	1.53609
20.39470952586107	2.3792663	1.542487
20.41251782156899	2.3368826	1.5286865
20.430326615559935	2.3059592	1.5185385
20.448135908305886	2.3288708	1.5260638
20.465945700278965	2.365303	1.5379542
20.483755991951384	2.346642	1.5318754
20.50156678379548	2.3511193	1.533336
20.519378076283708	2.3703694	1.5396004
20.537189869888635	2.3809588	1.5430356
20.55500216508294	2.3563557	1.5350425
20.572814962339415	2.3132918	1.5209509
20.59062826213098	2.2985346	1.516092
20.60844206493066	2.2995214	1.5164173
20.626256371211593	2.2763743	1.5087658
20.644071181447032	2.270826	1.5069261
20.66188649611036	2.3140593	1.5212033
20.67970231567506	2.3748126	1.5410427
20.697518640614742	2.368749	1.5390741
20.715335471403122	2.3404777	1.529862
20.73315280851404	2.3153524	1.5216283
20.750970652421447	2.3150394	1.5215254
20.768789003599412	2.3503284	1.5330781
20.786607862522136	2.328479	1.5259354
20.8044272296639	2.298315	1.5160195
20.82224710549913	2.2734716	1.5078036
20.84006749050237	2.272771	1.5075712
20.857888385148268	3.8559718	1.9636629
20.8757097899116	45.946514	6.7783856
20.893531705267254	64.80425	8.050109
20.911354131690224	83.804955	9.154505
20.92917706965566	69.09124	8.312114
20.94700051963877	50.15049	7.0817013
20.96482448211493	29.439013	5.425773
20.982648957559622	4.175055	2.0432951
21.00047394644843	2.2842882	1.5113862
21.01829944925707	2.2648973	1.5049576
21.036125466461375	2.2758322	1.5085862
21.053951998537297	2.2627246	1.5042356
21.071779045960906	2.2308955	1.4936182
21.089606609208378	2.2382193	1.4960679
21.10743468875603	2.2427876	1.4975939
21.12526328508028	2.2257254	1.4918865
21.143092398657675	2.2051406	1.4849715
21.16092202996488	2.2024655	1.4840705
21.17875217947867	2.2011273	1.4836197
21.19658284767596	2.1907	1.4801013
21.21441403503377	2.2103732	1.4867324
21.232245742029225	2.2294092	1.4931207
21.2500779691396	2.191992	1.4805378
21.26791071684227	2.1797376	1.4763935
21.28574398561475	2.1924314	1.4806862
21.30357777593465	2.2083688	1.4860581
21.321412088279704	2.203198	1.4843173
21.339246923127792	2.1822112	1.4772309
21.357082280956888	2.1594238	1.4694978
21.3749181622451	2.1682165	1.4724865
21.392754567470647	2.1458917	1.4648862
21.41059149711187	2.1193519	1.4557993
21.42842895164726	2.115477	1.454468
21.446266931555378	2.12564	1.4579574
21.464105437314945	2.1485205	1.4657832
21.481944469404798	2.152144	1.4670187
21.49978402830388	2.113291	1.4537163
21.51762411449127	2.0971618	1.448158
21.53546472844617	2.0991156	1.4488325
21.553305870647876	2.1035697	1.4503689
21.571147541575865	2.1079617	1.4518821
21.58898974170967	2.1060338	1.451218
21.60683247152899	2.1006699	1.4493688
21.62467573151363	2.075625	1.4407029
21.642519522143523	2.064114	1.4367025
21.660363843898722	2.064989	1.437007
21.6782086972594	2.0731106	1.4398301
21.696054082705864	2.0424302	1.4291362
21.713900000718535	2.0178266	1.4205022
21.73174645177795	2.0191774	1.4209776
21.749593436364794	2.0556083	1.4337393
21.767440954959845	2.033381	1.4259667
21.785289008044032	1.9973933	1.4132917
21.803137596098388	2.0018606	1.4148712
21.820986719604086	2.0090032	1.4173931
21.838836379042412	1.9840442	1.408561
21.85668657489478	1.9690253	1.4032196
21.87453730764273	1.9473541	1.3954763
21.892388577767914	1.9675666	1.4026997
21.91024038575213	1.9868163	1.4095447
21.928092732077285	1.9981793	1.4135697
21.945945617225426	2.0136502	1.4190314
21.963799041678694	2.0106027	1.4179572
21.981653005919398	31.29924	5.5945725
21.999507510429943	78.11264	8.838136
22.01736255569286	73.08923	8.549224
22.035218142190818	4.1948457	2.0481322
22.05307427040661	2.0014508	1.4147264
22.07093094082315	2.0043006	1.4157332
22.088788153923474	2.0006378	1.4144391
22.106645910190746	2.0179214	1.4205356
22.12450421010827	1.9874152	1.4097571
22.142363054159464	1.9847232	1.408802
22.16022244282787	1.9811072	1.4075181
22.178082376597164	1.9999572	1.4141984
22.195942855951145	2.0024998	1.4150971
22.213803881373742	2.003698	1.4155204
22.231665453349002	1.9821272	1.4078804
22.24952757236111	1.9744251	1.4051424
22.26739023889438	1.9725977	1.404492
22.28525345343323	1.9444776	1.3944453
22.30311721646225	1.8981528	1.3777347
22.320981528466113	1.9244988	1.3872631
22.33884638992964	1.963024	1.4010795
22.356711801337788	1.9713824	1.4040593
22.37457776317561	1.9479139	1.3956769
22.392444275928337	1.9363476	1.391527
22.410311340081282	1.9421247	1.3936013
22.428178956119904	1.9405295	1.3930289
22.446047124529805	1.9480209	1.3957152
22.46391584579669	1.9287796	1.3888052
22.481785120406414	1.9225916	1.3865755
22.49965494884496	1.9074285	1.3810968
22.51752533159841	1.9337043	1.390577
22.53539626915302	1.9705782	1.4037728
22.553267761995137	1.9913018	1.411135
22.571139810611264	2.0067182	1.4165868
22.589012415488025	1.9648949	1.4017471
22.60688557711216	1.9377338	1.3920251
22.624759295970566	1.9114534	1.3825532
22.642633572550263	1.9362099	1.3914776
22.660508407338362	1.9423655	1.3936877
22.67838380082217	1.9699818	1.4035604
22.696259753489077	1.9653448	1.4019076
22.714136265826614	1.9499369	1.3964014
22.73201333832246	1.9220465	1.3863789
22.74989097146439	1.8879423	1.3740242
22.76776916574035	1.8946153	1.3764503
22.785647921638393	1.9114411	1.3825488
22.803527239646712	1.9189456	1.3852601
22.82140712025363	1.8967168	1.3772135
22.839287563947593	1.8944519	1.3763909
22.85716857121719	1.8863071	1.373429
22.875050142551135	1.8656772	1.365898
22.892932278438277	1.90213	1.3791773
22.910814979367604	1.8844957	1.3727694
22.928698245828222	1.8835616	1.3724291
22.946582078309387	1.8798572	1.3710788
22.96446647730047	1.9259822	1.3877976
22.98235144329098	1.9148655	1.3837867
23.000236976770562	1.88164	1.3717288
23.018123078229	1.8742404	1.369029
23.03600974815619	1.8995445	1.3782396
23.053896987042194	1.9198939	1.3856024
23.071784795377173	1.8929411	1.375842
23.08967317365145	1.8883377	1.374168
23.10756212235546	1.9016136	1.37899
23.125451641979787	1.9571891	1.3989958
23.143341733015134	1.964255	1.4015188
23.161232395952357	1.9528083	1.3974291
23.179123631282426	1.9481177	1.3957499
23.197015439496468	1.9383092	1.3922317
23.214907821085717	1.914929	1.3838096
23.23280077654157	1.9035789	1.3797024
23.250694306355538	1.9312661	1.3896999
23.268588411019277	1.9322166	1.390042
23.28648309102458	1.9262612	1.3878981
23.304378346863356	1.9331	1.3903596
23.322274179027676	1.9175618	1.3847605
23.340170588009723	1.8842745	1.3726888
23.358067574301852	1.8915312	1.3753295
23.37596513839651	1.917732	1.384822
23.39386328078629	1.9543334	1.3979747
23.411762001963947	1.9472672	1.3954451
23.429661302422353	1.9463307	1.3951095
23.4475611826545	1.9656491	1.402016
23.46546164315356	1.9742491	1.4050797
23.48336268441279	1.9563582	1.3986988
23.501264306925638	1.9462411	1.3950775
23.51916651118564	1.9371035	1.3917986
23.537069297686497	1.9083914	1.3814454
23.554972666922037	1.8836854	1.3724742
23.57287661938623	1.9046144	1.3800777
23.59078115557318	1.926616	1.3880259
23.608686275977128	1.9087535	1.3815764
23.62659198109246	1.8877077	1.3739388
23.6444982714137	1.8729311	1.3685508
23.66240514743549	1.8917135	1.3753958
23.68031260965263	1.8829241	1.3721968
23.698220658560068	1.8876667	1.3739238
23.716129294652845	1.8777547	1.3703119
23.7340385184262	1.8884959	1.3742256
23.75194833037546	1.8763925	1.3698148
23.769858730996123	1.8847663	1.372868
23.78776972078382	1.8903625	1.3749045
23.80568130023431	1.8922462	1.3755894
23.823593469843495	1.8886986	1.3742993
23.841506230107424	1.884687	1.372839
23.859419581522275	1.885907	1.3732833
23.87733352458438	1.8872749	1.3737812
23.89524805979019	1.8779969	1.3704003
23.913163187636318	1.8644627	1.3654534
23.931078908619508	1.9116269	1.3826159
23.948995223236633	1.9934448	1.4118941
23.966912131984735	2.0278552	1.4240278
23.98482963536096	2.042532	1.4291718
24.002747733862616	2.0355136	1.4267143
24.020666427987155	2.0401518	1.4283389
24.038585718232156	2.0478206	1.4310209
24.056505605095353	2.0831194	1.4433016
24.074426089074617	2.1148767	1.4542615
24.092347170667946	2.0867004	1.4445416
24.110268850373515	2.04397	1.4296749
24.128191128689586	2.0377598	1.4275012
24.146114006114626	2.0450103	1.4300386
24.164037483147187	2.0691605	1.4384576
24.181961560286005	2.0897927	1.4456116
24.199886238029926	2.0749674	1.4404747
24.21781151687797	2.047961	1.4310699
24.235737397329274	2.0315044	1.4253085
24.253663879883135	2.0309925	1.4251289
24.271590965038975	2.0715582	1.4392909
24.289518653296376	2.0438507	1.429633
24.30744694515505	2.0395203	1.4281178
24.32537584111486	2.0133488	1.4189253
24.34330534167581	2.0409925	1.4286331
24.361235447338046	2.0537155	1.433079
24.379166158601876	2.0157146	1.4197587
24.39709747596772	1.9767835	1.4059813
24.41502939993615	1.9901772	1.4107364
24.432961931007917	1.994961	1.4124309
24.450895069683856	1.9809572	1.4074647
24.468828816465	1.9467684	1.3952664
24.4867631718525	1.9584773	1.399456
24.504698136347656	2.0139954	1.4191531
24.52263371045192	2.0005555	1.41441
24.540569894666874	1.998958	1.4138451
24.558506689494266	1.9600514	1.4000183
24.57644409543597	1.9659919	1.4021384
24.594382112994012	1.9874177	1.409758
24.61232074267057	1.9659928	1.4021387
24.630259984967953	1.9567392	1.398835
24.64819984038863	1.943596	1.3941292
24.66614030943522	1.9120082	1.3827538
24.684081392610462	1.899303	1.378152
24.702023090417274	1.9099747	1.3820183
24.7199654033587	1.9527428	1.3974057
24.737908331937927	1.9649694	1.4017737
24.755851876658305	2.0468688	1.4306883
24.773796038023324	2.0733168	1.4399017
24.79174081653661	2.0812454	1.4426522
24.809686212701962	2.0728528	1.4397405
24.827632227023294	2.1028268	1.4501127
24.8455788600047	2.0911794	1.446091
24.8635261121504	2.1135085	1.453791
24.88147398396475	2.1038945	1.4504808
24.899422475952303	2.1100767	1.4526103
24.917371588617698	2.0902426	1.4457672
24.935321322465768	2.168613	1.4726211
24.953271678001478	2.3046722	1.5181147
24.97122265572994	2.5081208	1.5837047
24.989174256156414	2.7570083	1.6604241
25.00712647978632	3.2009857	1.7891299
25.02507932712521	3.7498374	1.9364496
25.043032798678798	4.3630023	2.0887802
25.060986894952933	4.9937525	2.2346706
25.078941616453637	5.771944	2.402487
25.096896963687055	6.7421765	2.5965703
25.114852937159508	7.951444	2.8198304
25.132809537377444	8.421561	2.9019926
25.150766764847468	8.428701	2.9032226
25.168724620076347	7.781097	2.7894619
25.186683103570985	6.7328215	2.594768
25.204642215838426	5.552593	2.356394
25.222601957385894	4.1593966	2.03946
25.24056232872074	3.1654744	1.779178
25.25852333035048	2.5502982	1.5969653
25.276484962782778	2.2505631	1.5001878
25.294447226525435	2.0901859	1.4457475
25.312410122086423	1.9895654	1.4105195
25.330373649973843	1.9451032	1.3946695
25.348337810695988	1.9268275	1.3881022
25.366302604761245	1.9454992	1.3948115
25.384268032678207	1.9505928	1.3966362
25.40223409495558	1.9357543	1.3913139
25.420200792102257	1.921522	1.3861897
25.438168124627246	1.9453839	1.3947701
25.45613609303974	1.9301248	1.3892893
25.474104697849057	1.9223086	1.3864734
25.492073939564698	1.8921677	1.3755609
25.510043818696285	1.8500051	1.3601489
25.528014335753614	1.8478686	1.3593633
25.54598549124664	1.839478	1.3562735
25.56395728568544	1.8445643	1.3581474
25.58192971958028	1.8455179	1.3584983
25.59990279344156	1.850822	1.3604492
25.617876507779833	1.878589	1.3706163
25.635850863105826	1.8823646	1.371993
25.653825859930386	1.857695	1.3629729
25.671801498764548	1.8361909	1.3550612
25.68977778011949	1.8389951	1.3560956
25.707754704506524	1.87111	1.3678852
25.725732272437153	1.8824813	1.3720355
25.743710484423012	1.8717287	1.3681114
25.761689340975888	1.8124633	1.3462776
25.77966884260774	1.7923768	1.3387967
25.797648989830662	1.8304931	1.3529571
25.815629783156922	1.838724	1.3559955
25.83361122309895	1.8741292	1.3689884
25.85159331016929	1.8844457	1.3727511
25.869576044880695	1.8834779	1.3723986
25.887559427746034	1.8340806	1.3542823
25.90554345927836	1.8310577	1.3531657
25.92352813999086	1.8562483	1.362442
25.94151347039689	1.842702	1.3574616
25.959499451009965	1.8490102	1.3597832
25.97748608234374	1.894552	1.3764273
25.995473364912062	1.8927629	1.3757772
26.013461299228904	1.8437271	1.3578391
26.03144988580839	1.7973655	1.3406587
26.04943912516483	1.7887558	1.3374437
26.067429017812675	1.8058503	1.3438193
26.085419564266537	1.8170768	1.3479899
26.103410765041186	1.8117065	1.3459965
26.12140262065155	1.8317103	1.3534069
26.139395131612723	1.8000098	1.3416444
26.157388298439948	1.7733948	1.3316888
26.17538212164861	1.7790985	1.3338286
26.193376601754295	1.8062617	1.3439723
26.211371739272714	1.8230944	1.3502201
26.229367534719746	1.8413043	1.3569467
26.247363988611433	1.8561437	1.3624036
26.26536110146397	1.7986733	1.3411462
26.283358873793727	1.7978903	1.3408543
26.301357306117204	1.832144	1.3535671
26.319356398951104	1.8272402	1.3517545
26.33735615281224	1.7678814	1.329617
26.35535656821762	1.7181871	1.3107964
26.373357645684404	1.74672	1.3216354
26.39135938572991	1.7706053	1.3306409
26.409361788871614	1.8039558	1.3431143
26.427364855627165	1.8490332	1.3597916
26.445368586514352	1.8431596	1.3576301
26.46337298205115	1.8380363	1.355742
26.48137804275568	1.8486326	1.3596443
26.499383769146217	1.8236614	1.3504301
26.517390161741215	1.822746	1.3500911
26.53539722105928	1.8348578	1.3545692
26.553404947619182	1.8381275	1.3557756
26.571413341939856	1.8285596	1.3522425
26.589422404540397	1.8087548	1.3448995
26.60743213594006	1.7934812	1.3392092
26.62544253665827	1.8151239	1.3472654
26.64345360721459	1.829772	1.3526907
26.66146534812879	1.839898	1.3564284
26.679477759920758	1.833852	1.354198
26.69749084311057	1.8321873	1.3535831
26.71550459821847	1.82077	1.3493592
26.733519025764842	1.8403814	1.3566066
26.751534126270258	1.8703916	1.3676226
26.769549900255434	1.8795112	1.3709527
26.787566348241267	1.8008893	1.3419721
26.80558347074881	1.7696425	1.3302791
26.823601268299267	1.7901686	1.3379718
26.841619741414036	1.8315752	1.353357
26.85963889061465	1.8492099	1.3598566
26.877658716422832	1.8342644	1.3543502
26.89567921936045	1.8037829	1.3430499
26.913700399949544	1.7984393	1.341059
26.93172225871233	1.8123732	1.3462441
26.949744796171174	1.8008435	1.3419551
26.967768012848605	1.783902	1.3356279
26.98579190926733	1.743496	1.320415
27.003816485950225	1.7894411	1.3376999
27.021841743420318	1.8400793	1.3564953
27.039867682200814	1.8755455	1.3695055
27.057894302815072	1.8887877	1.3743317
27.07592160578664	1.8724346	1.3683693
27.0939495916392	1.8871799	1.3737466
27.111978260896635	1.8802814	1.3712336
27.13000761408296	1.8661965	1.366088
27.148037651722397	1.7970898	1.3405558
27.166068374339304	1.8048795	1.343458
27.184099782458215	1.8453106	1.358422
27.20213187660384	1.8759559	1.3696554
27.22016465730105	1.8624232	1.3647063
27.23819812507487	1.8259866	1.3512907
27.256232280450533	1.843825	1.3578752
27.274267123953383	1.8078722	1.3445714
27.292302656108987	1.7891052	1.3375744
27.31033887744306	1.7740823	1.3319468
27.32837578848146	1.8081936	1.3446909
27.34641338975026	1.777226	1.3331264
27.364451681775673	1.7615821	1.3272461
27.382490665084074	1.7896739	1.3377869
27.400530340202046	1.7696583	1.3302851
27.41857070765629	1.7530357	1.3240225
27.436611767973726	1.7753239	1.3324128
27.454653521681404	1.806467	1.3440487
27.472695969306564	1.7955353	1.3399758
27.490739111376627	1.8090286	1.3450013
27.508782948419153	1.8348371	1.3545616
27.526827480961902	1.7886976	1.337422
27.54487270953279	1.745555	1.3211945
27.562918634659898	1.7609907	1.3270233
27.580965256871508	1.7992437	1.3413589
27.599012576696026	1.8107389	1.345637
27.617060594662068	1.8448877	1.3582665
27.63510931129842	1.8393999	1.3562448
27.65315872713401	1.7867422	1.3366908
27.67120884269797	1.7655122	1.3287258
27.68925965851958	1.7727332	1.3314403
27.707311175128307	1.7986044	1.3411206
27.725363393053787	1.8063123	1.3439912
27.74341631282583	1.8525832	1.3610963
27.7614699349744	1.8941289	1.3762735
27.77952426002968	2.074011	1.4401428
27.797579288521973	2.1360846	1.461535
27.815635020981784	2.5632613	1.6010188
27.83369145793979	2.6069672	1.6146106
27.85174859992682	2.4325218	1.5596544
27.869806447473923	2.3012629	1.5169914
27.887865001112267	2.041418	1.428782
27.905924261373233	1.8796957	1.37102
27.92398422878836	1.8556652	1.362228
27.94204490388936	1.8436011	1.3577927
27.96010628720813	1.8817897	1.3717834
27.978168379276728	1.868289	1.3668537
27.9962311806274	1.8825058	1.3720443
28.014294691792568	1.8901187	1.374816
28.0323589133048	1.8498856	1.360105
28.050423845696887	1.8304307	1.3529341
28.068489489501758	1.8025931	1.3426068
28.086555845252523	1.8214494	1.3496108
28.104622913482487	1.8484026	1.3595598
28.122690694725115	1.8618366	1.3644913
28.14075918951405	1.8192528	1.3487968
28.15882839838312	1.8240168	1.3505616
28.176898321866304	1.8112254	1.3458178
28.1949689604978	1.779401	1.3339419
28.213040314811945	1.8137751	1.3467647
28.23111238534327	1.8689008	1.3670775
28.249185172626493	1.8751577	1.369364
28.267258677196473	1.9067992	1.380869
28.285332899588294	1.967834	1.4027951
28.303407840337172	2.0025833	1.4151266
28.321483499978545	1.950356	1.3965515
28.33955987904799	1.9541142	1.3978963
28.357636978081285	1.9465886	1.395202
28.37571479761439	1.9611629	1.4004153
28.393793338183425	1.9984251	1.4136566
28.41187260032469	1.9898757	1.4106295
28.429952584574686	2.025697	1.4232699
28.448033291470065	2.0455313	1.4302207
28.46611472154769	2.0430613	1.4293569
28.484196875344566	2.006544	1.4165254
28.502279753397914	1.9953846	1.4125808
28.52036335624511	1.9567751	1.3988478
28.538447684423716	1.8900491	1.3747905
28.556532738471482	1.8964356	1.3771113
28.574618518926325	1.911229	1.382472
28.59270502632635	1.985557	1.4090979
28.61079226120985	1.9882127	1.41004
28.628880224115274	2.0358858	1.4268447
28.646968915581287	2.0414445	1.4287913
28.66505833614671	2.0466237	1.4306026
28.68314848635055	2.0601907	1.4353365
28.701239366732004	2.069762	1.4386667
28.71933097783044	2.1127145	1.453518
28.737423320185403	2.0871432	1.4446949
28.75551639433665	2.1132953	1.4537177
28.773610200824074	2.1000118	1.4491417
28.791704740187793	2.1241815	1.4574572
28.80980001296809	2.151497	1.4667982
28.827896019705413	2.1482496	1.4656909
28.845992760940433	2.1176171	1.4552034
28.86409023721397	2.111656	1.4531538
28.88218844906704	2.1362267	1.4615836
28.900287397040845	2.163717	1.4709579
28.918387081676755	2.2140212	1.4879588
28.936487503516343	2.2264621	1.4921334
28.954588663101365	2.2418914	1.4972947
28.97269056097374	2.2886758	1.512837
28.990793197675597	2.342444	1.5305045
29.00889657374923	2.330819	1.5267019
29.027000689737125	2.3440259	1.5310212
29.04510554618196	2.4232223	1.5566703
29.06321114362659	2.3744304	1.5409187
29.08131748261405	2.3291922	1.5261691
29.099424563687567	2.3728306	1.5403996
29.11753238739057	2.4453928	1.5637752
29.13564095426663	2.5455325	1.5954725
29.15375026485954	2.6015851	1.612943
29.171860319713275	2.6337407	1.6228803
29.18997111937199	2.6280792	1.6211351
29.20808266438002	2.6789863	1.636761
29.226194955281898	2.7047713	1.6446189
29.244307992622335	2.7778773	1.6666965
29.26242177694624	2.888252	1.6994858
29.2805363087987	2.9292147	1.7114949
29.29865158872498	2.8806858	1.6972584
29.316767617270557	2.9515812	1.7180166
29.334884394981064	3.0586386	1.7488964
29.353001922402367	3.1515565	1.7752624
29.37112020008047	3.1133516	1.7644693
29.389239228561596	3.0962844	1.7596262
29.407359008392152	3.2834058	1.8120171
29.42547954011872	3.7190852	1.928493
29.44360082428809	4.318175	2.0780218
29.46172286144722	5.449971	2.3345172
29.479845652143283	7.108992	2.6662693
29.497969196923606	9.252433	3.0417812
29.516093496335728	11.741254	3.4265513
29.5342185509274	14.464576	3.8032322
29.55234436124651	16.75024	4.0927057
29.570470927841175	18.159065	4.2613454
29.588598251259686	18.073038	4.25124
29.60672633205055	16.802439	4.0990777
29.624855170762405	14.429083	3.7985632
29.642984767944146	11.528736	3.3953993
29.66111512414481	8.884624	2.9807086
29.67924623991366	6.6534557	2.5794294
29.697378115800138	5.0842843	2.2548358
29.71551075235387	4.170119	2.0420868
29.733644150124675	3.7342901	1.9324311
29.751778309662576	3.5903857	1.8948313
29.769913231517766	3.4963398	1.8698502
29.78804891624066	3.3846805	1.8397502
29.806185364381818	3.3156762	1.8208998
29.82432257649206	3.297198	1.8158188
29.842460553122333	3.3289518	1.8245416
29.86059929482382	3.388566	1.8408058
29.878738802147872	3.3858361	1.8400642
29.896879075646048	3.3236563	1.8230897
29.915020115870114	3.2545679	1.8040421
29.933161923371976	3.181656	1.7837197
29.951304498703777	3.1308115	1.7694099
29.969447842417857	3.1146474	1.7648363
29.987591955066733	3.2036412	1.7898718
30.005736837203123	3.2418346	1.8005096
30.023882489379943	3.2121654	1.7922515
30.04202891215028	3.1744587	1.7817011
30.060176106067455	3.1042333	1.7618835
30.078324071684946	3.0818913	1.7555317
30.09647280955646	3.127906	1.7685888
30.114622320235863	3.0994277	1.7605191
30.132772604277257	3.0041432	1.7332464
30.1509236622349	3.0098422	1.7348896
30.16907549466328	3.1074584	1.7627984
30.18722810211705	3.1157331	1.765144
30.205381485151097	3.0383193	1.7430775
30.22353564432045	3.0064294	1.7339058
30.241690580180403	3.0464258	1.7454014
30.25984629328638	3.0439591	1.7446946
30.278002784194037	2.9708366	1.7236115
30.296160053459246	2.8570607	1.6902843
30.314318101638033	2.8609154	1.6914241
30.332476929286646	2.9164255	1.7077545
30.35063653696153	2.9523761	1.718248
30.368796925219307	2.9377482	1.713986
30.386958094616844	2.8991494	1.7026889
30.40512004571115	2.88153	1.697507
30.423282779059463	2.9195628	1.7086729
30.441446295219233	2.8855355	1.6986864
30.459610594748067	2.865836	1.692878
30.47777567820382	2.8859987	1.6988227
30.495941546144504	2.9174078	1.708042
30.51410819912835	2.9091132	1.7056123
30.532275637713795	2.9082885	1.7053704
30.55044386245946	2.8458285	1.6869583
30.56861287392416	2.838286	1.6847214
30.586782672666956	2.8932786	1.700964
30.604953259247047	2.8717444	1.6946222
30.623124634223885	2.8002255	1.6733874
30.641296798157075	2.8028615	1.6741749
30.659469751606462	2.7875865	1.6696067
30.677643495132074	2.70948	1.6460499
30.695818029294152	2.6399665	1.6247973
30.713993354653116	2.7177286	1.6485535
30.73216947176962	2.7672372	1.6635015
30.75034638120448	2.7421813	1.6559533
30.768524083518756	2.716719	1.6482472
30.786702579273673	2.7153103	1.6478199
30.80488186903069	2.7730975	1.665262
30.82306195335144	2.987185	1.7283474
30.841242832797782	3.2062862	1.7906106
30.85942450793176	3.4848745	1.8667818
30.877606979315637	3.8700438	1.9672427
30.895790247511883	4.263262	2.064767
30.913974313083134	4.660818	2.1588929
30.932159176592283	4.823534	2.1962545
30.95034483860237	4.8340187	2.19864
30.968531299676698	4.6908884	2.1658459
30.98671856037873	4.368767	2.0901594
31.00490662127215	4.0149045	2.0037227
31.023095482920848	3.558924	1.8865111
31.04128514588892	3.0613196	1.7496628
31.059475610740662	2.7004511	1.643305
31.07766687804056	2.6213994	1.6190736
31.09585894835335	2.5731997	1.6041197
31.11405182224393	2.5054471	1.5828605
31.132245500277417	2.400458	1.5493412
31.15043998301914	2.3980072	1.54855
31.168635271034628	2.3486629	1.5325348
31.18683136488964	2.318344	1.5226109
31.20502826515008	2.358425	1.5357164
31.223225972382135	2.3804564	1.5428728
31.241424487152155	2.3501592	1.5330229
31.259623810026692	2.3122792	1.5206181
31.27782394157253	2.3408198	1.5299737
31.296024882356644	2.3925695	1.5467933
31.314226632946237	2.44562	1.5638478
31.332429193908684	2.480669	1.575014
31.350632565811598	2.494068	1.5792618
31.368836749222787	2.4546537	1.5667335
31.387041744710295	2.4515007	1.5657269
31.40524755284232	2.5136817	1.5854595
31.423454174187317	2.523379	1.5885147
31.441661609313922	2.4465537	1.5641463
31.459869858791002	2.339449	1.5295258
31.478078923187628	2.2853944	1.5117521
31.496288803073064	2.3862607	1.5447526
31.514499499016807	2.4333458	1.5599185
31.532711011588546	2.3880823	1.5453421
31.550923341358178	2.3868668	1.5449488
31.56913648889584	2.4392524	1.5618106
31.587350454771844	2.3270192	1.525457
31.605565239556732	2.2547808	1.5015928
31.62378084382127	2.2593608	1.503117
31.641997268136382	2.269264	1.5064076
31.660214513073274	2.2816331	1.5105076
31.67843257920331	2.3134282	1.5209957
31.6966514670981	2.3645651	1.5377142
31.71487117732944	2.384158	1.5440719
31.733091710469346	2.3396268	1.5295838
31.751313067090052	2.2985802	1.516107
31.769535247764008	2.3066502	1.518766
31.787758253063878	2.3509877	1.5332931
31.805982083562526	2.3589566	1.5358895
31.824206739833024	2.3393524	1.5294942
31.84243222244869	2.307023	1.5188887
31.860658531983013	2.2761145	1.5086797
31.878885669009737	2.284901	1.5115888
31.897113634102784	2.2641428	1.5047069
31.91534242783632	2.2434196	1.497805
31.933572050784694	2.1888921	1.4794905
31.951802503522508	2.152077	1.466996
31.970033786624548	2.0985913	1.4486516
31.988265900665834	2.156244	1.4684155
32.006498846221575	2.1647344	1.4713036
32.02473262386724	2.2019594	1.4839001
32.04296723417845	2.2862623	1.5120391
32.0612026777311	2.224291	1.4914057
32.07943895510129	2.1238425	1.4573408
32.097676066865304	2.177793	1.4757347
32.115914013599685	2.1932425	1.48096
32.13415279588115	2.1292381	1.459191
32.152392414286666	2.0457265	1.4302889
32.1706328693934	2.1020412	1.4498419
32.18887416177875	2.0920749	1.4464006
32.20711629202032	2.1021476	1.4498785
32.225359260695924	2.1102412	1.4526669
32.243603068383614	2.1540027	1.4676521
32.26184771566166	2.1480157	1.4656111
32.28009320310852	2.169162	1.4728075
32.2983395313029	2.198652	1.4827852
32.31658670082372	2.128554	1.4589565
32.33483471225012	2.0738816	1.4400978
32.35308356616143	2.1034324	1.4503214
32.371333263137245	2.1412408	1.463298
32.38958380375734	2.0922723	1.446469
32.407835188601744	2.0881875	1.4450562
32.42608741825067	2.0877872	1.4449177
32.444340493284585	2.1695778	1.4729487
32.46259441428416	2.1725364	1.4739527
32.48084918183028	2.109252	1.4523264
32.49910479650405	2.0619013	1.4359322
32.51736125888683	2.0322676	1.4255762
32.53561856956014	2.0139563	1.4191393
32.5538767291058	2.0531044	1.4328659
32.572135738105764	1.9876444	1.4098384
32.59039559714228	1.9626447	1.4009442
32.608656306797776	1.9799745	1.4071157
32.62691786765491	2.018753	1.4208283
32.645180280296586	1.9756689	1.4055849
32.663443545305896	1.9760407	1.4057171
32.68170766326619	1.9827693	1.4081084
32.69997263476099	2.0073392	1.416806
32.7182384603741	2.0657272	1.4372638
32.7365051406895	2.1413696	1.463342
32.75477267629144	2.042874	1.4292915
32.77304106776434	1.9939501	1.412073
32.79131031569289	1.987173	1.4096712
32.809580420661966	1.9965733	1.4130015
32.827851383256714	2.0689816	1.4383955
32.84612320406245	2.1104681	1.4527451
32.86439588366476	2.0347173	1.4264352
32.88266942264945	1.9190377	1.3852934
32.9009438216025	1.9271703	1.3882256
32.9192190811102	1.9538349	1.3977964
32.937495201758985	1.9852027	1.4089721
32.95577218413556	2.0273402	1.423847
32.974050028826866	2.092285	1.4464732
32.992328736420035	2.0992029	1.4488627
33.010608307502444	1.983869	1.4084989
33.02888874266169	1.9625282	1.4009026
33.047170042485604	2.020432	1.421419
33.06545220756225	2.0118663	1.4184028
33.083735238479896	2.045569	1.4302338
33.10201913582707	1.973303	1.4047431
33.12030390019248	1.9196187	1.385503
33.138589532165135	1.8812371	1.371582
33.15687603233419	1.9260514	1.3878225
33.17516340128909	1.934029	1.3906937
33.19345163961947	1.9343926	1.3908244
33.211740747915215	1.9467366	1.395255
33.23003072676643	2.0166004	1.4200705
33.248321576763466	1.9410113	1.3932018
33.266613298496885	1.9203355	1.3857617
33.28490589255747	1.925676	1.3876873
33.30319935953626	1.8724772	1.3683848
33.32149370002451	1.8331548	1.3539405
33.339788914613706	1.90658	1.3807896
33.358085003895575	1.9934946	1.4119117
33.376381968462034	2.0584517	1.4347305
33.39467980890529	2.0389936	1.4279333
33.41297852581774	2.0095363	1.4175811
33.43127811979204	2.071221	1.4391738
33.44957859142105	2.059059	1.4349421
33.467879941297866	1.9734936	1.4048109
33.486182170015844	1.9160001	1.3841965
33.50448527816853	1.8483433	1.3595378
33.522789266349754	1.9194112	1.3854282
33.541094135153514	1.9414631	1.393364
33.55939988517411	1.9354376	1.3912001
33.57770651700602	1.9286177	1.3887469
33.59601403124398	1.9373347	1.3918817
33.61432242848296	1.8899808	1.3747658
33.632631709318154	1.8474942	1.3592256
33.650941874344994	1.8994861	1.3782184
33.66925292415916	1.9913044	1.4111359
33.68756485935654	2.134153	1.460874
33.70587768053328	2.0289335	1.4244064
33.724191388285746	2.028827	1.424369
33.74250598321054	2.0630686	1.4363387
33.760821465904506	2.0104861	1.4179162
33.77913783696474	2.0102377	1.4178286
33.79745509698852	2.055832	1.4338173
33.815773246573414	2.0643795	1.4367949
33.8340922863172	1.9973407	1.4132731
33.852412216817896	1.9360124	1.3914067
33.87073303867377	1.9117429	1.3826579
33.889054752483304	2.036215	1.4269601
33.907377358845245	2.025704	1.4232723
33.92570085835853	1.9541569	1.3979117
33.94402525162239	1.9225497	1.3865604
33.96235053923627	1.9040926	1.3798887
33.980676721799824	1.9563205	1.3986853
33.999003799912984	1.9635763	1.4012767
34.01733177417592	1.9775627	1.4062583
34.03566064518901	1.9365854	1.3916125
34.0539904135529	1.8397834	1.3563862
34.07232107986846	1.8587917	1.3633751
34.090652644736785	1.9876785	1.4098505
34.108985108759235	2.0255773	1.4232278
34.12731847253742	1.9211396	1.3860518
34.14565273667313	1.9637866	1.4013517
34.16398790176847	2.028997	1.4244286
34.18232396842574	1.9026395	1.379362
34.20066093724749	1.8244292	1.3507143
34.21899880883651	1.8096541	1.3452338
34.23733758379583	1.9324229	1.3901161
34.25567726272874	1.9877925	1.409891
34.27401784623872	1.9525343	1.3973311
34.29235933492957	1.9485444	1.3959028
34.31070172940526	1.883101	1.3722613
34.32904503027003	1.8969231	1.3772883
34.347389238128386	1.9101396	1.3820779
34.36573435358502	1.900978	1.3787596
34.38408037724492	1.9373583	1.3918902
34.402427309713296	1.9196434	1.385512
34.42077515159559	1.8676305	1.3666128
34.43912390349752	1.9238893	1.3870434
34.45747356602499	1.9312593	1.3896976
34.47582413978423	2.033455	1.4259926
34.49417562538163	1.9617786	1.4006351
34.51252802342388	1.9476051	1.3955662
34.53088133451789	1.9706129	1.4037852
34.54923555927084	1.9149474	1.3838162
34.567590698290104	1.778436	1.3335801
34.58594675218336	1.9099107	1.3819952
34.6043037215585	2.0327344	1.42574
34.62266160702365	1.8819947	1.3718581
34.641020409187234	1.7832677	1.3353904
34.65938012865785	1.8424906	1.3573837
34.677740766044394	1.8927271	1.3757643
34.69610232195598	1.9701152	1.403608
34.714464797002016	1.8209441	1.3494236
34.73282819179208	1.7654768	1.3287125
34.751192506936064	1.8021823	1.3424538
34.76955774304408	1.9833193	1.4083037
34.7879239007265	2.0015817	1.4147726
34.80629098059391	1.9901778	1.4107366
34.824658983257194	2.0268857	1.4236873
34.843027909327446	2.14754	1.4654487
34.86139775941603	2.0168386	1.4201545
34.879768534134534	1.8051224	1.3435484
34.89814023409483	2.0356846	1.4267741
34.91651285990901	2.257663	1.5025522
34.93488641218944	2.1775444	1.4756504
34.95326089154871	2.0007646	1.4144839
34.97163629859967	1.8989387	1.3780198
34.99001263395542	1.9209822	1.385995
35.00838989822934	1.8991798	1.3781073
35.02676809203499	1.8358263	1.3549267
35.04514721598624	1.8488367	1.3597193
35.063527270697215	1.9637076	1.4013236
35.081908256782256	2.0160291	1.4198694
35.10029017485597	1.8505538	1.3603506
35.11867302553321	1.7587034	1.3261611
35.137056809429104	1.9486587	1.3959436
35.155441527159006	1.8895578	1.3746119
35.173827179338524	1.8698775	1.3674346
35.19221376658354	1.9893717	1.4104508
35.21060128951017	2.0283637	1.4242064
35.2289897487348	2.0152543	1.4195966
35.24737914487405	1.9698799	1.403524
35.26576947854479	1.9149464	1.3838159
35.28416075036418	1.6595198	1.2882235
35.30255296094958	1.7689435	1.3300164
35.32094611091867	1.8753626	1.3694388
35.33934020088932	1.9310611	1.3896263
35.35773523147969	1.9084893	1.3814808
35.3761312033082	1.946479	1.3951627
35.394528116993506	2.002559	1.415118
35.41292597315452	2.0554476	1.4336833
35.431324772410434	2.324031	1.5244774
35.449724515380666	2.2332196	1.4943961
35.46812520268491	2.2802072	1.5100355
35.486526834943106	2.39228	1.5466998
35.504929412775454	2.5052629	1.5828022
35.52333293680242	2.286817	1.5122225
35.54173740764471	1.8411697	1.3568971
35.560142825923286	1.6220793	1.2736088
35.5785491922594	1.6166261	1.2714661
35.59695650727454	1.4122878	1.1883972
35.61536477159042	1.0391313	1.019378
