0.008763373481513119	0.0	0.0
0.026290120649546365	0.0	0.0
0.043816868432600686	0.0	0.0
0.06134361724069026	0.0	0.0
0.07887036748382949	0.026025042	0.16132279
0.0963971195720331	0.10491579	0.32390708
0.11392387391531617	0.15034643	0.38774532
0.1314506309236943	0.1992646	0.44639063
0.1489773910071836	0.1370461	0.3701974
0.16650415457580078	0.12083593	0.34761462
0.18403092203956356	0.10089913	0.31764624
0.20155769380849	0.09151605	0.3025162
0.2190844702925996	0.15612136	0.39512196
0.2366112519019124	0.17527746	0.4186615
0.2541380390464497	0.21405827	0.4626643
0.27166483213623416	0.25054124	0.500541
0.28919163158128947	0.29679558	0.5447895
0.3067184377916406	0.23179983	0.48145595
0.324245251177314	0.13335161	0.3651734
0.34177207214833777	0.07331336	0.2707644
0.3592989011147415	0.12053627	0.34718335
0.37682573848655654	0.17613357	0.4196827
0.39435258467381573	0.20242192	0.44991323
0.41187944008655414	0.17017186	0.41251892
0.42940630513480854	0.13919845	0.3730931
0.446933180228618	0.11885281	0.34475034
0.4644600657780234	0.13987575	0.37399969
0.48198696219306775	0.13655832	0.36953798
0.49951386988379676	0.18692438	0.43234754
0.5170407892602581	0.17910542	0.42320848
0.5345677207325025	0.18924697	0.43502524
0.5520946647105822	0.17052694	0.4129491
0.5696216216045534	0.18662253	0.4319983
0.5871485918244737	0.17329	0.41628116
0.6046755757804043	0.18398516	0.4289349
0.6222025738824094	0.1882327	0.43385792
0.6397295865405557	0.19726336	0.4441434
0.6572566141649129	0.20645556	0.4543738
0.6747836571655547	0.23385707	0.4835877
0.6923107159525568	0.26533383	0.51510566
0.7098377909359992	0.25880963	0.50873333
0.7273648825259653	0.23904665	0.48892397
0.7448919911325411	0.20916663	0.4573474
0.762419117165817	0.18845427	0.4341132
0.7799462610358868	0.19226246	0.43847743
0.7974734231528482	0.23336093	0.48307446
0.8150006039268024	0.2637747	0.51359
0.8325278037678551	0.27350926	0.5229811
0.8500550230861152	0.25338775	0.50337636
0.8675822622916969	0.23451598	0.4842685
0.8851095217947171	0.25559106	0.50556016
0.9026368020052984	0.23446691	0.48421782
0.9201641033335665	0.21455523	0.46320108
0.9376914261896523	0.17646806	0.42008102
0.9552187709836915	0.19465886	0.4412016
0.9727461381258234	0.20497473	0.45274135
0.990273528026193	0.20977786	0.45801514
1.0078009410949496	0.18895131	0.4346853
1.0253283777422473	0.19981398	0.44700557
1.0428558383782454	0.22290717	0.47213045
1.0603833234131086	0.26681432	0.5165407
1.0779108332570058	0.29746822	0.54540646
1.0954383683201119	0.3320854	0.5762685
1.112965929012607	0.42291117	0.6503162
1.1304935157446763	0.54052866	0.73520654
1.1480211289265108	0.6121466	0.782398
1.1655487689683062	1.5094513	1.2285973
1.1830764362802655	1.8423312	1.357325
1.200604131272596	2.2827091	1.5108637
1.2181318543555117	2.491833	1.578554
1.235659605939232	2.453883	1.5664874
1.253187386433982	3.997041	1.9992601
1.270715196249994	6.267928	2.503583
1.2882430357975057	11.789312	3.4335568
1.3057709054867608	16.372	4.0462327
1.3232988057280106	22.385757	4.731359
1.3408267369315112	27.501787	5.2442145
1.358354699507526	31.520977	5.6143546
1.3758826938663256	35.77046	5.980841
1.3934107204181858	37.332085	6.1099987
1.410938779573391	37.657272	6.1365523
1.4284668717422309	38.482742	6.203446
1.4459949973350033	38.32968	6.191097
1.4635231567620117	37.90167	6.156433
1.4810513504335687	36.78933	6.0654206
1.4985795787599925	36.17678	6.014714
1.5161078421516088	35.917614	5.9931307
1.5336361410187505	35.11239	5.925571
1.5511644757717598	34.898994	5.907537
1.5686928468209842	35.27112	5.938949
1.58622125457678	35.981075	5.9984226
1.6037496994495108	37.021866	6.0845594
1.621278181849548	36.887093	6.0734744
1.6388067021872719	37.3715	6.113223
1.6563352608730693	36.972588	6.0805087
1.673863858317336	36.432663	6.035948
1.6913924949304753	36.206226	6.017161
1.7089211711228998	34.794533	5.8986893
1.7264498873050296	34.016006	5.8323245
1.7439786438872935	33.02693	5.7469063
1.7615074412801288	32.13045	5.668373
1.779036279893981	31.516815	5.613984
1.796565160139305	30.414284	5.5149145
1.814094082426564	29.896914	5.467807
1.8316230471662298	28.830534	5.369407
1.849152054768784	27.948196	5.2866054
1.8666811056447168	27.284859	5.223491
1.8842102002045273	26.51143	5.1489253
1.901739338858724	25.918018	5.0909743
1.9192685220178245	25.495003	5.0492578
1.9367977500923557	24.818214	4.981788
1.9543270234928547	24.524557	4.9522276
1.971856342629867	23.692915	4.867537
1.9893857079139496	23.117851	4.8081026
2.006915119755667	22.732414	4.7678523
2.0244445785655945	22.392035	4.7320223
2.0419740847543175	22.089315	4.6999273
2.0595036387324317	21.584326	4.6458936
2.0770332409105414	20.880724	4.569543
2.094562891699263	20.485535	4.526095
2.1120925915092217	19.96765	4.468518
2.129622340751053	19.73348	4.4422383
2.1471521398354043	187.96863	13.710165
2.1646819891729323	444.33832	21.079334
2.182211889174303	440.6253	20.991077
2.1997418402501974	452.9699	21.28309
2.2172718428113023	432.88007	20.80577
2.234801897268317	320.6712	17.907295
2.2523320040319548	16.978659	4.120517
2.269862163512935	16.399893	4.0496783
2.287392376121992	16.147923	4.018448
2.304922642269869	16.048042	4.006001
2.322452962367322	15.873734	3.9841855
2.3399833368251164	15.561521	3.9448094
2.357513766054032	15.310655	3.912883
2.3750442504648586	15.090222	3.8846135
2.3925747904683963	15.11561	3.8878798
2.410105386475459	14.8241415	3.8502133
2.4276360388968707	14.579302	3.8182852
2.445166748143469	14.2009	3.768408
2.4626975146261025	13.909435	3.7295356
2.4802283387556323	13.610274	3.6892104
2.4977592209429305	13.231663	3.6375353
2.5152901615988825	12.732017	3.568195
2.5328211611343865	12.542222	3.5414999
2.5503522199603523	12.445802	3.5278609
2.5678833384877024	12.44847	3.528239
2.5854145171273712	12.302275	3.5074599
2.6029457562903064	11.923833	3.4530904
2.620477056387469	11.678884	3.4174383
2.6380084178298326	11.503633	3.3917005
2.655539841028383	11.308995	3.362885
2.673071326394119	11.194476	3.3458147
2.6906028743380523	11.131986	3.336463
2.708134485271211	11.140656	3.337762
2.7256661596046325	10.974728	3.3128126
2.743197897749369	10.625124	3.2596202
2.760729700116486	10.293688	3.2083778
2.778261567117063	10.232282	3.198794
2.795793499162193	10.222644	3.1972868
2.8133254966629817	10.231238	3.1986308
2.830857560030551	10.059132	3.1716135
2.8483896896760337	9.945351	3.153625
2.865921886010578	9.778037	3.1269853
2.883454149445347	9.805902	3.1314375
2.9009864803915177	9.582772	3.0956054
2.91851887926028	9.491551	3.080836
2.9360513464628384	9.234539	3.0388384
2.953583882410413	9.16422	3.0272462
2.9711164875142373	9.035386	3.0058918
2.9886491621855606	8.824204	2.9705563
3.0061819068356455	8.638164	2.9390752
3.023714721875769	8.578456	2.9289
3.041247607717225	8.5499935	2.9240372
3.0587805647713213	8.417251	2.90125
3.0763135934493806	8.396416	2.897657
3.0938466941627407	8.251744	2.872585
3.1113798673227544	8.117897	2.8491924
3.1289131133407904	7.9371405	2.8172932
3.1464464326282315	7.752382	2.7843099
3.1639798255964786	7.6155987	2.7596374
3.1815132926569443	7.5203195	2.74232
3.1990468342210603	7.502959	2.739153
3.216580450700272	7.5087266	2.7402055
3.2341141425060416	7.4573674	2.730818
3.251647910049847	7.3190737	2.7053788
3.2691817537431813	7.2264767	2.6882107
3.286715673997555	7.1140423	2.6672163
3.3042496712244938	7.047861	2.6547809
3.32178374583554	7.0486903	2.654937
3.339317898242251	7.0672135	2.6584232
3.3568521288562034	7.00466	2.646632
3.3743864380889876	6.930072	2.632503
3.3919208263522127	6.82025	2.6115608
3.4094552940575023	6.700371	2.5885074
3.4269898416164972	6.6774197	2.5840704
3.444524469440858	6.6338525	2.5756266
3.4620591779422587	6.6067576	2.5703614
3.479593967532391	6.6230497	2.5735288
3.4971288386229658	6.5802894	2.5652075
3.5146637916257086	6.4617767	2.5420024
3.5321988269523628	6.37641	2.5251555
3.5497339450146903	6.2454333	2.4990864
3.5672691462244708	6.245637	2.4991271
3.5848044309934988	6.1698	2.4839082
3.60233979973359	6.2052712	2.491038
3.619875252856575	6.2388306	2.497765
3.6374107907743034	6.3248262	2.5149207
3.6549464138986427	6.2988105	2.5097432
3.6724821226414788	6.3460627	2.5191393
3.690017917414714	6.292484	2.5084825
3.7075537986302702	6.3613286	2.5221674
3.7250897667000857	6.436977	2.5371199
3.7426258220361235	6.5510354	2.559499
3.7601619650503553	6.78555	2.604909
3.777698196154779	7.2008467	2.6834393
3.7952345157614067	8.191251	2.8620362
3.8127709242822716	9.001619	3.00027
3.830307422129425	11.111608	3.3334079
3.847844009714936	29.937838	5.471548
3.8653806874508954	97.37521	9.867888
3.882917455749409	96.61216	9.829148
3.900454315022606	96.49334	9.823102
3.917991265682631	41.124382	6.4128294
3.9355283081416506	10.839893	3.2923994
3.9530654428118495	8.757229	2.9592617
3.970602670105433	7.5996118	2.7567394
3.9881399904346244	6.688662	2.5862448
4.005677404211669	6.5765805	2.5644844
4.023214911848827	6.4484987	2.5393894
4.0407525137583855	6.3989177	2.5296082
4.058290210352644	6.360554	2.522014
4.075828002043927	6.321897	2.5143383
4.0933658892445814	6.278596	2.5057127
4.110903872366966	6.1847696	2.4869196
4.128441951823468	6.0595026	2.4616058
4.145980128026488	5.9730673	2.443986
4.163518401388452	5.979644	2.445331
4.181056772321807	5.962009	2.4417226
4.1985952412390155	5.9382925	2.4368613
4.216133808552567	6.0238695	2.4543571
4.233672474674966	6.1600766	2.4819503
4.251211240018741	6.468731	2.54337
4.268750104996445	6.781458	2.6041234
4.286289070020643	7.764386	2.786465
4.303828135503928	9.424859	3.0699933
4.3213673018589125	29.596697	5.4402847
4.3389065694982305	90.73695	9.525595
4.356445938834537	165.85141	12.878331
4.3739854102805085	171.09149	13.080194
4.391524984248844	171.94586	13.112813
4.409064661152262	136.00801	11.662248
4.426604441403504	96.43473	9.820119
4.444144325415337	75.63831	8.697029
4.461684313600543	21.775455	4.666418
4.47922440637193	22.129627	4.7042136
4.496764604142329	20.332739	4.509184
4.5143049073245916	18.470713	4.2977567
4.531845316331589	16.26309	4.032752
4.5493858315762195	13.375216	3.6572142
4.566926453471405	11.0652685	3.3264499
4.584467182430081	9.083449	3.0138762
4.602008018865218	8.082764	2.8430202
4.619548963189798	7.4465237	2.728832
4.637090015816834	6.9790425	2.6417878
4.654631177159353	6.695388	2.5875447
4.672172447630417	6.3488035	2.5196831
4.689713827643102	6.1553273	2.4809933
4.7072553176105085	5.909644	2.430976
4.724796917945764	5.805495	2.4094594
4.742338629062015	5.7916217	2.4065788
4.759880451372434	5.6993923	2.38734
4.777422385290215	5.717515	2.3911326
4.794964431228581	5.6992908	2.3873188
4.812506589600768	5.7316065	2.3940773
4.830048860820047	5.7068915	2.38891
4.847591245299709	5.6104918	2.3686476
4.8651337434530655	5.5143723	2.3482702
4.882676355693457	5.4675426	2.3382778
4.900219082434242	5.501786	2.3455887
4.917761924088813	5.5774183	2.361656
4.935304881070575	5.578367	2.3618567
4.952847953792969	5.5314937	2.3519127
4.970391142669449	5.460235	2.3367145
4.9879344481135055	5.445077	2.333469
5.005477870538642	5.483865	2.3417654
5.023021410358394	5.450335	2.3345952
5.040565067986324	5.465056	2.337746
5.05810884383601	5.4218664	2.3284903
5.075652738321066	5.47856	2.3406324
5.09319675185512	5.4368215	2.3316994
5.110740884851836	5.3904877	2.3217423
5.128285137724894	5.3793864	2.3193505
5.145829510888007	5.3134923	2.3051014
5.163374004754908	5.303405	2.3029122
5.1809186197393595	5.267316	2.2950633
5.198463356255145	5.2150316	2.2836444
5.216008214716077	5.258432	2.293127
5.233553195535998	5.282811	2.2984366
5.251098299128764	5.385263	2.320617
5.268643525908272	5.4091134	2.32575
5.286188876288432	5.460455	2.3367617
5.3037343506831895	5.4186897	2.327808
5.32127994950651	5.3342338	2.309596
5.3388256731723915	5.2755933	2.296866
5.356371522094851	5.212328	2.2830524
5.373917496687938	5.209936	2.2825284
5.391463597365729	5.225213	2.2858725
5.40900982454232	5.2148857	2.2836125
5.426556178631843	5.2183356	2.2843676
5.444102660048449	5.1914563	2.2784767
5.4616492692063225	5.213463	2.2833009
5.479196006519669	5.2825003	2.298369
5.496742872402727	5.23604	2.2882395
5.514289867269756	5.240735	2.2892652
5.531836991535049	5.133265	2.265671
5.549384245612924	5.1109653	2.2607443
5.566931629917724	5.1348996	2.2660317
5.584479144863822	5.2223506	2.2852464
5.6020267908656205	5.3116865	2.3047097
5.619574568337545	5.3524055	2.3135266
5.637122477694054	5.3201966	2.306555
5.654670519349629	5.3325653	2.3092349
5.672218693718784	5.272301	2.2961493
5.689767001216059	5.2623916	2.2939904
5.707315442256021	5.201608	2.2807035
5.724864017253266	5.1821904	2.2764425
5.7424127266224225	5.211586	2.2828898
5.75996157077814	5.144555	2.268161
5.777510550135105	5.0868177	2.2553976
5.795059665108022	5.140194	2.2671995
5.812608916111639	5.1035833	2.2591112
5.830158303560715	5.259268	2.2933095
5.847707827870055	5.282367	2.29834
5.86525748945448	5.3739586	2.31818
5.8828072887288485	5.547132	2.355235
5.900357226108044	5.5505056	2.355951
5.917907302006979	5.5700197	2.3600888
5.9354575168406	6.107799	2.4713962
5.9530078710238765	6.73542	2.5952687
5.970558364971812	7.3577256	2.7125127
5.988108999099438	7.652996	2.7664049
6.005659773821818	8.181063	2.8602557
6.023210689554039	7.967353	2.82265
6.040761746711227	8.366186	2.892436
6.058312945708531	7.7667685	2.7868922
6.075864286961132	7.2805276	2.6982453
6.093415770884244	6.626126	2.5741262
6.1109673978931065	6.0792947	2.4656227
6.128519168402993	5.5735393	2.3608344
6.146071082829204	5.4770594	2.3403118
6.163623141587075	5.3520517	2.31345
6.181175345091969	5.247569	2.2907574
6.198727693759281	5.20406	2.281241
6.216280188004435	5.1919127	2.2785769
6.233832828242885	5.217719	2.2842326
6.251385614890126	5.2556357	2.2925174
6.268938548361669	5.2468176	2.2905934
6.286491629073067	5.2239833	2.2856035
6.304044857439898	5.121323	2.263034
6.321598233877777	5.0694036	2.2515335
6.339151758802344	5.096698	2.2575867
6.356705432629277	5.050584	2.2473505
6.37425925577428	5.008573	2.2379842
6.391813228653095	5.002683	2.2366679
6.409367351681486	5.0324526	2.2433128
6.426921625275259	5.0421762	2.245479
6.44447604985025	5.009417	2.2381728
6.46203062582232	5.043557	2.2457864
6.47958535360737	5.0490723	2.247014
6.497140233621328	5.0326843	2.2433646
6.514695266280161	5.035575	2.2440088
6.532250451999859	5.0133047	2.239041
6.549805791196454	4.961392	2.2274182
6.567361284286002	4.9371862	2.221978
6.584916931684597	4.9945726	2.234854
6.602472733808367	5.0407925	2.2451708
6.6200286910734665	5.038034	2.2445564
6.637584803896092	5.0139003	2.2391741
6.655141072692462	5.0017557	2.2364604
6.672697497878842	4.992799	2.2344573
6.690254079871514	4.9463367	2.2240362
6.707810819086808	4.941965	2.2230532
6.725367715941078	4.9401026	2.222634
6.742924770850719	4.9228773	2.2187557
6.760481984232151	4.9089103	2.215606
6.778039356501836	4.909061	2.21564
6.795596888076266	4.8984056	2.2132342
6.813154579371963	4.8650537	2.2056866
6.830712430805492	4.848885	2.2020185
6.84827044279344	4.8314905	2.1980653
6.865828615752445	4.8223534	2.1959858
6.883386950099159	4.8461003	2.201386
6.900945446250287	4.8580174	2.204091
6.918504104622553	4.9217043	2.2184916
6.936062925632727	5.0178213	2.2400494
6.953621909697607	5.0490775	2.2470152
6.971181057234028	5.0461135	2.2463555
6.988740368658859	5.1068225	2.259828
7.006299844389007	5.178677	2.2756708
7.023859484841407	5.309205	2.3041713
7.041419290433036	5.3988447	2.3235414
7.058979261580902	5.517953	2.3490324
7.0765393987020495	5.7228303	2.3922439
7.094099702213559	5.999288	2.4493444
7.111660172532549	6.3069587	2.511366
7.129220810076164	6.5825324	2.5656447
7.146781615261595	7.2158604	2.6862354
7.16434258850606	7.489103	2.7366226
7.181903730226821	8.009415	2.830091
7.1994650408411704	8.11435	2.8485699
7.217026520766437	8.271362	2.8759975
7.234588170419983	8.445836	2.906172
7.252149990219215	8.433446	2.9040396
7.269711980581568	8.336513	2.887302
7.2872741419245175	8.094895	2.8451529
7.304836474665574	7.7097306	2.7766402
7.322398979222286	7.344883	2.7101445
7.339961656012233	7.0557365	2.6562636
7.357524505453039	6.727501	2.5937426
7.375087527962357	6.5413227	2.557601
7.392650723957886	6.2756433	2.5051234
7.410214093857353	6.0209084	2.453754
7.427777638078528	5.830906	2.414727
7.445341357039213	5.628411	2.3724272
7.4629052511572525	5.4880633	2.3426616
7.480469320850524	5.3856864	2.3207083
7.498033566536948	5.307884	2.3038845
7.5155979886344735	5.1875706	2.277624
7.5331625875610975	5.08973	2.256043
7.550727363734844	5.051129	2.2474716
7.568292317573788	5.000438	2.236166
7.585857449496025	5.07164	2.2520301
7.603422759919705	5.0920753	2.2565627
7.620988249263007	5.184869	2.2770307
7.638553917944147	5.284664	2.2988398
7.656119766381391	5.2953954	2.3011725
7.673685794993023	5.3008394	2.3023553
7.691252004197388	5.2038183	2.281188
7.70881839441285	5.2072053	2.2819302
7.726384966057826	5.2307086	2.2870743
7.743951719550762	5.2508216	2.2914672
7.761518655310149	5.2583666	2.2931128
7.779085773754511	5.26761	2.2951274
7.796653075302419	5.3173475	2.3059375
7.814220560372475	5.3567085	2.3144565
7.831788229383323	5.255452	2.2924774
7.8493560827536495	5.2442727	2.2900376
7.866924120902174	5.2078233	2.2820656
7.884492344247663	5.282316	2.298329
7.9020607532089135	5.338974	2.310622
7.919629348204771	5.3735957	2.3181016
7.937198129654115	5.3784075	2.3191395
7.954767097975865	5.3797655	2.3194323
7.972336253588986	5.327052	2.3080409
7.989905596912472	5.3638344	2.3159952
8.007475128365371	5.3811016	2.3197203
8.025044848366756	5.4254975	2.3292696
8.042614757335754	5.5934825	2.3650544
8.060184855691523	5.6994734	2.387357
8.07775514385327	5.87222	2.4232664
8.095325622240228	5.9147763	2.4320314
8.112896291271687	5.8891945	2.4267662
8.130467151366968	5.8803277	2.4249387
8.148038202945436	5.902506	2.4295073
8.165609446426497	5.8512664	2.418939
8.183180882229594	5.84542	2.4177303
8.200752510774217	5.811864	2.4107807
8.218324332479893	5.92937	2.4350297
8.235896347766193	6.0184236	2.4532475
8.253468557052724	6.0570736	2.4611123
8.27104096075914	6.032105	2.4560344
8.288613559305137	6.0400343	2.457648
8.306186353110448	6.0353713	2.4566994
8.32375934259485	6.097852	2.469383
8.341332528178162	6.115123	2.4728775
8.358905910280246	6.0975814	2.4693282
8.376479489321003	6.165171	2.4829762
8.394053265720377	6.2134337	2.492676
8.411627239898356	6.2842565	2.506842
8.42920141227497	6.2881713	2.5076227
8.44677578327029	6.3367257	2.5172853
8.464350353304427	6.32158	2.5142753
8.48192512279754	6.2465773	2.4993153
8.499500092169827	6.195526	2.4890814
8.51707526184153	6.193028	2.4885795
8.534650632232934	6.282092	2.5064101
8.552226203764365	6.306528	2.51128
8.569801976856192	6.3515344	2.520225
8.587377951928834	6.3154383	2.5130537
8.60495412940274	6.3027215	2.5105221
8.622530509698416	6.330108	2.5159707
8.6401070932364	6.399863	2.529795
8.657683880437283	6.459562	2.5415668
8.675260871721695	6.5892754	2.5669584
8.692838067510303	6.7407274	2.596291
8.710415468223834	6.939868	2.634363
8.727993074283043	7.1696515	2.6776204
8.745570886108737	7.1781793	2.6792123
8.763148904121765	7.2077937	2.6847334
8.78072712874302	7.1783004	2.679235
8.798305560393441	7.4173203	2.7234757
8.815884199494006	7.636576	2.7634356
8.833463046465745	7.807677	2.794222
8.851042101729728	7.920082	2.814264
8.86862136570707	8.242759	2.8710206
8.886200838818924	8.407597	2.8995855
8.903780521486505	8.423559	2.9023368
8.921360414131055	8.539293	2.9222069
8.938940517173874	8.681805	2.9464903
8.956520831036297	8.866055	2.977592
8.97410135613971	9.098474	3.0163677
8.99168209290554	9.189676	3.031448
9.009263041755265	9.475969	3.0783062
9.026844203110405	9.73965	3.1208413
9.044425577392525	9.928736	3.1509895
9.062007165023239	10.022544	3.1658401
9.079588966424197	10.275902	3.2056048
9.097170982017108	10.402908	3.225354
9.11475321222372	11.28454	3.359247
9.132335657465825	12.164561	3.4877732
9.149918318165264	12.242079	3.4988682
9.167501194743924	12.740621	3.5694005
9.18508428762374	12.459024	3.5297344
9.202667597226693	12.45123	3.52863
9.220251123974803	12.146226	3.4851437
9.237834868290143	11.776124	3.4316359
9.255418830594836	11.602942	3.4063091
9.273003011311046	11.091667	3.3304155
9.290587410860985	10.927646	3.3056989
9.308172029666911	10.394458	3.2240436
9.32575686815113	10.10528	3.1788802
9.343341926735997	8.859759	2.9765348
9.360927205843916	8.583413	2.9297462
9.378512705897327	8.356715	2.8907983
9.396098427318728	8.149324	2.8547022
9.413684370530664	8.068633	2.840534
9.431270535955722	7.9780316	2.8245409
9.448856924016539	7.985161	2.8258028
9.466443535135806	7.847349	2.801312
9.484030369736251	7.8349137	2.7990916
9.501617428240658	7.803395	2.7934556
9.519204711071852	7.8403196	2.8000572
9.536792218652714	7.8781967	2.8068125
9.55437995140617	7.8939757	2.809622
9.571967909755191	7.9003096	2.8107488
9.589556094122802	7.9274387	2.8155708
9.60714450493207	7.9328933	2.8165393
9.624733142606116	7.981376	2.8251328
9.642322007568108	7.995255	2.827588
9.659911100241267	8.003932	2.829122
9.677500421048851	7.965052	2.8222425
9.695089970414175	8.028513	2.833463
9.712679748760609	8.066917	2.840232
9.730269756511557	8.157293	2.8560975
9.747859994090492	8.098701	2.8458216
9.765450461920915	8.122625	2.850022
9.78304116042639	8.10988	2.8477852
9.800632090030527	8.154955	2.855688
9.81822325115699	8.261963	2.874363
9.835814644229481	8.2322445	2.8691888
9.853406269671762	8.23113	2.8689945
9.870998127907646	8.172889	2.8588264
9.888590219360985	8.190846	2.8619654
9.906182544455698	8.285724	2.8784933
9.923775103615734	8.343104	2.8884432
9.941367897265108	8.371876	2.8934195
9.958960925827878	8.3087435	2.8824892
9.97655418972816	8.213848	2.865981
9.994147689390106	8.223581	2.8676786
10.011741425237934	8.30271	2.8814423
10.029335397695904	8.349405	2.8895338
10.04692960718833	8.337039	2.887393
10.06452405413958	8.312427	2.883128
10.082118738974064	8.263508	2.874632
10.099713662116246	8.142417	2.853492
10.117308823990651	8.107955	2.8474472
10.134904225021844	8.080519	2.8426254
10.152499865634445	8.109823	2.8477752
10.170095746253125	8.120407	2.8496327
10.18769186730261	8.067769	2.8403819
10.205288229207675	8.077776	2.8421428
10.222884832393145	8.086446	2.8436677
10.2404816772839	8.084341	2.8432975
10.258078764304868	8.082663	2.8430023
10.275676093881035	8.062965	2.8395362
10.293273666437438	8.045783	2.836509
10.310871482399158	8.02082	2.8321052
10.32846954219134	8.008694	2.8299634
10.346067846239173	8.133442	2.851919
10.363666394967908	8.159328	2.856454
10.38126518880283	8.180721	2.860196
10.398864228169298	8.222842	2.86755
10.416463513492713	8.185713	2.8610685
10.434063045198531	8.132398	2.8517358
10.451662823712262	8.111621	2.8480906
10.469262849459467	8.103741	2.846707
10.486863122865758	8.076464	2.841912
10.504463644356806	8.081552	2.842807
10.522064414358338	8.040407	2.8355613
10.539665433296118	8.026301	2.8330727
10.557266701595987	7.931166	2.8162327
10.574868219683818	7.8164773	2.7957964
10.592469987985552	7.788529	2.7907937
10.610072006927185	7.6902313	2.7731266
10.627674276934751	7.5977697	2.756405
10.64527679843435	7.4370084	2.727088
10.662879571852143	7.304647	2.702711
10.680482597614331	7.2139335	2.6858766
10.698085876147173	7.104261	2.665382
10.715689407876988	6.980888	2.642137
10.733293193230146	6.9081964	2.6283448
10.750897232633072	6.828641	2.6131668
10.76850152651225	6.784056	2.6046221
10.786106075294207	6.686763	2.5858777
10.803710879405534	6.63401	2.5756571
10.821315939272877	6.5504074	2.5593765
10.83892125532294	6.470758	2.5437684
10.856526827982472	6.426991	2.535151
10.874132657678285	6.3642015	2.522737
10.891738744837243	6.274613	2.5049179
10.909345089886271	6.2051525	2.4910142
10.926951693252343	6.171173	2.4841845
10.944558555362494	6.1302705	2.4759383
10.96216567664381	6.03963	2.4575658
10.979773057523436	5.995437	2.448558
10.997380698428573	5.8982506	2.4286313
11.014988599786477	5.761724	2.4003592
11.032596762024461	5.6216784	2.371008
11.050205185569892	5.595611	2.3655045
11.067813870850198	5.6030297	2.3670719
11.085422818292859	5.5487676	2.3555822
11.10303202832541	5.4864907	2.342326
11.120641501375454	5.4353805	2.3313901
11.138251237870636	5.3439603	2.3117008
11.155861238238671	5.275313	2.296805
11.173471502907317	5.1815653	2.2763052
11.191082032304402	5.1466675	2.2686267
11.208692826857805	5.111385	2.2608373
11.226303886995465	5.0569634	2.2487693
11.243915213145371	4.9558516	2.226174
11.261526805735578	4.910248	2.2159078
11.279138665194196	4.826835	2.197006
11.296750791949393	4.7759647	2.185398
11.314363186429393	4.740689	2.1773124
11.331975849062479	4.7355223	2.1761255
11.34958878027699	4.6723266	2.1615565
11.36720198050133	4.5782332	2.1396806
11.384815450163948	4.499904	2.1212978
11.402429189693366	4.449606	2.1094089
11.420043199518153	4.4278383	2.104243
11.437657480066942	63.396458	7.962189
11.455272031768422	85.157364	9.228075
11.472886855051353	107.61882	10.373949
11.490501950344528	99.23599	9.961726
11.508117318076819	84.56426	9.195883
11.52573295867715	45.91734	6.776233
11.543348872574514	4.1891155	2.046733
11.560965060197946	4.1380095	2.0342097
11.57858152197655	4.12647	2.0313716
11.59619825833949	4.0595164	2.0148242
11.613815269715985	4.0568132	2.0141532
11.631432556535323	38.526108	6.20694
11.649050119226837	83.05681	9.113551
11.666667958219929	93.45782	9.667358
11.68428607394406	107.67261	10.376541
11.701904466828756	82.49516	9.0826845
11.719523137303586	65.33152	8.082791
11.737142085798196	4.601269	2.1450567
11.754761312742286	3.7242556	1.929833
11.772380818565619	3.6831958	1.9191654
11.790000603698015	3.6534526	1.9114007
11.80762066856935	3.639153	1.9076564
11.825241013609572	3.6024752	1.8980187
11.842861639248683	3.5784397	1.8916764
11.860482545916748	3.5121977	1.8740858
11.878103734043883	3.4677908	1.8622005
11.895725204060282	3.4254391	1.8507942
11.91334695639619	3.4143033	1.8477833
11.930968991481919	3.388529	1.8407958
11.948591309747824	3.332749	1.8255818
11.966213911624347	3.3217435	1.8225651
11.98383679754198	3.2907877	1.8140528
12.001459967931268	3.3110614	1.8196322
12.019083423222835	3.300261	1.8166621
12.036707163847352	3.3349862	1.8261944
12.05433119023556	3.3265398	1.8238804
12.071955502818259	3.2378058	1.7993904
12.089580102026313	3.1893504	1.7858752
12.107204988290643	3.1632826	1.778562
12.12483016204224	3.1342378	1.7703779
12.142455623712152	3.1326501	1.7699294
12.16008137373149	3.1141922	1.7647074
12.177707412531431	3.0885277	1.7574208
12.19533374054321	3.0349848	1.7421207
12.212960358198126	3.0294187	1.7405225
12.230587265927545	2.997151	1.7312281
12.248214464162889	2.988691	1.7287831
12.265841953335649	2.9790733	1.7259992
12.283469733877375	2.9773386	1.7254966
12.301097806219685	2.9515412	1.7180051
12.31872617079425	2.965974	1.7222004
12.336354828032825	3.0079951	1.7343572
12.353983778367205	3.008434	1.7344838
12.371613022229262	2.9299753	1.711717
12.389242560050928	2.8597538	1.6910807
12.406872392264201	2.8861928	1.6988798
12.424502519301143	2.8937428	1.7011005
12.442132941593874	2.8980582	1.7023684
12.459763659574586	2.8641584	1.6923825
12.477394673675532	2.852192	1.6888434
12.49502598432903	2.856552	1.6901337
12.51265759196746	2.8452308	1.6867812
12.530289497023267	2.8133283	1.677298
12.547921699928967	2.8047743	1.674746
12.565554201117134	2.8029068	1.6741884
12.583187001020404	2.7941847	1.6715815
12.600820100071486	2.7801328	1.6673731
12.618453498703152	2.7815547	1.6677994
12.636087197348235	2.7862616	1.6692098
12.65372119643964	2.8075528	1.6755754
12.671355496410326	2.8070033	1.6754113
12.68899009769333	2.8337111	1.6833631
12.706625000721749	2.8579614	1.6905506
12.724260205928752	2.9245658	1.7101362
12.741895713747551	2.9361105	1.7135082
12.759531524611454	2.9722927	1.7240338
12.777167638953818	2.915012	1.7073406
12.794804057208072	2.948916	1.7172408
12.812440779807702	3.0140913	1.7361138
12.830077807186271	3.2366865	1.7990793
12.847715139777405	3.2708232	1.8085418
12.865352778014795	3.4849846	1.8668114
12.882990722332197	3.5600884	1.8868196
12.90062897316344	3.6411345	1.9081757
12.918267530942412	3.723753	1.9297029
12.935906396103071	3.6039295	1.8984019
12.953545569079449	3.7971818	1.9486359
12.971185050305628	3.5953958	1.8961529
12.988824840215775	3.6052682	1.8987544
13.006464939244115	3.5871968	1.8939897
13.024105347824943	3.447911	1.8568552
13.041746066392617	3.5476534	1.8835216
13.05938709538157	3.3692386	1.8355486
13.077028435226296	3.3971796	1.8431439
13.094670086361363	3.289591	1.813723
13.112312049221401	3.1861336	1.7849745
13.129954324241112	3.11233	1.7641797
13.147596911855258	2.924481	1.7101114
13.165239812498685	2.9041514	1.7041571
13.182883026606293	2.8359478	1.6840272
13.200526554613058	2.8015018	1.6737688
13.218170396954017	2.7903666	1.670439
13.235814554064284	2.739595	1.6551722
13.253459026379034	2.7194495	1.6490754
13.271103814333523	2.694387	1.6414587
13.288748918363058	2.697301	1.6423461
13.306394338903031	2.7235522	1.6503189
13.32404007638889	2.73683	1.6543367
13.341686131256164	2.7291663	1.6520189
13.359332503940449	2.6992304	1.6429335
13.376979194877402	2.6925044	1.6408852
13.394626204502751	2.690323	1.6402204
13.412273533252307	2.705588	1.6448672
13.429921181561937	2.6980455	1.6425729
13.447569149867581	2.7335865	1.6533562
13.465217438605247	2.758389	1.6608398
13.482866048211022	2.7173295	1.6484325
13.500514979121052	2.7099886	1.6462044
13.518164231771568	2.6741192	1.6352735
13.535813806598844	2.6958287	1.6418979
13.553463704039254	2.705054	1.6447048
13.571113924529229	2.709538	1.6460674
13.588764468505275	2.7170098	1.6483355
13.606415336403956	2.7339437	1.6534642
13.624066528661917	2.7547514	1.6597444
13.641718045715882	2.826267	1.6811506
13.659369888002635	2.8843074	1.6983249
13.67702205595903	2.9426205	1.7154068
13.694674550021993	2.9981282	1.7315104
13.712327370628532	3.0622423	1.7499263
13.729980518215713	3.1586199	1.7772506
13.747633993220681	3.2225046	1.7951336
13.765287796080647	3.259946	1.8055321
13.7829419272329	3.3257997	1.8236775
13.800596387114801	3.3037837	1.8176314
13.818251176163775	3.3281848	1.8243313
13.835906294817324	3.319426	1.8219292
13.853561743513023	3.4046154	1.84516
13.871217522688525	3.4569442	1.859286
13.888873632781538	3.4666507	1.8618944
13.906530074229858	3.475382	1.8642377
13.92418684747135	3.4719548	1.8633182
13.941843952943948	3.5112314	1.873828
13.959501391085665	3.5016732	1.8712758
13.977159162334578	3.4136639	1.8476104
13.994817267128846	3.3716831	1.8362143
14.012475705906693	3.2964323	1.8156079
14.030134479106424	3.2074714	1.7909415
14.047793587166414	3.1097586	1.7634507
14.065453030525108	3.0471952	1.7456217
14.083112809621026	2.9931417	1.7300699
14.100772924892766	2.9285462	1.7112995
14.118433376778997	2.8908582	1.7002524
14.136094165718458	2.8418572	1.6857809
14.153755292149969	2.770184	1.664387
14.171416756512416	2.6795652	1.6369377
14.189078559244768	2.5952022	1.6109631
14.20674070078606	2.5526288	1.5976949
14.224403181575408	2.5427744	1.594608
14.242066002051999	2.5390313	1.5934339
14.259729162655093	2.5142562	1.5856407
14.277392663824022	2.4734108	1.5727081
14.295056505998208	2.4889188	1.5776308
14.312720689617128	2.4910607	1.5783094
14.330385215120348	2.467878	1.5709481
14.348050082947497	2.442044	1.5627041
14.3657152935383	2.3906493	1.5461725
14.383380847332528	2.3597422	1.5361452
14.401046744770051	2.3385272	1.5292244
14.418712986290798	2.3524084	1.5337563
14.436379572334793	2.398726	1.5487821
14.454046503342123	2.4332347	1.5598829
14.471713779752946	2.3797016	1.5426282
14.489381402007504	2.3221407	1.5238571
14.507049370546113	2.298196	1.5159802
14.524717685809168	2.3339849	1.5277385
14.542386348237134	2.3974802	1.5483799
14.560055358270553	2.429467	1.5586747
14.577724716350051	2.437095	1.5611198
14.595394422916325	2.4454615	1.5637971
14.61306447841015	2.4826858	1.575654
14.63073488327237	2.5258894	1.5893047
14.648405637943917	2.5426123	1.594557
14.6660767428658	2.5454845	1.5954574
14.683748198479094	2.551887	1.5974627
14.701420005224954	2.5580378	1.5993867
14.719092163544628	2.6093028	1.6153337
14.73676467387942	2.6365235	1.6237375
14.754437536670727	2.673603	1.6351156
14.772110752360014	2.6880035	1.6395133
14.78978432138882	2.7033765	1.6441948
14.807458244198777	2.7218637	1.6498072
14.82513252123159	2.7022905	1.6438645
14.842807152929028	2.7076166	1.6454837
14.860482139732962	2.670169	1.6340653
14.87815748208531	2.6560755	1.629747
14.8958331804281	2.6571848	1.6300874
14.91350923520342	2.6406727	1.6250147
14.931185646853438	2.7002273	1.6432369
14.948862415820408	2.7376246	1.6545769
14.966539542546656	2.730252	1.6523474
14.98421702747459	2.6551187	1.6294535
15.001894871046696	2.660223	1.631019
15.019573073705542	2.650496	1.6280344
15.037251635893766	2.660386	1.631069
15.054930558054092	2.6860414	1.6389147
15.072609840629323	2.7640514	1.6625437
15.090289484062351	2.9104269	1.7059973
15.107969488796124	3.1652753	1.7791221
15.125649855273691	3.5361743	1.8804718
15.14333058393817	4.014769	2.0036888
15.161011675232768	4.921222	2.2183828
15.17869312960076	6.2512054	2.500241
15.196374947485506	8.145405	2.8540156
15.214057129330447	11.331875	3.366285
15.231739675579114	16.07362	4.009192
15.249422586675102	21.074917	4.5907426
15.267105863062092	24.09124	4.9082828
15.284789505183847	24.373674	4.93697
15.302473513484218	22.435741	4.736638
15.320157888407127	18.968857	4.355325
15.337842630396578	14.803255	3.8474998
15.355527739896656	11.539515	3.396986
15.37321321735153	9.017604	3.0029325
15.39089906320545	6.5844073	2.56601
15.408585277902748	4.9297976	2.2203147
15.42627186188783	3.7801332	1.9442564
15.443958815605198	3.224562	1.7957065
15.461646139499424	2.9564285	1.7194268
15.479333834015168	2.8340092	1.6834515
15.497021899597165	2.7955382	1.6719863
15.514710336690234	2.7318292	1.6528246
15.53239914573928	2.704502	1.6445371
15.550088327189297	2.670626	1.634205
15.567777881485336	2.6113548	1.6159687
15.58546780907256	2.554724	1.5983504
15.6031581103962	2.4950652	1.5795776
15.620848785901568	2.4404032	1.562179
15.638539836034063	2.4097545	1.5523384
15.656231261239173	2.425414	1.5573741
15.673923061962451	2.4400282	1.5620589
15.691615238649552	2.4610293	1.5687668
15.709307791746202	2.4450595	1.5636686
15.727000721698221	2.4441016	1.5633622
15.744694028951498	2.3683057	1.53893
15.76238771395202	2.359943	1.5362105
15.780081777145844	2.3468215	1.5319339
15.797776218979125	2.3756738	1.5413221
15.815471039898094	2.3874764	1.5451461
15.833166240349064	2.3899822	1.5459567
15.850861820778437	2.4231274	1.5566398
15.868557781632699	2.4183235	1.555096
15.886254123358412	2.3712149	1.5398749
15.903950846402232	2.3444097	1.5311465
15.921647951210897	2.3507235	1.5332069
15.939345438231225	2.400056	1.5492114
15.957043307910133	2.406825	1.5513946
15.974741560694602	2.3750162	1.5411087
15.992440197031714	2.3217053	1.5237143
16.01013921736862	2.3345106	1.5279105
16.02783862215259	2.370858	1.539759
16.045538411830933	2.4291253	1.5585651
16.06323858685107	2.4101052	1.5524514
16.080939147660512	2.3739164	1.5407519
16.09864009470684	2.3876143	1.5451907
16.11634142843774	2.3759477	1.5414109
16.134043149300954	2.403555	1.5503403
16.15174525774433	2.3937705	1.5471815
16.169447754215817	2.4107056	1.5526447
16.18715063916342	2.4389267	1.5617063
16.204853913035244	2.401081	1.5495422
16.222557576279478	2.4015114	1.5496811
16.240261629344403	22.357855	4.7284093
16.257966072678386	42.927124	6.5518794
16.275670906729868	38.05674	6.1690145
16.293376131947387	2.496513	1.5800357
16.31108174877957	2.51817	1.5868744
16.328787757675133	2.5440383	1.5950042
16.34649415908287	2.56822	1.6025667
16.364200953451657	2.581856	1.6068155
16.38190814123048	2.6065872	1.6144929
16.39961572286839	2.6321566	1.6223923
16.41732369881455	2.6784527	1.6365979
16.43503206951817	2.6570365	1.6300418
16.45274083542859	2.6605566	1.6311213
16.47044999699522	2.6716063	1.6345049
16.488159554667558	2.7798476	1.6672875
16.505869508895184	2.8330495	1.6831665
16.523579860127786	2.8734834	1.6951352
16.541290608815117	2.9405348	1.7147988
16.559001755407035	3.007178	1.7341217
16.57671330035348	3.0915418	1.758278
16.59442524410448	3.1222844	1.7669986
16.61213758711015	3.1580942	1.7771027
16.629850329820705	3.2047386	1.7901784
16.647563472686436	3.320015	1.8220909
16.665277016157724	3.32885	1.8245137
16.682990960685053	3.352297	1.830928
16.70070530671898	3.4191644	1.8490983
16.718420054710155	3.4953403	1.8695829
16.736135205109335	3.5859344	1.8936564
16.753850758367335	3.6274762	1.9045935
16.771566714935087	3.709391	1.925978
16.789283075263597	3.7420247	1.9344313
16.80699983980398	3.8081896	1.9514583
16.82471700900741	3.864911	1.9659377
16.84243458332518	3.9199631	1.9798896
16.860152563208665	3.9608426	1.9901866
16.87787094910932	4.0443425	2.011055
16.89558974147871	4.109157	2.0271056
16.913308940768466	4.193995	2.0479245
16.931028547430333	4.229306	2.0565276
16.94874856191613	4.304382	2.0747004
16.966468984677785	4.354701	2.086792
16.98418981616729	4.405504	2.0989294
17.00191105683676	4.4339395	2.1056921
17.019632707138374	4.450655	2.1096575
17.03735476752442	4.508932	2.1234245
17.05507723844728	4.554802	2.1341982
17.072800120359403	4.5849547	2.1412508
17.090523413713353	4.598706	2.1444592
17.108247118961785	4.5728254	2.1384165
17.125971236557437	4.5949574	2.1435852
17.143695766953133	4.611443	2.147427
17.161420710601806	4.647987	2.155919
17.179146067956477	4.6556916	2.157705
17.19687183947025	4.6818023	2.1637473
17.21459802559634	4.708034	2.1698005
17.232324626788028	4.679001	2.1630998
17.25005164349871	4.660966	2.158927
17.267779076181863	4.6600246	2.158709
17.285506925291074	4.6573024	2.1580784
17.30323519127999	4.616431	2.1485882
17.320963874602384	4.5719223	2.1382053
17.33869297571211	4.5639396	2.136338
17.356422495063114	4.557202	2.1347604
17.37415243310944	4.529175	2.1281857
17.391882790305218	4.4626856	2.1125069
17.40961356710468	4.455623	2.1108346
17.42734476396215	4.474645	2.1153357
17.445076381332044	4.4845667	2.1176796
17.462808419668868	4.559041	2.1351912
17.48054087942723	4.697198	2.167302
17.498273761061835	4.982438	2.2321374
17.51600706502747	5.4350057	2.3313098
17.533740791779024	6.159807	2.481896
17.551474941771485	7.606817	2.758046
17.56920951545993	8.726362	2.9540417
17.586944513299528	10.9621	3.3109062
17.60467993574556	12.607728	3.5507362
17.622415783253373	14.22485	3.7715845
17.64015205627843	15.603824	3.9501677
17.657888755276293	16.72668	4.0898266
17.675625880702604	17.271538	4.155904
17.69336343301311	17.076721	4.132399
17.71110141266366	16.302505	4.0376363
17.728839820110178	15.251427	3.9053075
17.746578655808705	14.179966	3.7656295
17.764317920215372	12.697696	3.5633826
17.7820576137864	11.300474	3.3616178
17.79979773697811	9.376264	3.0620685
17.81753829024692	7.446747	2.7288728
17.835279274049356	5.787965	2.405819
17.85302068884201	4.876052	2.2081785
17.870762535081607	4.2686133	2.0660622
17.888504813224934	3.9542136	1.9885205
17.90624752372891	3.691889	1.9214289
17.923990667050536	3.5557427	1.8856677
17.941734243646895	3.4781685	1.8649849
17.959478253975185	3.4613261	1.860464
17.9772226984927	3.489818	1.8681055
17.994967577656833	3.4309175	1.8522736
18.01271289192506	3.397483	1.8432263
18.030458641754965	3.3560212	1.8319446
18.04820482760425	3.3660815	1.8346884
18.06595144993067	3.3381739	1.827067
18.083698509192125	3.288038	1.8132948
18.101446005846576	3.2770102	1.8102515
18.119193940352105	3.2913158	1.8141984
18.136942313166887	3.272907	1.8091178
18.1546911247492	3.2200656	1.7944541
18.1724403755574	3.199105	1.7886043
18.19019006604997	3.2031415	1.7897322
18.207940196685467	3.1916103	1.7865078
18.225690767922575	3.1306236	1.7693568
18.243441780220046	3.1158845	1.7651868
18.261193234036764	3.1400197	1.7720101
18.278945129831676	3.1276228	1.7685087
18.29669746806386	3.1072361	1.7627354
18.314450249192483	3.0621257	1.7498931
18.3322034736768	3.0384078	1.7431029
18.349957141976184	3.0328724	1.7415144
18.3677112545501	3.0576112	1.7486026
18.385465811858108	3.0580232	1.7487204
18.403220814359884	3.0403817	1.743669
18.420976262515172	3.042575	1.7442979
18.43873215678387	3.096074	1.7595664
18.456488497625923	3.1624553	1.7783294
18.474245285501407	3.2439573	1.801099
18.492002520870486	3.2986465	1.8162177
18.50976020419343	3.3448482	1.8288926
18.527518335930615	3.6477058	1.9098969
18.545276916542516	4.2808948	2.0690324
18.563035946489688	4.477972	2.116122
18.580795426232832	4.9876003	2.2332935
18.598555356232698	4.841621	2.2003684
18.616315736950185	5.122061	2.263197
18.63407656884626	4.7050977	2.1691236
18.65183785238201	4.930631	2.2205024
18.669599588018617	4.71719	2.1719093
18.68736177621737	4.7043185	2.1689441
18.705124417439652	4.6810155	2.1635654
18.72288751214696	4.4575477	2.1112905
18.740651060800886	4.620606	2.1495595
18.758415063863115	4.3437853	2.0841749
18.77617952179546	4.4882903	2.1185586
18.793944435059814	4.1948433	2.0481317
18.811709804118184	4.198595	2.0490475
18.829475629432675	4.2201977	2.054312
18.8472419114655	4.030944	2.007721
18.86500865067897	4.183031	2.045246
18.88277584753551	3.8484755	1.9617531
18.90054350249763	3.8562021	1.9637215
18.918311616027957	3.5030386	1.8716407
18.936080188589226	3.3751423	1.837156
18.953849220644265	3.045034	1.7450025
18.971618712656007	2.8337846	1.6833849
18.9893886650875	2.8032708	1.6742971
19.007159078401887	8.013849	2.8308742
19.024929953062408	32.94483	5.739759
19.042701289532435	32.87729	5.733872
19.060473088275405	25.409445	5.040778
19.07824534975489	2.6547153	1.6293297
19.096018074434568	2.584516	1.607643
19.113791262778197	2.5293252	1.5903852
19.13156491524966	2.523862	1.5886667
19.149339032312945	2.5455513	1.5954784
19.167113614432136	2.5584323	1.5995101
19.184888662071433	2.532863	1.5914971
19.202664175695123	2.5372875	1.5928866
19.220440155767623	2.5186186	1.5870156
19.238216602753447	2.5238507	1.5886632
19.2559935171172	2.5084214	1.5837997
19.27377089932361	2.522963	1.5883838
19.291548749837514	2.497953	1.5804913
19.309327069123835	2.4658551	1.5703042
19.32710585764763	2.4673328	1.5707746
19.344885115874032	2.5139697	1.5855503
19.362664844268313	2.574844	1.604632
19.380445043295822	2.5696452	1.6030113
19.39822571342203	2.5309167	1.5908855
19.41600685511252	2.5108194	1.5845566
19.43378846883297	2.485547	1.5765618
19.451570555049173	2.4803786	1.5749217
19.469353114227037	2.4754386	1.5733527
19.48713614683254	2.5286565	1.590175
19.50491965333182	2.5353394	1.5922749
19.52270363419109	2.519581	1.5873188
19.540488089876686	2.4994485	1.5809644
19.55827302085503	2.4579353	1.5677804
19.576058427592674	2.467046	1.5706832
19.593844310556282	2.4748704	1.5731721
19.611630670212598	2.4896464	1.5778613
19.629417507028506	2.46071	1.568665
19.64720482147098	2.459471	1.5682701
19.6649926140071	2.4836452	1.5759585
19.682780885104084	2.4672723	1.5707554
19.70056963522921	2.4341092	1.5601633
19.718358864849908	2.4144464	1.5538489
19.7361485744337	2.4709501	1.5719256
19.753938764448215	2.4994762	1.5809731
19.771729435361202	2.5211253	1.5878052
19.789520587640506	2.5265052	1.5894984
19.807312221754092	2.5622568	1.6007051
19.825104338170043	2.549906	1.5968425
19.842896937356517	2.5175164	1.5866684
19.860690019781824	2.4837265	1.5759842
19.87848358591436	2.4792714	1.5745702
19.896277636222635	2.470128	1.5716641
19.914072171175278	2.4675698	1.57085
19.931867191241015	2.4811451	1.5751652
19.94966269688869	2.5038924	1.5823692
19.967458688587264	2.493459	1.579069
19.985255166805807	2.4717767	1.5721885
20.00305213201348	2.4517353	1.5658017
20.020849584679578	2.4132094	1.5534508
20.038647525273507	2.4227834	1.5565293
20.05644595426477	2.4535668	1.5663866
20.07424487212299	2.5020552	1.5817885
20.092044279317903	2.5001495	1.581186
20.109844176319353	2.4362192	1.5608393
20.127644563597304	2.3710833	1.5398322
20.145445441621817	2.359693	1.5361292
20.16324681086307	2.397096	1.5482558
20.181048671791373	2.4324853	1.5596427
20.198851024877122	2.460927	1.5687342
20.216653870590836	2.4682999	1.5710824
20.234457209403146	2.4326832	1.5597061
20.252261041784802	2.3698459	1.5394304
20.270065368206662	2.3211858	1.5235438
20.287870189139685	2.3380747	1.5290765
20.305675505054968	2.33612	1.528437
20.323481316423702	2.3295953	1.5263011
20.341287623717207	2.3128753	1.5208141
20.359094427406884	2.3157663	1.5217642
20.376901727964288	2.3378217	1.5289937
20.39470952586107	2.3453166	1.5314426
20.41251782156899	2.334335	1.5278531
20.430326615559935	2.3384159	1.5291879
20.448135908305886	2.3457348	1.5315791
20.465945700278965	2.356859	1.5352064
20.483755991951384	2.3847048	1.5442489
20.50156678379548	2.4000716	1.5492165
20.519378076283708	2.3517036	1.5335265
20.537189869888635	2.3369796	1.5287184
20.55500216508294	2.368234	1.5389067
20.572814962339415	2.36325	1.5372865
20.59062826213098	2.330726	1.5266715
20.60844206493066	2.3252025	1.5248615
20.626256371211593	2.3120492	1.5205424
20.644071181447032	2.3203275	1.5232621
20.66188649611036	2.3195992	1.523023
20.67970231567506	2.3171902	1.5222319
20.697518640614742	2.3098378	1.5198151
20.715335471403122	2.303564	1.5177497
20.73315280851404	2.3086798	1.5194341
20.750970652421447	2.3116717	1.5204183
20.768789003599412	2.3307593	1.5266825
20.786607862522136	2.343773	1.5309385
20.8044272296639	2.3285923	1.5259726
20.82224710549913	2.2740123	1.5079829
20.84006749050237	2.268577	1.5061797
20.857888385148268	3.8571334	1.9639586
20.8757097899116	45.988197	6.78146
20.893531705267254	64.82822	8.051598
20.911354131690224	83.85225	9.157087
20.92917706965566	69.062614	8.310392
20.94700051963877	50.09365	7.077687
20.96482448211493	29.355501	5.4180717
20.982648957559622	4.0950136	2.023614
21.00047394644843	2.20728	1.4856918
21.01829944925707	2.1915317	1.4803823
21.036125466461375	2.1901624	1.4799198
21.053951998537297	2.1989634	1.4828902
21.071779045960906	2.2123756	1.4874057
21.089606609208378	2.2506588	1.5002196
21.10743468875603	2.3155165	1.5216821
21.12526328508028	2.313789	1.5211143
21.143092398657675	2.275832	1.508586
21.16092202996488	2.183858	1.4777882
21.17875217947867	2.1419451	1.4635385
21.19658284767596	2.1469567	1.4652497
21.21441403503377	2.177673	1.4756941
21.232245742029225	2.2367191	1.4955665
21.2500779691396	2.2314334	1.4937983
21.26791071684227	2.190678	1.4800938
21.28574398561475	2.1510682	1.466652
21.30357777593465	2.1435368	1.4640822
21.321412088279704	2.1424117	1.4636979
21.339246923127792	2.1510632	1.4666504
21.357082280956888	2.1906972	1.4801004
21.3749181622451	2.185575	1.478369
21.392754567470647	2.1356215	1.4613765
21.41059149711187	2.1125286	1.453454
21.42842895164726	2.149232	1.466026
21.446266931555378	2.1323707	1.460264
21.464105437314945	2.0874796	1.4448112
21.481944469404798	2.0612378	1.4357011
21.49978402830388	2.0740602	1.4401598
21.51762411449127	2.0655606	1.4372058
21.53546472844617	2.062081	1.4359949
21.553305870647876	2.064036	1.4366753
21.571147541575865	2.0698087	1.438683
21.58898974170967	2.0754712	1.4406495
21.60683247152899	2.0687141	1.4383025
21.62467573151363	2.075335	1.4406023
21.642519522143523	2.0561872	1.4339411
21.660363843898722	2.0748484	1.4404334
21.6782086972594	2.047842	1.4310284
21.696054082705864	2.0341835	1.4262481
21.713900000718535	2.02321	1.4223958
21.73174645177795	2.0316658	1.4253651
21.749593436364794	1.999408	1.4140042
21.767440954959845	1.9709142	1.4038925
21.785289008044032	1.9657491	1.4020518
21.803137596098388	1.9843404	1.4086661
21.820986719604086	2.0054407	1.4161358
21.838836379042412	2.010885	1.4180567
21.85668657489478	2.019513	1.4210956
21.87453730764273	2.036507	1.4270623
21.892388577767914	2.0293233	1.4245433
21.91024038575213	2.0174582	1.4203726
21.928092732077285	2.0188804	1.420873
21.945945617225426	2.0322735	1.4255784
21.963799041678694	2.025676	1.4232625
21.981653005919398	31.312073	5.5957193
21.999507510429943	78.14931	8.84021
22.01736255569286	73.103584	8.550063
22.035218142190818	4.2252064	2.0555308
22.05307427040661	2.0418196	1.4289225
22.07093094082315	2.020859	1.4215692
22.088788153923474	2.0031645	1.415332
22.106645910190746	2.0033782	1.4154074
22.12450421010827	2.0008466	1.4145129
22.142363054159464	1.9911013	1.4110639
22.16022244282787	1.9685459	1.4030488
22.178082376597164	1.9597545	1.3999124
22.195942855951145	1.9258848	1.3877625
22.213803881373742	1.9166834	1.3844434
22.231665453349002	1.9592829	1.3997439
22.24952757236111	1.969204	1.4032832
22.26739023889438	1.9314862	1.3897792
22.28525345343323	1.8987345	1.3779458
22.30311721646225	1.9412663	1.3932934
22.320981528466113	1.9568381	1.3988703
22.33884638992964	1.9837328	1.4084505
22.356711801337788	1.998891	1.4138215
22.37457776317561	2.0092025	1.4174634
22.392444275928337	1.9780258	1.4064231
22.410311340081282	1.9142647	1.3835696
22.428178956119904	1.9320478	1.3899813
22.446047124529805	1.928879	1.3888409
22.46391584579669	1.9486415	1.3959376
22.481785120406414	1.9391596	1.3925371
22.49965494884496	1.9322512	1.3900543
22.51752533159841	1.9062989	1.3806878
22.53539626915302	1.8955536	1.376791
22.553267761995137	1.9641422	1.4014785
22.571139810611264	2.0172591	1.4203025
22.589012415488025	2.0225558	1.4221659
22.60688557711216	1.9828428	1.4081345
22.624759295970566	1.9849503	1.4088826
22.642633572550263	1.9773656	1.4061884
22.660508407338362	1.9516438	1.3970125
22.67838380082217	1.9169064	1.3845239
22.696259753489077	1.8902445	1.3748616
22.714136265826614	1.8985459	1.3778774
22.73201333832246	1.9174519	1.3847208
22.74989097146439	1.929687	1.3891318
22.76776916574035	1.9534966	1.3976754
22.785647921638393	1.9506425	1.396654
22.803527239646712	1.939271	1.392577
22.82140712025363	1.925876	1.3877593
22.839287563947593	1.9200383	1.3856544
22.85716857121719	1.9325624	1.3901663
22.875050142551135	1.908904	1.3816309
22.892932278438277	1.956625	1.3987942
22.910814979367604	1.9590085	1.3996458
22.928698245828222	1.9524211	1.3972906
22.946582078309387	1.9271276	1.3882102
22.96446647730047	1.8978596	1.3776282
22.98235144329098	1.9142114	1.3835503
23.000236976770562	1.9176735	1.3848009
23.018123078229	1.93179	1.3898885
23.03600974815619	1.9025869	1.3793429
23.053896987042194	1.9063505	1.3807065
23.071784795377173	1.9231358	1.3867717
23.08967317365145	1.9097311	1.3819302
23.10756212235546	1.9014913	1.3789457
23.125451641979787	1.88461	1.372811
23.143341733015134	1.8699638	1.3674662
23.161232395952357	1.8979973	1.3776782
23.179123631282426	1.9101135	1.3820685
23.197015439496468	1.8974483	1.377479
23.214907821085717	1.9060068	1.3805821
23.23280077654157	1.9325316	1.3901552
23.250694306355538	1.964308	1.4015378
23.268588411019277	1.9450719	1.3946583
23.28648309102458	1.9413456	1.3933218
23.304378346863356	1.916813	1.3844901
23.322274179027676	1.9466742	1.3952327
23.340170588009723	1.9479097	1.3956753
23.358067574301852	1.979916	1.4070948
23.37596513839651	1.948092	1.3957406
23.39386328078629	1.9483519	1.3958337
23.411762001963947	1.9112825	1.3824915
23.429661302422353	1.9293101	1.3889961
23.4475611826545	1.9457786	1.3949116
23.46546164315356	1.9492881	1.3961691
23.48336268441279	1.9253806	1.3875809
23.501264306925638	1.9240224	1.3870914
23.51916651118564	1.9332359	1.3904085
23.537069297686497	1.8999834	1.3783989
23.554972666922037	1.8584213	1.3632393
23.57287661938623	1.8572373	1.362805
23.59078115557318	1.8920165	1.3755059
23.608686275977128	1.9165983	1.3844126
23.62659198109246	1.8842918	1.3726951
23.6444982714137	1.8936092	1.3760847
23.66240514743549	1.8981923	1.377749
23.68031260965263	1.9061311	1.380627
23.698220658560068	1.933197	1.3903946
23.716129294652845	1.9244947	1.3872616
23.7340385184262	1.8780857	1.3704327
23.75194833037546	1.8486433	1.3596482
23.769858730996123	1.8700936	1.3675137
23.78776972078382	1.8760364	1.3696848
23.80568130023431	1.8738701	1.3688937
23.823593469843495	1.8673103	1.3664956
23.841506230107424	1.8668284	1.3663193
23.859419581522275	1.9051696	1.3802788
23.87733352458438	1.9282683	1.388621
23.89524805979019	1.9191707	1.3853414
23.913163187636318	1.8835812	1.3724362
23.931078908619508	1.9091495	1.3817198
23.948995223236633	1.9331136	1.3903645
23.966912131984735	1.9782008	1.4064853
23.98482963536096	2.051658	1.432361
24.002747733862616	2.0977376	1.4483569
24.020666427987155	2.115031	1.4543146
24.038585718232156	2.0930128	1.4467249
24.056505605095353	2.0706804	1.438986
24.074426089074617	2.069043	1.4384168
24.092347170667946	2.0428762	1.4292922
24.110268850373515	2.0285046	1.4242558
24.128191128689586	2.04906	1.4314538
24.146114006114626	2.0467787	1.4306567
24.164037483147187	2.015226	1.4195865
24.181961560286005	2.0429926	1.429333
24.199886238029926	2.0731957	1.4398596
24.21781151687797	2.1379716	1.4621805
24.235737397329274	2.088233	1.4450719
24.253663879883135	1.9957343	1.4127046
24.271590965038975	1.9644951	1.4016044
24.289518653296376	2.0037074	1.4155238
24.30744694515505	2.0694568	1.4385607
24.32537584111486	2.0854466	1.4441075
24.34330534167581	2.1226742	1.45694
24.361235447338046	2.1101246	1.4526268
24.379166158601876	2.069573	1.438601
24.39709747596772	2.0391583	1.427991
24.41502939993615	2.0105505	1.4179388
24.432961931007917	2.0214088	1.4217626
24.450895069683856	2.021778	1.4218924
24.468828816465	1.987643	1.409838
24.4867631718525	1.9361515	1.3914566
24.504698136347656	1.9115738	1.3825967
24.52263371045192	1.8952452	1.3766791
24.540569894666874	1.917535	1.3847508
24.558506689494266	1.9429786	1.3939077
24.57644409543597	1.9362667	1.391498
24.594382112994012	1.9097451	1.3819352
24.61232074267057	1.8982688	1.3777767
24.630259984967953	1.9480901	1.39574
24.64819984038863	1.9835131	1.4083725
24.66614030943522	1.9830996	1.4082257
24.684081392610462	1.9777933	1.4063404
24.702023090417274	2.0065856	1.41654
24.7199654033587	1.9800485	1.4071419
24.737908331937927	2.0055022	1.4161576
24.755851876658305	2.0217907	1.4218969
24.773796038023324	2.0204282	1.4214177
24.79174081653661	2.035106	1.4265714
24.809686212701962	2.0421	1.4290206
24.827632227023294	2.0573719	1.4343542
24.8455788600047	2.0603306	1.4353852
24.8635261121504	2.1011827	1.4495457
24.88147398396475	2.1052306	1.4509413
24.899422475952303	2.0846786	1.4438416
24.917371588617698	2.0973601	1.4482266
24.935321322465768	2.1428983	1.4638642
24.953271678001478	2.289588	1.5131384
24.97122265572994	2.4828122	1.5756942
24.989174256156414	2.7934985	1.6713762
25.00712647978632	3.2404888	1.8001357
25.02507932712521	3.7724776	1.9422867
25.043032798678798	4.3255816	2.0798032
25.060986894952933	4.983807	2.2324443
25.078941616453637	5.663815	2.379877
25.096896963687055	6.5430894	2.5579462
25.114852937159508	7.6605415	2.7677684
25.132809537377444	8.186899	2.861276
25.150766764847468	8.24894	2.8720968
25.168724620076347	7.7317514	2.7806027
25.186683103570985	6.713114	2.5909677
25.204642215838426	5.4989543	2.344985
25.222601957385894	4.1959524	2.0484023
25.24056232872074	3.23173	1.7977014
25.25852333035048	2.6488388	1.6275253
25.276484962782778	2.2265651	1.492168
25.294447226525435	2.0419326	1.4289621
25.312410122086423	1.9529451	1.3974781
25.330373649973843	1.9096475	1.3819
25.348337810695988	1.8926132	1.3757228
25.366302604761245	1.8474151	1.3591965
25.384268032678207	1.8476114	1.3592687
25.40223409495558	1.864732	1.365552
25.420200792102257	1.9106132	1.3822494
25.438168124627246	1.9241543	1.3871388
25.45613609303974	1.9037288	1.3797568
25.474104697849057	1.872678	1.3684583
25.492073939564698	1.8510393	1.3605291
25.510043818696285	1.8643986	1.3654299
25.528014335753614	1.85522	1.3620646
25.54598549124664	1.8427823	1.3574911
25.56395728568544	1.8540888	1.3616493
25.58192971958028	1.8548964	1.3619459
25.59990279344156	1.8422107	1.3572806
25.617876507779833	1.8151437	1.3472726
25.635850863105826	1.8141695	1.3469111
25.653825859930386	1.8230513	1.3502042
25.671801498764548	1.8399371	1.3564428
25.68977778011949	1.8325734	1.3537258
25.707754704506524	1.8233242	1.3503052
25.725732272437153	1.822396	1.3499615
25.743710484423012	1.8168209	1.347895
25.761689340975888	1.842574	1.3574145
25.77966884260774	1.8600321	1.36383
25.797648989830662	1.8797153	1.3710271
25.815629783156922	1.8442212	1.358021
25.83361122309895	1.8010216	1.3420215
25.85159331016929	1.741052	1.3194894
25.869576044880695	1.7324617	1.31623
25.887559427746034	1.7989248	1.34124
25.90554345927836	1.8149316	1.347194
25.92352813999086	1.7860688	1.3364389
25.94151347039689	1.7687322	1.3299369
25.959499451009965	1.7754036	1.3324428
25.97748608234374	1.7770199	1.333049
25.995473364912062	1.7590802	1.3263032
26.013461299228904	1.7885123	1.3373528
26.03144988580839	1.8174841	1.348141
26.04943912516483	1.8157846	1.3475105
26.067429017812675	1.7868637	1.3367362
26.085419564266537	1.7890931	1.3375698
26.103410765041186	1.817796	1.3482567
26.12140262065155	1.863206	1.3649931
26.139395131612723	1.8593341	1.363574
26.157388298439948	1.8563689	1.3624862
26.17538212164861	1.852373	1.3610191
26.193376601754295	1.8036208	1.3429896
26.211371739272714	1.8036147	1.3429873
26.229367534719746	1.8253443	1.351053
26.247363988611433	1.8728497	1.368521
26.26536110146397	1.8870401	1.3736959
26.283358873793727	1.8382176	1.3558089
26.301357306117204	1.8323569	1.3536458
26.319356398951104	1.8024554	1.3425555
26.33735615281224	1.813552	1.3466818
26.35535656821762	1.795621	1.3400079
26.373357645684404	1.7913475	1.3384123
26.39135938572991	1.7907321	1.3381824
26.409361788871614	1.7928938	1.3389899
26.427364855627165	1.7964209	1.3403063
26.445368586514352	1.8053304	1.3436258
26.46337298205115	1.8239232	1.350527
26.48137804275568	1.7909443	1.3382617
26.499383769146217	1.8064992	1.3440608
26.517390161741215	1.8142111	1.3469266
26.53539722105928	1.8279743	1.352026
26.553404947619182	1.8755943	1.3695234
26.571413341939856	1.8577824	1.3630049
26.589422404540397	1.8394077	1.3562477
26.60743213594006	1.7890263	1.3375449
26.62544253665827	1.8180577	1.3483536
26.64345360721459	1.8121902	1.3461761
26.66146534812879	1.8224972	1.349999
26.679477759920758	1.8390115	1.3561016
26.69749084311057	1.8162587	1.3476864
26.71550459821847	1.8001505	1.3416969
26.733519025764842	1.7901084	1.3379494
26.751534126270258	1.7805654	1.3343782
26.769549900255434	1.7754449	1.3324583
26.787566348241267	1.7372956	1.3180652
26.80558347074881	1.7588267	1.3262076
26.823601268299267	1.8163712	1.3477281
26.841619741414036	1.8194648	1.3488754
26.85963889061465	1.7885426	1.3373641
26.877658716422832	1.7811873	1.3346113
26.89567921936045	1.7775835	1.3332604
26.913700399949544	1.7631203	1.3278254
26.93172225871233	1.775467	1.3324665
26.949744796171174	1.7966381	1.3403873
26.967768012848605	1.8159248	1.3475626
26.98579190926733	1.8312827	1.353249
27.003816485950225	1.8200071	1.3490764
27.021841743420318	1.8163692	1.3477274
27.039867682200814	1.8300201	1.3527824
27.057894302815072	1.8249438	1.3509048
27.07592160578664	1.8464396	1.3588376
27.0939495916392	1.8017169	1.3422805
27.111978260896635	1.819716	1.3489685
27.13000761408296	1.8150774	1.3472481
27.148037651722397	1.7999375	1.3416175
27.166068374339304	1.7750099	1.332295
27.184099782458215	1.8251278	1.3509729
27.20213187660384	1.8558515	1.3622965
27.22016465730105	1.8421555	1.3572602
27.23819812507487	1.8270838	1.3516966
27.256232280450533	1.8326328	1.3537477
27.274267123953383	1.8248011	1.350852
27.292302656108987	1.8392465	1.3561882
27.31033887744306	1.8345981	1.3544734
27.32837578848146	1.8830235	1.372233
27.34641338975026	1.8390893	1.3561302
27.364451681775673	1.7747157	1.3321846
27.382490665084074	1.796721	1.3404182
27.400530340202046	1.9053214	1.3803338
27.41857070765629	1.8870907	1.3737142
27.436611767973726	1.8160402	1.3476053
27.454653521681404	1.7552333	1.3248522
27.472695969306564	1.7313192	1.315796
27.490739111376627	1.7470955	1.3217773
27.508782948419153	1.819162	1.3487631
27.526827480961902	1.8048725	1.3434554
27.54487270953279	1.8014106	1.3421664
27.562918634659898	1.8143483	1.3469775
27.580965256871508	1.8567873	1.3626398
27.599012576696026	1.8424727	1.3573772
27.617060594662068	1.8820966	1.3718953
27.63510931129842	1.9291662	1.3889443
27.65315872713401	1.9044342	1.3800124
27.67120884269797	1.8680288	1.3667585
27.68925965851958	1.8750128	1.3693111
27.707311175128307	1.9270504	1.3881824
27.725363393053787	1.8982347	1.3777643
27.74341631282583	1.8184072	1.3484833
27.7614699349744	1.8025403	1.3425871
27.77952426002968	2.0182633	1.420656
27.797579288521973	2.1572704	1.4687649
27.815635020981784	2.646911	1.626933
27.83369145793979	2.6904793	1.6402681
27.85174859992682	2.471516	1.5721055
27.869806447473923	2.3231833	1.5241992
27.887865001112267	2.070696	1.4389913
27.905924261373233	1.9660597	1.4021626
27.92398422878836	1.925846	1.3877485
27.94204490388936	1.8830978	1.3722601
27.96010628720813	1.8747272	1.3692068
27.978168379276728	1.8522829	1.360986
27.9962311806274	1.8467275	1.3589435
28.014294691792568	1.8626112	1.3647752
28.0323589133048	1.8819216	1.3718315
28.050423845696887	1.8751106	1.3693467
28.068489489501758	1.8774742	1.3702096
28.086555845252523	1.9460808	1.39502
28.104622913482487	1.9272684	1.388261
28.122690694725115	1.9163303	1.3843158
28.14075918951405	1.9184996	1.3850992
28.15882839838312	1.935462	1.3912088
28.176898321866304	1.9984863	1.4136783
28.1949689604978	1.9413435	1.393321
28.213040314811945	1.8777272	1.3703018
28.23111238534327	1.9036694	1.3797352
28.249185172626493	1.964786	1.4017082
28.267258677196473	1.966571	1.4023448
28.285332899588294	1.9594277	1.3997957
28.303407840337172	1.9510686	1.3968066
28.321483499978545	1.8938544	1.3761739
28.33955987904799	1.8630763	1.3649455
28.357636978081285	1.8942462	1.3763162
28.37571479761439	1.9327033	1.390217
28.393793338183425	1.9121655	1.3828107
28.41187260032469	1.9123869	1.3828908
28.429952584574686	1.9259408	1.3877827
28.448033291470065	1.9505837	1.396633
28.46611472154769	1.9512044	1.3968552
28.484196875344566	1.9228249	1.3866596
28.502279753397914	1.9010191	1.3787745
28.52036335624511	1.9268594	1.3881136
28.538447684423716	1.9227458	1.3866311
28.556532738471482	1.9016199	1.3789923
28.574618518926325	1.9266995	1.388056
28.59270502632635	1.9444203	1.3944247
28.61079226120985	1.9776727	1.4062976
28.628880224115274	1.9793444	1.4068917
28.646968915581287	2.0527985	1.432759
28.66505833614671	2.0869393	1.4446243
28.68314848635055	2.0961719	1.4478163
28.701239366732004	2.135547	1.461351
28.71933097783044	2.095196	1.4474792
28.737423320185403	2.0902357	1.4457648
28.75551639433665	2.1283257	1.4588783
28.773610200824074	2.1671665	1.47213
28.791704740187793	2.2005801	1.4834353
28.80980001296809	2.1708152	1.4733686
28.827896019705413	2.1116238	1.4531428
28.845992760940433	2.0781906	1.441593
28.86409023721397	2.1067104	1.4514512
28.88218844906704	2.1758988	1.4750928
28.900287397040845	2.2222612	1.490725
28.918387081676755	2.2040343	1.484599
28.936487503516343	2.1963239	1.482
28.954588663101365	2.2406929	1.4968944
28.97269056097374	2.2748046	1.5082456
28.990793197675597	2.264746	1.5049073
29.00889657374923	2.2673786	1.5057818
29.027000689737125	2.3216896	1.5237092
29.04510554618196	2.366269	1.5382682
29.06321114362659	2.420667	1.5558493
29.08131748261405	2.474541	1.5730674
29.099424563687567	2.5139258	1.5855365
29.11753238739057	2.5157223	1.5861028
29.13564095426663	2.4887502	1.5775774
29.15375026485954	2.6267846	1.6207358
29.171860319713275	2.6885135	1.6396687
29.18997111937199	2.6687257	1.6336235
29.20808266438002	2.6758683	1.6358081
29.226194955281898	2.733761	1.6534089
29.244307992622335	2.7538342	1.659468
29.26242177694624	2.8283858	1.6817806
29.2805363087987	2.8777015	1.696379
29.29865158872498	2.9183466	1.7083169
29.316767617270557	2.9281075	1.7111714
29.334884394981064	2.9590447	1.7201874
29.353001922402367	2.9921956	1.7297964
29.37112020008047	3.078895	1.754678
29.389239228561596	3.1935759	1.7870579
29.407359008392152	3.387437	1.8404992
29.42547954011872	3.735909	1.93285
29.44360082428809	4.297201	2.0729692
29.46172286144722	5.2850375	2.2989209
29.479845652143283	6.9044085	2.627624
29.497969196923606	8.951931	2.9919777
29.516093496335728	11.390122	3.3749256
29.5342185509274	14.221205	3.7711012
29.55234436124651	16.559637	4.0693536
29.570470927841175	17.922956	4.2335515
29.588598251259686	17.78279	4.2169642
29.60672633205055	16.44793	4.0556045
29.624855170762405	14.311856	3.7831013
29.642984767944146	11.52322	3.3945868
29.66111512414481	8.727343	2.9542077
29.67924623991366	6.483046	2.5461826
29.697378115800138	5.0012784	2.2363539
29.71551075235387	4.1025577	2.0254772
29.733644150124675	3.7273827	1.9306431
29.751778309662576	3.507365	1.872796
29.769913231517766	3.4126792	1.8473438
29.78804891624066	3.4393659	1.8545527
29.806185364381818	3.3724163	1.836414
29.82432257649206	3.3310306	1.8251112
29.842460553122333	3.4043546	1.8450893
29.86059929482382	3.4348524	1.8533355
29.878738802147872	3.3508224	1.8305252
29.896879075646048	3.2077007	1.7910055
29.915020115870114	3.2241282	1.7955858
29.933161923371976	3.2603352	1.8056399
29.951304498703777	3.241301	1.8003614
29.969447842417857	3.241235	1.800343
29.987591955066733	3.2255073	1.7959697
30.005736837203123	3.1884534	1.7856241
30.023882489379943	3.1687868	1.7801087
30.04202891215028	3.1713998	1.7808424
30.060176106067455	3.2127492	1.7924143
30.078324071684946	3.2023318	1.789506
30.09647280955646	3.084114	1.7561646
30.114622320235863	3.022449	1.7385192
30.132772604277257	3.0423698	1.7442391
30.1509236622349	3.0280879	1.7401402
30.16907549466328	3.070002	1.7521422
30.18722810211705	3.0873418	1.7570833
30.205381485151097	3.1255252	1.7679155
30.22353564432045	3.1182694	1.7658622
30.241690580180403	3.048483	1.7459905
30.25984629328638	2.9769955	1.7253972
30.278002784194037	2.9570684	1.7196128
30.296160053459246	2.9750245	1.724826
30.314318101638033	3.0040247	1.7332122
30.332476929286646	2.9949174	1.730583
30.35063653696153	2.949608	1.7174423
30.368796925219307	2.914144	1.7070864
30.386958094616844	2.9186058	1.7083927
30.40512004571115	2.8761468	1.6959206
30.423282779059463	2.8859015	1.6987941
30.441446295219233	2.9209294	1.7090727
30.459610594748067	2.8791745	1.696813
30.47777567820382	2.8306925	1.6824661
30.495941546144504	2.7914803	1.6707723
30.51410819912835	2.7910178	1.6706339
30.532275637713795	2.8481994	1.6876609
30.55044386245946	2.8814054	1.6974703
30.56861287392416	2.8185067	1.6788409
30.586782672666956	2.794867	1.6717856
30.604953259247047	2.770374	1.6644441
30.623124634223885	2.824608	1.680657
30.641296798157075	2.7969868	1.6724194
30.659469751606462	2.7260032	1.6510612
30.677643495132074	2.6982443	1.6426333
30.695818029294152	2.7109017	1.6464816
30.713993354653116	2.705162	1.6447377
30.73216947176962	2.648204	1.6273303
30.75034638120448	2.6651306	1.6325228
30.768524083518756	2.6972113	1.6423188
30.786702579273673	2.6921606	1.6407804
30.80488186903069	2.7416685	1.6557984
30.82306195335144	2.8897223	1.6999184
30.841242832797782	3.1692145	1.7802287
30.85942450793176	3.437164	1.8539591
30.877606979315637	3.682773	1.9190552
30.895790247511883	4.0261326	2.0065224
30.913974313083134	4.4647245	2.1129894
30.932159176592283	4.7419796	2.1776087
30.95034483860237	4.750971	2.1796722
30.968531299676698	4.6466417	2.155607
30.98671856037873	4.408457	2.0996325
31.00490662127215	3.9929028	1.9982249
31.023095482920848	3.5075376	1.8728421
31.04128514588892	3.1198432	1.7663078
31.059475610740662	2.858878	1.6908216
31.07766687804056	2.672556	1.6347954
31.09585894835335	2.4808238	1.5750631
31.11405182224393	2.4713748	1.5720607
31.132245500277417	2.5313325	1.5910162
31.15043998301914	2.5771794	1.6053596
31.168635271034628	2.474263	1.572979
31.18683136488964	2.4041286	1.5505253
31.20502826515008	2.3789213	1.5423752
31.223225972382135	2.4438708	1.5632885
31.241424487152155	2.456912	1.567454
31.259623810026692	2.370682	1.5397019
31.27782394157253	2.3371217	1.5287647
31.296024882356644	2.3951342	1.5476221
31.314226632946237	2.4690573	1.5713234
31.332429193908684	2.4327347	1.5597227
31.350632565811598	2.4428144	1.5629505
31.368836749222787	2.4696887	1.5715243
31.387041744710295	2.49048	1.5781255
31.40524755284232	2.5525177	1.5976601
31.423454174187317	2.6182334	1.6180956
31.441661609313922	2.571222	1.6035031
31.459869858791002	2.4162946	1.5544435
31.478078923187628	2.3760033	1.5414289
31.496288803073064	2.3524158	1.5337588
31.514499499016807	2.3391447	1.5294262
31.532711011588546	2.3343558	1.5278599
31.550923341358178	2.2875967	1.5124803
31.56913648889584	2.307041	1.5188947
31.587350454771844	2.41112	1.5527781
31.605565239556732	2.4722185	1.572329
31.62378084382127	2.4101448	1.5524641
31.641997268136382	2.4071922	1.5515128
31.660214513073274	2.4010282	1.5495251
31.67843257920331	2.3531208	1.5339885
31.6966514670981	2.2797425	1.5098816
31.71487117732944	2.2879899	1.5126103
31.733091710469346	2.2776713	1.5091956
31.751313067090052	2.3185833	1.5226895
31.769535247764008	2.300531	1.5167501
31.787758253063878	2.3575354	1.5354267
31.805982083562526	2.3950152	1.5475837
31.824206739833024	2.4055617	1.5509874
31.84243222244869	2.3753667	1.5412225
31.860658531983013	2.3824818	1.543529
31.878885669009737	2.3974435	1.548368
31.897113634102784	2.2712495	1.5070665
31.91534242783632	2.2047532	1.4848411
31.933572050784694	2.1768987	1.4754317
31.951802503522508	2.1524656	1.4671284
31.970033786624548	2.1958508	1.4818404
31.988265900665834	2.1359138	1.4614766
32.006498846221575	2.0918176	1.4463117
32.02473262386724	2.1147413	1.454215
32.04296723417845	2.1708925	1.4733949
32.0612026777311	2.210128	1.48665
32.07943895510129	2.21755	1.4891441
32.097676066865304	2.2727635	1.5075687
32.115914013599685	2.3321166	1.5271269
32.13415279588115	2.2793436	1.5097495
32.152392414286666	2.1596413	1.4695718
32.1706328693934	2.1063108	1.4513135
32.18887416177875	2.0770686	1.4412038
32.20711629202032	2.0382812	1.4276838
32.225359260695924	2.0373154	1.4273455
32.243603068383614	2.0718682	1.4393985
32.26184771566166	2.0702436	1.4388341
32.28009320310852	2.010379	1.4178784
32.2983395313029	2.0726845	1.4396821
32.31658670082372	2.1311371	1.4598415
32.33483471225012	2.241346	1.4971125
32.35308356616143	2.2003765	1.4833666
32.371333263137245	2.1468155	1.4652015
32.38958380375734	2.098085	1.4484768
32.407835188601744	2.143672	1.4641284
32.42608741825067	2.1510162	1.4666343
32.444340493284585	2.1575663	1.4688656
32.46259441428416	2.133282	1.4605759
32.48084918183028	2.0650618	1.4370323
32.49910479650405	2.0506673	1.4320151
32.51736125888683	2.097787	1.4483739
32.53561856956014	2.0776114	1.4413922
32.5538767291058	2.0445225	1.429868
32.572135738105764	2.040332	1.428402
32.59039559714228	2.0505178	1.431963
32.608656306797776	2.0511882	1.432197
32.62691786765491	2.0398808	1.428244
32.645180280296586	2.018074	1.4205893
32.663443545305896	1.9876884	1.409854
32.68170766326619	1.9533484	1.3976225
32.69997263476099	1.9164945	1.3843751
32.7182384603741	1.9471159	1.395391
32.7365051406895	1.9642534	1.4015182
32.75477267629144	1.9499698	1.3964132
32.77304106776434	1.9711473	1.4039755
32.79131031569289	2.0276058	1.4239402
32.809580420661966	2.041551	1.4288286
32.827851383256714	2.0162776	1.4199569
32.84612320406245	1.9440714	1.3942996
32.86439588366476	1.9091843	1.3817323
32.88266942264945	1.8450495	1.358326
32.9009438216025	1.8588854	1.3634095
32.9192190811102	1.7984887	1.3410774
32.937495201758985	1.8671707	1.3664446
32.95577218413556	1.9768428	1.4060024
32.974050028826866	2.0225003	1.4221463
32.992328736420035	1.9688721	1.403165
33.010608307502444	1.9262526	1.387895
33.02888874266169	1.8859222	1.3732889
33.047170042485604	1.8029908	1.342755
33.06545220756225	1.8143036	1.3469609
33.083735238479896	1.9383196	1.3922354
33.10201913582707	1.9743713	1.4051232
33.12030390019248	1.988674	1.4102036
33.138589532165135	1.963619	1.4012918
33.15687603233419	1.8379384	1.3557059
33.17516340128909	1.7214335	1.3120341
33.19345163961947	1.7402661	1.3191915
33.211740747915215	1.8310599	1.3531666
33.23003072676643	1.9487587	1.3959795
33.248321576763466	1.9084457	1.3814651
33.266613298496885	1.8211985	1.3495178
33.28490589255747	1.849406	1.3599287
33.30319935953626	1.9456319	1.3948591
33.32149370002451	1.9978837	1.4134651
33.339788914613706	1.9169184	1.3845283
33.358085003895575	1.872685	1.3684608
33.376381968462034	1.9575293	1.3991174
33.39467980890529	2.1280847	1.4587957
33.41297852581774	2.1031182	1.4502132
33.43127811979204	1.9482763	1.3958067
33.44957859142105	1.8673382	1.3665059
33.467879941297866	1.8650286	1.3656605
33.486182170015844	1.9063133	1.3806931
33.50448527816853	1.8677143	1.3666434
33.522789266349754	1.8070865	1.3442792
33.541094135153514	1.881792	1.3717842
33.55939988517411	1.965048	1.4018017
33.57770651700602	1.9327902	1.3902482
33.59601403124398	1.9649378	1.4017624
33.61432242848296	2.0924592	1.4465336
33.632631709318154	2.0564573	1.4340353
33.650941874344994	1.9726878	1.4045241
33.66925292415916	1.9480274	1.3957175
33.68756485935654	1.8866886	1.3735678
33.70587768053328	1.7953898	1.3399216
33.724191388285746	1.7662289	1.3289955
33.74250598321054	1.8643595	1.3654155
33.760821465904506	1.8243911	1.3507003
33.77913783696474	1.8157128	1.3474839
33.79745509698852	1.9184246	1.3850721
33.815773246573414	1.9808543	1.4074283
33.8340922863172	1.9582274	1.3993667
33.852412216817896	1.9263431	1.3879277
33.87073303867377	1.90881	1.3815969
33.889054752483304	1.8664782	1.3661911
33.907377358845245	1.9291528	1.3889395
33.92570085835853	1.989093	1.4103521
33.94402525162239	1.8757497	1.3695801
33.96235053923627	1.813418	1.3466321
33.980676721799824	1.8348732	1.3545749
33.999003799912984	1.9639785	1.4014202
34.01733177417592	1.9926587	1.4116156
34.03566064518901	2.001713	1.4148191
34.0539904135529	1.8717467	1.3681179
34.07232107986846	1.7410969	1.3195063
34.090652644736785	1.8104197	1.3455184
34.108985108759235	1.8037914	1.343053
34.12731847253742	1.8081715	1.3446827
34.14565273667313	1.7729257	1.3315126
34.16398790176847	1.7471607	1.321802
34.18232396842574	1.7499901	1.3228719
34.20066093724749	1.8220954	1.3498502
34.21899880883651	1.9241549	1.3871391
34.23733758379583	1.9391925	1.3925489
34.25567726272874	1.8618647	1.3645016
34.27401784623872	1.8076135	1.3444752
34.29235933492957	1.821691	1.3497003
34.31070172940526	1.8951032	1.3766274
34.32904503027003	1.8504785	1.360323
34.347389238128386	1.8890162	1.3744148
34.36573435358502	2.00301	1.4152774
34.38408037724492	1.9511161	1.3968235
34.402427309713296	1.8361396	1.3550422
34.42077515159559	1.7914253	1.3384414
34.43912390349752	1.8371441	1.355413
34.45747356602499	1.9357295	1.391305
34.47582413978423	1.9696281	1.4034344
34.49417562538163	1.9359809	1.3913953
34.51252802342388	1.9306387	1.3894743
34.53088133451789	1.9811791	1.4075437
34.54923555927084	1.9327991	1.3902514
34.567590698290104	1.8728874	1.3685348
34.58594675218336	1.9371223	1.3918054
34.6043037215585	1.8557051	1.3622427
34.62266160702365	1.811462	1.3459057
34.641020409187234	1.918165	1.3849783
34.65938012865785	1.9912598	1.41112
34.677740766044394	1.8252677	1.3510246
34.69610232195598	1.8538824	1.3615735
34.714464797002016	2.0954065	1.447552
34.73282819179208	2.1372795	1.4619437
34.751192506936064	2.0388572	1.4278855
34.76955774304408	1.8345289	1.3544478
34.7879239007265	1.8232312	1.3502707
34.80629098059391	1.9136674	1.3833537
34.824658983257194	2.1192136	1.4557519
34.843027909327446	2.1540987	1.4676849
34.86139775941603	2.029876	1.4247372
34.879768534134534	2.1739376	1.4744278
34.89814023409483	2.236116	1.4953648
34.91651285990901	2.193495	1.4810452
34.93488641218944	1.9278713	1.388478
34.95326089154871	1.7720314	1.3311768
34.97163629859967	1.8702127	1.3675572
34.99001263395542	1.8987769	1.3779612
35.00838989822934	1.7812226	1.3346245
35.02676809203499	1.941662	1.3934354
35.04514721598624	2.19143	1.480348
35.063527270697215	2.098087	1.4484775
35.081908256782256	2.0051734	1.4160415
35.10029017485597	1.9891697	1.4103793
35.11867302553321	2.0001733	1.4142748
35.137056809429104	1.8510444	1.360531
35.155441527159006	1.6398021	1.2805476
35.173827179338524	1.5092689	1.228523
35.19221376658354	1.771937	1.3311412
35.21060128951017	2.0884519	1.4451478
35.2289897487348	2.3364272	1.5285376
35.24737914487405	2.165504	1.4715651
35.26576947854479	1.9667766	1.4024181
35.28416075036418	1.9392418	1.3925666
35.30255296094958	1.9418602	1.3935064
35.32094611091867	1.6062891	1.2673947
35.33934020088932	1.649193	1.2842091
35.35773523147969	1.9430888	1.3939472
35.3761312033082	2.2359178	1.4952986
35.394528116993506	2.3960772	1.5479268
35.41292597315452	2.5047615	1.5826439
35.431324772410434	2.0249975	1.423024
35.449724515380666	1.8323576	1.353646
35.46812520268491	2.0841541	1.44366
35.486526834943106	2.4158163	1.5542897
35.504929412775454	2.1504018	1.4664248
35.52333293680242	1.7456397	1.3212266
35.54173740764471	2.0340714	1.4262087
35.560142825923286	2.2424505	1.4974813
35.5785491922594	2.366027	1.5381895
35.59695650727454	2.4586263	1.5680007
35.61536477159042	2.4091039	1.5521288
