0.008763373481513119	0.051685803	0.22734512
0.026290120649546365	0.46851614	0.6844824
0.043816868432600686	0.49676803	0.7048177
0.06134361724069026	0.4224729	0.6499792
0.07887036748382949	0.26682377	0.5165499
0.0963971195720331	0.110317335	0.33214054
0.11392387391531617	0.16887867	0.41094851
0.1314506309236943	0.16993779	0.4122351
0.1489773910071836	0.19758186	0.44450182
0.16650415457580078	0.13351995	0.3654038
0.18403092203956356	0.124359526	0.35264647
0.20155769380849	0.06995039	0.26448137
0.2190844702925996	0.0902857	0.3004758
0.2366112519019124	0.084102385	0.2900041
0.2541380390464497	0.1530667	0.39123738
0.27166483213623416	0.21025719	0.4585381
0.28919163158128947	0.17639036	0.41998854
0.3067184377916406	0.15623528	0.3952661
0.324245251177314	0.1738017	0.41689533
0.34177207214833777	0.18619072	0.43149823
0.3592989011147415	0.2220355	0.47120643
0.37682573848655654	0.21247986	0.46095538
0.39435258467381573	0.18348703	0.42835385
0.41187944008655414	0.122101456	0.34943017
0.42940630513480854	0.101947844	0.31929272
0.446933180228618	0.078689605	0.28051668
0.4644600657780234	0.12809505	0.3579037
0.48198696219306775	0.1622826	0.40284315
0.49951386988379676	0.19171704	0.43785504
0.5170407892602581	0.18596219	0.43123332
0.5345677207325025	0.1399504	0.37409943
0.5520946647105822	0.13316658	0.36491996
0.5696216216045534	0.09963232	0.31564587
0.5871485918244737	0.12122586	0.34817505
0.6046755757804043	0.12793452	0.35767934
0.6222025738824094	0.13802728	0.37152022
0.6397295865405557	0.13748428	0.37078872
0.6572566141649129	0.13182662	0.36307937
0.6747836571655547	0.12525903	0.3539195
0.6923107159525568	0.123493925	0.35141703
0.7098377909359992	0.10540781	0.3246657
0.7273648825259653	0.12948066	0.35983422
0.7448919911325411	0.14728712	0.38378003
0.762419117165817	0.15331991	0.39156085
0.7799462610358868	0.15359716	0.39191473
0.7974734231528482	0.16496384	0.4061574
0.8150006039268024	0.16773596	0.40955582
0.8325278037678551	0.17101954	0.4135451
0.8500550230861152	0.17973286	0.42394912
0.8675822622916969	0.22602655	0.4754225
0.8851095217947171	0.23826699	0.488126
0.9026368020052984	0.23235762	0.48203486
0.9201641033335665	0.19055931	0.436531
0.9376914261896523	0.21851811	0.4674592
0.9552187709836915	0.24890262	0.49890143
0.9727461381258234	0.26713097	0.51684713
0.990273528026193	0.20603862	0.45391476
1.0078009410949496	0.179777	0.4240012
1.0253283777422473	0.21123008	0.45959774
1.0428558383782454	0.259329	0.50924355
1.0603833234131086	0.25977898	0.50968516
1.0779108332570058	0.31770912	0.5636569
1.0954383683201119	0.33304963	0.5771045
1.112965929012607	0.3986911	0.6314199
1.1304935157446763	0.524563	0.72426724
1.1480211289265108	0.5356001	0.73184705
1.1655487689683062	1.3870916	1.1777486
1.1830764362802655	1.6942005	1.3016145
1.200604131272596	2.077113	1.4412192
1.2181318543555117	2.3352873	1.5281647
1.235659605939232	2.3739064	1.5407486
1.253187386433982	3.9662688	1.9915494
1.270715196249994	6.40019	2.5298595
1.2882430357975057	11.756865	3.4288285
1.3057709054867608	16.49763	4.0617275
1.3232988057280106	22.29502	4.7217603
1.3408267369315112	26.921478	5.188591
1.358354699507526	30.2502	5.500018
1.3758826938663256	34.21845	5.8496537
1.3934107204181858	36.219746	6.0182843
1.410938779573391	36.94024	6.0778484
1.4284668717422309	37.471264	6.1213775
1.4459949973350033	36.611546	6.0507474
1.4635231567620117	36.409264	6.034009
1.4810513504335687	35.81202	5.9843144
1.4985795787599925	35.263073	5.938272
1.5161078421516088	34.877617	5.9057274
1.5336361410187505	33.969852	5.8283663
1.5511644757717598	34.087902	5.838485
1.5686928468209842	34.80221	5.89934
1.58622125457678	35.576183	5.964577
1.6037496994495108	36.46341	6.038494
1.621278181849548	35.973564	5.9977965
1.6388067021872719	36.767735	6.0636406
1.6563352608730693	36.50693	6.0420966
1.673863858317336	36.211124	6.017568
1.6913924949304753	35.715794	5.9762692
1.7089211711228998	34.602386	5.8823795
1.7264498873050296	33.698647	5.8050537
1.7439786438872935	32.478153	5.698961
1.7615074412801288	31.644417	5.625337
1.779036279893981	31.101877	5.5769057
1.796565160139305	30.442234	5.517448
1.814094082426564	29.592165	5.439868
1.8316230471662298	28.50622	5.339122
1.849152054768784	27.695724	5.262673
1.8666811056447168	26.920979	5.188543
1.8842102002045273	26.15839	5.114527
1.901739338858724	25.687162	5.0682507
1.9192685220178245	25.449959	5.044795
1.9367977500923557	24.801102	4.9800706
1.9543270234928547	24.3995	4.939585
1.971856342629867	23.977774	4.8967104
1.9893857079139496	23.356348	4.8328404
2.006915119755667	22.572538	4.7510567
2.0244445785655945	21.62698	4.6504817
2.0419740847543175	21.220558	4.606578
2.0595036387324317	20.874302	4.5688405
2.0770332409105414	20.755857	4.5558596
2.094562891699263	20.606825	4.539474
2.1120925915092217	20.166506	4.490713
2.129622340751053	19.811436	4.451004
2.1471521398354043	187.73373	13.701596
2.1646819891729323	443.93942	21.06987
2.182211889174303	440.03424	20.976994
2.1997418402501974	452.2446	21.266043
2.2172718428113023	432.1674	20.788635
2.234801897268317	320.43335	17.900652
2.2523320040319548	17.003036	4.1234736
2.269862163512935	16.601208	4.074458
2.287392376121992	16.158257	4.0197334
2.304922642269869	15.587257	3.94807
2.322452962367322	15.219816	3.9012582
2.3399833368251164	14.9646845	3.8684216
2.357513766054032	14.796684	3.8466458
2.3750442504648586	14.618241	3.823381
2.3925747904683963	14.503848	3.8083918
2.410105386475459	14.376984	3.7916994
2.4276360388968707	14.089973	3.7536614
2.445166748143469	13.90817	3.7293658
2.4626975146261025	13.389311	3.6591408
2.4802283387556323	13.200912	3.633306
2.4977592209429305	13.097633	3.6190653
2.5152901615988825	12.969576	3.6013298
2.5328211611343865	12.800975	3.577845
2.5503522199603523	12.580824	3.5469458
2.5678833384877024	12.358716	3.5154965
2.5854145171273712	12.093553	3.4775786
2.6029457562903064	11.972347	3.460108
2.620477056387469	12.018543	3.466777
2.6380084178298326	11.846418	3.4418626
2.655539841028383	11.556613	3.3995018
2.673071326394119	11.105493	3.3324904
2.6906028743380523	10.863651	3.2960052
2.708134485271211	10.656263	3.2643933
2.7256661596046325	10.595602	3.2550886
2.743197897749369	10.507387	3.24151
2.760729700116486	10.421511	3.2282364
2.778261567117063	10.185344	3.1914485
2.795793499162193	10.03756	3.168211
2.8133254966629817	9.806358	3.1315105
2.830857560030551	9.619171	3.1014788
2.8483896896760337	9.548218	3.090019
2.865921886010578	9.609705	3.0999525
2.883454149445347	9.625756	3.1025403
2.9009864803915177	9.382659	3.0631127
2.91851887926028	9.0330715	3.0055068
2.9360513464628384	8.812917	2.9686558
2.953583882410413	8.728483	2.9544005
2.9711164875142373	8.708116	2.9509516
2.9886491621855606	8.641847	2.9397018
3.0061819068356455	8.545926	2.9233415
3.023714721875769	8.354749	2.890458
3.041247607717225	8.214563	2.866106
3.0587805647713213	8.109131	2.8476536
3.0763135934493806	8.14961	2.854752
3.0938466941627407	8.054643	2.8380702
3.1113798673227544	8.08863	2.8440516
3.1289131133407904	7.9128127	2.8129723
3.1464464326282315	7.6929207	2.7736115
3.1639798255964786	7.5973883	2.756336
3.1815132926569443	7.415725	2.723183
3.1990468342210603	7.404001	2.7210295
3.216580450700272	7.3718495	2.715115
3.2341141425060416	7.322746	2.7060573
3.251647910049847	7.192048	2.6817994
3.2691817537431813	6.9468827	2.635694
3.286715673997555	6.8005776	2.6077917
3.3042496712244938	6.7941074	2.606551
3.32178374583554	6.7402525	2.5961995
3.339317898242251	6.6546063	2.5796523
3.3568521288562034	6.7221684	2.5927145
3.3743864380889876	6.6845026	2.5854404
3.3919208263522127	6.616245	2.5722063
3.4094552940575023	6.4508243	2.5398474
3.4269898416164972	6.401876	2.5301929
3.444524469440858	6.3519926	2.520316
3.4620591779422587	6.3993697	2.5296977
3.479593967532391	6.4053483	2.530879
3.4971288386229658	6.4465957	2.5390148
3.5146637916257086	6.3760557	2.5250852
3.5321988269523628	6.3397574	2.5178876
3.5497339450146903	6.3642926	2.522755
3.5672691462244708	6.450804	2.5398433
3.5848044309934988	6.4125066	2.5322928
3.60233979973359	6.2725477	2.5045054
3.619875252856575	6.116923	2.4732413
3.6374107907743034	6.1804547	2.486052
3.6549464138986427	6.263885	2.5027754
3.6724821226414788	6.263943	2.502787
3.690017917414714	6.164694	2.48288
3.7075537986302702	6.1655083	2.4830441
3.7250897667000857	6.2370286	2.4974043
3.7426258220361235	6.492267	2.5479927
3.7601619650503553	6.810062	2.6096096
3.777698196154779	7.27712	2.6976137
3.7952345157614067	8.162628	2.8570313
3.8127709242822716	8.823343	2.9704113
3.830307422129425	10.822408	3.2897427
3.847844009714936	29.685143	5.448407
3.8653806874508954	97.287155	9.863425
3.882917455749409	96.61686	9.829388
3.900454315022606	96.48308	9.82258
3.917991265682631	41.19586	6.4184003
3.9355283081416506	10.920029	3.3045466
3.9530654428118495	8.801535	2.966738
3.970602670105433	7.488477	2.7365081
3.9881399904346244	6.4500985	2.5397043
4.005677404211669	6.340974	2.518129
4.023214911848827	6.3088627	2.511745
4.0407525137583855	6.3391113	2.517759
4.058290210352644	6.3213196	2.5142233
4.075828002043927	6.302686	2.5105152
4.0933658892445814	6.3234367	2.5146444
4.110903872366966	6.2723455	2.504465
4.128441951823468	6.1840463	2.4867742
4.145980128026488	6.0840325	2.4665833
4.163518401388452	6.029842	2.4555736
4.181056772321807	6.0181437	2.4531906
4.1985952412390155	6.0272493	2.4550457
4.216133808552567	6.034657	2.456554
4.233672474674966	6.0980015	2.4694133
4.251211240018741	6.333793	2.516703
4.268750104996445	6.56085	2.5614157
4.286289070020643	7.537064	2.7453713
4.303828135503928	9.233255	3.0386271
4.3213673018589125	29.498951	5.4312935
4.3389065694982305	90.59592	9.518188
4.356445938834537	165.6886	12.872008
4.3739854102805085	171.48668	13.095292
4.391524984248844	172.39357	13.129873
4.409064661152262	136.62515	11.688676
4.426604441403504	96.85532	9.84151
4.444144325415337	75.55982	8.692515
4.461684313600543	21.340582	4.619587
4.47922440637193	21.474913	4.6341033
4.496764604142329	19.830114	4.4531016
4.5143049073245916	18.255976	4.2727013
4.531845316331589	16.271397	4.033782
4.5493858315762195	13.513777	3.6761088
4.566926453471405	11.203313	3.347135
4.584467182430081	9.247009	3.0408895
4.602008018865218	8.199711	2.8635137
4.619548963189798	7.5482783	2.747413
4.637090015816834	7.0285225	2.6511362
4.654631177159353	6.6248546	2.5738792
4.672172447630417	6.2380214	2.4976032
4.689713827643102	6.1150756	2.472868
4.7072553176105085	5.967721	2.4428918
4.724796917945764	5.9122453	2.431511
4.742338629062015	5.802558	2.40885
4.759880451372434	5.68279	2.3838603
4.777422385290215	5.550808	2.3560152
4.794964431228581	5.511527	2.347664
4.812506589600768	5.5554814	2.3570068
4.830048860820047	5.579417	2.362079
4.847591245299709	5.579104	2.3620126
4.8651337434530655	5.552678	2.3564122
4.882676355693457	5.5431356	2.3543866
4.900219082434242	5.5775285	2.361679
4.917761924088813	5.607573	2.3680315
4.935304881070575	5.558289	2.3576024
4.952847953792969	5.4236894	2.3288815
4.970391142669449	5.3533034	2.3137207
4.9879344481135055	5.357222	2.3145673
5.005477870538642	5.388643	2.321345
5.023021410358394	5.343757	2.3116567
5.040565067986324	5.3402667	2.3109016
5.05810884383601	5.335275	2.3098214
5.075652738321066	5.323527	2.307277
5.09319675185512	5.30931	2.304194
5.110740884851836	5.273352	2.2963781
5.128285137724894	5.25543	2.2924726
5.145829510888007	5.2798896	2.297801
5.163374004754908	5.3222036	2.3069901
5.1809186197393595	5.381432	2.3197913
5.198463356255145	5.406229	2.32513
5.216008214716077	5.3815794	2.319823
5.233553195535998	5.3487525	2.312737
5.251098299128764	5.2297635	2.2868676
5.268643525908272	5.1626563	2.272148
5.286188876288432	5.111559	2.2608757
5.3037343506831895	5.233068	2.28759
5.32127994950651	5.2175903	2.2842045
5.3388256731723915	5.208315	2.2821734
5.356371522094851	5.1336603	2.2657583
5.373917496687938	5.1304817	2.2650566
5.391463597365729	5.046909	2.2465327
5.40900982454232	5.0536575	2.2480342
5.426556178631843	5.049218	2.2470465
5.444102660048449	5.0157957	2.2395973
5.4616492692063225	5.043063	2.2456765
5.479196006519669	5.0214453	2.240858
5.496742872402727	5.129844	2.264916
5.514289867269756	5.146989	2.2686975
5.531836991535049	5.2185216	2.2844083
5.549384245612924	5.1928988	2.2787933
5.566931629917724	5.173248	2.2744775
5.584479144863822	5.1627502	2.2721686
5.6020267908656205	5.1028285	2.258944
5.619574568337545	5.0862603	2.2552738
5.637122477694054	5.1476398	2.268841
5.654670519349629	5.166208	2.2729294
5.672218693718784	5.1348934	2.2660303
5.689767001216059	5.060321	2.2495158
5.707315442256021	5.0321054	2.2432356
5.724864017253266	5.0318785	2.2431848
5.7424127266224225	5.007648	2.2377775
5.75996157077814	5.031535	2.2431083
5.777510550135105	5.101941	2.2587476
5.795059665108022	5.164552	2.2725651
5.812608916111639	5.150474	2.2694657
5.830158303560715	5.1777334	2.2754633
5.847707827870055	5.095217	2.257259
5.86525748945448	5.134315	2.2659028
5.8828072887288485	5.2979927	2.3017368
5.900357226108044	5.3916435	2.3219912
5.917907302006979	5.468825	2.3385518
5.9354575168406	5.9259214	2.4343216
5.9530078710238765	6.3910484	2.5280523
5.970558364971812	6.906856	2.62809
5.988108999099438	7.251451	2.6928518
6.005659773821818	7.815021	2.7955358
6.023210689554039	7.603501	2.7574446
6.040761746711227	8.011881	2.8305266
6.058312945708531	7.4734206	2.7337558
6.075864286961132	6.9796467	2.6419022
6.093415770884244	6.325812	2.5151167
6.1109673978931065	5.8260016	2.413711
6.128519168402993	5.3280873	2.308265
6.146071082829204	5.262406	2.2939935
6.163623141587075	5.1419787	2.2675931
6.181175345091969	5.1170197	2.262083
6.198727693759281	5.062259	2.2499466
6.216280188004435	5.106549	2.2597675
6.233832828242885	5.073334	2.2524064
6.251385614890126	5.1100492	2.260542
6.268938548361669	5.061461	2.2497692
6.286491629073067	5.006432	2.2375057
6.304044857439898	4.987717	2.2333198
6.321598233877777	4.8727016	2.2074196
6.339151758802344	4.8109565	2.1933892
6.356705432629277	4.8551764	2.2034464
6.37425925577428	4.8439426	2.2008958
6.391813228653095	4.8876033	2.2107925
6.409367351681486	4.8949113	2.2124445
6.426921625275259	4.9321256	2.220839
6.44447604985025	4.933079	2.2210536
6.46203062582232	4.8811307	2.2093282
6.47958535360737	4.906751	2.215119
6.497140233621328	4.8672357	2.2061813
6.514695266280161	4.8946414	2.2123837
6.532250451999859	4.837215	2.199367
6.549805791196454	4.882376	2.20961
6.567361284286002	4.9695387	2.2292461
6.584916931684597	5.0785475	2.2535632
6.602472733808367	5.0780764	2.2534587
6.6200286910734665	5.041716	2.2453766
6.637584803896092	5.0279527	2.2423096
6.655141072692462	5.0680394	2.2512307
6.672697497878842	4.994235	2.2347784
6.690254079871514	4.9470844	2.2242043
6.707810819086808	4.8939404	2.2122252
6.725367715941078	4.9563627	2.226289
6.742924770850719	4.936185	2.2217526
6.760481984232151	4.90842	2.2154953
6.778039356501836	4.88061	2.2092102
6.795596888076266	4.8881288	2.2109113
6.813154579371963	4.9036474	2.2144182
6.830712430805492	4.8992248	2.2134192
6.84827044279344	4.9247775	2.219184
6.865828615752445	4.945245	2.2237906
6.883386950099159	4.966551	2.228576
6.900945446250287	4.999319	2.2359157
6.918504104622553	5.0245237	2.241545
6.936062925632727	4.98684	2.2331233
6.953621909697607	5.0026994	2.2366714
6.971181057234028	5.0295644	2.242669
6.988740368658859	5.1148973	2.2616138
7.006299844389007	5.1716523	2.2741268
7.023859484841407	5.224576	2.2857332
7.041419290433036	5.3017187	2.302546
7.058979261580902	5.4185452	2.327777
7.0765393987020495	5.6541166	2.3778386
7.094099702213559	6.058453	2.4613924
7.111660172532549	6.3952017	2.5288737
7.129220810076164	6.752242	2.5985076
7.146781615261595	7.405261	2.721261
7.16434258850606	7.57231	2.7517831
7.181903730226821	8.10484	2.8469002
7.1994650408411704	8.176217	2.8594086
7.217026520766437	8.32845	2.8859055
7.234588170419983	8.653651	2.9417088
7.252149990219215	8.579118	2.929013
7.269711980581568	8.482754	2.9125168
7.2872741419245175	8.134469	2.852099
7.304836474665574	7.655221	2.766807
7.322398979222286	7.3036995	2.7025359
7.339961656012233	7.0104527	2.647726
7.357524505453039	6.653732	2.5794828
7.375087527962357	6.3440576	2.5187414
7.392650723957886	6.0925303	2.468305
7.410214093857353	5.8244677	2.4133935
7.427777638078528	5.669292	2.3810275
7.445341357039213	5.5002036	2.3452513
7.4629052511572525	5.403277	2.324495
7.480469320850524	5.343479	2.3115966
7.498033566536948	5.3446345	2.3118465
7.5155979886344735	5.2075863	2.2820137
7.5331625875610975	5.120141	2.2627728
7.550727363734844	5.119075	2.2625372
7.568292317573788	5.166404	2.2729723
7.585857449496025	5.1725945	2.274334
7.603422759919705	5.145991	2.2684777
7.620988249263007	5.113561	2.2613184
7.638553917944147	5.11583	2.26182
7.656119766381391	5.159378	2.2714264
7.673685794993023	5.181906	2.27638
7.691252004197388	5.1929045	2.2787945
7.70881839441285	5.2161846	2.283897
7.726384966057826	5.1786666	2.2756684
7.743951719550762	5.1565623	2.2708066
7.761518655310149	5.1513233	2.2696526
7.779085773754511	5.112469	2.261077
7.796653075302419	5.1518655	2.269772
7.814220560372475	5.1727796	2.2743745
7.831788229383323	5.2151785	2.2836766
7.8493560827536495	5.329359	2.3085403
7.866924120902174	5.3662624	2.3165195
7.884492344247663	5.326843	2.3079953
7.9020607532089135	5.331344	2.3089705
7.919629348204771	5.2894006	2.2998698
7.937198129654115	5.326398	2.307899
7.954767097975865	5.279236	2.2976587
7.972336253588986	5.263594	2.2942524
7.989905596912472	5.2760973	2.2969756
8.007475128365371	5.343283	2.3115542
8.025044848366756	5.3534665	2.313756
8.042614757335754	5.46422	2.337567
8.060184855691523	5.509461	2.347224
8.07775514385327	5.678103	2.382877
8.095325622240228	5.780175	2.4041996
8.112896291271687	5.7759986	2.4033308
8.130467151366968	5.8306365	2.4146712
8.148038202945436	5.8425736	2.4171417
8.165609446426497	5.891492	2.4272397
8.183180882229594	5.9007745	2.429151
8.200752510774217	5.8827395	2.425436
8.218324332479893	5.93541	2.4362698
8.235896347766193	5.942873	2.437801
8.253468557052724	5.9183784	2.4327717
8.27104096075914	5.8839054	2.4256763
8.288613559305137	5.9046273	2.4299438
8.306186353110448	6.03163	2.4559376
8.32375934259485	6.0651956	2.4627619
8.341332528178162	6.0552697	2.4607458
8.358905910280246	6.070203	2.4637783
8.376479489321003	6.1222014	2.4743083
8.394053265720377	6.1826625	2.486496
8.411627239898356	6.1982365	2.4896257
8.42920141227497	6.2148604	2.4929621
8.44677578327029	6.176286	2.4852135
8.464350353304427	6.169525	2.4838529
8.48192512279754	6.123798	2.4746308
8.499500092169827	6.0626893	2.4622529
8.51707526184153	5.9878016	2.4469986
8.534650632232934	5.993982	2.448261
8.552226203764365	6.044394	2.458535
8.569801976856192	6.058262	2.4613538
8.587377951928834	6.077019	2.465161
8.60495412940274	6.0967216	2.4691541
8.622530509698416	6.106876	2.4712093
8.6401070932364	6.2442417	2.498848
8.657683880437283	6.3657904	2.5230517
8.675260871721695	6.530401	2.555465
8.692838067510303	6.7180176	2.591914
8.710415468223834	6.8605433	2.619264
8.727993074283043	7.00196	2.6461217
8.745570886108737	7.004334	2.6465702
8.763148904121765	7.0786214	2.6605678
8.78072712874302	7.115051	2.6674054
8.798305560393441	7.3263273	2.706719
8.815884199494006	7.4594398	2.7311976
8.833463046465745	7.658434	2.7673876
8.851042101729728	7.8001575	2.7928762
8.86862136570707	8.146536	2.8542137
8.886200838818924	8.32572	2.8854322
8.903780521486505	8.335051	2.8870487
8.921360414131055	8.391865	2.8968716
8.938940517173874	8.4402	2.9052022
8.956520831036297	8.621301	2.9362051
8.97410135613971	8.901221	2.9834914
8.99168209290554	9.026837	3.0044696
9.009263041755265	9.221305	3.0366602
9.026844203110405	9.440924	3.0726087
9.044425577392525	9.667644	3.1092834
9.062007165023239	9.822852	3.1341429
9.079588966424197	10.017473	3.1650393
9.097170982017108	10.073334	3.1738515
9.11475321222372	10.88802	3.2997
9.132335657465825	11.717274	3.4230504
9.149918318165264	11.840816	3.4410486
9.167501194743924	12.406045	3.5222216
9.18508428762374	12.1160555	3.4808125
9.202667597226693	12.087694	3.476736
9.220251123974803	11.829326	3.4393787
9.237834868290143	11.625884	3.4096751
9.255418830594836	11.419846	3.379326
9.273003011311046	10.885544	3.2993248
9.290587410860985	10.58369	3.2532582
9.308172029666911	9.880203	3.143279
9.32575686815113	9.652812	3.1068976
9.343341926735997	8.555175	2.924923
9.360927205843916	8.436135	2.9045026
9.378512705897327	8.285704	2.8784897
9.396098427318728	8.09699	2.845521
9.413684370530664	7.9352436	2.8169565
9.431270535955722	7.8101764	2.7946694
9.448856924016539	7.6533237	2.766464
9.466443535135806	7.5020514	2.7389872
9.484030369736251	7.53877	2.745682
9.501617428240658	7.5836577	2.7538443
9.519204711071852	7.665132	2.7685976
9.536792218652714	7.608085	2.7582757
9.55437995140617	7.595599	2.7560115
9.571967909755191	7.5874014	2.7545238
9.589556094122802	7.633842	2.762941
9.60714450493207	7.6910415	2.7732728
9.624733142606116	7.778759	2.7890427
9.642322007568108	7.7467356	2.7832959
9.659911100241267	7.7231135	2.779049
9.677500421048851	7.7915382	2.7913327
9.695089970414175	7.849676	2.8017273
9.712679748760609	7.9066606	2.8118784
9.730269756511557	7.8953357	2.809864
9.747859994090492	7.9398804	2.8177793
9.765450461920915	8.028084	2.8333874
9.78304116042639	8.087823	2.8439097
9.800632090030527	8.110727	2.8479338
9.81822325115699	8.105449	2.847007
9.835814644229481	8.153415	2.8554184
9.853406269671762	8.236686	2.8699627
9.870998127907646	8.252039	2.8726363
9.888590219360985	8.25956	2.873945
9.906182544455698	8.146809	2.8542614
9.923775103615734	8.069938	2.8407636
9.941367897265108	8.019183	2.8318162
9.958960925827878	8.082562	2.8429847
9.97655418972816	8.165123	2.857468
9.994147689390106	8.131791	2.8516295
10.011741425237934	8.116665	2.8489761
10.029335397695904	8.11961	2.849493
10.04692960718833	8.181451	2.8603237
10.06452405413958	8.201286	2.8637888
10.082118738974064	8.192066	2.8621786
10.099713662116246	8.13551	2.8522816
10.117308823990651	8.025498	2.832931
10.134904225021844	7.9607196	2.8214748
10.152499865634445	8.040567	2.8355894
10.170095746253125	8.05861	2.8387692
10.18769186730261	8.076584	2.841933
10.205288229207675	8.102471	2.846484
10.222884832393145	8.088102	2.8439589
10.2404816772839	8.100747	2.8461812
10.258078764304868	8.054425	2.838032
10.275676093881035	8.016933	2.831419
10.293273666437438	8.019189	2.8318172
10.310871482399158	8.008167	2.8298705
10.32846954219134	7.9384294	2.8175218
10.346067846239173	7.998409	2.8281457
10.363666394967908	7.9957457	2.8276749
10.38126518880283	7.997146	2.8279226
10.398864228169298	8.049803	2.8372173
10.416463513492713	8.01733	2.831489
10.434063045198531	8.08029	2.842585
10.451662823712262	8.122852	2.850062
10.469262849459467	8.128424	2.8510392
10.486863122865758	8.057402	2.8385563
10.504463644356806	8.09769	2.845644
10.522064414358338	8.04472	2.8363216
10.539665433296118	8.009135	2.8300416
10.557266701595987	7.8141885	2.795387
10.574868219683818	7.6811175	2.771483
10.592469987985552	7.5625043	2.7500007
10.610072006927185	7.531389	2.7443376
10.627674276934751	7.4550495	2.7303936
10.64527679843435	7.3199043	2.705532
10.662879571852143	7.166521	2.6770358
10.680482597614331	7.0335336	2.652081
10.698085876147173	6.9534416	2.6369379
10.715689407876988	6.8967237	2.6261613
10.733293193230146	6.8089547	2.6093974
10.750897232633072	6.730585	2.5943372
10.76850152651225	6.6004896	2.5691419
10.786106075294207	6.442584	2.5382247
10.803710879405534	6.3371944	2.5173786
10.821315939272877	6.2896314	2.5079138
10.83892125532294	6.2563844	2.5012765
10.856526827982472	6.1843386	2.486833
10.874132657678285	6.0737414	2.4644961
10.891738744837243	5.988398	2.4471204
10.909345089886271	5.9680085	2.4429507
10.926951693252343	5.946115	2.4384656
10.944558555362494	5.889971	2.4269261
10.96216567664381	5.807079	2.4097881
10.979773057523436	5.717963	2.3912263
10.997380698428573	5.6993713	2.3873355
11.014988599786477	5.7192593	2.3914974
11.032596762024461	5.6662927	2.3803976
11.050205185569892	5.5491467	2.3556626
11.067813870850198	5.428794	2.3299773
11.085422818292859	5.323752	2.3073256
11.10303202832541	5.3082514	2.3039644
11.120641501375454	5.298235	2.3017895
11.138251237870636	5.253005	2.2919436
11.155861238238671	5.168178	2.2733626
11.173471502907317	5.033287	2.2434988
11.191082032304402	4.965953	2.2284417
11.208692826857805	4.9509706	2.2250776
11.226303886995465	4.913847	2.2167199
11.243915213145371	4.8718915	2.207236
11.261526805735578	4.7750683	2.185193
11.279138665194196	4.718406	2.1721892
11.296750791949393	4.699422	2.167815
11.314363186429393	4.679882	2.1633036
11.331975849062479	4.640731	2.1542356
11.34958878027699	4.572055	2.1382363
11.36720198050133	4.5434313	2.1315327
11.384815450163948	4.4641285	2.1128485
11.402429189693366	4.3989534	2.0973682
11.420043199518153	4.340961	2.0834973
11.437657480066942	63.31633	7.9571557
11.455272031768422	85.06792	9.2232275
11.472886855051353	107.45591	10.366095
11.490501950344528	99.0414	9.951955
11.508117318076819	84.41096	9.187544
11.52573295867715	45.85368	6.7715344
11.543348872574514	4.1579456	2.0391042
11.560965060197946	4.0309663	2.0077267
11.57858152197655	3.9912517	1.9978117
11.59619825833949	3.9516752	1.9878821
11.613815269715985	3.9464872	1.9865768
11.631432556535323	38.464695	6.201991
11.649050119226837	82.96655	9.108598
11.666667958219929	93.37121	9.662878
11.68428607394406	107.582794	10.372212
11.701904466828756	82.417656	9.078417
11.719523137303586	65.29799	8.080717
11.737142085798196	4.5675383	2.13718
11.754761312742286	3.7017894	1.9240035
11.772380818565619	3.6181045	1.9021316
11.790000603698015	3.5537763	1.8851463
11.80762066856935	3.5378034	1.8809049
11.825241013609572	3.52943	1.8786777
11.842861639248683	3.4723332	1.8634198
11.860482545916748	3.3508618	1.8305359
11.878103734043883	3.3127284	1.8200902
11.895725204060282	3.2966206	1.8156599
11.91334695639619	3.3413944	1.8279481
11.930968991481919	3.3934026	1.8421191
11.948591309747824	3.3772528	1.8377303
11.966213911624347	3.3356597	1.8263788
11.98383679754198	3.2714696	1.8087205
12.001459967931268	3.2085795	1.7912508
12.019083423222835	3.1607008	1.777836
12.036707163847352	3.105049	1.7621149
12.05433119023556	3.1123302	1.7641797
12.071955502818259	3.1206436	1.7665343
12.089580102026313	3.1503432	1.7749206
12.107204988290643	3.1207101	1.7665532
12.12483016204224	3.119007	1.7660711
12.142455623712152	3.0981896	1.7601675
12.16008137373149	3.0169768	1.7369447
12.177707412531431	3.0222251	1.7384548
12.19533374054321	3.001777	1.7325637
12.212960358198126	2.9768393	1.7253519
12.230587265927545	2.9523094	1.7182286
12.248214464162889	2.9671378	1.7225382
12.265841953335649	2.9710102	1.7236619
12.283469733877375	2.976123	1.7251444
12.301097806219685	2.9603813	1.7205758
12.31872617079425	2.932699	1.7125125
12.336354828032825	2.860194	1.6912107
12.353983778367205	2.8275623	1.6815357
12.371613022229262	2.8471487	1.6873496
12.389242560050928	2.872118	1.6947324
12.406872392264201	2.8468282	1.6872547
12.424502519301143	2.7804673	1.6674733
12.442132941593874	2.735804	1.6540266
12.459763659574586	2.735035	1.653794
12.477394673675532	2.7962458	1.6721979
12.49502598432903	2.8462315	1.6870778
12.51265759196746	2.8642051	1.6923963
12.530289497023267	2.7931702	1.671278
12.547921699928967	2.7537744	1.65945
12.565554201117134	2.7044938	1.6445345
12.583187001020404	2.727124	1.6514006
12.600820100071486	2.7439687	1.656493
12.618453498703152	2.7286947	1.6518761
12.636087197348235	2.7452023	1.6568652
12.65372119643964	2.763069	1.6622481
12.671355496410326	2.7821274	1.667971
12.68899009769333	2.7963812	1.6722383
12.706625000721749	2.8082392	1.6757802
12.724260205928752	2.8738601	1.6952463
12.741895713747551	2.9240365	1.7099814
12.759531524611454	2.9728932	1.724208
12.777167638953818	2.9162683	1.7077085
12.794804057208072	2.9275026	1.7109946
12.812440779807702	2.9278114	1.7110848
12.830077807186271	3.1278546	1.7685741
12.847715139777405	3.2070782	1.7908317
12.865352778014795	3.452242	1.858021
12.882990722332197	3.5605392	1.8869392
12.90062897316344	3.6080744	1.8994932
12.918267530942412	3.6513429	1.9108487
12.935906396103071	3.5038126	1.8718474
12.953545569079449	3.6599584	1.9131018
12.971185050305628	3.475304	1.8642167
12.988824840215775	3.470708	1.8629836
13.006464939244115	3.5001194	1.8708606
13.024105347824943	3.379595	1.8383675
13.041746066392617	3.5221734	1.8767455
13.05938709538157	3.3685386	1.8353579
13.077028435226296	3.348738	1.8299557
13.094670086361363	3.2195365	1.7943068
13.112312049221401	3.1124027	1.7642003
13.129954324241112	3.0166802	1.7368593
13.147596911855258	2.8295033	1.6821127
13.165239812498685	2.8573213	1.6903613
13.182883026606293	2.8144755	1.6776398
13.200526554613058	2.777571	1.6666046
13.218170396954017	2.6894825	1.6399641
13.235814554064284	2.6419592	1.6254104
13.253459026379034	2.6315763	1.6222134
13.271103814333523	2.6202502	1.6187187
13.288748918363058	2.6186986	1.6182394
13.306394338903031	2.594513	1.6107492
13.32404007638889	2.5946317	1.6107861
13.341686131256164	2.6029177	1.613356
13.359332503940449	2.6053522	1.6141104
13.376979194877402	2.6107342	1.6157767
13.394626204502751	2.6520722	1.6285185
13.412273533252307	2.679273	1.6368484
13.429921181561937	2.6919339	1.6407114
13.447569149867581	2.6871204	1.6392438
13.465217438605247	2.6745768	1.6354133
13.482866048211022	2.6706436	1.6342103
13.500514979121052	2.70058	1.6433442
13.518164231771568	2.6847527	1.6385216
13.535813806598844	2.6936946	1.6412479
13.553463704039254	2.7056267	1.644879
13.571113924529229	2.7059493	1.644977
13.588764468505275	2.7179673	1.6486259
13.606415336403956	2.7195466	1.6491048
13.624066528661917	2.7595043	1.6611756
13.641718045715882	2.8034172	1.6743408
13.659369888002635	2.842328	1.6859206
13.67702205595903	2.8743184	1.6953815
13.694674550021993	2.9405072	1.7147907
13.712327370628532	2.9856398	1.7279004
13.729980518215713	3.046967	1.7455564
13.747633993220681	3.0784981	1.7545649
13.765287796080647	3.1128387	1.7643238
13.7829419272329	3.1920283	1.7866248
13.800596387114801	3.2312984	1.7975813
13.818251176163775	3.2549484	1.8041476
13.835906294817324	3.2457514	1.8015969
13.853561743513023	3.2516828	1.8032423
13.871217522688525	3.2963622	1.8155887
13.888873632781538	3.3431232	1.828421
13.906530074229858	3.4084568	1.8462006
13.92418684747135	3.4305713	1.8521801
13.941843952943948	3.4247396	1.8506052
13.959501391085665	3.3921208	1.8417711
13.977159162334578	3.325589	1.8236197
13.994817267128846	3.2940593	1.8149544
14.012475705906693	3.2075613	1.7909665
14.030134479106424	3.158077	1.777098
14.047793587166414	3.0875635	1.7571464
14.065453030525108	3.0770388	1.754149
14.083112809621026	3.043611	1.7445948
14.100772924892766	3.0218341	1.7383424
14.118433376778997	2.963961	1.7216158
14.136094165718458	2.902278	1.7036073
14.153755292149969	2.795821	1.6720709
14.171416756512416	2.7114077	1.6466353
14.189078559244768	2.6647112	1.6323943
14.20674070078606	2.6024172	1.6132009
14.224403181575408	2.5221224	1.5881191
14.242066002051999	2.461553	1.5689337
14.259729162655093	2.438526	1.561578
14.277392663824022	2.4361105	1.5608045
14.295056505998208	2.381416	1.5431838
14.312720689617128	2.3750892	1.5411325
14.330385215120348	2.3439498	1.5309963
14.348050082947497	2.366508	1.5383458
14.3657152935383	2.3720548	1.5401477
14.383380847332528	2.383165	1.5437503
14.401046744770051	2.369767	1.5394047
14.418712986290798	2.3670824	1.5385325
14.436379572334793	2.3742418	1.5408576
14.454046503342123	2.3497968	1.5329047
14.471713779752946	2.3212104	1.523552
14.489381402007504	2.3222604	1.5238965
14.507049370546113	2.3459282	1.5316423
14.524717685809168	2.3582041	1.5356445
14.542386348237134	2.3737183	1.5406876
14.560055358270553	2.396521	1.5480701
14.577724716350051	2.4477189	1.5645187
14.595394422916325	2.4385858	1.5615972
14.61306447841015	2.404447	1.550628
14.63073488327237	2.3657784	1.5381087
14.648405637943917	2.395912	1.5478734
14.6660767428658	2.4455817	1.5638356
14.683748198479094	2.4709747	1.5719334
14.701420005224954	2.5060658	1.5830559
14.719092163544628	2.5745456	1.604539
14.73676467387942	2.6163838	1.617524
14.754437536670727	2.5985568	1.6120039
14.772110752360014	2.60254	1.6132389
14.78978432138882	2.598632	1.6120273
14.807458244198777	2.623863	1.6198343
14.82513252123159	2.6076744	1.6148295
14.842807152929028	2.6190448	1.6183463
14.860482139732962	2.6545994	1.6292942
14.87815748208531	2.6608698	1.6312172
14.8958331804281	2.6511855	1.6282462
14.91350923520342	2.6069152	1.6145945
14.931185646853438	2.603745	1.6136124
14.948862415820408	2.5927863	1.6102132
14.966539542546656	2.6153996	1.6172197
14.98421702747459	2.6453815	1.6264628
15.001894871046696	2.6887836	1.6397511
15.019573073705542	2.669143	1.6337512
15.037251635893766	2.6196826	1.6185434
15.054930558054092	2.6041284	1.6137311
15.072609840629323	2.6385462	1.6243602
15.090289484062351	2.7544463	1.6596525
15.107969488796124	3.070526	1.7522916
15.125649855273691	3.5771325	1.8913308
15.14333058393817	4.157642	2.0390296
15.161011675232768	5.172986	2.27442
15.17869312960076	6.662989	2.5812767
15.196374947485506	8.739498	2.9562643
15.214057129330447	12.173874	3.4891078
15.231739675579114	16.744102	4.0919557
15.249422586675102	21.377693	4.623602
15.267105863062092	23.62033	4.860075
15.284789505183847	23.119665	4.8082914
15.302473513484218	20.435543	4.520569
15.320157888407127	16.886171	4.1092787
15.337842630396578	13.065935	3.6146832
15.355527739896656	10.243362	3.2005253
15.37321321735153	7.9739137	2.823812
15.39089906320545	5.88977	2.426885
15.408585277902748	4.456186	2.1109679
15.42627186188783	3.5253062	1.8775799
15.443958815605198	3.1136546	1.7645551
15.461646139499424	2.841779	1.6857576
15.479333834015168	2.715511	1.6478808
15.497021899597165	2.6507804	1.6281217
15.514710336690234	2.5781782	1.6056706
15.53239914573928	2.5330193	1.5915462
15.550088327189297	2.5085018	1.583825
15.567777881485336	2.4764297	1.5736676
15.58546780907256	2.4655354	1.5702024
15.6031581103962	2.4485316	1.5647784
15.620848785901568	2.487614	1.5772171
15.638539836034063	2.4804933	1.5749582
15.656231261239173	2.4455116	1.5638132
15.673923061962451	2.378587	1.5422668
15.691615238649552	2.348517	1.5324872
15.709307791746202	2.345674	1.5315593
15.727000721698221	2.3433762	1.530809
15.744694028951498	2.330844	1.5267102
15.76238771395202	2.3306332	1.5266411
15.780081777145844	2.316571	1.5220286
15.797776218979125	2.3097951	1.519801
15.815471039898094	2.3236508	1.5243526
15.833166240349064	2.3086607	1.5194278
15.850861820778437	2.3401396	1.5297515
15.868557781632699	2.3505573	1.5331527
15.886254123358412	2.3630505	1.5372217
15.903950846402232	2.3650723	1.5378791
15.921647951210897	2.322722	1.5240479
15.939345438231225	2.3196974	1.5230553
15.957043307910133	2.3281794	1.5258373
15.974741560694602	2.31307	1.5208781
15.992440197031714	2.3183043	1.5225979
16.01013921736862	2.3122466	1.5206074
16.02783862215259	2.3453536	1.5314547
16.045538411830933	2.3470132	1.5319965
16.06323858685107	2.339445	1.5295244
16.080939147660512	2.3326876	1.5273138
16.09864009470684	2.3456979	1.5315671
16.11634142843774	2.3864913	1.5448272
16.134043149300954	2.3829172	1.54367
16.15174525774433	2.3890438	1.5456532
16.169447754215817	2.331046	1.5267764
16.18715063916342	2.3555813	1.5347903
16.204853913035244	2.3618197	1.5368214
16.222557576279478	2.365802	1.5381165
16.240261629344403	22.347137	4.727276
16.257966072678386	42.917995	6.5511827
16.275670906729868	38.068684	6.1699824
16.293376131947387	2.5243886	1.5888325
16.31108174877957	2.5211136	1.5878015
16.328787757675133	2.5387404	1.5933425
16.34649415908287	2.5689633	1.6027986
16.364200953451657	2.6490016	1.6275754
16.38190814123048	2.6656442	1.63268
16.39961572286839	2.6729405	1.634913
16.41732369881455	2.6356456	1.6234672
16.43503206951817	2.6304243	1.6218582
16.45274083542859	2.676994	1.6361523
16.47044999699522	2.6912782	1.6405116
16.488159554667558	2.782375	1.6680453
16.505869508895184	2.831509	1.6827089
16.523579860127786	2.8606372	1.6913419
16.541290608815117	2.8864598	1.6989584
16.559001755407035	2.867606	1.6934007
16.57671330035348	2.9255168	1.7104143
16.59442524410448	2.9804466	1.726397
16.61213758711015	3.0772693	1.7542148
16.629850329820705	3.137556	1.7713147
16.647563472686436	3.2319412	1.79776
16.665277016157724	3.296212	1.8155473
16.682990960685053	3.37953	1.8383498
16.70070530671898	3.4374752	1.8540429
16.718420054710155	3.4731946	1.8636509
16.736135205109335	3.4986355	1.870464
16.753850758367335	3.5425828	1.882175
16.771566714935087	3.5780692	1.8915786
16.789283075263597	3.6147835	1.9012583
16.80699983980398	3.65554	1.9119467
16.82471700900741	3.7018437	1.9240175
16.84243458332518	3.7863977	1.9458668
16.860152563208665	3.8666258	1.9663738
16.87787094910932	3.9444466	1.9860631
16.89558974147871	4.036961	2.009219
16.913308940768466	4.0833225	2.0207233
16.931028547430333	4.1048937	2.0260537
16.94874856191613	4.10135	2.025179
16.966468984677785	4.188909	2.0466824
16.98418981616729	4.236138	2.058188
17.00191105683676	4.298184	2.0732062
17.019632707138374	4.351345	2.0859878
17.03735476752442	4.4200306	2.102387
17.05507723844728	4.4298706	2.1047258
17.072800120359403	4.4357324	2.1061177
17.090523413713353	4.454901	2.1106637
17.108247118961785	4.513035	2.1243904
17.125971236557437	4.5364165	2.1298864
17.143695766953133	4.570911	2.1379688
17.161420710601806	4.5805593	2.1402242
17.179146067956477	4.589181	2.1422374
17.19687183947025	4.591092	2.1426835
17.21459802559634	4.5683746	2.1373756
17.232324626788028	4.5647974	2.1365387
17.25005164349871	4.614196	2.148068
17.267779076181863	4.5895166	2.1423156
17.285506925291074	4.52992	2.128361
17.30323519127999	4.490747	2.1191382
17.320963874602384	4.4776196	2.1160386
17.33869297571211	4.451394	2.1098328
17.356422495063114	4.412243	2.100534
17.37415243310944	4.38766	2.094674
17.391882790305218	4.3965416	2.0967932
17.40961356710468	4.443615	2.1079884
17.42734476396215	4.4969206	2.1205945
17.445076381332044	4.4819555	2.117063
17.462808419668868	4.5189714	2.1257873
17.48054087942723	4.669179	2.1608284
17.498273761061835	5.0617366	2.2498302
17.51600706502747	5.6169167	2.3700035
17.533740791779024	6.42969	2.5356834
17.551474941771485	7.9580917	2.821009
17.56920951545993	9.167581	3.0278013
17.586944513299528	11.187176	3.3447235
17.60467993574556	12.783809	3.5754452
17.622415783253373	14.240496	3.773658
17.64015205627843	15.413688	3.926027
17.657888755276293	16.05333	4.0066605
17.675625880702604	16.238806	4.0297403
17.69336343301311	15.967615	3.9959497
17.71110141266366	15.501421	3.9371843
17.728839820110178	14.97127	3.8692725
17.746578655808705	14.530982	3.8119526
17.764317920215372	13.178836	3.6302667
17.7820576137864	11.542056	3.39736
17.79979773697811	9.305957	3.0505667
17.81753829024692	7.343454	2.7098808
17.835279274049356	5.667394	2.3806288
17.85302068884201	4.677803	2.162823
17.870762535081607	4.1208396	2.0299852
17.888504813224934	3.828566	1.9566722
17.90624752372891	3.654342	1.9116334
17.923990667050536	3.5737686	1.8904414
17.941734243646895	3.511812	1.8739829
17.959478253975185	3.4875329	1.8674937
17.9772226984927	3.438904	1.8544282
17.994967577656833	3.3724718	1.8364291
18.01271289192506	3.3616455	1.833479
18.030458641754965	3.3015907	1.8170279
18.04820482760425	3.3183556	1.8216354
18.06595144993067	3.2739065	1.809394
18.083698509192125	3.2827313	1.8118309
18.101446005846576	3.2239726	1.7955424
18.119193940352105	3.1845784	1.7845387
18.136942313166887	3.1571631	1.7768408
18.1546911247492	3.1765656	1.7822922
18.1724403755574	3.1452742	1.7734921
18.19019006604997	3.1253767	1.7678735
18.207940196685467	3.0332825	1.7416321
18.225690767922575	2.9866216	1.7281845
18.243441780220046	2.9660995	1.7222368
18.261193234036764	2.982492	1.7269893
18.278945129831676	2.960453	1.7205967
18.29669746806386	2.9770336	1.7254082
18.314450249192483	2.9626508	1.7212353
18.3322034736768	2.9613848	1.7208674
18.349957141976184	2.9275138	1.7109979
18.3677112545501	2.9497015	1.7174696
18.385465811858108	2.967021	1.7225043
18.403220814359884	3.0085962	1.7345306
18.420976262515172	3.0606906	1.749483
18.43873215678387	3.0990899	1.7604232
18.456488497625923	3.1251738	1.7678161
18.474245285501407	3.1744928	1.7817106
18.492002520870486	3.2419899	1.8005526
18.50976020419343	3.2803292	1.811168
18.527518335930615	3.5624917	1.8874564
18.545276916542516	4.144921	2.0359077
18.563035946489688	4.356069	2.0871198
18.580795426232832	4.7528973	2.180114
18.598555356232698	4.615107	2.14828
18.616315736950185	4.8973694	2.213
18.63407656884626	4.613608	2.147931
18.65183785238201	4.8288093	2.1974552
18.669599588018617	4.61406	2.1480362
18.68736177621737	4.5962424	2.143885
18.705124417439652	4.586946	2.1417158
18.72288751214696	4.4540286	2.110457
18.740651060800886	4.6102767	2.1471555
18.758415063863115	4.298682	2.0733263
18.77617952179546	4.4009953	2.0978549
18.793944435059814	4.0972457	2.0241654
18.811709804118184	4.116449	2.0289035
18.829475629432675	4.1152873	2.0286171
18.8472419114655	3.9553971	1.988818
18.86500865067897	4.056766	2.0141416
18.88277584753551	3.7075903	1.9255104
18.90054350249763	3.7076936	1.9255372
18.918311616027957	3.4260075	1.8509477
18.936080188589226	3.354499	1.8315291
18.953849220644265	3.0458286	1.7452302
18.971618712656007	2.8512354	1.6885601
18.9893886650875	2.7636554	1.6624246
19.007159078401887	7.932724	2.8165092
19.024929953062408	32.79671	5.7268414
19.042701289532435	32.764942	5.7240667
19.060473088275405	25.335135	5.033402
19.07824534975489	2.6379988	1.6241918
19.096018074434568	2.6262975	1.6205856
19.113791262778197	2.6190503	1.618348
19.13156491524966	2.5874183	1.6085454
19.149339032312945	2.5548341	1.5983849
19.167113614432136	2.5397625	1.5936632
19.184888662071433	2.489341	1.5777645
19.202664175695123	2.4778752	1.5741268
19.220440155767623	2.4458325	1.5639157
19.238216602753447	2.4648833	1.5699947
19.2559935171172	2.458303	1.5678977
19.27377089932361	2.4689567	1.5712914
19.291548749837514	2.4687538	1.5712268
19.309327069123835	2.4665003	1.5705096
19.32710585764763	2.4823384	1.5755439
19.344885115874032	2.48725	1.5771018
19.362664844268313	2.4397776	1.5619787
19.380445043295822	2.3999374	1.5491731
19.39822571342203	2.3768463	1.5417024
19.41600685511252	2.419822	1.5555778
19.43378846883297	2.4512727	1.565654
19.451570555049173	2.480234	1.5748758
19.469353114227037	2.4466035	1.5641623
19.48713614683254	2.4282298	1.5582778
19.50491965333182	2.4140303	1.553715
19.52270363419109	2.4190795	1.5553391
19.540488089876686	2.437604	1.5612828
19.55827302085503	2.4791286	1.5745249
19.576058427592674	2.4609048	1.5687271
19.593844310556282	2.4363072	1.5608674
19.611630670212598	2.4328363	1.5597552
19.629417507028506	2.4631617	1.5694463
19.64720482147098	2.4589224	1.5680951
19.6649926140071	2.4745684	1.5730761
19.682780885104084	2.4782264	1.5742384
19.70056963522921	2.4839852	1.5760664
19.718358864849908	2.5040996	1.5824347
19.7361485744337	2.489801	1.5779103
19.753938764448215	2.4784262	1.5743018
19.771729435361202	2.4431937	1.5630718
19.789520587640506	2.431448	1.5593101
19.807312221754092	2.4352386	1.5605251
19.825104338170043	2.4413862	1.5624936
19.842896937356517	2.4344432	1.5602702
19.860690019781824	2.425862	1.5575179
19.87848358591436	2.438214	1.5614781
19.896277636222635	2.4409144	1.5623426
19.914072171175278	2.4726322	1.5724605
19.931867191241015	2.4627655	1.5693201
19.94966269688869	2.471772	1.572187
19.967458688587264	2.4327366	1.5597233
19.985255166805807	2.447136	1.5643324
20.00305213201348	2.4494877	1.565084
20.020849584679578	2.4380498	1.5614256
20.038647525273507	2.4198072	1.555573
20.05644595426477	2.3950176	1.5475844
20.07424487212299	2.3854246	1.544482
20.092044279317903	2.3900967	1.5459938
20.109844176319353	2.3776588	1.541966
20.127644563597304	2.3589082	1.5358738
20.145445441621817	2.35423	1.53435
20.16324681086307	2.3469856	1.5319874
20.181048671791373	2.3717446	1.5400469
20.198851024877122	2.3902738	1.546051
20.216653870590836	2.3758075	1.5413655
20.234457209403146	2.3235722	1.5243268
20.252261041784802	2.2972188	1.5156579
20.270065368206662	2.3262649	1.5252098
20.287870189139685	2.3257923	1.5250548
20.305675505054968	2.3484433	1.5324632
20.323481316423702	2.3690128	1.5391598
20.341287623717207	2.3346283	1.5279491
20.359094427406884	2.3022432	1.5173144
20.376901727964288	2.288807	1.5128803
20.39470952586107	2.314414	1.5213199
20.41251782156899	2.2981942	1.5159796
20.430326615559935	2.3018684	1.5171909
20.448135908305886	2.2771814	1.5090332
20.465945700278965	2.2734578	1.507799
20.483755991951384	2.2966194	1.5154601
20.50156678379548	2.3224587	1.5239615
20.519378076283708	2.308375	1.5193337
20.537189869888635	2.2891812	1.5130041
20.55500216508294	2.2955356	1.5151025
20.572814962339415	2.29342	1.5144042
20.59062826213098	2.2881505	1.5126634
20.60844206493066	2.2772129	1.5090437
20.626256371211593	2.2644181	1.5047984
20.644071181447032	2.2700546	1.50667
20.66188649611036	2.2814112	1.5104342
20.67970231567506	2.2985587	1.5160998
20.697518640614742	2.3015003	1.5170697
20.715335471403122	2.2753491	1.5084261
20.73315280851404	2.25517	1.5017223
20.750970652421447	2.2577493	1.5025809
20.768789003599412	2.2720597	1.5073353
20.786607862522136	2.2715316	1.5071601
20.8044272296639	2.2225363	1.4908173
20.82224710549913	2.1988945	1.482867
20.84006749050237	2.15328	1.4674059
20.857888385148268	3.7280655	1.9308199
20.8757097899116	45.84113	6.770608
20.893531705267254	64.732155	8.0456295
20.911354131690224	83.74974	9.151488
20.92917706965566	69.01286	8.307398
20.94700051963877	50.08821	7.0773025
20.96482448211493	29.373672	5.4197483
20.982648957559622	4.0768404	2.0191188
21.00047394644843	2.1886961	1.4794242
21.01829944925707	2.232932	1.4942999
21.036125466461375	2.2465627	1.4988538
21.053951998537297	2.1971006	1.482262
21.071779045960906	2.1539068	1.4676194
21.089606609208378	2.1324089	1.460277
21.10743468875603	2.1366224	1.461719
21.12526328508028	2.1477337	1.4655148
21.143092398657675	2.1648371	1.4713385
21.16092202996488	2.1342518	1.4609079
21.17875217947867	2.147955	1.4655904
21.19658284767596	2.142413	1.4636984
21.21441403503377	2.137673	1.4620783
21.232245742029225	2.1213453	1.4564838
21.2500779691396	2.1610622	1.4700552
21.26791071684227	2.1775548	1.475654
21.28574398561475	2.1332889	1.4605782
21.30357777593465	2.1259897	1.4580774
21.321412088279704	2.1223543	1.4568303
21.339246923127792	2.104189	1.4505823
21.357082280956888	2.081568	1.442764
21.3749181622451	2.1211536	1.456418
21.392754567470647	2.1356106	1.4613729
21.41059149711187	2.0887628	1.4452553
21.42842895164726	2.0624576	1.4361259
21.446266931555378	2.0539815	1.4331719
21.464105437314945	2.078113	1.4415662
21.481944469404798	2.0952344	1.4474925
21.49978402830388	2.0968254	1.4480419
21.51762411449127	2.0607994	1.4355484
21.53546472844617	2.03449	1.4263555
21.553305870647876	2.0453117	1.430144
21.571147541575865	2.0335078	1.4260112
21.58898974170967	2.0251684	1.4230841
21.60683247152899	2.0561688	1.4339347
21.62467573151363	2.0451562	1.4300896
21.642519522143523	2.0315824	1.4253359
21.660363843898722	2.008172	1.4170998
21.6782086972594	2.022902	1.4222876
21.696054082705864	1.995564	1.4126443
21.713900000718535	2.0184734	1.4207299
21.73174645177795	2.036972	1.4272254
21.749593436364794	2.0209696	1.4216081
21.767440954959845	2.0225697	1.4221708
21.785289008044032	1.9884238	1.4101149
21.803137596098388	1.9874755	1.4097785
21.820986719604086	1.9678591	1.402804
21.838836379042412	1.9585198	1.3994713
21.85668657489478	1.9696707	1.4034495
21.87453730764273	1.9505147	1.3966082
21.892388577767914	1.9468505	1.3952959
21.91024038575213	1.9473174	1.3954631
21.928092732077285	1.9630373	1.4010843
21.945945617225426	1.9652034	1.4018571
21.963799041678694	1.9445996	1.394489
21.981653005919398	31.251713	5.590323
21.999507510429943	78.064095	8.835389
22.01736255569286	73.02665	8.545563
22.035218142190818	4.09969	2.024769
22.05307427040661	1.9180412	1.3849337
22.07093094082315	1.910576	1.3822359
22.088788153923474	1.9083834	1.3814425
22.106645910190746	1.9337839	1.3906056
22.12450421010827	1.9765735	1.4059067
22.142363054159464	2.0034163	1.4154209
22.16022244282787	1.953539	1.3976907
22.178082376597164	1.9463648	1.3951218
22.195942855951145	1.9593158	1.3997556
22.213803881373742	1.9942049	1.4121631
22.231665453349002	1.9896101	1.4105353
22.24952757236111	1.9304739	1.3894149
22.26739023889438	1.9266224	1.3880283
22.28525345343323	1.9352992	1.3911504
22.30311721646225	1.9684268	1.4030063
22.320981528466113	1.9936347	1.4119613
22.33884638992964	1.985927	1.4092292
22.356711801337788	1.9652119	1.4018601
22.37457776317561	1.8855906	1.3731681
22.392444275928337	1.8756489	1.3695433
22.410311340081282	1.887725	1.373945
22.428178956119904	1.9036856	1.3797411
22.446047124529805	1.894218	1.3763059
22.46391584579669	1.8828897	1.3721843
22.481785120406414	1.9006166	1.3786285
22.49965494884496	1.8937892	1.3761501
22.51752533159841	1.9099445	1.3820075
22.53539626915302	1.8942972	1.3763347
22.553267761995137	1.8923364	1.3756222
22.571139810611264	1.8850802	1.3729823
22.589012415488025	1.8892113	1.3744859
22.60688557711216	1.8906819	1.3750206
22.624759295970566	1.8889672	1.374397
22.642633572550263	1.9000216	1.3784127
22.660508407338362	1.8623565	1.3646818
22.67838380082217	1.8292093	1.3524827
22.696259753489077	1.8280885	1.3520682
22.714136265826614	1.8966497	1.377189
22.73201333832246	1.9389973	1.3924788
22.74989097146439	1.9451969	1.3947031
22.76776916574035	1.9331274	1.3903695
22.785647921638393	1.9213631	1.3861325
22.803527239646712	1.8823977	1.372005
22.82140712025363	1.857245	1.3628078
22.839287563947593	1.8767244	1.3699359
22.85716857121719	1.906708	1.380836
22.875050142551135	1.8989373	1.3780193
22.892932278438277	1.8800919	1.3711644
22.910814979367604	1.8683677	1.3668824
22.928698245828222	1.8783038	1.3705122
22.946582078309387	1.8673056	1.3664939
22.96446647730047	1.8650961	1.3656852
22.98235144329098	1.8493958	1.3599249
23.000236976770562	1.8725762	1.3684211
23.018123078229	1.854189	1.3616861
23.03600974815619	1.8142009	1.3469228
23.053896987042194	1.7953376	1.339902
23.071784795377173	1.8704352	1.3676386
23.08967317365145	1.9268116	1.3880963
23.10756212235546	1.9054427	1.3803778
23.125451641979787	1.8626615	1.3647935
23.143341733015134	1.8929762	1.3758547
23.161232395952357	1.9042021	1.3799284
23.179123631282426	1.9146112	1.3836948
23.197015439496468	1.8984983	1.3778601
23.214907821085717	1.9067806	1.3808622
23.23280077654157	1.8892331	1.3744937
23.250694306355538	1.8495227	1.3599716
23.268588411019277	1.8487699	1.3596948
23.28648309102458	1.8524957	1.3610642
23.304378346863356	1.8628792	1.3648733
23.322274179027676	1.8674492	1.3665464
23.340170588009723	1.8503551	1.3602777
23.358067574301852	1.8461474	1.3587301
23.37596513839651	1.851234	1.3606006
23.39386328078629	1.8713557	1.367975
23.411762001963947	1.8572606	1.3628135
23.429661302422353	1.9026355	1.3793606
23.4475611826545	1.9150289	1.3838457
23.46546164315356	1.8828954	1.3721863
23.48336268441279	1.875737	1.3695755
23.501264306925638	1.8628759	1.3648721
23.51916651118564	1.8482189	1.3594922
23.537069297686497	1.8262687	1.3513951
23.554972666922037	1.8604814	1.3639946
23.57287661938623	1.8854045	1.3731003
23.59078115557318	1.8660156	1.3660218
23.608686275977128	1.8402883	1.3565723
23.62659198109246	1.8525199	1.361073
23.6444982714137	1.8460114	1.35868
23.66240514743549	1.8693657	1.3672475
23.68031260965263	1.8936502	1.3760996
23.698220658560068	1.9017069	1.3790239
23.716129294652845	1.8940403	1.3762413
23.7340385184262	1.8749155	1.3692756
23.75194833037546	1.8851026	1.3729904
23.769858730996123	1.8858705	1.37327
23.78776972078382	1.8828013	1.3721521
23.80568130023431	1.8695301	1.3673075
23.823593469843495	1.8511012	1.3605518
23.841506230107424	1.8784093	1.3705508
23.859419581522275	1.9108272	1.3823267
23.87733352458438	1.9247679	1.38736
23.89524805979019	1.9252958	1.3875504
23.913163187636318	1.9248413	1.3873864
23.931078908619508	1.9564239	1.3987222
23.948995223236633	1.9849253	1.4088738
23.966912131984735	1.9702526	1.4036568
23.98482963536096	1.9948634	1.4123963
24.002747733862616	1.9932868	1.411838
24.020666427987155	2.0370235	1.4272434
24.038585718232156	2.0302894	1.4248823
24.056505605095353	2.0167243	1.4201142
24.074426089074617	2.0510726	1.4321567
24.092347170667946	2.0388465	1.4278818
24.110268850373515	1.9966407	1.4130254
24.128191128689586	1.9912992	1.411134
24.146114006114626	1.9941473	1.4121428
24.164037483147187	1.9945321	1.412279
24.181961560286005	2.006516	1.4165155
24.199886238029926	2.0256891	1.423267
24.21781151687797	2.0216117	1.4218339
24.235737397329274	2.0067809	1.4166089
24.253663879883135	2.0050466	1.4159967
24.271590965038975	1.9960324	1.4128101
24.289518653296376	2.026428	1.4235266
24.30744694515505	2.035967	1.4268732
24.32537584111486	2.0173028	1.4203179
24.34330534167581	1.9684826	1.4030262
24.361235447338046	1.935788	1.391326
24.379166158601876	1.9181032	1.384956
24.39709747596772	1.9554048	1.3983579
24.41502939993615	1.9699163	1.403537
24.432961931007917	1.9419284	1.393531
24.450895069683856	1.9388567	1.3924284
24.468828816465	1.9737065	1.4048866
24.4867631718525	1.963401	1.4012141
24.504698136347656	1.9304087	1.3893915
24.52263371045192	1.901476	1.3789402
24.540569894666874	1.914743	1.3837423
24.558506689494266	1.9230454	1.3867391
24.57644409543597	1.9211893	1.3860698
24.594382112994012	1.8638586	1.3652321
24.61232074267057	1.8713696	1.3679801
24.630259984967953	1.8791478	1.3708202
24.64819984038863	1.9081054	1.3813418
24.66614030943522	1.9178756	1.3848739
24.684081392610462	1.9229056	1.3866887
24.702023090417274	1.907736	1.3812082
24.7199654033587	1.9440807	1.394303
24.737908331937927	1.9916629	1.4112629
24.755851876658305	2.0002742	1.4143105
24.773796038023324	1.9863349	1.409374
24.79174081653661	1.9817204	1.407736
24.809686212701962	2.0443525	1.4298086
24.827632227023294	2.0879765	1.4449832
24.8455788600047	2.1201918	1.4560878
24.8635261121504	2.0904102	1.4458251
24.88147398396475	2.0645604	1.4368578
24.899422475952303	2.0803547	1.4423435
24.917371588617698	2.147533	1.4654464
24.935321322465768	2.2438748	1.4979569
24.953271678001478	2.3793864	1.542526
24.97122265572994	2.5925279	1.6101328
24.989174256156414	2.9347026	1.7130973
25.00712647978632	3.390816	1.8414168
25.02507932712521	3.883648	1.9706973
25.043032798678798	4.3771405	2.0921617
25.060986894952933	5.029123	2.2425706
25.078941616453637	5.7583036	2.3996465
25.096896963687055	6.6363792	2.576117
25.114852937159508	7.5557003	2.7487633
25.132809537377444	7.799788	2.79281
25.150766764847468	7.7122974	2.7771022
25.168724620076347	7.132364	2.6706486
25.186683103570985	6.1585746	2.4816475
25.204642215838426	4.992705	2.234436
25.222601957385894	3.7454484	1.9353161
25.24056232872074	2.9398086	1.714587
25.25852333035048	2.4755545	1.5733895
25.276484962782778	2.1981335	1.4826103
25.294447226525435	2.0371678	1.4272939
25.312410122086423	1.981505	1.4076594
25.330373649973843	1.8635725	1.3651273
25.348337810695988	1.8451262	1.3583542
25.366302604761245	1.8873217	1.3737983
25.384268032678207	1.8943003	1.3763359
25.40223409495558	1.8540351	1.3616296
25.420200792102257	1.8263476	1.3514243
25.438168124627246	1.8256965	1.3511834
25.45613609303974	1.856627	1.362581
25.474104697849057	1.8478808	1.3593678
25.492073939564698	1.827792	1.3519586
25.510043818696285	1.792547	1.3388603
25.528014335753614	1.7690538	1.3300579
25.54598549124664	1.8166755	1.347841
25.56395728568544	1.8444109	1.3580909
25.58192971958028	1.8429357	1.3575476
25.59990279344156	1.7945695	1.3396155
25.617876507779833	1.78223	1.3350018
25.635850863105826	1.8185889	1.3485507
25.653825859930386	1.8639945	1.3652818
25.671801498764548	1.8341262	1.3542992
25.68977778011949	1.8262776	1.3513983
25.707754704506524	1.8096383	1.345228
25.725732272437153	1.7844783	1.3358437
25.743710484423012	1.8080707	1.3446451
25.761689340975888	1.7905662	1.3381203
25.77966884260774	1.7681142	1.3297045
25.797648989830662	1.7951275	1.3398237
25.815629783156922	1.8316448	1.3533827
25.83361122309895	1.7877222	1.3370574
25.85159331016929	1.7926542	1.3389003
25.869576044880695	1.8027017	1.3426473
25.887559427746034	1.7845236	1.3358606
25.90554345927836	1.7931768	1.3390955
25.92352813999086	1.8629606	1.3649031
25.94151347039689	1.8681551	1.3668047
25.959499451009965	1.8227136	1.350079
25.97748608234374	1.7728853	1.3314974
25.995473364912062	1.736751	1.3178585
26.013461299228904	1.7615064	1.3272176
26.03144988580839	1.7725871	1.3313854
26.04943912516483	1.7745453	1.3321207
26.067429017812675	1.7684282	1.3298227
26.085419564266537	1.7669669	1.3292731
26.103410765041186	1.7949811	1.339769
26.12140262065155	1.8273973	1.3518126
26.139395131612723	1.8069402	1.3442248
26.157388298439948	1.755547	1.3249706
26.17538212164861	1.7462773	1.3214679
26.193376601754295	1.8086808	1.344872
26.211371739272714	1.8304702	1.3529487
26.229367534719746	1.83653	1.3551863
26.247363988611433	1.8181638	1.3483931
26.26536110146397	1.8124466	1.3462714
26.283358873793727	1.8041748	1.3431957
26.301357306117204	1.8069644	1.3442338
26.319356398951104	1.7641289	1.3282051
26.33735615281224	1.7018168	1.304537
26.35535656821762	1.7081536	1.3069636
26.373357645684404	1.735307	1.3173105
26.39135938572991	1.7515439	1.323459
26.409361788871614	1.7792687	1.3338923
26.427364855627165	1.7884066	1.3373132
26.445368586514352	1.77509	1.332325
26.46337298205115	1.790518	1.3381025
26.48137804275568	1.8337625	1.3541648
26.499383769146217	1.8268895	1.3516247
26.517390161741215	1.7568518	1.3254628
26.53539722105928	1.7227387	1.3125315
26.553404947619182	1.7386811	1.3185905
26.571413341939856	1.738528	1.3185325
26.589422404540397	1.76406	1.3281792
26.60743213594006	1.7693051	1.3301523
26.62544253665827	1.7719004	1.3311275
26.64345360721459	1.7831384	1.335342
26.66146534812879	1.769896	1.3303744
26.679477759920758	1.78378	1.3355823
26.69749084311057	1.7818347	1.3348538
26.71550459821847	1.7373134	1.3180718
26.733519025764842	1.7400684	1.3191166
26.751534126270258	1.8052648	1.3436015
26.769549900255434	1.8236134	1.3504124
26.787566348241267	1.8444068	1.3580894
26.80558347074881	1.7999016	1.3416041
26.823601268299267	1.7690089	1.3300409
26.841619741414036	1.7646956	1.3284185
26.85963889061465	1.7470174	1.3217479
26.877658716422832	1.7397028	1.318978
26.89567921936045	1.7282592	1.3146328
26.913700399949544	1.6896842	1.2998785
26.93172225871233	1.663376	1.2897193
26.949744796171174	1.6856604	1.2983298
26.967768012848605	1.7283907	1.3146827
26.98579190926733	1.7733886	1.3316864
27.003816485950225	1.7860453	1.3364301
27.021841743420318	1.736572	1.3177906
27.039867682200814	1.714832	1.309516
27.057894302815072	1.7380332	1.3183448
27.07592160578664	1.7807274	1.3344389
27.0939495916392	1.7600408	1.3266653
27.111978260896635	1.7651291	1.3285816
27.13000761408296	1.8074081	1.3443987
27.148037651722397	1.8264567	1.3514646
27.166068374339304	1.7956742	1.3400277
27.184099782458215	1.7464168	1.3215207
27.20213187660384	1.7536334	1.3242482
27.22016465730105	1.8103585	1.3454957
27.23819812507487	1.836571	1.3552015
27.256232280450533	1.8229961	1.3501837
27.274267123953383	1.7715687	1.3310028
27.292302656108987	1.7821498	1.3349718
27.31033887744306	1.8295192	1.3525972
27.32837578848146	1.8494743	1.3599538
27.34641338975026	1.7934589	1.3392009
27.364451681775673	1.7498105	1.322804
27.382490665084074	1.7147653	1.3094904
27.400530340202046	1.7675182	1.3294804
27.41857070765629	1.7567402	1.3254207
27.436611767973726	1.7463869	1.3215094
27.454653521681404	1.77169	1.3310485
27.472695969306564	1.7605001	1.3268384
27.490739111376627	1.729389	1.3150623
27.508782948419153	1.7703146	1.3305317
27.526827480961902	1.8084648	1.3447918
27.54487270953279	1.7952163	1.3398569
27.562918634659898	1.7801375	1.3342179
27.580965256871508	1.7788229	1.3337252
27.599012576696026	1.7959045	1.3401136
27.617060594662068	1.8172767	1.3480641
27.63510931129842	1.8400354	1.356479
27.65315872713401	1.8287451	1.352311
27.67120884269797	1.7946979	1.3396634
27.68925965851958	1.7661959	1.3289831
27.707311175128307	1.7616996	1.3272903
27.725363393053787	1.7722392	1.3312547
27.74341631282583	1.8326807	1.3537654
27.7614699349744	1.8819815	1.3718534
27.77952426002968	2.0878496	1.4449393
27.797579288521973	2.1560483	1.4683489
27.815635020981784	2.575067	1.6047015
27.83369145793979	2.609235	1.6153127
27.85174859992682	2.4307816	1.5590965
27.869806447473923	2.2842298	1.5113668
27.887865001112267	1.9753635	1.4054762
27.905924261373233	1.843745	1.3578457
27.92398422878836	1.849546	1.3599801
27.94204490388936	1.8931452	1.3759161
27.96010628720813	1.9330456	1.3903401
27.978168379276728	1.9295359	1.3890773
27.9962311806274	1.9052708	1.3803154
28.014294691792568	1.8672055	1.3664572
28.0323589133048	1.8472553	1.3591378
28.050423845696887	1.7725254	1.3313622
28.068489489501758	1.7403083	1.3192074
28.086555845252523	1.7426374	1.3200899
28.104622913482487	1.7603613	1.326786
28.122690694725115	1.7979199	1.3408654
28.14075918951405	1.8437582	1.3578506
28.15882839838312	1.8588287	1.3633887
28.176898321866304	1.8003972	1.3417888
28.1949689604978	1.8072492	1.3443397
28.213040314811945	1.8097796	1.3452805
28.23111238534327	1.8383272	1.3558493
28.249185172626493	1.8550714	1.3620101
28.267258677196473	1.900727	1.3786685
28.285332899588294	1.9097757	1.3819463
28.303407840337172	1.8726791	1.3684586
28.321483499978545	1.8318101	1.3534437
28.33955987904799	1.829952	1.3527572
28.357636978081285	1.8876767	1.3739275
28.37571479761439	1.9008142	1.3787001
28.393793338183425	1.8909079	1.3751029
28.41187260032469	1.9369191	1.3917325
28.429952584574686	1.9717627	1.4041947
28.448033291470065	1.9499645	1.3964113
28.46611472154769	1.9189367	1.3852569
28.484196875344566	1.8796409	1.3709999
28.502279753397914	1.8735785	1.3687873
28.52036335624511	1.8716226	1.3680726
28.538447684423716	1.8687444	1.3670202
28.556532738471482	1.901407	1.3789152
28.574618518926325	1.9639655	1.4014156
28.59270502632635	1.9229759	1.3867141
28.61079226120985	1.9323845	1.3901024
28.628880224115274	1.9586959	1.3995342
28.646968915581287	1.9763656	1.4058326
28.66505833614671	1.9826324	1.4080598
28.68314848635055	2.0429611	1.4293219
28.701239366732004	2.0667045	1.4376037
28.71933097783044	2.116829	1.4549326
28.737423320185403	2.0855756	1.4441522
28.75551639433665	2.073679	1.4400275
28.773610200824074	2.0948958	1.4473755
28.791704740187793	2.120772	1.456287
28.80980001296809	2.1260061	1.458083
28.827896019705413	2.1241362	1.4574417
28.845992760940433	2.0774865	1.4413489
28.86409023721397	2.034936	1.4265118
28.88218844906704	2.097631	1.44832
28.900287397040845	2.2056408	1.48514
28.918387081676755	2.2308729	1.4936107
28.936487503516343	2.2683454	1.5061027
28.954588663101365	2.2770517	1.5089903
28.97269056097374	2.25588	1.5019587
28.990793197675597	2.2266805	1.4922066
29.00889657374923	2.249269	1.4997563
29.027000689737125	2.3035517	1.5177456
29.04510554618196	2.4168391	1.5546186
29.06321114362659	2.4459913	1.5639665
29.08131748261405	2.4754689	1.5733622
29.099424563687567	2.4656613	1.5702424
29.11753238739057	2.4523754	1.5660062
29.13564095426663	2.4702044	1.5716884
29.15375026485954	2.527188	1.5897132
29.171860319713275	2.5529075	1.597782
29.18997111937199	2.6355689	1.6234435
29.20808266438002	2.7586734	1.6609255
29.226194955281898	2.820154	1.6793314
29.244307992622335	2.8152497	1.6778706
29.26242177694624	2.7790413	1.6670457
29.2805363087987	2.832542	1.6830157
29.29865158872498	2.856576	1.6901408
29.316767617270557	2.8336196	1.6833359
29.334884394981064	2.866039	1.692938
29.353001922402367	2.9672418	1.7225684
29.37112020008047	3.0496905	1.7463363
29.389239228561596	3.1801324	1.7832925
29.407359008392152	3.4383886	1.8542893
29.42547954011872	3.8504312	1.9622515
29.44360082428809	4.5730205	2.138462
29.46172286144722	5.8512483	2.4189353
29.479845652143283	7.654427	2.7666636
29.497969196923606	9.736815	3.120387
29.516093496335728	12.076691	3.4751534
29.5342185509274	14.46862	3.8037639
29.55234436124651	16.16401	4.0204487
29.570470927841175	16.891737	4.109956
29.588598251259686	16.162958	4.020318
29.60672633205055	14.391521	3.7936158
29.624855170762405	12.215649	3.4950893
29.642984767944146	9.741163	3.1210837
29.66111512414481	7.474048	2.7338705
29.67924623991366	5.6834173	2.383992
29.697378115800138	4.5703936	2.137848
29.71551075235387	3.9623497	1.9905652
29.733644150124675	3.5858977	1.8936467
29.751778309662576	3.39521	1.8426095
29.769913231517766	3.324171	1.823231
29.78804891624066	3.3128595	1.8201263
29.806185364381818	3.2213151	1.7948023
29.82432257649206	3.1730905	1.7813171
29.842460553122333	3.1457446	1.7736247
29.86059929482382	3.1426356	1.772748
29.878738802147872	3.182983	1.7840916
29.896879075646048	3.1531973	1.7757244
29.915020115870114	3.1393907	1.7718326
29.933161923371976	3.1977277	1.7882191
29.951304498703777	3.1987813	1.7885137
29.969447842417857	3.2340472	1.7983457
29.987591955066733	3.2378893	1.7994136
30.005736837203123	3.1642184	1.778825
30.023882489379943	3.1928039	1.7868419
30.04202891215028	3.169432	1.7802899
30.060176106067455	3.1375675	1.771318
30.078324071684946	3.1502638	1.7748983
30.09647280955646	3.200466	1.7889847
30.114622320235863	3.1180735	1.7658068
30.132772604277257	3.1301906	1.7692344
30.1509236622349	3.1253607	1.767869
30.16907549466328	3.0514972	1.7468535
30.18722810211705	3.0496724	1.7463311
30.205381485151097	3.0697813	1.7520791
30.22353564432045	3.074534	1.7534349
30.241690580180403	3.027874	1.7400787
30.25984629328638	2.9891796	1.7289244
30.278002784194037	3.040458	1.7436908
30.296160053459246	3.0139287	1.736067
30.314318101638033	2.9319072	1.7122812
30.332476929286646	2.9197347	1.7087231
30.35063653696153	2.909599	1.7057546
30.368796925219307	2.9323463	1.7124095
30.386958094616844	2.8797848	1.6969929
30.40512004571115	2.724003	1.6504554
30.423282779059463	2.7014854	1.6436197
30.441446295219233	2.7578132	1.6606665
30.459610594748067	2.7348328	1.653733
30.47777567820382	2.7649102	1.6628019
30.495941546144504	2.7327883	1.6531147
30.51410819912835	2.7798223	1.66728
30.532275637713795	2.7301328	1.6523113
30.55044386245946	2.7670922	1.6634579
30.56861287392416	2.7654243	1.6629565
30.586782672666956	2.7137637	1.6473505
30.604953259247047	2.7325861	1.6530536
30.623124634223885	2.8044991	1.6746639
30.641296798157075	2.778006	1.6667352
30.659469751606462	2.6779726	1.6364512
30.677643495132074	2.6824467	1.6378176
30.695818029294152	2.7426107	1.656083
30.713993354653116	2.7285395	1.6518291
30.73216947176962	2.6953468	1.6417512
30.75034638120448	2.694004	1.6413422
30.768524083518756	2.6880019	1.6395127
30.786702579273673	2.7045329	1.6445464
30.80488186903069	2.80478	1.6747477
30.82306195335144	2.9375281	1.7139219
30.841242832797782	3.0726986	1.7529114
30.85942450793176	3.4068885	1.8457758
30.877606979315637	3.7146015	1.9273301
30.895790247511883	3.9373736	1.9842817
30.913974313083134	4.264146	2.0649807
30.932159176592283	4.5026865	2.1219535
30.95034483860237	4.4846272	2.117694
30.968531299676698	4.2449765	2.060334
30.98671856037873	3.9842305	1.9960537
31.00490662127215	3.6156242	1.9014795
31.023095482920848	3.2373455	1.7992625
31.04128514588892	2.9310122	1.7120199
31.059475610740662	2.6372945	1.6239749
31.07766687804056	2.4696095	1.5714991
31.09585894835335	2.4539294	1.5665023
31.11405182224393	2.4745462	1.5730691
31.132245500277417	2.4682734	1.571074
31.15043998301914	2.4078217	1.5517157
31.168635271034628	2.4174314	1.5548091
31.18683136488964	2.3984773	1.5487018
31.20502826515008	2.4030063	1.5501633
31.223225972382135	2.4101987	1.5524814
31.241424487152155	2.399564	1.5490526
31.259623810026692	2.340398	1.5298359
31.27782394157253	2.375673	1.5413219
31.296024882356644	2.3947642	1.5475025
31.314226632946237	2.3423529	1.5304747
31.332429193908684	2.3312507	1.5268433
31.350632565811598	2.3541298	1.5343174
31.368836749222787	2.4039474	1.5504668
31.387041744710295	2.4504151	1.5653802
31.40524755284232	2.4097054	1.5523226
31.423454174187317	2.3567066	1.5351568
31.441661609313922	2.4435775	1.5631946
31.459869858791002	2.4645407	1.5698856
31.478078923187628	2.4119594	1.5530484
31.496288803073064	2.3262975	1.5252205
31.514499499016807	2.294897	1.5148917
31.532711011588546	2.2386494	1.4962116
31.550923341358178	2.2181563	1.4893476
31.56913648889584	2.2151299	1.4883312
31.587350454771844	2.197899	1.4825313
31.605565239556732	2.1462643	1.4650134
31.62378084382127	2.1491387	1.4659941
31.641997268136382	2.266328	1.5054328
31.660214513073274	2.3719172	1.540103
31.67843257920331	2.33289	1.5273801
31.6966514670981	2.275228	1.5083859
31.71487117732944	2.23151	1.4938239
31.733091710469346	2.240375	1.4967883
31.751313067090052	2.259324	1.5031048
31.769535247764008	2.285926	1.511928
31.787758253063878	2.273149	1.5076966
31.805982083562526	2.2595994	1.5031964
31.824206739833024	2.2473767	1.4991254
31.84243222244869	2.288492	1.5127763
31.860658531983013	2.275529	1.5084857
31.878885669009737	2.1887472	1.4794415
31.897113634102784	2.13613	1.4615506
31.91534242783632	2.1693256	1.4728631
31.933572050784694	2.2175274	1.4891365
31.951802503522508	2.2487702	1.49959
31.970033786624548	2.2430954	1.4976966
31.988265900665834	2.1861107	1.4785502
32.006498846221575	2.2011476	1.4836265
32.02473262386724	2.2177281	1.4892038
32.04296723417845	2.1849184	1.4781469
32.0612026777311	2.0988045	1.4487251
32.07943895510129	2.0644393	1.4368157
32.097676066865304	2.1511881	1.4666929
32.115914013599685	2.1920524	1.4805582
32.13415279588115	2.2077217	1.4858404
32.152392414286666	2.2157042	1.4885242
32.1706328693934	2.1289058	1.459077
32.18887416177875	2.0799007	1.4421861
32.20711629202032	2.0295985	1.4246398
32.225359260695924	2.007112	1.4167258
32.243603068383614	2.03956	1.4281317
32.26184771566166	2.0823984	1.4430518
32.28009320310852	2.1174147	1.4551339
32.2983395313029	2.1796205	1.4763538
32.31658670082372	2.1270502	1.458441
32.33483471225012	2.1185622	1.4555281
32.35308356616143	2.0947468	1.447324
32.371333263137245	2.0973556	1.448225
32.38958380375734	2.134982	1.4611578
32.407835188601744	2.0507758	1.432053
32.42608741825067	1.9972887	1.4132546
32.444340493284585	1.9797251	1.407027
32.46259441428416	1.975529	1.4055351
32.48084918183028	2.0272145	1.4238029
32.49910479650405	2.154303	1.4677545
32.51736125888683	2.1319337	1.4601142
32.53561856956014	2.007495	1.4168609
32.5538767291058	2.0386524	1.4278139
32.572135738105764	1.9945277	1.4122775
32.59039559714228	1.9639868	1.4014231
32.608656306797776	1.9593673	1.399774
32.62691786765491	2.0395799	1.4281386
32.645180280296586	2.0325978	1.4256921
32.663443545305896	2.0632336	1.436396
32.68170766326619	1.9944086	1.4122354
32.69997263476099	1.8634692	1.3650894
32.7182384603741	1.8437195	1.3578364
32.7365051406895	1.8933328	1.3759843
32.75477267629144	1.9426721	1.3937978
32.77304106776434	1.9277693	1.3884413
32.79131031569289	1.9184923	1.3850965
32.809580420661966	1.9728998	1.4045995
32.827851383256714	2.0418773	1.4289427
32.84612320406245	1.97867	1.4066521
32.86439588366476	1.8810076	1.3714983
32.88266942264945	1.9199681	1.3856292
32.9009438216025	2.0365214	1.4270674
32.9192190811102	2.048474	1.4312491
32.937495201758985	1.9585072	1.3994668
32.95577218413556	1.9298038	1.3891737
32.974050028826866	1.9793781	1.4069037
32.992328736420035	1.9695914	1.4034213
33.010608307502444	2.0149777	1.4194992
33.02888874266169	2.0226965	1.4222153
33.047170042485604	1.8693951	1.3672583
33.06545220756225	1.7911755	1.338348
33.083735238479896	1.8359593	1.3549758
33.10201913582707	1.9853706	1.4090317
33.12030390019248	1.9869107	1.4095782
33.138589532165135	1.8156656	1.3474663
33.15687603233419	1.7782875	1.3335245
33.17516340128909	1.8460046	1.3586775
33.19345163961947	1.813826	1.3467835
33.211740747915215	1.7959149	1.3401175
33.23003072676643	1.8482625	1.3595082
33.248321576763466	1.8010767	1.342042
33.266613298496885	1.8734887	1.3687544
33.28490589255747	1.957109	1.3989671
33.30319935953626	1.9639183	1.4013987
33.32149370002451	1.9332925	1.3904289
33.339788914613706	1.9272921	1.3882694
33.358085003895575	1.897546	1.3775145
33.376381968462034	1.882844	1.3721676
33.39467980890529	1.8938824	1.376184
33.41297852581774	1.8482877	1.3595175
33.43127811979204	1.797998	1.3408945
33.44957859142105	1.8067602	1.3441578
33.467879941297866	1.8362411	1.3550798
33.486182170015844	1.8331798	1.3539497
33.50448527816853	1.88235	1.3719876
33.522789266349754	1.988178	1.4100276
33.541094135153514	1.934167	1.3907434
33.55939988517411	1.8606746	1.3640655
33.57770651700602	1.950734	1.3966868
33.59601403124398	2.0145745	1.4193571
33.61432242848296	1.8747652	1.3692206
33.632631709318154	1.8184054	1.3484826
33.650941874344994	1.9358338	1.3913424
33.66925292415916	1.9392623	1.392574
33.68756485935654	1.8572018	1.3627919
33.70587768053328	1.9835043	1.4083694
33.724191388285746	2.0508018	1.432062
33.74250598321054	1.9666667	1.4023789
33.760821465904506	1.8761922	1.3697417
33.77913783696474	1.9100432	1.3820431
33.79745509698852	1.8584307	1.3632427
33.815773246573414	1.791615	1.3385122
33.8340922863172	1.8476163	1.3592705
33.852412216817896	1.8818626	1.37181
33.87073303867377	1.9660425	1.4021564
33.889054752483304	1.9563735	1.3987042
33.907377358845245	1.8996829	1.3782898
33.92570085835853	1.8841541	1.3726449
33.94402525162239	1.8839433	1.3725681
33.96235053923627	1.9051495	1.3802716
33.980676721799824	1.8548008	1.3619107
33.999003799912984	1.7790753	1.3338197
34.01733177417592	1.8002056	1.3417174
34.03566064518901	1.9163214	1.3843126
34.0539904135529	1.8474427	1.3592067
34.07232107986846	1.8075618	1.344456
34.090652644736785	1.9133793	1.3832495
34.108985108759235	2.0377684	1.4275043
34.12731847253742	2.0109093	1.4180653
34.14565273667313	1.9911963	1.4110975
34.16398790176847	1.9275141	1.3883494
34.18232396842574	1.8097423	1.3452666
34.20066093724749	1.7615113	1.3272194
34.21899880883651	1.7463561	1.3214977
34.23733758379583	1.8646251	1.3655127
34.25567726272874	1.920207	1.3857154
34.27401784623872	1.9161214	1.3842404
34.29235933492957	1.8695966	1.367332
34.31070172940526	1.8900905	1.3748056
34.32904503027003	1.8896313	1.3746386
34.347389238128386	1.8844436	1.3727504
34.36573435358502	1.9810357	1.4074928
34.38408037724492	1.9838161	1.40848
34.402427309713296	1.890918	1.3751066
34.42077515159559	1.8992095	1.3781182
34.43912390349752	1.9719639	1.4042664
34.45747356602499	2.0104926	1.4179184
34.47582413978423	1.8445876	1.358156
34.49417562538163	1.817271	1.3480619
34.51252802342388	2.042286	1.4290857
34.53088133451789	2.0574834	1.434393
34.54923555927084	2.0990212	1.4488
34.567590698290104	1.9394488	1.392641
34.58594675218336	1.9317093	1.3898594
34.6043037215585	1.8103173	1.3454803
34.62266160702365	1.8226011	1.3500375
34.641020409187234	1.8219554	1.3497983
34.65938012865785	1.7529187	1.3239784
34.677740766044394	1.8888451	1.3743526
34.69610232195598	2.03016	1.4248369
34.714464797002016	2.034435	1.4263362
34.73282819179208	2.0368526	1.4271835
34.751192506936064	1.8998736	1.3783591
34.76955774304408	1.7684314	1.3298239
34.7879239007265	1.6653332	1.2904779
34.80629098059391	1.7009423	1.3042017
34.824658983257194	1.7829344	1.3352656
34.843027909327446	1.884577	1.3727989
34.86139775941603	2.0327268	1.4257373
34.879768534134534	1.9538633	1.3978066
34.89814023409483	1.820091	1.3491075
34.91651285990901	1.8645635	1.3654902
34.93488641218944	1.9642948	1.401533
34.95326089154871	2.024543	1.4228644
34.97163629859967	2.026019	1.423383
34.99001263395542	1.766176	1.3289756
35.00838989822934	1.5381755	1.240232
35.02676809203499	1.5999309	1.2648838
35.04514721598624	1.733318	1.3165554
35.063527270697215	1.8779469	1.370382
35.081908256782256	1.9296689	1.3891252
35.10029017485597	1.7667515	1.329192
35.11867302553321	1.8371232	1.3554052
35.137056809429104	2.132258	1.4602253
35.155441527159006	2.2201583	1.4900196
35.173827179338524	2.2654045	1.5051261
35.19221376658354	1.9711972	1.4039934
35.21060128951017	1.8468361	1.3589835
35.2289897487348	1.8892744	1.3745087
35.24737914487405	2.0591686	1.4349804
35.26576947854479	2.1752412	1.4748698
35.28416075036418	2.075231	1.4405662
35.30255296094958	1.9901099	1.4107126
35.32094611091867	1.924394	1.3872253
35.33934020088932	2.0475426	1.4309237
35.35773523147969	2.1684844	1.4725775
35.3761312033082	1.996897	1.4131161
35.394528116993506	1.9680761	1.4028814
35.41292597315452	1.8979958	1.3776777
35.431324772410434	1.9786532	1.4066461
35.449724515380666	1.9573076	1.3990381
35.46812520268491	2.0199485	1.4212489
35.486526834943106	1.7468119	1.32167
35.504929412775454	1.9219433	1.3863417
35.52333293680242	2.4534452	1.5663477
35.54173740764471	2.2534754	1.501158
35.560142825923286	1.583142	1.2582297
35.5785491922594	1.1268593	1.0615363
35.59695650727454	1.2452648	1.1159143
35.61536477159042	1.8569168	1.3626873
