0.008763373481513119	0.0	0.0
0.026290120649546365	0.0	0.0
0.043816868432600686	0.24659032	0.4965786
0.06134361724069026	0.2941337	0.54234093
0.07887036748382949	0.29131275	0.53973395
0.0963971195720331	0.15165782	0.3894327
0.11392387391531617	0.12460285	0.35299128
0.1314506309236943	0.1242289	0.35246122
0.1489773910071836	0.13332051	0.3651308
0.16650415457580078	0.15175612	0.38955888
0.18403092203956356	0.12728846	0.35677508
0.20155769380849	0.14717662	0.38363606
0.2190844702925996	0.16818362	0.41010198
0.2366112519019124	0.1929342	0.43924275
0.2541380390464497	0.19074322	0.4367416
0.27166483213623416	0.12592769	0.3548629
0.28919163158128947	0.116666116	0.3415642
0.3067184377916406	0.09887445	0.31444308
0.324245251177314	0.110965304	0.33311456
0.34177207214833777	0.11847928	0.34420818
0.3592989011147415	0.11827604	0.34391284
0.37682573848655654	0.11687804	0.3418743
0.39435258467381573	0.1289157	0.3590483
0.41187944008655414	0.12327558	0.35110623
0.42940630513480854	0.16666816	0.40825012
0.446933180228618	0.1464584	0.38269883
0.4644600657780234	0.1667042	0.40829426
0.48198696219306775	0.20345792	0.4510631
0.49951386988379676	0.20750622	0.4555285
0.5170407892602581	0.18495741	0.43006676
0.5345677207325025	0.15252085	0.39053917
0.5520946647105822	0.11032015	0.33214477
0.5696216216045534	0.11050652	0.3324252
0.5871485918244737	0.09114049	0.3018948
0.6046755757804043	0.12344164	0.35134262
0.6222025738824094	0.1490042	0.38601062
0.6397295865405557	0.1607684	0.40095934
0.6572566141649129	0.16958944	0.4118124
0.6747836571655547	0.18217428	0.4268188
0.6923107159525568	0.17246963	0.41529462
0.7098377909359992	0.14310649	0.3782942
0.7273648825259653	0.11018766	0.33194527
0.7448919911325411	0.111767665	0.3343167
0.762419117165817	0.13638078	0.36929768
0.7799462610358868	0.18743303	0.43293536
0.7974734231528482	0.19536556	0.44200176
0.8150006039268024	0.20611048	0.45399392
0.8325278037678551	0.18764074	0.43317518
0.8500550230861152	0.18949863	0.43531442
0.8675822622916969	0.18412246	0.42909494
0.8851095217947171	0.20129529	0.44865942
0.9026368020052984	0.1809514	0.42538384
0.9201641033335665	0.17457473	0.4178214
0.9376914261896523	0.19490698	0.4414827
0.9552187709836915	0.28773096	0.5364056
0.9727461381258234	0.30494252	0.552216
0.990273528026193	0.29148453	0.5398931
1.0078009410949496	0.27562732	0.5250022
1.0253283777422473	0.28663078	0.5353791
1.0428558383782454	0.27964845	0.52881795
1.0603833234131086	0.28385606	0.5327814
1.0779108332570058	0.31616372	0.56228435
1.0954383683201119	0.3436893	0.5862502
1.112965929012607	0.3474308	0.5894326
1.1304935157446763	0.42587343	0.6525898
1.1480211289265108	0.47231328	0.68725055
1.1655487689683062	1.3629591	1.1674584
1.1830764362802655	1.6147393	1.2707239
1.200604131272596	1.9918796	1.4113396
1.2181318543555117	2.171957	1.4737561
1.235659605939232	2.1614826	1.4701982
1.253187386433982	3.7661514	1.9406575
1.270715196249994	6.1609473	2.4821255
1.2882430357975057	11.47735	3.3878238
1.3057709054867608	16.322308	4.0400877
1.3232988057280106	22.260698	4.7181244
1.3408267369315112	27.305477	5.2254643
1.358354699507526	30.815382	5.5511603
1.3758826938663256	34.804882	5.899566
1.3934107204181858	36.65473	6.054315
1.410938779573391	37.029617	6.0851965
1.4284668717422309	38.02589	6.1665134
1.4459949973350033	37.970848	6.162049
1.4635231567620117	37.806614	6.1487083
1.4810513504335687	36.689594	6.0571938
1.4985795787599925	35.498425	5.9580555
1.5161078421516088	34.738197	5.893912
1.5336361410187505	33.752914	5.8097258
1.5511644757717598	33.772087	5.8113756
1.5686928468209842	34.355892	5.86139
1.58622125457678	35.305	5.941801
1.6037496994495108	36.807487	6.0669174
1.621278181849548	36.51989	6.043169
1.6388067021872719	37.456104	6.120139
1.6563352608730693	36.703896	6.058374
1.673863858317336	35.963634	5.9969687
1.6913924949304753	35.129383	5.9270043
1.7089211711228998	34.28578	5.8554063
1.7264498873050296	33.40727	5.779902
1.7439786438872935	32.63998	5.713141
1.7615074412801288	31.745625	5.6343255
1.779036279893981	30.920399	5.5606112
1.796565160139305	29.93426	5.471221
1.814094082426564	29.239965	5.407399
1.8316230471662298	28.781815	5.3648686
1.849152054768784	27.969112	5.2885833
1.8666811056447168	27.19825	5.215194
1.8842102002045273	26.463522	5.144271
1.901739338858724	26.142899	5.113013
1.9192685220178245	25.716402	5.071134
1.9367977500923557	25.080769	5.0080705
1.9543270234928547	24.375376	4.9371424
1.971856342629867	23.605034	4.8585014
1.9893857079139496	23.14452	4.810875
2.006915119755667	22.581137	4.751961
2.0244445785655945	22.330404	4.725506
2.0419740847543175	21.74924	4.663608
2.0595036387324317	21.126524	4.5963597
2.0770332409105414	20.632505	4.5423017
2.094562891699263	20.353304	4.5114636
2.1120925915092217	19.956581	4.467279
2.129622340751053	19.636145	4.431269
2.1471521398354043	187.56042	13.695271
2.1646819891729323	443.6345	21.062634
2.182211889174303	440.1169	20.978964
2.1997418402501974	452.6826	21.276339
2.2172718428113023	432.58743	20.798737
2.234801897268317	320.6044	17.90543
2.2523320040319548	16.936022	4.1153398
2.269862163512935	16.727869	4.0899715
2.287392376121992	16.263124	4.0327563
2.304922642269869	15.912604	3.9890606
2.322452962367322	15.680807	3.9599
2.3399833368251164	15.562023	3.944873
2.357513766054032	15.473505	3.9336376
2.3750442504648586	15.116371	3.8879778
2.3925747904683963	14.683044	3.831846
2.410105386475459	14.267701	3.777261
2.4276360388968707	13.820052	3.717533
2.445166748143469	13.576618	3.6846464
2.4626975146261025	13.36773	3.6561906
2.4802283387556323	13.39656	3.6601312
2.4977592209429305	13.302346	3.6472383
2.5152901615988825	13.053582	3.6129742
2.5328211611343865	12.700615	3.5637922
2.5503522199603523	12.397628	3.5210266
2.5678833384877024	12.2843485	3.5049036
2.5854145171273712	12.195942	3.4922688
2.6029457562903064	11.98807	3.4623792
2.620477056387469	11.661567	3.4149036
2.6380084178298326	11.407896	3.3775578
2.655539841028383	11.191658	3.3453937
2.673071326394119	11.145811	3.3385344
2.6906028743380523	10.931001	3.3062065
2.708134485271211	10.750675	3.2788222
2.7256661596046325	10.466972	3.23527
2.743197897749369	10.30138	3.2095764
2.760729700116486	10.196175	3.193145
2.778261567117063	10.135243	3.1835897
2.795793499162193	9.995432	3.1615553
2.8133254966629817	9.943334	3.1533053
2.830857560030551	9.770141	3.1257224
2.8483896896760337	9.51581	3.0847707
2.865921886010578	9.338636	3.0559182
2.883454149445347	9.286492	3.0473747
2.9009864803915177	9.174776	3.0289893
2.91851887926028	9.015145	3.0025232
2.9360513464628384	8.895783	2.98258
2.953583882410413	8.908645	2.9847353
2.9711164875142373	8.831993	2.9718668
2.9886491621855606	8.654913	2.9419234
3.0061819068356455	8.548592	2.9237974
3.023714721875769	8.469594	2.9102566
3.041247607717225	8.4560995	2.9079373
3.0587805647713213	8.294744	2.8800597
3.0763135934493806	8.137819	2.8526864
3.0938466941627407	7.9005303	2.8107882
3.1113798673227544	7.8142967	2.7954063
3.1289131133407904	7.6900687	2.7730973
3.1464464326282315	7.615468	2.7596138
3.1639798255964786	7.716833	2.7779188
3.1815132926569443	7.737601	2.7816544
3.1990468342210603	7.745338	2.7830448
3.216580450700272	7.562405	2.7499828
3.2341141425060416	7.4829965	2.7355065
3.251647910049847	7.3553185	2.712069
3.2691817537431813	7.1247544	2.6692235
3.286715673997555	7.021631	2.649836
3.3042496712244938	6.993276	2.6444802
3.32178374583554	6.9246182	2.6314669
3.339317898242251	6.87684	2.622373
3.3568521288562034	6.7513595	2.598338
3.3743864380889876	6.674698	2.5835438
3.3919208263522127	6.613869	2.5717444
3.4094552940575023	6.5352387	2.5564113
3.4269898416164972	6.608302	2.5706618
3.444524469440858	6.586363	2.566391
3.4620591779422587	6.62592	2.5740862
3.479593967532391	6.529485	2.5552857
3.4971288386229658	6.3597484	2.5218542
3.5146637916257086	6.183727	2.48671
3.5321988269523628	6.100021	2.469822
3.5497339450146903	6.1338425	2.4766595
3.5672691462244708	6.2274704	2.49549
3.5848044309934988	6.2405686	2.498113
3.60233979973359	6.226122	2.4952197
3.619875252856575	6.204408	2.490865
3.6374107907743034	6.1633005	2.4825995
3.6549464138986427	6.135154	2.4769242
3.6724821226414788	6.121879	2.4742432
3.690017917414714	6.127557	2.4753902
3.7075537986302702	6.1990404	2.4897873
3.7250897667000857	6.228665	2.4957294
3.7426258220361235	6.3100605	2.5119834
3.7601619650503553	6.6460476	2.577993
3.777698196154779	7.228537	2.6885939
3.7952345157614067	8.472195	2.9107034
3.8127709242822716	9.328791	3.054307
3.830307422129425	11.711172	3.422159
3.847844009714936	30.481218	5.52098
3.8653806874508954	97.92948	9.895932
3.882917455749409	97.07116	9.852469
3.900454315022606	96.69653	9.83344
3.917991265682631	41.22129	6.420381
3.9355283081416506	10.936937	3.307104
3.9530654428118495	8.716188	2.9523191
3.970602670105433	7.437201	2.7271233
3.9881399904346244	6.3999453	2.5298114
4.005677404211669	6.3108215	2.5121348
4.023214911848827	6.2471952	2.499439
4.0407525137583855	6.256665	2.5013328
4.058290210352644	6.3471446	2.519354
4.075828002043927	6.2599564	2.5019906
4.0933658892445814	6.160667	2.482069
4.110903872366966	6.1099153	2.4718242
4.128441951823468	6.084746	2.4667277
4.145980128026488	6.053249	2.460335
4.163518401388452	5.9646816	2.4422698
4.181056772321807	5.9827456	2.4459653
4.1985952412390155	6.1075697	2.4713497
4.216133808552567	6.131452	2.476177
4.233672474674966	6.109133	2.471666
4.251211240018741	6.234765	2.496951
4.268750104996445	6.5307136	2.555526
4.286289070020643	7.4650917	2.732232
4.303828135503928	9.17116	3.0283923
4.3213673018589125	29.434265	5.4253354
4.3389065694982305	90.59237	9.5180025
4.356445938834537	165.73564	12.873836
4.3739854102805085	170.76268	13.067619
4.391524984248844	171.68181	13.10274
4.409064661152262	135.87312	11.656463
4.426604441403504	96.25342	9.810883
4.444144325415337	75.557976	8.6924095
4.461684313600543	21.421816	4.628371
4.47922440637193	21.869484	4.676482
4.496764604142329	20.12326	4.4858956
4.5143049073245916	18.304255	4.278347
4.531845316331589	16.376472	4.0467854
4.5493858315762195	13.569919	3.683737
4.566926453471405	11.298225	3.3612833
4.584467182430081	9.167901	3.0278542
4.602008018865218	7.9892077	2.8265188
4.619548963189798	7.3900323	2.7184613
4.637090015816834	6.819585	2.6114335
4.654631177159353	6.5885196	2.566811
4.672172447630417	6.34207	2.5183468
4.689713827643102	6.2459416	2.4991882
4.7072553176105085	6.091189	2.4680333
4.724796917945764	5.978237	2.4450433
4.742338629062015	5.9005256	2.4290998
4.759880451372434	5.7682753	2.4017234
4.777422385290215	5.5936403	2.3650877
4.794964431228581	5.4918003	2.3434591
4.812506589600768	5.5003195	2.3452759
4.830048860820047	5.5489564	2.3556223
4.847591245299709	5.5709925	2.360295
4.8651337434530655	5.5336723	2.352376
4.882676355693457	5.4439487	2.3332272
4.900219082434242	5.5207434	2.3496263
4.917761924088813	5.485683	2.3421535
4.935304881070575	5.469678	2.3387341
4.952847953792969	5.3809447	2.3196864
4.970391142669449	5.3425293	2.311391
4.9879344481135055	5.2536407	2.292082
5.005477870538642	5.2106605	2.2826872
5.023021410358394	5.283369	2.298558
5.040565067986324	5.406155	2.325114
5.05810884383601	5.503033	2.3458545
5.075652738321066	5.455009	2.335596
5.09319675185512	5.3398695	2.3108158
5.110740884851836	5.246937	2.2906194
5.128285137724894	5.2286916	2.2866333
5.145829510888007	5.25492	2.2923613
5.163374004754908	5.2084703	2.2822073
5.1809186197393595	5.1954117	2.2793446
5.198463356255145	5.22379	2.2855613
5.216008214716077	5.271656	2.2960088
5.233553195535998	5.275261	2.2967937
5.251098299128764	5.222393	2.2852557
5.268643525908272	5.1610465	2.2717936
5.286188876288432	5.086742	2.2553806
5.3037343506831895	5.183728	2.2767801
5.32127994950651	5.2803082	2.297892
5.3388256731723915	5.3722486	2.3178113
5.356371522094851	5.291356	2.3002949
5.373917496687938	5.2143407	2.283493
5.391463597365729	5.1887736	2.277888
5.40900982454232	5.1671677	2.2731404
5.426556178631843	5.0857477	2.2551603
5.444102660048449	5.075925	2.2529814
5.4616492692063225	5.056447	2.2486546
5.479196006519669	5.0834527	2.2546513
5.496742872402727	5.0604825	2.2495515
5.514289867269756	5.0481024	2.2467983
5.531836991535049	5.087905	2.2556384
5.549384245612924	5.128225	2.2645583
5.566931629917724	5.0951467	2.2572432
5.584479144863822	5.0826826	2.2544806
5.6020267908656205	5.0438156	2.2458441
5.619574568337545	5.008808	2.2380366
5.637122477694054	4.960733	2.2272704
5.654670519349629	4.985485	2.23282
5.672218693718784	4.985397	2.2328002
5.689767001216059	5.035934	2.2440886
5.707315442256021	5.0810676	2.2541223
5.724864017253266	5.1305447	2.2650707
5.7424127266224225	5.073323	2.2524037
5.75996157077814	4.9708133	2.229532
5.777510550135105	4.9504223	2.2249544
5.795059665108022	4.981253	2.231872
5.812608916111639	5.0773244	2.2532918
5.830158303560715	5.231586	2.287266
5.847707827870055	5.262078	2.293922
5.86525748945448	5.298387	2.3018227
5.8828072887288485	5.3648763	2.3162203
5.900357226108044	5.403952	2.3246403
5.917907302006979	5.5680437	2.3596702
5.9354575168406	6.260029	2.5020049
5.9530078710238765	6.941079	2.6345928
5.970558364971812	7.4937882	2.7374785
5.988108999099438	7.7964873	2.7922192
6.005659773821818	8.329976	2.88617
6.023210689554039	8.031738	2.834032
6.040761746711227	8.413901	2.9006727
6.058312945708531	7.6568375	2.7670991
6.075864286961132	7.164118	2.6765869
6.093415770884244	6.4877806	2.5471122
6.1109673978931065	5.986883	2.4468107
6.128519168402993	5.4114847	2.3262599
6.146071082829204	5.347203	2.312402
6.163623141587075	5.2505536	2.2914085
6.181175345091969	5.2073092	2.2819529
6.198727693759281	5.1393237	2.2670076
6.216280188004435	5.1164727	2.2619622
6.233832828242885	5.1299605	2.2649417
6.251385614890126	5.1110053	2.2607532
6.268938548361669	5.1838236	2.276801
6.286491629073067	5.114075	2.2614322
6.304044857439898	5.048515	2.24689
6.321598233877777	4.9451275	2.2237642
6.339151758802344	4.892249	2.211843
6.356705432629277	4.916175	2.2172449
6.37425925577428	4.9069643	2.2151668
6.391813228653095	4.869431	2.2066786
6.409367351681486	4.898054	2.2131548
6.426921625275259	4.947349	2.2242637
6.44447604985025	4.9597664	2.2270534
6.46203062582232	4.9988737	2.235816
6.47958535360737	4.902365	2.2141285
6.497140233621328	4.869196	2.2066255
6.514695266280161	4.834223	2.1986866
6.532250451999859	4.954901	2.2259607
6.549805791196454	5.0137153	2.2391326
6.567361284286002	5.0090375	2.238088
6.584916931684597	4.9873877	2.233246
6.602472733808367	4.9330816	2.221054
6.6200286910734665	4.914285	2.2168188
6.637584803896092	4.9235497	2.2189074
6.655141072692462	4.9615493	2.2274535
6.672697497878842	4.9711614	2.2296102
6.690254079871514	4.9025774	2.2141764
6.707810819086808	4.8108935	2.1933749
6.725367715941078	4.7365794	2.1763685
6.742924770850719	4.760817	2.1819296
6.760481984232151	4.7825336	2.1869004
6.778039356501836	4.8399553	2.1999898
6.795596888076266	4.9192753	2.217944
6.813154579371963	4.9341693	2.221299
6.830712430805492	4.9158826	2.217179
6.84827044279344	4.9211426	2.218365
6.865828615752445	4.82856	2.1973984
6.883386950099159	4.8217273	2.1958432
6.900945446250287	4.8275356	2.1971653
6.918504104622553	4.8331366	2.1984396
6.936062925632727	4.8874125	2.2107494
6.953621909697607	4.9098907	2.2158272
6.971181057234028	4.9359035	2.2216895
6.988740368658859	4.994403	2.234816
7.006299844389007	5.106396	2.2597337
7.023859484841407	5.2332163	2.2876225
7.041419290433036	5.29777	2.3016884
7.058979261580902	5.354248	2.3139248
7.0765393987020495	5.5529666	2.3564734
7.094099702213559	5.8717284	2.4231648
7.111660172532549	6.276885	2.5053713
7.129220810076164	6.5163965	2.5527234
7.146781615261595	7.084293	2.6616335
7.16434258850606	7.334046	2.7081444
7.181903730226821	7.7985225	2.7925835
7.1994650408411704	7.9969687	2.827891
7.217026520766437	8.189944	2.8618078
7.234588170419983	8.420807	2.9018626
7.252149990219215	8.457996	2.9082634
7.269711980581568	8.334669	2.8869827
7.2872741419245175	8.081879	2.8428645
7.304836474665574	7.6513176	2.7661016
7.322398979222286	7.295485	2.7010155
7.339961656012233	7.062691	2.6575725
7.357524505453039	6.7565126	2.5993292
7.375087527962357	6.5254183	2.5544899
7.392650723957886	6.239828	2.4979649
7.410214093857353	5.9080973	2.4306579
7.427777638078528	5.685912	2.384515
7.445341357039213	5.469009	2.3385913
7.4629052511572525	5.3012133	2.3024364
7.480469320850524	5.155512	2.2705753
7.498033566536948	5.0769143	2.253201
7.5155979886344735	5.1048436	2.25939
7.5331625875610975	5.117257	2.2621355
7.550727363734844	5.1387887	2.2668896
7.568292317573788	5.058011	2.2490022
7.585857449496025	5.049413	2.2470899
7.603422759919705	5.1007314	2.2584798
7.620988249263007	5.1024647	2.2588637
7.638553917944147	5.087655	2.255583
7.656119766381391	5.081054	2.2541194
7.673685794993023	5.132524	2.2655075
7.691252004197388	5.0691047	2.2514672
7.70881839441285	5.0681953	2.2512653
7.726384966057826	5.0984225	2.2579687
7.743951719550762	5.131089	2.2651908
7.761518655310149	5.1823864	2.2764854
7.779085773754511	5.197072	2.2797089
7.796653075302419	5.2337165	2.2877316
7.814220560372475	5.2639503	2.2943301
7.831788229383323	5.2145824	2.283546
7.8493560827536495	5.1544256	2.270336
7.866924120902174	5.169168	2.2735806
7.884492344247663	5.1886296	2.2778563
7.9020607532089135	5.252286	2.2917867
7.919629348204771	5.2292514	2.2867556
7.937198129654115	5.286715	2.2992857
7.954767097975865	5.3122644	2.304835
7.972336253588986	5.3292603	2.3085191
7.989905596912472	5.3658257	2.316425
8.007475128365371	5.3561707	2.31434
8.025044848366756	5.395197	2.3227563
8.042614757335754	5.5209703	2.3496745
8.060184855691523	5.561937	2.3583758
8.07775514385327	5.6995797	2.3873792
8.095325622240228	5.6775765	2.3827665
8.112896291271687	5.73122	2.3939967
8.130467151366968	5.7233796	2.3923585
8.148038202945436	5.7426386	2.3963804
8.165609446426497	5.738806	2.3955805
8.183180882229594	5.8038154	2.409111
8.200752510774217	5.844565	2.4175534
8.218324332479893	5.815941	2.411626
8.235896347766193	5.779733	2.4041076
8.253468557052724	5.7241354	2.3925166
8.27104096075914	5.7370253	2.3952088
8.288613559305137	5.8315725	2.414865
8.306186353110448	5.95324	2.4399261
8.32375934259485	6.060376	2.4617832
8.341332528178162	6.1178737	2.4734335
8.358905910280246	6.154535	2.4808335
8.376479489321003	6.1931353	2.488601
8.394053265720377	6.2559566	2.5011911
8.411627239898356	6.24903	2.499806
8.42920141227497	6.218668	2.4937258
8.44677578327029	6.2653074	2.5030596
8.464350353304427	6.2521243	2.5004249
8.48192512279754	6.1798453	2.4859295
8.499500092169827	6.1544228	2.4808109
8.51707526184153	6.1764073	2.4852378
8.534650632232934	6.2121587	2.4924202
8.552226203764365	6.1519537	2.4803133
8.569801976856192	6.1388097	2.477662
8.587377951928834	6.086632	2.46711
8.60495412940274	6.114244	2.4726996
8.622530509698416	6.0890675	2.4676037
8.6401070932364	6.2076077	2.491507
8.657683880437283	6.300511	2.5100818
8.675260871721695	6.422014	2.5341694
8.692838067510303	6.5841384	2.5659575
8.710415468223834	6.6896067	2.5864275
8.727993074283043	6.8798523	2.6229472
8.745570886108737	6.9010773	2.62699
8.763148904121765	6.985877	2.643081
8.78072712874302	6.952144	2.6366918
8.798305560393441	7.2111154	2.685352
8.815884199494006	7.4048376	2.721183
8.833463046465745	7.6761928	2.7705944
8.851042101729728	7.7821374	2.7896483
8.86862136570707	7.9684043	2.8228362
8.886200838818924	8.099472	2.845957
8.903780521486505	8.203117	2.8641086
8.921360414131055	8.335384	2.8871067
8.938940517173874	8.506261	2.9165494
8.956520831036297	8.6131	2.9348083
8.97410135613971	8.8512125	2.9750988
8.99168209290554	9.053708	3.008938
9.009263041755265	9.278494	3.046062
9.026844203110405	9.488869	3.0804007
9.044425577392525	9.697193	3.1140316
9.062007165023239	9.830376	3.135343
9.079588966424197	10.126112	3.1821551
9.097170982017108	10.254843	3.2023184
9.11475321222372	11.460691	3.3853643
9.132335657465825	12.461926	3.5301454
9.149918318165264	12.5887575	3.548064
9.167501194743924	13.070793	3.6153553
9.18508428762374	12.674654	3.560148
9.202667597226693	12.6567335	3.5576303
9.220251123974803	12.299214	3.5070236
9.237834868290143	11.916075	3.4519668
9.255418830594836	11.771899	3.4310203
9.273003011311046	11.163465	3.3411772
9.290587410860985	10.926511	3.3055272
9.308172029666911	10.267455	3.204287
9.32575686815113	9.967931	3.157203
9.343341926735997	8.690564	2.9479764
9.360927205843916	8.466165	2.9096675
9.378512705897327	8.195112	2.8627107
9.396098427318728	7.932342	2.8164413
9.413684370530664	7.7934465	2.7916746
9.431270535955722	7.707565	2.7762501
9.448856924016539	7.6210556	2.7606258
9.466443535135806	7.447032	2.728925
9.484030369736251	7.5168586	2.741689
9.501617428240658	7.5660834	2.7506514
9.519204711071852	7.701993	2.7752464
9.536792218652714	7.7205687	2.7785912
9.55437995140617	7.750733	2.7840137
9.571967909755191	7.7195725	2.7784119
9.589556094122802	7.7925334	2.791511
9.60714450493207	7.825146	2.7973464
9.624733142606116	7.8585005	2.8033018
9.642322007568108	7.8435693	2.8006372
9.659911100241267	7.8818254	2.8074589
9.677500421048851	7.8867397	2.8083339
9.695089970414175	7.9375715	2.8173697
9.712679748760609	7.9132023	2.8130414
9.730269756511557	7.9718156	2.8234403
9.747859994090492	7.970174	2.8231497
9.765450461920915	8.039277	2.835362
9.78304116042639	8.053889	2.8379376
9.800632090030527	8.109369	2.8476954
9.81822325115699	8.062351	2.839428
9.835814644229481	8.094533	2.8450892
9.853406269671762	8.070025	2.840779
9.870998127907646	8.097938	2.8456876
9.888590219360985	8.143921	2.8537555
9.906182544455698	8.175053	2.859205
9.923775103615734	8.207288	2.8648365
9.941367897265108	8.241204	2.8707497
9.958960925827878	8.185684	2.8610635
9.97655418972816	8.195262	2.8627367
9.994147689390106	8.2143755	2.8660731
10.011741425237934	8.225376	2.8679917
10.029335397695904	8.233306	2.8693738
10.04692960718833	8.280214	2.877536
10.06452405413958	8.229338	2.8686821
10.082118738974064	8.22632	2.8681562
10.099713662116246	8.189518	2.8617334
10.117308823990651	8.077342	2.8420665
10.134904225021844	8.0522995	2.8376575
10.152499865634445	7.957753	2.820949
10.170095746253125	7.987299	2.826181
10.18769186730261	7.997902	2.828056
10.205288229207675	8.03633	2.8348422
10.222884832393145	8.010902	2.8303537
10.2404816772839	8.004354	2.8291967
10.258078764304868	7.988819	2.8264499
10.275676093881035	7.9583235	2.8210502
10.293273666437438	7.9951363	2.827567
10.310871482399158	8.020107	2.8319793
10.32846954219134	8.0506115	2.83736
10.346067846239173	8.005521	2.829403
10.363666394967908	8.004651	2.8292491
10.38126518880283	8.073997	2.8414779
10.398864228169298	8.109133	2.8476539
10.416463513492713	8.082718	2.843012
10.434063045198531	8.012011	2.8305495
10.451662823712262	7.9903607	2.8267226
10.469262849459467	8.06853	2.8405159
10.486863122865758	8.074656	2.8415937
10.504463644356806	8.070508	2.840864
10.522064414358338	8.029511	2.8336391
10.539665433296118	7.92327	2.8148303
10.557266701595987	7.891766	2.8092287
10.574868219683818	7.8094573	2.7945406
10.592469987985552	7.7561674	2.7849896
10.610072006927185	7.614337	2.7594087
10.627674276934751	7.4709053	2.7332957
10.64527679843435	7.2411194	2.6909328
10.662879571852143	7.091011	2.6628952
10.680482597614331	7.0143657	2.6484647
10.698085876147173	6.9873986	2.6433687
10.715689407876988	6.897463	2.6263022
10.733293193230146	6.750397	2.5981526
10.750897232633072	6.6592455	2.5805514
10.76850152651225	6.636328	2.5761073
10.786106075294207	6.569442	2.5630922
10.803710879405534	6.4794636	2.545479
10.821315939272877	6.3501816	2.5199566
10.83892125532294	6.290043	2.5079958
10.856526827982472	6.2320642	2.4964104
10.874132657678285	6.2246766	2.4949303
10.891738744837243	6.199891	2.489958
10.909345089886271	6.169617	2.4838715
10.926951693252343	6.1382904	2.4775574
10.944558555362494	6.07039	2.4638162
10.96216567664381	6.0056005	2.4506326
10.979773057523436	5.94289	2.4378045
10.997380698428573	5.836286	2.4158406
11.014988599786477	5.756524	2.3992758
11.032596762024461	5.6721706	2.3816319
11.050205185569892	5.6348863	2.3737915
11.067813870850198	5.570697	2.3602324
11.085422818292859	5.46631	2.3380141
11.10303202832541	5.3398438	2.31081
11.120641501375454	5.279547	2.2977266
11.138251237870636	5.2576957	2.2929666
11.155861238238671	5.247398	2.29072
11.173471502907317	5.231829	2.2873192
11.191082032304402	5.150584	2.2694898
11.208692826857805	5.0962276	2.2574825
11.226303886995465	4.995425	2.2350447
11.243915213145371	4.9192133	2.2179298
11.261526805735578	4.8599744	2.204535
11.279138665194196	4.8045382	2.1919258
11.296750791949393	4.768526	2.1836956
11.314363186429393	4.6818194	2.1637511
11.331975849062479	4.6088586	2.1468253
11.34958878027699	4.534778	2.1295018
11.36720198050133	4.5318055	2.1288037
11.384815450163948	4.518963	2.1257854
11.402429189693366	4.469238	2.1140573
11.420043199518153	4.4004197	2.0977178
11.437657480066942	63.364628	7.9601903
11.455272031768422	85.092125	9.22454
11.472886855051353	107.49899	10.368172
11.490501950344528	99.07165	9.953474
11.508117318076819	84.44255	9.189262
11.52573295867715	45.873173	6.7729735
11.543348872574514	4.1845713	2.0456223
11.560965060197946	4.1168647	2.0290058
11.57858152197655	4.008652	2.002162
11.59619825833949	3.9187253	1.9795771
11.613815269715985	3.9130769	1.9781499
11.631432556535323	38.43884	6.1999063
11.649050119226837	82.98967	9.109866
11.666667958219929	93.3851	9.663597
11.68428607394406	107.64636	10.375277
11.701904466828756	82.46378	9.080957
11.719523137303586	65.3444	8.083589
11.737142085798196	4.562031	2.1358912
11.754761312742286	3.648739	1.9101673
11.772380818565619	3.6182532	1.9021707
11.790000603698015	3.5718186	1.8899256
11.80762066856935	3.561461	1.8871833
11.825241013609572	3.501293	1.8711742
11.842861639248683	3.4464831	1.8564706
11.860482545916748	3.352261	1.8309181
11.878103734043883	3.330006	1.8248304
11.895725204060282	3.294879	1.8151802
11.91334695639619	3.3057375	1.8181688
11.930968991481919	3.298752	1.8162467
11.948591309747824	3.3125837	1.8200505
11.966213911624347	3.3058333	1.8181951
11.98383679754198	3.3041942	1.8177443
12.001459967931268	3.3122318	1.8199538
12.019083423222835	3.2855833	1.8126178
12.036707163847352	3.2180614	1.7938956
12.05433119023556	3.1564434	1.7766383
12.071955502818259	3.1470504	1.7739928
12.089580102026313	3.1790814	1.7829978
12.107204988290643	3.1539443	1.7759347
12.12483016204224	3.1323953	1.7698574
12.142455623712152	3.073677	1.7531905
12.16008137373149	3.0554755	1.7479918
12.177707412531431	3.041862	1.7440934
12.19533374054321	3.0415344	1.7439996
12.212960358198126	3.0230145	1.7386818
12.230587265927545	3.0076745	1.7342649
12.248214464162889	3.0107331	1.7351464
12.265841953335649	2.98387	1.7273883
12.283469733877375	2.9610143	1.7207597
12.301097806219685	2.9289145	1.7114072
12.31872617079425	2.9155235	1.7074904
12.336354828032825	2.9061165	1.7047336
12.353983778367205	2.9148586	1.7072957
12.371613022229262	2.8879247	1.6993895
12.389242560050928	2.9004123	1.7030597
12.406872392264201	2.9151947	1.7073941
12.424502519301143	2.8877153	1.699328
12.442132941593874	2.8578007	1.6905031
12.459763659574586	2.795328	1.6719234
12.477394673675532	2.7750275	1.6658413
12.49502598432903	2.7805147	1.6674875
12.51265759196746	2.797707	1.6726347
12.530289497023267	2.7994416	1.6731532
12.547921699928967	2.804685	1.6747195
12.565554201117134	2.7811747	1.6676854
12.583187001020404	2.7376928	1.6545975
12.600820100071486	2.7150884	1.6477525
12.618453498703152	2.7365096	1.6542399
12.636087197348235	2.7875009	1.669581
12.65372119643964	2.7930176	1.6712323
12.671355496410326	2.7641737	1.6625805
12.68899009769333	2.7573876	1.6605383
12.706625000721749	2.7733564	1.6653397
12.724260205928752	2.8566306	1.6901569
12.741895713747551	2.943251	1.7155906
12.759531524611454	2.9659598	1.7221962
12.777167638953818	2.9446735	1.7160051
12.794804057208072	2.9043107	1.7042038
12.812440779807702	2.9526322	1.7183225
12.830077807186271	3.1607244	1.7778426
12.847715139777405	3.2291393	1.7969806
12.865352778014795	3.428434	1.851603
12.882990722332197	3.5447824	1.8827592
12.90062897316344	3.6478124	1.9099247
12.918267530942412	3.7635362	1.9399836
12.935906396103071	3.6878755	1.9203842
12.953545569079449	3.8267062	1.9561969
12.971185050305628	3.6207354	1.902823
12.988824840215775	3.570633	1.8896118
13.006464939244115	3.5773253	1.8913819
13.024105347824943	3.4135795	1.8475875
13.041746066392617	3.492953	1.8689444
13.05938709538157	3.3136234	1.8203361
13.077028435226296	3.3717654	1.8362367
13.094670086361363	3.2622082	1.8061584
13.112312049221401	3.117081	1.7655257
13.129954324241112	3.0273964	1.7399415
13.147596911855258	2.8514955	1.6886371
13.165239812498685	2.8297944	1.6821992
13.182883026606293	2.7933674	1.671337
13.200526554613058	2.7543283	1.659617
13.218170396954017	2.7310483	1.6525884
13.235814554064284	2.728022	1.6516725
13.253459026379034	2.7215822	1.6497219
13.271103814333523	2.7034936	1.6442304
13.288748918363058	2.6850724	1.6386191
13.306394338903031	2.701129	1.6435112
13.32404007638889	2.6499646	1.6278712
13.341686131256164	2.6401796	1.6248629
13.359332503940449	2.6108844	1.6158231
13.376979194877402	2.6034522	1.6135217
13.394626204502751	2.6338987	1.6229291
13.412273533252307	2.6462696	1.6267358
13.429921181561937	2.675686	1.6357524
13.447569149867581	2.6837168	1.6382054
13.465217438605247	2.6976693	1.6424583
13.482866048211022	2.6915479	1.6405938
13.500514979121052	2.6912353	1.6404985
13.518164231771568	2.6872194	1.639274
13.535813806598844	2.6594648	1.6307865
13.553463704039254	2.648649	1.627467
13.571113924529229	2.6229331	1.6195472
13.588764468505275	2.637097	1.623914
13.606415336403956	2.6915355	1.64059
13.624066528661917	2.6769211	1.63613
13.641718045715882	2.7105	1.6463596
13.659369888002635	2.7695348	1.664192
13.67702205595903	2.85138	1.688603
13.694674550021993	2.91827	1.7082945
13.712327370628532	2.9861183	1.7280389
13.729980518215713	3.0733187	1.7530884
13.747633993220681	3.1280327	1.7686245
13.765287796080647	3.1736777	1.7814819
13.7829419272329	3.221199	1.7947699
13.800596387114801	3.2566137	1.8046091
13.818251176163775	3.2637002	1.8065714
13.835906294817324	3.2544093	1.8039981
13.853561743513023	3.3163037	1.8210721
13.871217522688525	3.4124799	1.8472899
13.888873632781538	3.471635	1.8632325
13.906530074229858	3.5308146	1.8790462
13.92418684747135	3.4876132	1.8675152
13.941843952943948	3.4733577	1.8636947
13.959501391085665	3.4472685	1.8566821
13.977159162334578	3.3977807	1.843307
13.994817267128846	3.3795128	1.8383452
14.012475705906693	3.2707758	1.8085287
14.030134479106424	3.1966012	1.7879041
14.047793587166414	3.0883753	1.7573774
14.065453030525108	3.0051603	1.7335398
14.083112809621026	2.9692738	1.7231581
14.100772924892766	2.9003327	1.7030363
14.118433376778997	2.8485434	1.6877629
14.136094165718458	2.7974842	1.6725681
14.153755292149969	2.7232985	1.650242
14.171416756512416	2.64145	1.6252538
14.189078559244768	2.6071882	1.614679
14.20674070078606	2.5616395	1.6005123
14.224403181575408	2.49972	1.5810503
14.242066002051999	2.4266143	1.5577594
14.259729162655093	2.4198442	1.5555848
14.277392663824022	2.4331355	1.5598512
14.295056505998208	2.4521027	1.5659192
14.312720689617128	2.4571245	1.5675218
14.330385215120348	2.4500077	1.56525
14.348050082947497	2.3870196	1.5449983
14.3657152935383	2.3537018	1.5341779
14.383380847332528	2.3507996	1.5332317
14.401046744770051	2.3825157	1.54354
14.418712986290798	2.3712075	1.5398725
14.436379572334793	2.3733938	1.5405823
14.454046503342123	2.3548717	1.5345591
14.471713779752946	2.3782296	1.542151
14.489381402007504	2.3746681	1.5409958
14.507049370546113	2.3750024	1.5411043
14.524717685809168	2.372622	1.5403318
14.542386348237134	2.4016879	1.549738
14.560055358270553	2.408138	1.5518177
14.577724716350051	2.4674642	1.5708164
14.595394422916325	2.434682	1.5603467
14.61306447841015	2.4713569	1.572055
14.63073488327237	2.455322	1.5669467
14.648405637943917	2.4931538	1.5789723
14.6660767428658	2.4605498	1.568614
14.683748198479094	2.4744797	1.5730479
14.701420005224954	2.49447	1.5793891
14.719092163544628	2.5629096	1.600909
14.73676467387942	2.5863006	1.6081979
14.754437536670727	2.6115239	1.616021
14.772110752360014	2.6035395	1.6135488
14.78978432138882	2.6081834	1.6149871
14.807458244198777	2.6320662	1.6223644
14.82513252123159	2.6143615	1.6168988
14.842807152929028	2.657618	1.6302203
14.860482139732962	2.6637492	1.6320996
14.87815748208531	2.6652517	1.6325599
14.8958331804281	2.6512702	1.6282722
14.91350923520342	2.631736	1.6222626
14.931185646853438	2.6354096	1.6233945
14.948862415820408	2.5891545	1.609085
14.966539542546656	2.579444	1.6060647
14.98421702747459	2.5875201	1.608577
15.001894871046696	2.6144972	1.6169407
15.019573073705542	2.6285772	1.6212888
15.037251635893766	2.6073294	1.6147227
15.054930558054092	2.6106846	1.6157613
15.072609840629323	2.633993	1.6229581
15.090289484062351	2.773228	1.6653012
15.107969488796124	3.079469	1.7548416
15.125649855273691	3.5004938	1.8709607
15.14333058393817	3.9390326	1.9846996
15.161011675232768	4.8201814	2.195491
15.17869312960076	6.124122	2.4746964
15.196374947485506	8.057469	2.8385682
15.214057129330447	11.172472	3.3425248
15.231739675579114	15.873274	3.9841278
15.249422586675102	20.931383	4.575083
15.267105863062092	24.21796	4.9211745
15.284789505183847	24.811247	4.981089
15.302473513484218	22.997366	4.795557
15.320157888407127	19.479088	4.4135118
15.337842630396578	15.141748	3.89124
15.355527739896656	11.748484	3.427606
15.37321321735153	9.05487	3.009131
15.39089906320545	6.5324626	2.5558681
15.408585277902748	4.870926	2.2070174
15.42627186188783	3.7294347	1.9311744
15.443958815605198	3.1660404	1.779337
15.461646139499424	2.8063319	1.675211
15.479333834015168	2.656877	1.629993
15.497021899597165	2.5993261	1.6122426
15.514710336690234	2.582116	1.6068964
15.53239914573928	2.52648	1.5894904
15.550088327189297	2.472256	1.572341
15.567777881485336	2.4340754	1.5601523
15.58546780907256	2.457877	1.5677618
15.6031581103962	2.4746	1.5730861
15.620848785901568	2.452607	1.5660801
15.638539836034063	2.4055738	1.5509913
15.656231261239173	2.3995295	1.5490415
15.673923061962451	2.3890104	1.5456424
15.691615238649552	2.384381	1.5441442
15.709307791746202	2.3700383	1.5394928
15.727000721698221	2.3911018	1.5463188
15.744694028951498	2.3870242	1.5449997
15.76238771395202	2.3840308	1.5440307
15.780081777145844	2.3618407	1.5368282
15.797776218979125	2.343796	1.5309461
15.815471039898094	2.3398337	1.5296515
15.833166240349064	2.3507237	1.533207
15.850861820778437	2.3698974	1.5394471
15.868557781632699	2.3754914	1.5412629
15.886254123358412	2.3613594	1.5366715
15.903950846402232	2.3310003	1.5267614
15.921647951210897	2.3283923	1.525907
15.939345438231225	2.320588	1.5233476
15.957043307910133	2.321986	1.5238065
15.974741560694602	2.3592055	1.5359706
15.992440197031714	2.3699377	1.5394602
16.01013921736862	2.363947	1.5375133
16.02783862215259	2.3485308	1.5324917
16.045538411830933	2.3598986	1.5361961
16.06323858685107	2.3932416	1.5470105
16.080939147660512	2.3769815	1.5417463
16.09864009470684	2.3633873	1.5373312
16.11634142843774	2.364012	1.5375344
16.134043149300954	2.3771353	1.5417961
16.15174525774433	2.40089	1.5494806
16.169447754215817	2.4691753	1.571361
16.18715063916342	2.4775057	1.5740094
16.204853913035244	2.451512	1.5657306
16.222557576279478	2.3556643	1.5348173
16.240261629344403	22.318115	4.724205
16.257966072678386	42.901	6.5498857
16.275670906729868	38.070225	6.1701074
16.293376131947387	2.5215948	1.587953
16.31108174877957	2.5173159	1.5866052
16.328787757675133	2.5120869	1.5849564
16.34649415908287	2.4807782	1.5750487
16.364200953451657	2.501041	1.581468
16.38190814123048	2.5685532	1.6026707
16.39961572286839	2.6273077	1.6208972
16.41732369881455	2.665108	1.6325158
16.43503206951817	2.695399	1.641767
16.45274083542859	2.768792	1.6639687
16.47044999699522	2.7960606	1.6721425
16.488159554667558	2.7876298	1.6696197
16.505869508895184	2.770085	1.6643573
16.523579860127786	2.7985659	1.6728915
16.541290608815117	2.8307855	1.6824938
16.559001755407035	2.8859649	1.6988127
16.57671330035348	2.9352407	1.7132545
16.59442524410448	3.0432014	1.7444774
16.61213758711015	3.1447752	1.7733514
16.629850329820705	3.1859806	1.7849315
16.647563472686436	3.2238638	1.7955121
16.665277016157724	3.2723613	1.8089669
16.682990960685053	3.3643007	1.834203
16.70070530671898	3.444751	1.856004
16.718420054710155	3.4537425	1.8584248
16.736135205109335	3.534215	1.8799508
16.753850758367335	3.5823207	1.892702
16.771566714935087	3.6357546	1.9067655
16.789283075263597	3.6281152	1.9047612
16.80699983980398	3.7230518	1.9295211
16.82471700900741	3.8274107	1.9563769
16.84243458332518	3.905513	1.976237
16.860152563208665	3.9279156	1.981897
16.87787094910932	3.9927566	1.9981884
16.89558974147871	4.0685744	2.0170708
16.913308940768466	4.114237	2.0283582
16.931028547430333	4.1818943	2.0449681
16.94874856191613	4.2677283	2.065848
16.966468984677785	4.305505	2.074971
16.98418981616729	4.3323364	2.0814266
17.00191105683676	4.378193	2.0924132
17.019632707138374	4.402355	2.098179
17.03735476752442	4.456064	2.1109393
17.05507723844728	4.4770327	2.1159
17.072800120359403	4.553305	2.1338475
17.090523413713353	4.5930476	2.1431396
17.108247118961785	4.6322684	2.1522706
17.125971236557437	4.682785	2.1639743
17.143695766953133	4.700731	2.1681168
17.161420710601806	4.6890545	2.1654224
17.179146067956477	4.625953	2.1508029
17.19687183947025	4.593571	2.143262
17.21459802559634	4.6634007	2.1594908
17.232324626788028	4.651649	2.156768
17.25005164349871	4.603453	2.145566
17.267779076181863	4.5355577	2.129685
17.285506925291074	4.494897	2.1201172
17.30323519127999	4.4630675	2.1125972
17.320963874602384	4.455327	2.1107645
17.33869297571211	4.446615	2.1086998
17.356422495063114	4.488282	2.1185567
17.37415243310944	4.5373297	2.130101
17.391882790305218	4.5390615	2.1305072
17.40961356710468	4.472828	2.114906
17.42734476396215	4.442171	2.1076458
17.445076381332044	4.4565296	2.1110494
17.462808419668868	4.5014043	2.1216514
17.48054087942723	4.5668945	2.1370294
17.498273761061835	4.8049316	2.1920154
17.51600706502747	5.301212	2.302436
17.533740791779024	6.001066	2.4497073
17.551474941771485	7.3883185	2.718146
17.56920951545993	8.554852	2.9248679
17.586944513299528	10.899731	3.301474
17.60467993574556	12.66185	3.5583494
17.622415783253373	14.478408	3.8050504
17.64015205627843	16.039713	4.004961
17.657888755276293	17.403606	4.171763
17.675625880702604	17.938744	4.2354155
17.69336343301311	17.754566	4.213617
17.71110141266366	16.686354	4.084893
17.728839820110178	15.552221	3.9436305
17.746578655808705	14.420078	3.7973778
17.764317920215372	12.847603	3.5843554
17.7820576137864	11.373424	3.3724506
17.79979773697811	9.339947	3.0561326
17.81753829024692	7.432745	2.7263062
17.835279274049356	5.7853527	2.405276
17.85302068884201	4.726084	2.173956
17.870762535081607	4.0732107	2.0182197
17.888504813224934	3.7987816	1.9490464
17.90624752372891	3.6489208	1.9102149
17.923990667050536	3.546808	1.8832971
17.941734243646895	3.4943414	1.8693157
17.959478253975185	3.4842503	1.8666147
17.9772226984927	3.4369621	1.8539046
17.994967577656833	3.362964	1.8338386
18.01271289192506	3.3176756	1.8214488
18.030458641754965	3.3215294	1.8225063
18.04820482760425	3.3071856	1.8185669
18.06595144993067	3.289857	1.8137963
18.083698509192125	3.241749	1.8004857
18.101446005846576	3.2080367	1.7910993
18.119193940352105	3.1631684	1.7785299
18.136942313166887	3.1594987	1.7774979
18.1546911247492	3.1560652	1.7765318
18.1724403755574	3.1061609	1.7624304
18.19019006604997	3.0800905	1.7550187
18.207940196685467	3.0469887	1.7455626
18.225690767922575	3.0411038	1.7438761
18.243441780220046	3.0231302	1.738715
18.261193234036764	3.0248618	1.739213
18.278945129831676	3.0536163	1.74746
18.29669746806386	3.0779316	1.7544035
18.314450249192483	3.0788198	1.7546566
18.3322034736768	3.0547621	1.7477878
18.349957141976184	3.0429711	1.7444113
18.3677112545501	3.0129852	1.7357953
18.385465811858108	2.9741774	1.7245803
18.403220814359884	2.9711673	1.7237074
18.420976262515172	3.038151	1.7430292
18.43873215678387	3.1125169	1.7642326
18.456488497625923	3.1717153	1.780931
18.474245285501407	3.2567034	1.8046339
18.492002520870486	3.300394	1.8166987
18.50976020419343	3.3847532	1.8397698
18.527518335930615	3.6499577	1.9104862
18.545276916542516	4.1767187	2.0437021
18.563035946489688	4.361452	2.088409
18.580795426232832	4.787995	2.1881487
18.598555356232698	4.640392	2.154157
18.616315736950185	4.900066	2.2136092
18.63407656884626	4.569125	2.1375513
18.65183785238201	4.765552	2.1830144
18.669599588018617	4.548601	2.132745
18.68736177621737	4.532221	2.1289012
18.705124417439652	4.5148706	2.1248224
18.72288751214696	4.3221755	2.0789843
18.740651060800886	4.477929	2.1161118
18.758415063863115	4.256871	2.0632186
18.77617952179546	4.4154015	2.1012857
18.793944435059814	4.1717734	2.042492
18.811709804118184	4.179919	2.0444849
18.829475629432675	4.1407843	2.0348916
18.8472419114655	3.960503	1.9901013
18.86500865067897	4.0639744	2.0159302
18.88277584753551	3.7316601	1.9317505
18.90054350249763	3.6936047	1.9218754
18.918311616027957	3.3736694	1.8367552
18.936080188589226	3.2930603	1.8146791
18.953849220644265	3.0250888	1.7392782
18.971618712656007	2.853927	1.6893569
18.9893886650875	2.7546422	1.6597115
19.007159078401887	7.9080677	2.8121288
19.024929953062408	32.818363	5.728731
19.042701289532435	32.810104	5.7280107
19.060473088275405	25.359331	5.0358047
19.07824534975489	2.6364532	1.6237159
19.096018074434568	2.6077847	1.6148636
19.113791262778197	2.5931451	1.6103245
19.13156491524966	2.5472445	1.5960089
19.149339032312945	2.5158117	1.5861311
19.167113614432136	2.5097227	1.5842104
19.184888662071433	2.5351913	1.5922284
19.202664175695123	2.5258932	1.5893059
19.220440155767623	2.507342	1.5834589
19.238216602753447	2.5150287	1.5858842
19.2559935171172	2.5004342	1.581276
19.27377089932361	2.505711	1.5829438
19.291548749837514	2.490814	1.5782313
19.309327069123835	2.4413295	1.5624754
19.32710585764763	2.4031234	1.550201
19.344885115874032	2.4015515	1.549694
19.362664844268313	2.4116895	1.5529616
19.380445043295822	2.4353747	1.5605687
19.39822571342203	2.46407	1.5697356
19.41600685511252	2.483654	1.5759614
19.43378846883297	2.4505935	1.5654372
19.451570555049173	2.4186475	1.5552001
19.469353114227037	2.4113047	1.5528376
19.48713614683254	2.434276	1.5602167
19.50491965333182	2.4620063	1.5690782
19.52270363419109	2.4720151	1.5722643
19.540488089876686	2.4607213	1.5686686
19.55827302085503	2.4296274	1.5587262
19.576058427592674	2.4457316	1.5638835
19.593844310556282	2.457652	1.56769
19.611630670212598	2.45622	1.5672332
19.629417507028506	2.4478068	1.5645468
19.64720482147098	2.449658	1.5651383
19.6649926140071	2.4363377	1.5608772
19.682780885104084	2.426785	1.5578141
19.70056963522921	2.4249308	1.5572189
19.718358864849908	2.4291759	1.5585814
19.7361485744337	2.413231	1.5534577
19.753938764448215	2.4427016	1.5629145
19.771729435361202	2.475266	1.5732979
19.789520587640506	2.495693	1.5797763
19.807312221754092	2.5108457	1.5845648
19.825104338170043	2.5059247	1.5830113
19.842896937356517	2.5049565	1.5827054
19.860690019781824	2.507506	1.5835106
19.87848358591436	2.5337274	1.5917686
19.896277636222635	2.4885871	1.5775256
19.914072171175278	2.4554322	1.5669819
19.931867191241015	2.4914656	1.5784377
19.94966269688869	2.5286493	1.5901728
19.967458688587264	2.4984632	1.5806527
19.985255166805807	2.445329	1.5637548
20.00305213201348	2.4334013	1.5599363
20.020849584679578	2.424513	1.5570848
20.038647525273507	2.4152715	1.5541143
20.05644595426477	2.405799	1.5510638
20.07424487212299	2.4155746	1.5542119
20.092044279317903	2.4378479	1.561361
20.109844176319353	2.422223	1.5563493
20.127644563597304	2.410766	1.5526642
20.145445441621817	2.3857813	1.5445975
20.16324681086307	2.3783069	1.542176
20.181048671791373	2.4019141	1.549811
20.198851024877122	2.4195485	1.5554898
20.216653870590836	2.4186	1.555185
20.234457209403146	2.4104807	1.5525723
20.252261041784802	2.3873613	1.5451088
20.270065368206662	2.3632464	1.5372854
20.287870189139685	2.3503914	1.5330986
20.305675505054968	2.336774	1.5286511
20.323481316423702	2.3287578	1.5260268
20.341287623717207	2.3458812	1.5316269
20.359094427406884	2.3436913	1.5309119
20.376901727964288	2.3671894	1.5385673
20.39470952586107	2.3634465	1.5373504
20.41251782156899	2.3314652	1.5269136
20.430326615559935	2.3162544	1.5219246
20.448135908305886	2.3025753	1.5174239
20.465945700278965	2.328364	1.5258977
20.483755991951384	2.2857301	1.5118631
20.50156678379548	2.2933798	1.514391
20.519378076283708	2.2901459	1.5133228
20.537189869888635	2.3054338	1.5183655
20.55500216508294	2.2566543	1.5022165
20.572814962339415	2.2383752	1.4961201
20.59062826213098	2.2612703	1.5037521
20.60844206493066	2.2989242	1.5162203
20.626256371211593	2.2971466	1.5156341
20.644071181447032	2.3099756	1.5198604
20.66188649611036	2.311073	1.5202214
20.67970231567506	2.2912679	1.5136935
20.697518640614742	2.2762704	1.5087314
20.715335471403122	2.2441301	1.4980421
20.73315280851404	2.2307758	1.4935782
20.750970652421447	2.2815647	1.5104849
20.768789003599412	2.3189678	1.5228157
20.786607862522136	2.3094423	1.5196849
20.8044272296639	2.2852366	1.5116999
20.82224710549913	2.2523098	1.5007697
20.84006749050237	2.2321482	1.4940375
20.857888385148268	3.8064554	1.9510139
20.8757097899116	45.90524	6.7753406
20.893531705267254	64.741844	8.046231
20.911354131690224	83.76248	9.1521845
20.92917706965566	69.04107	8.309095
20.94700051963877	50.140633	7.081005
20.96482448211493	29.383265	5.4206333
20.982648957559622	4.08402	2.020896
21.00047394644843	2.171602	1.4736357
21.01829944925707	2.2049851	1.4849192
21.036125466461375	2.2014751	1.4837369
21.053951998537297	2.2301245	1.4933602
21.071779045960906	2.2385106	1.4961653
21.089606609208378	2.2073083	1.4857013
21.10743468875603	2.1787615	1.4760628
21.12526328508028	2.1586518	1.4692351
21.143092398657675	2.179573	1.4763377
21.16092202996488	2.1740727	1.4744737
21.17875217947867	2.168965	1.4727407
21.19658284767596	2.1767557	1.4753833
21.21441403503377	2.1816483	1.4770404
21.232245742029225	2.1858025	1.478446
21.2500779691396	2.1454613	1.4647393
21.26791071684227	2.1629605	1.4707007
21.28574398561475	2.153513	1.4674852
21.30357777593465	2.152623	1.4671819
21.321412088279704	2.1281981	1.4588345
21.339246923127792	2.1185722	1.4555316
21.357082280956888	2.1193135	1.4557862
21.3749181622451	2.1293287	1.459222
21.392754567470647	2.1253467	1.4578569
21.41059149711187	2.133104	1.460515
21.42842895164726	2.157086	1.4687021
21.446266931555378	2.1406674	1.463102
21.464105437314945	2.1157162	1.4545501
21.481944469404798	2.0863898	1.444434
21.49978402830388	2.0629933	1.4363124
21.51762411449127	2.087029	1.4446553
21.53546472844617	2.0928886	1.446682
21.553305870647876	2.0850844	1.4439821
21.571147541575865	2.0440147	1.4296904
21.58898974170967	2.0278509	1.4240263
21.60683247152899	2.0513964	1.4322697
21.62467573151363	2.0726976	1.4396867
21.642519522143523	2.087255	1.4447335
21.660363843898722	2.0687108	1.4383013
21.6782086972594	2.0658662	1.4373121
21.696054082705864	2.032697	1.4257268
21.713900000718535	2.0199723	1.4212573
21.73174645177795	2.012643	1.4186765
21.749593436364794	2.0258682	1.42333
21.767440954959845	2.0248203	1.4229618
21.785289008044032	2.022914	1.4222918
21.803137596098388	2.0216947	1.4218631
21.820986719604086	1.9840542	1.4085646
21.838836379042412	1.9450728	1.3946587
21.85668657489478	1.9395163	1.3926651
21.87453730764273	1.9448948	1.3945949
21.892388577767914	1.9799366	1.4071022
21.91024038575213	1.9588879	1.3996028
21.928092732077285	1.9794844	1.4069415
21.945945617225426	1.9752879	1.4054494
21.963799041678694	1.9804758	1.4072938
21.981653005919398	31.294107	5.594114
21.999507510429943	78.11587	8.838318
22.01736255569286	73.09404	8.549505
22.035218142190818	4.1853385	2.04581
22.05307427040661	1.981069	1.4075046
22.07093094082315	1.9704709	1.4037347
22.088788153923474	1.9426444	1.3937877
22.106645910190746	1.926338	1.3879257
22.12450421010827	1.9196981	1.3855317
22.142363054159464	1.944181	1.3943388
22.16022244282787	1.9747736	1.4052664
22.178082376597164	1.9753486	1.405471
22.195942855951145	1.9807045	1.4073751
22.213803881373742	2.0125299	1.4186366
22.231665453349002	1.9928386	1.4116794
22.24952757236111	1.9673659	1.4026282
22.26739023889438	1.9622982	1.4008205
22.28525345343323	1.9695168	1.4033947
22.30311721646225	1.9650869	1.4018155
22.320981528466113	1.9173975	1.3847013
22.33884638992964	1.8928922	1.3758242
22.356711801337788	1.9127014	1.3830044
22.37457776317561	1.9309695	1.3895932
22.392444275928337	1.9398642	1.3927901
22.410311340081282	1.9412756	1.3932967
22.428178956119904	1.9299592	1.3892297
22.446047124529805	1.9081743	1.3813668
22.46391584579669	1.8890004	1.3744091
22.481785120406414	1.9179815	1.3849121
22.49965494884496	1.9529225	1.39747
22.51752533159841	1.9467099	1.3952454
22.53539626915302	1.9498842	1.3963826
22.553267761995137	1.9309983	1.3896036
22.571139810611264	1.9327255	1.390225
22.589012415488025	1.8867968	1.3736073
22.60688557711216	1.8577894	1.3630074
22.624759295970566	1.8551592	1.3620423
22.642633572550263	1.9021966	1.3792014
22.660508407338362	1.9259467	1.3877848
22.67838380082217	1.9484304	1.3958619
22.696259753489077	1.9676826	1.4027411
22.714136265826614	1.9246374	1.387313
22.73201333832246	1.9035087	1.379677
22.74989097146439	1.903515	1.3796793
22.76776916574035	1.9021963	1.3792013
22.785647921638393	1.9058039	1.3805085
22.803527239646712	1.9301249	1.3892894
22.82140712025363	1.9461697	1.3950518
22.839287563947593	1.955466	1.3983798
22.85716857121719	1.9382455	1.3922088
22.875050142551135	1.887546	1.3738799
22.892932278438277	1.8585681	1.363293
22.910814979367604	1.8840743	1.3726158
22.928698245828222	1.9281881	1.3885921
22.946582078309387	1.9051995	1.3802897
22.96446647730047	1.8803891	1.3712728
22.98235144329098	1.8751189	1.3693498
23.000236976770562	1.9014107	1.3789165
23.018123078229	1.9283202	1.3886397
23.03600974815619	1.9575409	1.3991215
23.053896987042194	1.9451027	1.3946694
23.071784795377173	1.8995509	1.378242
23.08967317365145	1.8781258	1.3704473
23.10756212235546	1.8822814	1.3719627
23.125451641979787	1.9083796	1.3814411
23.143341733015134	1.9552804	1.3983134
23.161232395952357	1.9496809	1.3963097
23.179123631282426	1.9234606	1.3868889
23.197015439496468	1.8944981	1.3764077
23.214907821085717	1.8907772	1.3750553
23.23280077654157	1.8953493	1.3767169
23.250694306355538	1.8873258	1.3737998
23.268588411019277	1.8981601	1.3777373
23.28648309102458	1.8827491	1.372133
23.304378346863356	1.8941046	1.3762647
23.322274179027676	1.9161435	1.3842484
23.340170588009723	1.9082782	1.3814044
23.358067574301852	1.9137294	1.3833761
23.37596513839651	1.9260969	1.387839
23.39386328078629	1.9216098	1.3862214
23.411762001963947	1.9036733	1.3797367
23.429661302422353	1.9198248	1.3855774
23.4475611826545	1.91185	1.3826966
23.46546164315356	1.9235235	1.3869115
23.48336268441279	1.9255519	1.3876426
23.501264306925638	1.9323964	1.3901067
23.51916651118564	1.9109372	1.3823665
23.537069297686497	1.910016	1.3820332
23.554972666922037	1.9017884	1.3790535
23.57287661938623	1.9000279	1.378415
23.59078115557318	1.8549279	1.3619574
23.608686275977128	1.8356236	1.3548518
23.62659198109246	1.8661696	1.3660781
23.6444982714137	1.8815926	1.3717116
23.66240514743549	1.8876246	1.3739085
23.68031260965263	1.8974468	1.3774784
23.698220658560068	1.8656551	1.3658898
23.716129294652845	1.8171579	1.34802
23.7340385184262	1.8107364	1.345636
23.75194833037546	1.8352301	1.3547066
23.769858730996123	1.9123733	1.3828858
23.78776972078382	1.9510316	1.3967934
23.80568130023431	1.9288312	1.3888236
23.823593469843495	1.8896313	1.3746386
23.841506230107424	1.8781286	1.3704484
23.859419581522275	1.8812879	1.3716005
23.87733352458438	1.8419693	1.3571917
23.89524805979019	1.8443226	1.3580583
23.913163187636318	1.8672922	1.3664889
23.931078908619508	1.9169065	1.3845239
23.948995223236633	1.93754	1.3919555
23.966912131984735	1.9831754	1.4082526
23.98482963536096	2.0412798	1.4287336
24.002747733862616	2.0532694	1.4329233
24.020666427987155	2.0174136	1.4203569
24.038585718232156	2.030094	1.4248136
24.056505605095353	2.0544767	1.4333446
24.074426089074617	2.1015885	1.4496857
24.092347170667946	2.063343	1.4364341
24.110268850373515	2.0821056	1.4429504
24.128191128689586	2.0889285	1.4453126
24.146114006114626	2.077586	1.4413834
24.164037483147187	2.0635958	1.4365221
24.181961560286005	2.0757258	1.440738
24.199886238029926	2.0674744	1.4378715
24.21781151687797	2.0515742	1.4323318
24.235737397329274	2.016166	1.4199176
24.253663879883135	1.9609303	1.4003322
24.271590965038975	1.9447052	1.3945268
24.289518653296376	1.9842539	1.4086355
24.30744694515505	2.0411303	1.4286814
24.32537584111486	2.0337772	1.4261056
24.34330534167581	2.024905	1.4229915
24.361235447338046	2.0370612	1.4272566
24.379166158601876	2.06297	1.4363042
24.39709747596772	2.0356927	1.426777
24.41502939993615	2.0070193	1.4166931
24.432961931007917	1.9518487	1.3970858
24.450895069683856	1.9261372	1.3878535
24.468828816465	1.9327298	1.3902265
24.4867631718525	1.94771	1.3956038
24.504698136347656	1.9933294	1.4118532
24.52263371045192	2.002374	1.4150527
24.540569894666874	1.9915448	1.411221
24.558506689494266	1.9186493	1.3851532
24.57644409543597	1.8824375	1.3720195
24.594382112994012	1.863222	1.3649989
24.61232074267057	1.9009	1.3787313
24.630259984967953	1.9346789	1.3909273
24.64819984038863	1.9431374	1.3939646
24.66614030943522	1.9390646	1.392503
24.684081392610462	1.9682186	1.4029322
24.702023090417274	1.9888061	1.4102504
24.7199654033587	1.9877304	1.409869
24.737908331937927	1.9774399	1.4062147
24.755851876658305	1.9960335	1.4128106
24.773796038023324	2.0226195	1.4221883
24.79174081653661	2.04127	1.4287302
24.809686212701962	2.06941	1.4385444
24.827632227023294	2.0717897	1.4393713
24.8455788600047	2.0954537	1.4475682
24.8635261121504	2.0745842	1.4403417
24.88147398396475	2.0923333	1.44649
24.899422475952303	2.0806427	1.4424433
24.917371588617698	2.060376	1.435401
24.935321322465768	2.0745964	1.4403459
24.953271678001478	2.1975603	1.4824171
24.97122265572994	2.408904	1.5520644
24.989174256156414	2.7538748	1.6594802
25.00712647978632	3.2420325	1.8005645
25.02507932712521	3.8344362	1.9581716
25.043032798678798	4.4131207	2.1007428
25.060986894952933	5.0983725	2.2579577
25.078941616453637	5.9186683	2.4328313
25.096896963687055	6.9807835	2.6421173
25.114852937159508	8.106292	2.847155
25.132809537377444	8.581708	2.9294553
25.150766764847468	8.516906	2.9183738
25.168724620076347	7.9015384	2.8109674
25.186683103570985	6.784502	2.6047077
25.204642215838426	5.6018343	2.3668194
25.222601957385894	4.2649283	2.0651703
25.24056232872074	3.2638302	1.8066074
25.25852333035048	2.663111	1.6319041
25.276484962782778	2.2483246	1.4994414
25.294447226525435	2.0047126	1.4158788
25.312410122086423	1.9169337	1.3845338
25.330373649973843	1.8901566	1.3748296
25.348337810695988	1.9046148	1.3800778
25.366302604761245	1.9182961	1.3850256
25.384268032678207	1.9077047	1.3811969
25.40223409495558	1.9067632	1.3808559
25.420200792102257	1.9139352	1.3834505
25.438168124627246	1.8883299	1.3741652
25.45613609303974	1.8502606	1.3602428
25.474104697849057	1.8332068	1.3539597
25.492073939564698	1.8690116	1.367118
25.510043818696285	1.8780726	1.3704278
25.528014335753614	1.8575257	1.3629107
25.54598549124664	1.8222868	1.3499211
25.56395728568544	1.8023491	1.342516
25.58192971958028	1.8149428	1.3471981
25.59990279344156	1.8369308	1.3553342
25.617876507779833	1.8260429	1.3513116
25.635850863105826	1.7908096	1.3382113
25.653825859930386	1.8135229	1.3466711
25.671801498764548	1.840611	1.3566912
25.68977778011949	1.8652077	1.3657261
25.707754704506524	1.8496015	1.3600006
25.725732272437153	1.8638023	1.3652115
25.743710484423012	1.8072435	1.3443376
25.761689340975888	1.8028945	1.3427191
25.77966884260774	1.8086468	1.3448594
25.797648989830662	1.8204427	1.3492378
25.815629783156922	1.8300754	1.3528028
25.83361122309895	1.8111396	1.3457859
25.85159331016929	1.8228542	1.3501312
25.869576044880695	1.8544188	1.3617704
25.887559427746034	1.850437	1.3603077
25.90554345927836	1.7909364	1.3382587
25.92352813999086	1.7864457	1.3365799
25.94151347039689	1.8377308	1.3556293
25.959499451009965	1.8259407	1.3512738
25.97748608234374	1.759794	1.3265723
25.995473364912062	1.7756459	1.3325336
26.013461299228904	1.8052181	1.3435841
26.03144988580839	1.8091003	1.3450279
26.04943912516483	1.8205563	1.3492799
26.067429017812675	1.8287071	1.352297
26.085419564266537	1.8620727	1.3645779
26.103410765041186	1.8587172	1.3633478
26.12140262065155	1.852476	1.3610569
26.139395131612723	1.8357702	1.354906
26.157388298439948	1.8180047	1.3483341
26.17538212164861	1.7695713	1.3302523
26.193376601754295	1.7442933	1.320717
26.211371739272714	1.7759765	1.3326577
26.229367534719746	1.8351314	1.3546702
26.247363988611433	1.82939	1.3525494
26.26536110146397	1.8203173	1.3491913
26.283358873793727	1.8337054	1.3541437
26.301357306117204	1.8490806	1.359809
26.319356398951104	1.8227804	1.3501039
26.33735615281224	1.7881821	1.3372293
26.35535656821762	1.7716788	1.3310442
26.373357645684404	1.7379137	1.3182995
26.39135938572991	1.7355914	1.3174185
26.409361788871614	1.7798885	1.3341246
26.427364855627165	1.8224254	1.3499724
26.445368586514352	1.8030189	1.3427655
26.46337298205115	1.8006572	1.3418857
26.48137804275568	1.8035802	1.3429744
26.499383769146217	1.8363652	1.3551255
26.517390161741215	1.8571488	1.3627725
26.53539722105928	1.8487737	1.3596961
26.553404947619182	1.8140408	1.3468633
26.571413341939856	1.8445549	1.3581439
26.589422404540397	1.8134202	1.346633
26.60743213594006	1.7561823	1.3252103
26.62544253665827	1.7317811	1.3159715
26.64345360721459	1.7798887	1.3341247
26.66146534812879	1.8337964	1.3541774
26.679477759920758	1.83327	1.353983
26.69749084311057	1.813224	1.34656
26.71550459821847	1.8070364	1.3442606
26.733519025764842	1.8136452	1.3467165
26.751534126270258	1.8088756	1.3449445
26.769549900255434	1.8062015	1.3439499
26.787566348241267	1.770279	1.3305184
26.80558347074881	1.7554314	1.324927
26.823601268299267	1.7827531	1.3351978
26.841619741414036	1.8196079	1.3489285
26.85963889061465	1.8441085	1.3579795
26.877658716422832	1.8178755	1.3482862
26.89567921936045	1.8046612	1.3433768
26.913700399949544	1.7761625	1.3327274
26.93172225871233	1.7741647	1.3319777
26.949744796171174	1.8144455	1.3470136
26.967768012848605	1.8084922	1.3448019
26.98579190926733	1.7820823	1.3349465
27.003816485950225	1.8064017	1.3440244
27.021841743420318	1.8545499	1.3618186
27.039867682200814	1.8471189	1.3590875
27.057894302815072	1.8081603	1.3446785
27.07592160578664	1.8134353	1.3466386
27.0939495916392	1.845773	1.3585923
27.111978260896635	1.8235756	1.3503983
27.13000761408296	1.7850113	1.3360431
27.148037651722397	1.747768	1.3220317
27.166068374339304	1.7371079	1.3179939
27.184099782458215	1.7411772	1.3195367
27.20213187660384	1.7859925	1.3364103
27.22016465730105	1.8127908	1.3463992
27.23819812507487	1.8694695	1.3672855
27.256232280450533	1.8714293	1.3680019
27.274267123953383	1.814761	1.3471307
27.292302656108987	1.739072	1.3187388
27.31033887744306	1.7396364	1.3189528
27.32837578848146	1.8114842	1.3459139
27.34641338975026	1.788424	1.3373197
27.364451681775673	1.7621	1.3274411
27.382490665084074	1.7282948	1.3146462
27.400530340202046	1.7164197	1.310122
27.41857070765629	1.7146074	1.3094301
27.436611767973726	1.7043003	1.3054885
27.454653521681404	1.7378207	1.3182642
27.472695969306564	1.7586789	1.326152
27.490739111376627	1.7756964	1.3325526
27.508782948419153	1.8110038	1.3457354
27.526827480961902	1.8206002	1.3492962
27.54487270953279	1.8105534	1.3455681
27.562918634659898	1.8493527	1.359909
27.580965256871508	1.8158954	1.3475517
27.599012576696026	1.7523327	1.323757
27.617060594662068	1.7450603	1.3210074
27.63510931129842	1.7756554	1.3325372
27.65315872713401	1.8006665	1.3418891
27.67120884269797	1.868218	1.3668277
27.68925965851958	1.8849771	1.3729447
27.707311175128307	1.8283086	1.3521496
27.725363393053787	1.8345127	1.3544419
27.74341631282583	1.8581338	1.3631338
27.7614699349744	1.8774743	1.3702096
27.77952426002968	2.051054	1.4321501
27.797579288521973	2.096481	1.4479231
27.815635020981784	2.418182	1.5550505
27.83369145793979	2.4733315	1.5726829
27.85174859992682	2.3224034	1.5239434
27.869806447473923	2.2079468	1.4859161
27.887865001112267	2.0303197	1.4248929
27.905924261373233	1.98396	1.4085312
27.92398422878836	1.8846087	1.3728105
27.94204490388936	1.8265171	1.351487
27.96010628720813	1.8441862	1.3580081
27.978168379276728	1.845956	1.3586596
27.9962311806274	1.8177329	1.3482332
28.014294691792568	1.8178775	1.3482869
28.0323589133048	1.7919466	1.3386362
28.050423845696887	1.8302869	1.352881
28.068489489501758	1.8695813	1.3673264
28.086555845252523	1.9076667	1.381183
28.104622913482487	1.8602719	1.3639178
28.122690694725115	1.8636221	1.3651454
28.14075918951405	1.8565784	1.3625631
28.15882839838312	1.8809887	1.3714914
28.176898321866304	1.8973787	1.3774537
28.1949689604978	1.9296273	1.3891102
28.213040314811945	1.8880888	1.3740774
28.23111238534327	1.8993602	1.3781728
28.249185172626493	1.903819	1.3797895
28.267258677196473	1.9009612	1.3787534
28.285332899588294	1.8925307	1.3756928
28.303407840337172	1.887572	1.3738894
28.321483499978545	1.9307283	1.3895065
28.33955987904799	1.9149851	1.3838298
28.357636978081285	1.9279233	1.3884968
28.37571479761439	1.9035144	1.3796791
28.393793338183425	1.8551171	1.3620268
28.41187260032469	1.8662002	1.3660893
28.429952584574686	1.9177396	1.3848248
28.448033291470065	1.958469	1.3994532
28.46611472154769	1.9149101	1.3838028
28.484196875344566	1.9367648	1.391677
28.502279753397914	1.9551276	1.3982588
28.52036335624511	1.9478548	1.3956556
28.538447684423716	1.9386933	1.3923696
28.556532738471482	1.9798328	1.4070653
28.574618518926325	2.028454	1.4242381
28.59270502632635	2.0554254	1.4336755
28.61079226120985	2.0379531	1.4275689
28.628880224115274	2.0386093	1.4277987
28.646968915581287	2.0433707	1.4294652
28.66505833614671	2.0224454	1.4221271
28.68314848635055	2.0161018	1.419895
28.701239366732004	1.9865481	1.4094496
28.71933097783044	1.9761702	1.4057631
28.737423320185403	1.9840027	1.4085463
28.75551639433665	2.0210605	1.42164
28.773610200824074	2.0990846	1.4488218
28.791704740187793	2.1425233	1.463736
28.80980001296809	2.14638	1.4650528
28.827896019705413	2.2044492	1.4847387
28.845992760940433	2.185114	1.4782131
28.86409023721397	2.1116607	1.4531554
28.88218844906704	2.1375144	1.4620241
28.900287397040845	2.1850486	1.478191
28.918387081676755	2.1985044	1.4827355
28.936487503516343	2.2408397	1.4969435
28.954588663101365	2.2778265	1.5092471
28.97269056097374	2.2300932	1.4933497
28.990793197675597	2.244588	1.4981949
29.00889657374923	2.2702599	1.5067382
29.027000689737125	2.3281713	1.5258346
29.04510554618196	2.3859541	1.5446534
29.06321114362659	2.4268897	1.5578477
29.08131748261405	2.4490993	1.5649599
29.099424563687567	2.4503808	1.5653692
29.11753238739057	2.4389706	1.5617204
29.13564095426663	2.5010366	1.5814666
29.15375026485954	2.5839207	1.6074579
29.171860319713275	2.6961675	1.642001
29.18997111937199	2.6921756	1.6407851
29.20808266438002	2.6736598	1.6351329
29.226194955281898	2.6827452	1.6379088
29.244307992622335	2.747308	1.6575005
29.26242177694624	2.8628883	1.6920072
29.2805363087987	2.8928545	1.7008393
29.29865158872498	2.936893	1.7137365
29.316767617270557	2.9215355	1.70925
29.334884394981064	2.906197	1.7047572
29.353001922402367	2.8922405	1.7006588
29.37112020008047	3.0351398	1.7421652
29.389239228561596	3.2148283	1.7929943
29.407359008392152	3.363157	1.8338913
29.42547954011872	3.65063	1.9106622
29.44360082428809	4.316846	2.077702
29.46172286144722	5.4513497	2.3348126
29.479845652143283	7.111376	2.6667163
29.497969196923606	9.161512	3.026799
29.516093496335728	11.754987	3.4285545
29.5342185509274	14.825395	3.850376
29.55234436124651	17.548292	4.1890683
29.570470927841175	19.218353	4.3838744
29.588598251259686	18.999846	4.358881
29.60672633205055	17.579967	4.1928473
29.624855170762405	15.158979	3.8934534
29.642984767944146	12.167154	3.4881449
29.66111512414481	9.180909	3.0300014
29.67924623991366	6.7195544	2.5922103
29.697378115800138	5.129073	2.2647457
29.71551075235387	4.202801	2.0500734
29.733644150124675	3.7180505	1.9282247
29.751778309662576	3.47249	1.8634619
29.769913231517766	3.3734286	1.8366896
29.78804891624066	3.3453052	1.8290175
29.806185364381818	3.3362591	1.826543
29.82432257649206	3.3054707	1.8180953
29.842460553122333	3.2801404	1.8111157
29.86059929482382	3.3513699	1.8306746
29.878738802147872	3.4458888	1.8563105
29.896879075646048	3.36452	1.8342628
29.915020115870114	3.270195	1.8083681
29.933161923371976	3.2180614	1.7938956
29.951304498703777	3.173316	1.7813804
29.969447842417857	3.1448646	1.7733766
29.987591955066733	3.2078817	1.791056
30.005736837203123	3.1806653	1.783442
30.023882489379943	3.0985398	1.760267
30.04202891215028	3.121076	1.7666568
30.060176106067455	3.1523345	1.7754815
30.078324071684946	3.106178	1.7624353
30.09647280955646	3.0595372	1.7491533
30.114622320235863	3.1523614	1.7754891
30.132772604277257	3.1844795	1.784511
30.1509236622349	3.1267097	1.7682505
30.16907549466328	3.1122706	1.7641629
30.18722810211705	3.085719	1.7566215
30.205381485151097	3.0271585	1.7398732
30.22353564432045	2.9835703	1.7273015
30.241690580180403	3.0318038	1.7412076
30.25984629328638	3.0782192	1.7544855
30.278002784194037	3.000179	1.7321025
30.296160053459246	2.9648015	1.7218599
30.314318101638033	2.9548054	1.7189547
30.332476929286646	2.9293118	1.7115232
30.35063653696153	2.9364622	1.7136109
30.368796925219307	3.003208	1.7329766
30.386958094616844	3.0732296	1.753063
30.40512004571115	3.023697	1.738878
30.423282779059463	2.9133618	1.7068573
30.441446295219233	2.87563	1.6957682
30.459610594748067	2.8376782	1.684541
30.47777567820382	2.7687378	1.6639525
30.495941546144504	2.7556598	1.660018
30.51410819912835	2.779361	1.6671416
30.532275637713795	2.8087783	1.675941
30.55044386245946	2.8279963	1.6816647
30.56861287392416	2.8025713	1.6740882
30.586782672666956	2.7734065	1.6653547
30.604953259247047	2.7860188	1.6691371
30.623124634223885	2.752357	1.6590229
30.641296798157075	2.733367	1.6532898
30.659469751606462	2.742218	1.6559644
30.677643495132074	2.7536075	1.6593997
30.695818029294152	2.699067	1.6428838
30.713993354653116	2.6510005	1.6281893
30.73216947176962	2.6378064	1.6241325
30.75034638120448	2.6415737	1.6252918
30.768524083518756	2.6370816	1.6239094
30.786702579273673	2.694537	1.6415045
30.80488186903069	2.7238994	1.650424
30.82306195335144	2.9059618	1.7046882
30.841242832797782	3.223353	1.7953699
30.85942450793176	3.4872553	1.8674195
30.877606979315637	3.8096676	1.951837
30.895790247511883	4.1781654	2.0440562
30.913974313083134	4.6057134	2.1460927
30.932159176592283	4.9382052	2.2222073
30.95034483860237	4.989727	2.2337697
30.968531299676698	4.719044	2.172336
30.98671856037873	4.3566732	2.0872645
31.00490662127215	3.9925504	1.9981368
31.023095482920848	3.637602	1.9072499
31.04128514588892	3.105336	1.7621963
31.059475610740662	2.647057	1.6269779
31.07766687804056	2.428228	1.5582772
31.09585894835335	2.4226038	1.5564716
31.11405182224393	2.4798453	1.5747524
31.132245500277417	2.479704	1.5747075
31.15043998301914	2.431008	1.559169
31.168635271034628	2.3975806	1.5484123
31.18683136488964	2.4033554	1.5502759
31.20502826515008	2.4135218	1.5535513
31.223225972382135	2.4265869	1.5577506
31.241424487152155	2.399069	1.5488929
31.259623810026692	2.446831	1.564235
31.27782394157253	2.4324663	1.5596366
31.296024882356644	2.3731883	1.5405155
31.314226632946237	2.4050202	1.5508127
31.332429193908684	2.4483056	1.5647062
31.350632565811598	2.4690862	1.5713326
31.368836749222787	2.4234571	1.5567456
31.387041744710295	2.4745438	1.5730683
31.40524755284232	2.525178	1.5890808
31.423454174187317	2.5500543	1.5968889
31.441661609313922	2.5118613	1.5848852
31.459869858791002	2.4822445	1.5755141
31.478078923187628	2.4884071	1.5774686
31.496288803073064	2.5088801	1.5839444
31.514499499016807	2.4059896	1.5511253
31.532711011588546	2.4200842	1.555662
31.550923341358178	2.3726811	1.540351
31.56913648889584	2.3426814	1.5305821
31.587350454771844	2.3091345	1.5195837
31.605565239556732	2.3205507	1.5233353
31.62378084382127	2.3323586	1.5272062
31.641997268136382	2.224966	1.491632
31.660214513073274	2.1533458	1.4674283
31.67843257920331	2.1735802	1.4743067
31.6966514670981	2.2473865	1.4991286
31.71487117732944	2.2829337	1.510938
31.733091710469346	2.2906919	1.5135032
31.751313067090052	2.2319467	1.4939702
31.769535247764008	2.2257063	1.4918802
31.787758253063878	2.2169304	1.488936
31.805982083562526	2.2675352	1.5058337
31.824206739833024	2.3224306	1.5239522
31.84243222244869	2.2779117	1.5092752
31.860658531983013	2.206276	1.4853538
31.878885669009737	2.2392962	1.4964278
31.897113634102784	2.1941185	1.4812558
31.91534242783632	2.1285453	1.4589535
31.933572050784694	2.145126	1.4646249
31.951802503522508	2.217236	1.4890386
31.970033786624548	2.2411861	1.4970591
31.988265900665834	2.1502671	1.4663789
32.006498846221575	2.1539853	1.4676461
32.02473262386724	2.1758504	1.4750764
32.04296723417845	2.1446614	1.4644662
32.0612026777311	2.0175576	1.4204075
32.07943895510129	2.028247	1.4241654
32.097676066865304	2.0836487	1.4434849
32.115914013599685	2.0943308	1.4471803
32.13415279588115	2.1072183	1.4516261
32.152392414286666	2.1011956	1.4495502
32.1706328693934	2.1248584	1.4576894
32.18887416177875	2.0883353	1.4451073
32.20711629202032	2.0229	1.4222869
32.225359260695924	2.0465705	1.430584
32.243603068383614	2.0903583	1.4458071
32.26184771566166	2.0667877	1.4376327
32.28009320310852	2.0747912	1.4404136
32.2983395313029	2.1446025	1.4644462
32.31658670082372	2.1114109	1.4530694
32.33483471225012	2.0828297	1.4432012
32.35308356616143	2.0645175	1.4368429
32.371333263137245	2.1638029	1.4709871
32.38958380375734	2.1487732	1.4658694
32.407835188601744	2.143967	1.4642291
32.42608741825067	2.2206788	1.4901942
32.444340493284585	2.132042	1.4601513
32.46259441428416	2.0116444	1.4183245
32.48084918183028	2.0246322	1.4228957
32.49910479650405	2.0129228	1.4187751
32.51736125888683	2.015004	1.4195083
32.53561856956014	2.0418084	1.4289186
32.5538767291058	2.0058286	1.4162728
32.572135738105764	1.9976761	1.4133917
32.59039559714228	2.034135	1.426231
32.608656306797776	2.0145955	1.4193645
32.62691786765491	2.0002837	1.4143139
32.645180280296586	2.0079455	1.41702
32.663443545305896	1.9802779	1.4072235
32.68170766326619	1.9918393	1.4113253
32.69997263476099	2.0139756	1.4191461
32.7182384603741	2.078819	1.4418111
32.7365051406895	2.141024	1.4632239
32.75477267629144	2.1196475	1.4559009
32.77304106776434	2.0184443	1.4207196
32.79131031569289	1.9928943	1.411699
32.809580420661966	2.0211859	1.4216841
32.827851383256714	2.067466	1.4378686
32.84612320406245	2.002608	1.4151354
32.86439588366476	1.8892833	1.3745121
32.88266942264945	1.9051224	1.3802617
32.9009438216025	1.9725413	1.4044719
32.9192190811102	2.0381386	1.4276339
32.937495201758985	2.0100653	1.4177678
32.95577218413556	1.9920456	1.4113984
32.974050028826866	1.9586312	1.3995111
32.992328736420035	1.8749787	1.3692986
33.010608307502444	1.8276523	1.3519069
33.02888874266169	1.8902309	1.3748567
33.047170042485604	1.9126555	1.3829879
33.06545220756225	1.9758552	1.4056512
33.083735238479896	1.9417188	1.3934557
33.10201913582707	1.8812362	1.3715817
33.12030390019248	1.874273	1.3690408
33.138589532165135	1.9726814	1.4045218
33.15687603233419	2.0459201	1.4303566
33.17516340128909	2.0204167	1.4214137
33.19345163961947	1.9427532	1.3938268
33.211740747915215	1.9522516	1.3972299
33.23003072676643	1.9623481	1.4008384
33.248321576763466	1.879916	1.3711003
33.266613298496885	1.9079472	1.3812846
33.28490589255747	1.9666947	1.4023889
33.30319935953626	2.0445209	1.4298674
33.32149370002451	2.0501134	1.4318217
33.339788914613706	2.0076287	1.4169081
33.358085003895575	2.0214293	1.4217697
33.376381968462034	1.9720051	1.404281
33.39467980890529	1.914151	1.3835285
33.41297852581774	1.9230002	1.3867228
33.43127811979204	1.9823318	1.407953
33.44957859142105	1.997783	1.4134295
33.467879941297866	1.9265051	1.387986
33.486182170015844	1.874376	1.3690785
33.50448527816853	1.9096968	1.3819178
33.522789266349754	1.9396816	1.3927245
33.541094135153514	1.930977	1.389596
33.55939988517411	1.8901132	1.3748139
33.57770651700602	1.9162819	1.3842983
33.59601403124398	1.9476912	1.3955971
33.61432242848296	1.9279537	1.3885077
33.632631709318154	1.8012435	1.3421042
33.650941874344994	1.854688	1.3618693
33.66925292415916	1.9248286	1.3873819
33.68756485935654	2.034928	1.426509
33.70587768053328	2.0245173	1.4228554
33.724191388285746	1.9573526	1.3990542
33.74250598321054	1.9270744	1.3881911
33.760821465904506	1.9362987	1.3915095
33.77913783696474	1.9362918	1.391507
33.79745509698852	2.0438714	1.4296403
33.815773246573414	2.0406861	1.4285258
33.8340922863172	1.9513825	1.3969189
33.852412216817896	1.8893915	1.3745514
33.87073303867377	1.9094687	1.3818352
33.889054752483304	2.030913	1.425101
33.907377358845245	2.0534327	1.4329803
33.92570085835853	2.0457528	1.4302981
33.94402525162239	1.9475545	1.3955481
33.96235053923627	1.7680604	1.3296844
33.980676721799824	1.7978338	1.3408333
33.999003799912984	1.975026	1.4053562
34.01733177417592	1.9806645	1.4073608
34.03566064518901	1.9286861	1.3887714
34.0539904135529	1.9434386	1.3940727
34.07232107986846	2.038993	1.4279331
34.090652644736785	2.0300806	1.424809
34.108985108759235	2.0079448	1.4170197
34.12731847253742	1.8951157	1.376632
34.14565273667313	1.7608438	1.3269678
34.16398790176847	1.7854943	1.336224
34.18232396842574	1.80592	1.3438452
34.20066093724749	1.7057881	1.3060583
34.21899880883651	1.7194612	1.3112823
34.23733758379583	1.784524	1.3358607
34.25567726272874	1.8130653	1.3465011
34.27401784623872	1.8290303	1.3524165
34.29235933492957	1.7995543	1.3414747
34.31070172940526	1.8412169	1.3569145
34.32904503027003	1.8431442	1.3576244
34.347389238128386	1.860708	1.3640777
34.36573435358502	1.907581	1.381152
34.38408037724492	1.9983063	1.4136146
34.402427309713296	1.9891478	1.4103715
34.42077515159559	2.0310116	1.4251356
34.43912390349752	2.182844	1.4774451
34.45747356602499	2.1430504	1.4639162
34.47582413978423	2.0026407	1.415147
34.49417562538163	1.8309805	1.3531373
34.51252802342388	1.7498555	1.322821
34.53088133451789	1.8459709	1.3586651
34.54923555927084	1.9881812	1.4100288
34.567590698290104	2.196725	1.4821353
34.58594675218336	2.1145575	1.4541519
34.6043037215585	1.9353931	1.3911841
34.62266160702365	1.8511949	1.3605862
34.641020409187234	1.91909	1.3853122
34.65938012865785	1.9242887	1.3871874
34.677740766044394	1.8583597	1.3632166
34.69610232195598	1.762406	1.3275564
34.714464797002016	1.7938603	1.3393507
34.73282819179208	1.9587728	1.3995616
34.751192506936064	2.0390031	1.4279367
34.76955774304408	1.8645767	1.3654951
34.7879239007265	1.7180455	1.3107424
34.80629098059391	1.7522552	1.3237277
34.824658983257194	1.901059	1.378789
34.843027909327446	2.068411	1.4381971
34.86139775941603	2.1873991	1.4789859
34.879768534134534	2.1694136	1.4728929
34.89814023409483	2.0507488	1.4320436
34.91651285990901	1.8964858	1.3771296
34.93488641218944	1.8623064	1.3646635
34.95326089154871	1.843828	1.3578763
34.97163629859967	1.8800335	1.3711431
34.99001263395542	2.0561314	1.4339217
35.00838989822934	2.0187395	1.4208236
35.02676809203499	1.8900265	1.3747823
35.04514721598624	2.0198812	1.4212253
35.063527270697215	2.0917683	1.4462947
35.081908256782256	1.8881199	1.3740888
35.10029017485597	1.8602593	1.3639132
35.11867302553321	1.9379025	1.3920857
35.137056809429104	1.8847423	1.3728591
35.155441527159006	1.8109353	1.3457099
35.173827179338524	1.7854806	1.3362188
35.19221376658354	1.699636	1.3037009
35.21060128951017	1.8383256	1.3558487
35.2289897487348	1.856622	1.3625791
35.24737914487405	1.8374006	1.3555075
35.26576947854479	1.8668358	1.366322
35.28416075036418	1.9552867	1.3983157
35.30255296094958	2.0469115	1.4307032
35.32094611091867	1.9924668	1.4115477
35.33934020088932	1.7753501	1.3324226
35.35773523147969	1.808557	1.344826
35.3761312033082	1.8551692	1.362046
35.394528116993506	2.0832114	1.4433334
35.41292597315452	2.0585122	1.4347516
35.431324772410434	1.9769932	1.4060559
35.449724515380666	2.1201825	1.4560846
35.46812520268491	2.0994942	1.4489632
35.486526834943106	2.0803335	1.4423361
35.504929412775454	2.4296677	1.5587392
35.52333293680242	2.5277033	1.5898752
35.54173740764471	2.0848317	1.4438946
35.560142825923286	1.7500838	1.3229073
35.5785491922594	1.6072048	1.2677559
35.59695650727454	2.1289055	1.459077
35.61536477159042	2.153149	1.4673612
