0.008763373481513119	0.56609195	0.7523908
0.026290120649546365	0.18888974	0.43461448
0.043816868432600686	0.15100962	0.38859957
0.06134361724069026	0.10589052	0.32540825
0.07887036748382949	0.20580299	0.45365515
0.0963971195720331	0.1701548	0.41249824
0.11392387391531617	0.2365783	0.48639315
0.1314506309236943	0.1777849	0.42164546
0.1489773910071836	0.20652182	0.45444673
0.16650415457580078	0.1696772	0.4119189
0.18403092203956356	0.16320255	0.40398335
0.20155769380849	0.1588378	0.3985446
0.2190844702925996	0.113459826	0.33683798
0.2366112519019124	0.1360454	0.36884332
0.2541380390464497	0.12548311	0.35423595
0.27166483213623416	0.1044185	0.3231385
0.28919163158128947	0.06220245	0.24940419
0.3067184377916406	0.0519568	0.22794034
0.324245251177314	0.053879213	0.23211896
0.34177207214833777	0.07988368	0.282637
0.3592989011147415	0.1000963	0.31638
0.37682573848655654	0.15258	0.3906149
0.39435258467381573	0.15024474	0.38761416
0.41187944008655414	0.17027888	0.41264862
0.42940630513480854	0.112412624	0.3352799
0.446933180228618	0.1002287	0.31658915
0.4644600657780234	0.095838375	0.30957773
0.48198696219306775	0.13306618	0.36478236
0.49951386988379676	0.13626744	0.3691442
0.5170407892602581	0.1617817	0.40222096
0.5345677207325025	0.200835	0.4481462
0.5520946647105822	0.22604625	0.4754432
0.5696216216045534	0.19416252	0.44063875
0.5871485918244737	0.15877573	0.39846674
0.6046755757804043	0.1649367	0.406124
0.6222025738824094	0.13924663	0.37315765
0.6397295865405557	0.16887636	0.41094568
0.6572566141649129	0.14154814	0.37622884
0.6747836571655547	0.14504446	0.38084704
0.6923107159525568	0.1529688	0.39111224
0.7098377909359992	0.16297594	0.4037028
0.7273648825259653	0.17499498	0.418324
0.7448919911325411	0.1635544	0.4044186
0.762419117165817	0.14793482	0.38462296
0.7799462610358868	0.1498521	0.38710734
0.7974734231528482	0.15562874	0.39449808
0.8150006039268024	0.17101006	0.41353363
0.8325278037678551	0.1891177	0.43487665
0.8500550230861152	0.19742033	0.44432008
0.8675822622916969	0.20055033	0.44782847
0.8851095217947171	0.20615101	0.45403856
0.9026368020052984	0.2217723	0.47092706
0.9201641033335665	0.24443336	0.49440202
0.9376914261896523	0.2280738	0.47757074
0.9552187709836915	0.2424636	0.49240592
0.9727461381258234	0.25942838	0.5093411
0.990273528026193	0.26814693	0.51782906
1.0078009410949496	0.24402417	0.49398804
1.0253283777422473	0.26879314	0.51845264
1.0428558383782454	0.2904296	0.5389152
1.0603833234131086	0.3048787	0.55215824
1.0779108332570058	0.32701662	0.5718537
1.0954383683201119	0.33403477	0.5779574
1.112965929012607	0.3794096	0.6159623
1.1304935157446763	0.52581674	0.7251322
1.1480211289265108	0.5679628	0.7536331
1.1655487689683062	1.3606802	1.166482
1.1830764362802655	1.5917699	1.2616537
1.200604131272596	1.9545349	1.3980469
1.2181318543555117	2.2844117	1.511427
1.235659605939232	2.392995	1.5469309
1.253187386433982	3.925561	1.9813029
1.270715196249994	6.18324	2.486612
1.2882430357975057	11.545453	3.39786
1.3057709054867608	16.266127	4.0331287
1.3232988057280106	22.208439	4.712583
1.3408267369315112	27.272263	5.2222853
1.358354699507526	31.287348	5.593509
1.3758826938663256	35.510666	5.9590826
1.3934107204181858	37.41522	6.116798
1.410938779573391	37.524456	6.125721
1.4284668717422309	37.660896	6.1368475
1.4459949973350033	36.86369	6.0715475
1.4635231567620117	37.120937	6.092695
1.4810513504335687	36.388405	6.0322804
1.4985795787599925	35.81571	5.9846225
1.5161078421516088	35.35317	5.945853
1.5336361410187505	34.479275	5.8719053
1.5511644757717598	34.26394	5.853541
1.5686928468209842	35.15577	5.92923
1.58622125457678	36.2406	6.0200167
1.6037496994495108	37.68853	6.1390986
1.621278181849548	37.835213	6.1510334
1.6388067021872719	38.44982	6.200792
1.6563352608730693	37.641838	6.1352944
1.673863858317336	36.41015	6.0340824
1.6913924949304753	35.430134	5.9523215
1.7089211711228998	34.248455	5.852218
1.7264498873050296	33.608265	5.7972636
1.7439786438872935	32.482063	5.6993036
1.7615074412801288	31.401785	5.6037297
1.779036279893981	30.867682	5.555869
1.796565160139305	30.26971	5.5017915
1.814094082426564	29.803427	5.4592514
1.8316230471662298	29.036983	5.3885975
1.849152054768784	28.221666	5.312407
1.8666811056447168	27.380615	5.232649
1.8842102002045273	26.473782	5.145268
1.901739338858724	25.60629	5.060266
1.9192685220178245	25.285057	5.0284247
1.9367977500923557	24.677048	4.9676
1.9543270234928547	24.670362	4.966927
1.971856342629867	23.909863	4.889771
1.9893857079139496	23.553724	4.853218
2.006915119755667	23.11721	4.808036
2.0244445785655945	22.253279	4.717338
2.0419740847543175	21.59557	4.6471033
2.0595036387324317	20.817675	4.562639
2.0770332409105414	20.522923	4.5302234
2.094562891699263	20.469223	4.5242925
2.1120925915092217	20.17931	4.492139
2.129622340751053	19.975498	4.4693956
2.1471521398354043	187.98965	13.710932
2.1646819891729323	444.33163	21.079176
2.182211889174303	440.55295	20.989353
2.1997418402501974	452.84344	21.280119
2.2172718428113023	432.67444	20.800827
2.234801897268317	320.43753	17.900768
2.2523320040319548	16.86896	4.107184
2.269862163512935	16.656406	4.081226
2.287392376121992	16.199442	4.024853
2.304922642269869	16.040707	4.005085
2.322452962367322	15.803996	3.975424
2.3399833368251164	15.403951	3.9247868
2.357513766054032	15.09207	3.8848512
2.3750442504648586	14.587461	3.8193536
2.3925747904683963	14.4851885	3.805941
2.410105386475459	14.416815	3.7969482
2.4276360388968707	14.258844	3.7760885
2.445166748143469	13.982806	3.7393591
2.4626975146261025	13.440224	3.666091
2.4802283387556323	13.233138	3.637738
2.4977592209429305	13.188143	3.6315482
2.5152901615988825	12.986291	3.6036496
2.5328211611343865	12.720557	3.566589
2.5503522199603523	12.357932	3.5153852
2.5678833384877024	12.07337	3.4746754
2.5854145171273712	12.048728	3.4711277
2.6029457562903064	11.948018	3.4565904
2.620477056387469	11.80412	3.4357123
2.6380084178298326	11.613727	3.4078918
2.655539841028383	11.394397	3.3755589
2.673071326394119	11.374832	3.3726594
2.6906028743380523	11.023413	3.3201525
2.708134485271211	10.9688835	3.3119304
2.7256661596046325	10.761183	3.280424
2.743197897749369	10.68801	3.2692523
2.760729700116486	10.424831	3.2287507
2.778261567117063	10.267671	3.2043207
2.795793499162193	10.151297	3.18611
2.8133254966629817	10.030408	3.1670818
2.830857560030551	9.873063	3.142143
2.8483896896760337	9.7848215	3.1280699
2.865921886010578	9.683021	3.1117551
2.883454149445347	9.473655	3.0779302
2.9009864803915177	9.347343	3.0573425
2.91851887926028	9.171116	3.028385
2.9360513464628384	9.132736	3.0220418
2.953583882410413	9.115366	3.0191665
2.9711164875142373	8.931455	2.988554
2.9886491621855606	8.768485	2.9611628
3.0061819068356455	8.611844	2.9345944
3.023714721875769	8.589917	2.930856
3.041247607717225	8.468702	2.9101036
3.0587805647713213	8.33893	2.8877206
3.0763135934493806	8.165071	2.8574588
3.0938466941627407	8.017078	2.8314445
3.1113798673227544	7.9030027	2.811228
3.1289131133407904	7.8043237	2.793622
3.1464464326282315	7.689709	2.7730324
3.1639798255964786	7.6577415	2.7672625
3.1815132926569443	7.529293	2.7439559
3.1990468342210603	7.4901447	2.7368128
3.216580450700272	7.423166	2.7245488
3.2341141425060416	7.204959	2.6842055
3.251647910049847	7.1033664	2.665214
3.2691817537431813	7.0069213	2.647059
3.286715673997555	6.8921022	2.6252813
3.3042496712244938	6.9533525	2.636921
3.32178374583554	6.8957458	2.6259751
3.339317898242251	6.841032	2.6155367
3.3568521288562034	6.7179646	2.5919037
3.3743864380889876	6.7258987	2.5934339
3.3919208263522127	6.7447076	2.5970576
3.4094552940575023	6.7288365	2.594
3.4269898416164972	6.7161946	2.5915623
3.444524469440858	6.642364	2.5772784
3.4620591779422587	6.5328126	2.5559368
3.479593967532391	6.429966	2.5357378
3.4971288386229658	6.3560634	2.5211234
3.5146637916257086	6.292073	2.5084004
3.5321988269523628	6.285111	2.5070124
3.5497339450146903	6.3174963	2.513463
3.5672691462244708	6.3572717	2.521363
3.5848044309934988	6.2864823	2.5072858
3.60233979973359	6.262201	2.502439
3.619875252856575	6.114019	2.4726543
3.6374107907743034	6.043691	2.458392
3.6549464138986427	6.079399	2.4656436
3.6724821226414788	6.219134	2.4938192
3.690017917414714	6.268462	2.5036898
3.7075537986302702	6.3218913	2.514337
3.7250897667000857	6.3397794	2.517892
3.7426258220361235	6.4373364	2.5371907
3.7601619650503553	6.784544	2.6047158
3.777698196154779	7.371765	2.7150996
3.7952345157614067	8.508388	2.916914
3.8127709242822716	9.230606	3.0381913
3.830307422129425	11.45496	3.3845177
3.847844009714936	30.217167	5.4970145
3.8653806874508954	97.65534	9.8820715
3.882917455749409	96.84148	9.840807
3.900454315022606	96.426636	9.819707
3.917991265682631	41.012486	6.404099
3.9355283081416506	10.702717	3.2715006
3.9530654428118495	8.603093	2.933103
3.970602670105433	7.4436193	2.7282996
3.9881399904346244	6.5281487	2.5550241
4.005677404211669	6.4499354	2.5396724
4.023214911848827	6.3245926	2.5148742
4.0407525137583855	6.3056536	2.511106
4.058290210352644	6.251447	2.5002894
4.075828002043927	6.2888494	2.507758
4.0933658892445814	6.286598	2.507309
4.110903872366966	6.2836676	2.5067244
4.128441951823468	6.262586	2.502516
4.145980128026488	6.1653013	2.4830024
4.163518401388452	6.1053605	2.4709027
4.181056772321807	6.0668383	2.4630952
4.1985952412390155	6.0669537	2.4631188
4.216133808552567	6.1032047	2.4704666
4.233672474674966	6.1038704	2.4706013
4.251211240018741	6.310174	2.512006
4.268750104996445	6.5593424	2.5611212
4.286289070020643	7.538873	2.7457008
4.303828135503928	9.097965	3.0162833
4.3213673018589125	29.332415	5.4159408
4.3389065694982305	90.45824	9.510954
4.356445938834537	165.66609	12.871134
4.3739854102805085	170.99242	13.0764065
4.391524984248844	171.86465	13.109716
4.409064661152262	135.78316	11.652603
4.426604441403504	96.09429	9.80277
4.444144325415337	75.25606	8.675025
4.461684313600543	21.430609	4.6293206
4.47922440637193	21.95289	4.685391
4.496764604142329	20.330753	4.5089636
4.5143049073245916	18.469816	4.2976522
4.531845316331589	16.363834	4.0452237
4.5493858315762195	13.376988	3.6574566
4.566926453471405	11.152628	3.339555
4.584467182430081	9.085232	3.0141718
4.602008018865218	7.9108906	2.8126307
4.619548963189798	7.206364	2.6844673
4.637090015816834	6.7884	2.6054559
4.654631177159353	6.6241975	2.5737517
4.672172447630417	6.4304976	2.5358427
4.689713827643102	6.2895966	2.507907
4.7072553176105085	6.0604973	2.4618077
4.724796917945764	5.8885098	2.4266253
4.742338629062015	5.812951	2.4110062
4.759880451372434	5.7858324	2.4053757
4.777422385290215	5.767657	2.4015946
4.794964431228581	5.74896	2.3976989
4.812506589600768	5.673541	2.3819196
4.830048860820047	5.6360474	2.374036
4.847591245299709	5.620422	2.3707428
4.8651337434530655	5.669014	2.380969
4.882676355693457	5.6144485	2.3694828
4.900219082434242	5.552646	2.3564053
4.917761924088813	5.5196013	2.349383
4.935304881070575	5.5011683	2.3454568
4.952847953792969	5.512347	2.3478389
4.970391142669449	5.4289966	2.3300207
4.9879344481135055	5.4808884	2.3411298
5.005477870538642	5.5035143	2.345957
5.023021410358394	5.4869103	2.3424156
5.040565067986324	5.473276	2.3395033
5.05810884383601	5.5163217	2.348685
5.075652738321066	5.5177965	2.348999
5.09319675185512	5.441506	2.3327036
5.110740884851836	5.398916	2.3235567
5.128285137724894	5.3620543	2.3156111
5.145829510888007	5.2713757	2.2959476
5.163374004754908	5.2427144	2.2896974
5.1809186197393595	5.251516	2.2916186
5.198463356255145	5.2492247	2.2911186
5.216008214716077	5.2674265	2.2950876
5.233553195535998	5.216242	2.2839093
5.251098299128764	5.2520742	2.2917404
5.268643525908272	5.2590995	2.2932727
5.286188876288432	5.229699	2.2868536
5.3037343506831895	5.1630044	2.2722247
5.32127994950651	5.1315312	2.2652884
5.3388256731723915	5.1803536	2.2760391
5.356371522094851	5.1807995	2.2761369
5.373917496687938	5.1390023	2.2669368
5.391463597365729	5.134319	2.2659035
5.40900982454232	5.069094	2.2514648
5.426556178631843	5.1104107	2.2606218
5.444102660048449	5.0947843	2.2571628
5.4616492692063225	5.107535	2.2599857
5.479196006519669	5.147506	2.2688117
5.496742872402727	5.125403	2.2639353
5.514289867269756	5.198545	2.2800317
5.531836991535049	5.191319	2.2784467
5.549384245612924	5.176328	2.2751546
5.566931629917724	5.172891	2.274399
5.584479144863822	5.1507144	2.2695186
5.6020267908656205	5.1862044	2.277324
5.619574568337545	5.170415	2.2738547
5.637122477694054	5.1716967	2.2741365
5.654670519349629	5.158077	2.2711399
5.672218693718784	5.1275864	2.2644174
5.689767001216059	5.0806346	2.2540264
5.707315442256021	5.0320206	2.2432165
5.724864017253266	5.0728292	2.2522943
5.7424127266224225	5.1400275	2.2671628
5.75996157077814	5.1537857	2.270195
5.777510550135105	5.1097198	2.260469
5.795059665108022	5.1602674	2.2716222
5.812608916111639	5.2073207	2.2819555
5.830158303560715	5.3506846	2.3131547
5.847707827870055	5.324577	2.3075044
5.86525748945448	5.3396516	2.3107686
5.8828072887288485	5.49102	2.3432927
5.900357226108044	5.537697	2.3532312
5.917907302006979	5.5864854	2.3635747
5.9354575168406	6.2328525	2.4965682
5.9530078710238765	6.813557	2.610279
5.970558364971812	7.3147054	2.7045712
5.988108999099438	7.597584	2.7563715
6.005659773821818	8.124093	2.8502796
6.023210689554039	7.901695	2.8109953
6.040761746711227	8.400505	2.8983624
6.058312945708531	7.7775717	2.7888298
6.075864286961132	7.3474064	2.71061
6.093415770884244	6.6958113	2.5876265
6.1109673978931065	6.1184425	2.4735487
6.128519168402993	5.460805	2.3368366
6.146071082829204	5.236613	2.2883646
6.163623141587075	5.104421	2.2592967
6.181175345091969	5.0956807	2.2573614
6.198727693759281	5.153857	2.2702107
6.216280188004435	5.1983385	2.2799866
6.233832828242885	5.122805	2.2633615
6.251385614890126	5.137554	2.2666173
6.268938548361669	5.1443944	2.2681258
6.286491629073067	5.1351347	2.2660835
6.304044857439898	5.166706	2.2730389
6.321598233877777	5.052607	2.2478006
6.339151758802344	4.9904737	2.2339368
6.356705432629277	4.938218	2.2222102
6.37425925577428	4.935998	2.2217107
6.391813228653095	4.9396524	2.222533
6.409367351681486	4.97744	2.2310176
6.426921625275259	4.9847665	2.232659
6.44447604985025	5.0002418	2.2361221
6.46203062582232	5.0079093	2.237836
6.47958535360737	4.9821177	2.2320657
6.497140233621328	4.979727	2.2315302
6.514695266280161	4.9582663	2.2267165
6.532250451999859	4.9899755	2.2338252
6.549805791196454	5.0430775	2.2456796
6.567361284286002	5.060665	2.2495923
6.584916931684597	5.0753455	2.2528527
6.602472733808367	5.0128984	2.2389503
6.6200286910734665	4.9447536	2.2236803
6.637584803896092	4.959142	2.2269132
6.655141072692462	4.9606986	2.2272625
6.672697497878842	4.9454017	2.223826
6.690254079871514	4.9651155	2.2282538
6.707810819086808	4.985357	2.2327912
6.725367715941078	5.047574	2.2466807
6.742924770850719	5.0231047	2.2412283
6.760481984232151	5.0384817	2.2446563
6.778039356501836	4.9837017	2.2324207
6.795596888076266	4.979901	2.231569
6.813154579371963	4.9130855	2.2165482
6.830712430805492	4.8778944	2.2085955
6.84827044279344	4.8768077	2.2083495
6.865828615752445	4.891675	2.211713
6.883386950099159	4.933668	2.2211862
6.900945446250287	5.0027456	2.236682
6.918504104622553	5.037037	2.2443345
6.936062925632727	4.9872494	2.233215
6.953621909697607	4.936332	2.2217858
6.971181057234028	4.9677286	2.22884
6.988740368658859	5.0288777	2.242516
7.006299844389007	5.15919	2.2713852
7.023859484841407	5.202506	2.2809002
7.041419290433036	5.252503	2.2918339
7.058979261580902	5.366554	2.3165824
7.0765393987020495	5.6161523	2.3698423
7.094099702213559	5.9800963	2.4454236
7.111660172532549	6.3349476	2.5169322
7.129220810076164	6.68411	2.5853646
7.146781615261595	7.2195625	2.6869245
7.16434258850606	7.4890223	2.7366078
7.181903730226821	7.8931484	2.8094747
7.1994650408411704	7.985714	2.8259006
7.217026520766437	8.017528	2.831524
7.234588170419983	8.181039	2.8602514
7.252149990219215	8.373108	2.8936324
7.269711980581568	8.356715	2.8907983
7.2872741419245175	8.211687	2.8656042
7.304836474665574	7.7387314	2.7818575
7.322398979222286	7.367581	2.7143288
7.339961656012233	7.1490183	2.6737647
7.357524505453039	6.7913337	2.6060188
7.375087527962357	6.5122848	2.5519178
7.392650723957886	6.1607366	2.482083
7.410214093857353	5.841558	2.4169316
7.427777638078528	5.66198	2.3794916
7.445341357039213	5.536941	2.3530705
7.4629052511572525	5.4422026	2.3328528
7.480469320850524	5.3415422	2.3111777
7.498033566536948	5.259767	2.2934182
7.5155979886344735	5.2256722	2.2859728
7.5331625875610975	5.156846	2.270869
7.550727363734844	5.182673	2.2765484
7.568292317573788	5.101055	2.2585516
7.585857449496025	5.0954947	2.2573202
7.603422759919705	5.122607	2.2633178
7.620988249263007	5.190327	2.278229
7.638553917944147	5.2348156	2.287972
7.656119766381391	5.2100363	2.2825503
7.673685794993023	5.2053514	2.281524
7.691252004197388	5.181349	2.2762575
7.70881839441285	5.2067246	2.2818248
7.726384966057826	5.208454	2.2822037
7.743951719550762	5.223908	2.285587
7.761518655310149	5.2241035	2.2856297
7.779085773754511	5.212707	2.2831354
7.796653075302419	5.2272034	2.2863078
7.814220560372475	5.2232723	2.2854478
7.831788229383323	5.2460995	2.2904365
7.8493560827536495	5.233399	2.2876623
7.866924120902174	5.1942916	2.2790987
7.884492344247663	5.1721935	2.2742457
7.9020607532089135	5.280603	2.2979562
7.919629348204771	5.379638	2.3194046
7.937198129654115	5.443094	2.3330438
7.954767097975865	5.393103	2.3223057
7.972336253588986	5.3753476	2.3184795
7.989905596912472	5.3054156	2.3033488
8.007475128365371	5.285969	2.2991235
8.025044848366756	5.3183603	2.306157
8.042614757335754	5.486024	2.3422263
8.060184855691523	5.6120553	2.3689778
8.07775514385327	5.753386	2.3986218
8.095325622240228	5.7932844	2.4069242
8.112896291271687	5.8556695	2.4198492
8.130467151366968	5.903907	2.4297957
8.148038202945436	5.9167686	2.4324408
8.165609446426497	5.8778396	2.4244256
8.183180882229594	5.8534617	2.4193928
8.200752510774217	5.889658	2.4268618
8.218324332479893	5.9431705	2.437862
8.235896347766193	5.950555	2.4393759
8.253468557052724	5.935893	2.436369
8.27104096075914	5.9421544	2.4376535
8.288613559305137	5.997656	2.449011
8.306186353110448	6.1214876	2.474164
8.32375934259485	6.185522	2.487071
8.341332528178162	6.1923575	2.4884448
8.358905910280246	6.262028	2.5024045
8.376479489321003	6.2959595	2.509175
8.394053265720377	6.2763133	2.5052571
8.411627239898356	6.2072315	2.4914317
8.42920141227497	6.1893396	2.4878383
8.44677578327029	6.207036	2.4913924
8.464350353304427	6.2047443	2.4909325
8.48192512279754	6.1850066	2.4869673
8.499500092169827	6.167927	2.483531
8.51707526184153	6.1520376	2.4803302
8.534650632232934	6.1714716	2.4842446
8.552226203764365	6.1499023	2.4798996
8.569801976856192	6.1622195	2.4823818
8.587377951928834	6.1815405	2.4862704
8.60495412940274	6.198434	2.4896655
8.622530509698416	6.241384	2.4982762
8.6401070932364	6.3583	2.521567
8.657683880437283	6.4732213	2.5442526
8.675260871721695	6.6776257	2.5841103
8.692838067510303	6.784953	2.6047943
8.710415468223834	6.9189143	2.630383
8.727993074283043	7.0523915	2.655634
8.745570886108737	7.070994	2.6591341
8.763148904121765	7.121608	2.6686342
8.78072712874302	7.143692	2.6727686
8.798305560393441	7.3878865	2.7180667
8.815884199494006	7.585751	2.7542243
8.833463046465745	7.7489266	2.7836895
8.851042101729728	7.874898	2.8062248
8.86862136570707	8.103388	2.846645
8.886200838818924	8.213611	2.8659399
8.903780521486505	8.259528	2.8739395
8.921360414131055	8.36682	2.8925457
8.938940517173874	8.432284	2.9038396
8.956520831036297	8.516568	2.918316
8.97410135613971	8.766421	2.9608142
8.99168209290554	9.060953	3.0101416
9.009263041755265	9.446458	3.073509
9.026844203110405	9.729471	3.11921
9.044425577392525	9.854602	3.139204
9.062007165023239	9.880857	3.143383
9.079588966424197	10.0786915	3.1746955
9.097170982017108	10.187275	3.191751
9.11475321222372	11.285193	3.3593442
9.132335657465825	12.274778	3.503538
9.149918318165264	12.395731	3.5207572
9.167501194743924	13.035415	3.610459
9.18508428762374	12.569305	3.5453217
9.202667597226693	12.514101	3.5375276
9.220251123974803	12.131408	3.483017
9.237834868290143	11.864159	3.4444387
9.255418830594836	11.862303	3.4441693
9.273003011311046	11.350468	3.3690455
9.290587410860985	11.133632	3.3367097
9.308172029666911	10.426289	3.2289765
9.32575686815113	10.096934	3.1775672
9.343341926735997	8.781324	2.96333
9.360927205843916	8.513279	2.9177523
9.378512705897327	8.2391815	2.8703976
9.396098427318728	8.006478	2.8295722
9.413684370530664	7.974455	2.8239076
9.431270535955722	7.9335227	2.8166509
9.448856924016539	7.9192176	2.8141105
9.466443535135806	7.8182	2.7961044
9.484030369736251	7.7989955	2.792668
9.501617428240658	7.77347	2.7880943
9.519204711071852	7.7433476	2.7826872
9.536792218652714	7.723155	2.7790565
9.55437995140617	7.6742187	2.770238
9.571967909755191	7.6959925	2.7741652
9.589556094122802	7.7494984	2.783792
9.60714450493207	7.83332	2.798807
9.624733142606116	7.8707576	2.8054872
9.642322007568108	7.8898134	2.8088813
9.659911100241267	7.879484	2.807042
9.677500421048851	7.9214406	2.8145053
9.695089970414175	7.93713	2.8172913
9.712679748760609	7.969695	2.8230648
9.730269756511557	7.991441	2.8269136
9.747859994090492	8.090424	2.844367
9.765450461920915	8.13716	2.8525708
9.78304116042639	8.1603365	2.8566303
9.800632090030527	8.133922	2.852003
9.81822325115699	8.17453	2.8591135
9.835814644229481	8.207422	2.8648598
9.853406269671762	8.312004	2.8830547
9.870998127907646	8.376258	2.8941765
9.888590219360985	8.384014	2.8955162
9.906182544455698	8.340007	2.887907
9.923775103615734	8.259349	2.8739083
9.941367897265108	8.200668	2.8636808
9.958960925827878	8.16831	2.8580256
9.97655418972816	8.1506815	2.85494
9.994147689390106	8.191218	2.8620305
10.011741425237934	8.188059	2.8614783
10.029335397695904	8.189888	2.861798
10.04692960718833	8.233845	2.8694677
10.06452405413958	8.271704	2.876057
10.082118738974064	8.327516	2.8857436
10.099713662116246	8.293028	2.8797617
10.117308823990651	8.324151	2.8851604
10.134904225021844	8.356752	2.8908048
10.152499865634445	8.32314	2.8849852
10.170095746253125	8.313133	2.8832505
10.18769186730261	8.182938	2.8605835
10.205288229207675	8.09501	2.8451731
10.222884832393145	8.057491	2.838572
10.2404816772839	8.031325	2.8339593
10.258078764304868	8.104711	2.8468773
10.275676093881035	8.099397	2.845944
10.293273666437438	8.1061945	2.847138
10.310871482399158	8.2168865	2.866511
10.32846954219134	8.148354	2.854532
10.346067846239173	8.170335	2.8583798
10.363666394967908	8.068467	2.8405046
10.38126518880283	8.090026	2.8442972
10.398864228169298	8.113539	2.8484275
10.416463513492713	8.055884	2.838289
10.434063045198531	8.024608	2.832774
10.451662823712262	8.036239	2.834826
10.469262849459467	8.04367	2.8361363
10.486863122865758	8.08903	2.8441222
10.504463644356806	8.118869	2.8493629
10.522064414358338	8.108932	2.8476186
10.539665433296118	8.033188	2.834288
10.557266701595987	7.9547462	2.820416
10.574868219683818	7.8538756	2.8024766
10.592469987985552	7.761351	2.7859201
10.610072006927185	7.6330485	2.762797
10.627674276934751	7.588492	2.7547216
10.64527679843435	7.3975716	2.7198477
10.662879571852143	7.218012	2.6866357
10.680482597614331	7.1010585	2.664781
10.698085876147173	7.0425487	2.65378
10.715689407876988	6.9790106	2.6417818
10.733293193230146	6.894154	2.625672
10.750897232633072	6.8133526	2.61024
10.76850152651225	6.741462	2.5964327
10.786106075294207	6.6342087	2.5756958
10.803710879405534	6.500737	2.5496542
10.821315939272877	6.4140186	2.5325913
10.83892125532294	6.3321314	2.5163727
10.856526827982472	6.2201943	2.4940317
10.874132657678285	6.23015	2.496027
10.891738744837243	6.234171	2.4968321
10.909345089886271	6.224331	2.494861
10.926951693252343	6.1693325	2.483814
10.944558555362494	6.0631843	2.4623535
10.96216567664381	6.0068197	2.4508815
10.979773057523436	6.008903	2.4513063
10.997380698428573	5.90489	2.429998
11.014988599786477	5.827004	2.4139187
11.032596762024461	5.6905255	2.3854823
11.050205185569892	5.616984	2.3700178
11.067813870850198	5.5517817	2.356222
11.085422818292859	5.551899	2.3562467
11.10303202832541	5.5016437	2.3455582
11.120641501375454	5.4133945	2.3266702
11.138251237870636	5.3021803	2.3026464
11.155861238238671	5.2432146	2.2898066
11.173471502907317	5.1815944	2.2763116
11.191082032304402	5.1422043	2.267643
11.208692826857805	5.0378356	2.2445123
11.226303886995465	4.9712605	2.2296324
11.243915213145371	4.922942	2.2187705
11.261526805735578	4.912163	2.21634
11.279138665194196	4.915439	2.217079
11.296750791949393	4.8404703	2.2001069
11.314363186429393	4.782042	2.186788
11.331975849062479	4.7124724	2.170823
11.34958878027699	4.673616	2.1618547
11.36720198050133	4.602007	2.1452289
11.384815450163948	4.5966473	2.1439793
11.402429189693366	4.6148067	2.14821
11.420043199518153	4.5791807	2.139902
11.437657480066942	63.46939	7.966768
11.455272031768422	85.118904	9.22599
11.472886855051353	107.455444	10.366072
11.490501950344528	99.07595	9.953691
11.508117318076819	84.45877	9.1901455
11.52573295867715	45.85099	6.771336
11.543348872574514	4.161312	2.0399294
11.560965060197946	4.12035	2.0298645
11.57858152197655	4.045027	2.0112252
11.59619825833949	4.003726	2.0009313
11.613815269715985	3.9743028	1.9935653
11.631432556535323	38.473225	6.2026787
11.649050119226837	83.00202	9.110544
11.666667958219929	93.40159	9.66445
11.68428607394406	107.68351	10.377067
11.701904466828756	82.49486	9.082668
11.719523137303586	65.35633	8.084326
11.737142085798196	4.6021595	2.1452644
11.754761312742286	3.716689	1.9278717
11.772380818565619	3.6310465	1.9055306
11.790000603698015	3.5586698	1.8864437
11.80762066856935	3.5296059	1.8787246
11.825241013609572	3.5392625	1.8812928
11.842861639248683	3.5012147	1.8711534
11.860482545916748	3.5233946	1.8770708
11.878103734043883	3.526354	1.8778589
11.895725204060282	3.5169606	1.8753561
11.91334695639619	3.4439397	1.8557855
11.930968991481919	3.3962984	1.8429049
11.948591309747824	3.380719	1.8386731
11.966213911624347	3.3802133	1.8385357
11.98383679754198	3.3138778	1.820406
12.001459967931268	3.221826	1.7949446
12.019083423222835	3.161135	1.777958
12.036707163847352	3.1711102	1.7807611
12.05433119023556	3.2216814	1.7949042
12.071955502818259	3.2651536	1.8069736
12.089580102026313	3.206817	1.7907587
12.107204988290643	3.1795099	1.783118
12.12483016204224	3.1293185	1.768988
12.142455623712152	3.1147783	1.7648735
12.16008137373149	3.1173017	1.7655882
12.177707412531431	3.0643008	1.7505144
12.19533374054321	3.0565298	1.7482934
12.212960358198126	3.0518095	1.7469429
12.230587265927545	3.053659	1.7474722
12.248214464162889	3.025021	1.7392588
12.265841953335649	3.001211	1.7324003
12.283469733877375	2.9545865	1.718891
12.301097806219685	2.9114048	1.7062839
12.31872617079425	2.9057229	1.7046181
12.336354828032825	2.9035912	1.7039927
12.353983778367205	2.9035676	1.7039858
12.371613022229262	2.8958943	1.7017328
12.389242560050928	2.9192114	1.70857
12.406872392264201	2.9368186	1.7137148
12.424502519301143	2.9221725	1.7094363
12.442132941593874	2.892774	1.7008157
12.459763659574586	2.8732011	1.6950519
12.477394673675532	2.8491385	1.6879392
12.49502598432903	2.8059797	1.6751059
12.51265759196746	2.797224	1.6724904
12.530289497023267	2.798435	1.6728524
12.547921699928967	2.7981305	1.6727613
12.565554201117134	2.7558258	1.660068
12.583187001020404	2.7098973	1.6461766
12.600820100071486	2.7266946	1.6512706
12.618453498703152	2.697266	1.6423355
12.636087197348235	2.7123141	1.6469104
12.65372119643964	2.7081046	1.645632
12.671355496410326	2.7448263	1.6567518
12.68899009769333	2.8440955	1.6864446
12.706625000721749	2.8791847	1.6968161
12.724260205928752	2.9546425	1.7189074
12.741895713747551	2.9228866	1.7096452
12.759531524611454	2.9441218	1.7158444
12.777167638953818	2.9145274	1.7071987
12.794804057208072	2.9581513	1.7199277
12.812440779807702	3.0268717	1.7397907
12.830077807186271	3.2031884	1.7897453
12.847715139777405	3.2492507	1.8025678
12.865352778014795	3.4316971	1.852484
12.882990722332197	3.5271668	1.8780754
12.90062897316344	3.64539	1.9092904
12.918267530942412	3.7454083	1.9353057
12.935906396103071	3.605362	1.898779
12.953545569079449	3.7216523	1.9291584
12.971185050305628	3.5167193	1.8752918
12.988824840215775	3.5355241	1.880299
13.006464939244115	3.5645223	1.8879943
13.024105347824943	3.4161942	1.848295
13.041746066392617	3.506457	1.8725536
13.05938709538157	3.3421247	1.8281479
13.077028435226296	3.3500493	1.8303139
13.094670086361363	3.307903	1.8187642
13.112312049221401	3.1955347	1.7876059
13.129954324241112	3.0802536	1.7550651
13.147596911855258	2.8469284	1.6872844
13.165239812498685	2.7799227	1.66731
13.182883026606293	2.7428324	1.6561499
13.200526554613058	2.6887004	1.6397257
13.218170396954017	2.6642735	1.6322602
13.235814554064284	2.6749716	1.635534
13.253459026379034	2.695391	1.6417645
13.271103814333523	2.6984863	1.642707
13.288748918363058	2.704403	1.6445069
13.306394338903031	2.699189	1.6429209
13.32404007638889	2.6686049	1.6335865
13.341686131256164	2.6587923	1.6305803
13.359332503940449	2.6345918	1.6231426
13.376979194877402	2.6321921	1.6224031
13.394626204502751	2.6588233	1.6305898
13.412273533252307	2.6994197	1.6429911
13.429921181561937	2.6751547	1.63559
13.447569149867581	2.72284	1.6501031
13.465217438605247	2.7302701	1.6523529
13.482866048211022	2.7481399	1.6577514
13.500514979121052	2.7386456	1.6548854
13.518164231771568	2.691802	1.6406713
13.535813806598844	2.6571536	1.6300778
13.553463704039254	2.6437225	1.6259528
13.571113924529229	2.629026	1.6214272
13.588764468505275	2.64275	1.6256537
13.606415336403956	2.6534407	1.6289386
13.624066528661917	2.7021017	1.643807
13.641718045715882	2.7918978	1.6708972
13.659369888002635	2.8698905	1.6940751
13.67702205595903	2.912945	1.7067353
13.694674550021993	2.9838328	1.7273774
13.712327370628532	3.0492685	1.7462155
13.729980518215713	3.0712504	1.7524984
13.747633993220681	3.0933032	1.7587789
13.765287796080647	3.1215208	1.7667826
13.7829419272329	3.192927	1.7868763
13.800596387114801	3.223605	1.7954401
13.818251176163775	3.2511382	1.8030913
13.835906294817324	3.2599292	1.8055274
13.853561743513023	3.3549356	1.8316483
13.871217522688525	3.4334888	1.8529676
13.888873632781538	3.4558287	1.8589859
13.906530074229858	3.4502997	1.8574983
13.92418684747135	3.4578793	1.8595374
13.941843952943948	3.4440966	1.8558277
13.959501391085665	3.4324825	1.8526961
13.977159162334578	3.3828528	1.8392533
13.994817267128846	3.3482447	1.829821
14.012475705906693	3.1910496	1.786351
14.030134479106424	3.1184056	1.7659007
14.047793587166414	3.0769095	1.7541121
14.065453030525108	3.0563977	1.7482556
14.083112809621026	2.9726734	1.7241442
14.100772924892766	2.8755662	1.6957495
14.118433376778997	2.8373268	1.6844367
14.136094165718458	2.813018	1.6772054
14.153755292149969	2.7663565	1.6632367
14.171416756512416	2.7001638	1.6432176
14.189078559244768	2.6236525	1.6197692
14.20674070078606	2.560319	1.6000997
14.224403181575408	2.510316	1.5843977
14.242066002051999	2.4908729	1.5782499
14.259729162655093	2.4347787	1.5603777
14.277392663824022	2.4054537	1.5509526
14.295056505998208	2.386926	1.5449679
14.312720689617128	2.39987	1.5491513
14.330385215120348	2.4244654	1.5570695
14.348050082947497	2.4142964	1.5538006
14.3657152935383	2.409537	1.5522684
14.383380847332528	2.4069545	1.5514363
14.401046744770051	2.424867	1.5571984
14.418712986290798	2.4319603	1.5594743
14.436379572334793	2.3746793	1.5409994
14.454046503342123	2.35544	1.5347443
14.471713779752946	2.3567932	1.5351851
14.489381402007504	2.3651223	1.5378954
14.507049370546113	2.3801978	1.542789
14.524717685809168	2.3631787	1.5372634
14.542386348237134	2.3655062	1.5380203
14.560055358270553	2.3852234	1.5444168
14.577724716350051	2.426235	1.5576376
14.595394422916325	2.4491112	1.5649637
14.61306447841015	2.43069	1.559067
14.63073488327237	2.3974576	1.5483725
14.648405637943917	2.4268577	1.5578375
14.6660767428658	2.4470356	1.5643003
14.683748198479094	2.5301604	1.5906478
14.701420005224954	2.587082	1.6084409
14.719092163544628	2.6778212	1.636405
14.73676467387942	2.6938496	1.6412951
14.754437536670727	2.6905189	1.6402801
14.772110752360014	2.628978	1.6214124
14.78978432138882	2.6068945	1.614588
14.807458244198777	2.6271958	1.6208627
14.82513252123159	2.6474178	1.6270888
14.842807152929028	2.672332	1.6347269
14.860482139732962	2.670172	1.6340661
14.87815748208531	2.679083	1.6367905
14.8958331804281	2.6958761	1.6419123
14.91350923520342	2.6913743	1.6405408
14.931185646853438	2.6917596	1.6406583
14.948862415820408	2.6268587	1.6207587
14.966539542546656	2.6383073	1.6242868
14.98421702747459	2.6146214	1.6169791
15.001894871046696	2.6562917	1.6298134
15.019573073705542	2.6590116	1.6306477
15.037251635893766	2.6633961	1.6319915
15.054930558054092	2.6875448	1.6393733
15.072609840629323	2.7079778	1.6455934
15.090289484062351	2.8424602	1.6859597
15.107969488796124	3.1113472	1.7639011
15.125649855273691	3.499307	1.8706435
15.14333058393817	3.952078	1.9879835
15.161011675232768	4.8407907	2.2001798
15.17869312960076	6.1853137	2.487029
15.196374947485506	8.0464525	2.836627
15.214057129330447	11.118254	3.3344045
15.231739675579114	15.792878	3.9740255
15.249422586675102	21.037924	4.586712
15.267105863062092	24.386677	4.938287
15.284789505183847	24.839128	4.9838867
15.302473513484218	22.833141	4.7784038
15.320157888407127	19.19608	4.381333
15.337842630396578	14.985701	3.871137
15.355527739896656	11.643747	3.4122937
15.37321321735153	9.002027	3.0003378
15.39089906320545	6.4723825	2.5440876
15.408585277902748	4.791655	2.1889849
15.42627186188783	3.7410414	1.9341772
15.443958815605198	3.2030642	1.7897106
15.461646139499424	2.9159389	1.707612
15.479333834015168	2.7248805	1.6507212
15.497021899597165	2.671223	1.6343876
15.514710336690234	2.5878737	1.6086869
15.53239914573928	2.5111744	1.5846685
15.550088327189297	2.4988759	1.5807832
15.567777881485336	2.5073595	1.5834644
15.58546780907256	2.5089002	1.5839508
15.6031581103962	2.491324	1.5783929
15.620848785901568	2.4703784	1.5717437
15.638539836034063	2.473198	1.5726404
15.656231261239173	2.4642694	1.5697992
15.673923061962451	2.438519	1.5615758
15.691615238649552	2.423648	1.556807
15.709307791746202	2.417484	1.554826
15.727000721698221	2.3997216	1.5491035
15.744694028951498	2.3725963	1.5403234
15.76238771395202	2.376111	1.541464
15.780081777145844	2.3877642	1.5452392
15.797776218979125	2.3602588	1.5363134
15.815471039898094	2.3416023	1.5302294
15.833166240349064	2.3108823	1.5201586
15.850861820778437	2.3146882	1.52141
15.868557781632699	2.3496654	1.5328618
15.886254123358412	2.3750541	1.541121
15.903950846402232	2.3578007	1.5355132
15.921647951210897	2.3040624	1.5179138
15.939345438231225	2.3449774	1.5313319
15.957043307910133	2.4126568	1.553273
15.974741560694602	2.455349	1.5669553
15.992440197031714	2.4359577	1.5607555
16.01013921736862	2.4177475	1.5549108
16.02783862215259	2.4373705	1.561208
16.045538411830933	2.4325023	1.5596482
16.06323858685107	2.3913906	1.5464121
16.080939147660512	2.3445065	1.5311781
16.09864009470684	2.3304694	1.5265875
16.11634142843774	2.3712418	1.5398837
16.134043149300954	2.3948953	1.547545
16.15174525774433	2.4249897	1.5572379
16.169447754215817	2.4459577	1.5639558
16.18715063916342	2.4622443	1.569154
16.204853913035244	2.487988	1.5773357
16.222557576279478	2.4854136	1.5765195
16.240261629344403	22.458586	4.739049
16.257966072678386	42.975876	6.5555987
16.275670906729868	38.080395	6.1709313
16.293376131947387	2.526579	1.5895216
16.31108174877957	2.5463023	1.5957137
16.328787757675133	2.5604956	1.6001549
16.34649415908287	2.5761983	1.605054
16.364200953451657	2.5915735	1.6098365
16.38190814123048	2.6524	1.6286191
16.39961572286839	2.6767633	1.6360817
16.41732369881455	2.6690469	1.6337218
16.43503206951817	2.6724758	1.6347709
16.45274083542859	2.7085323	1.645762
16.47044999699522	2.727526	1.6515223
16.488159554667558	2.738511	1.6548448
16.505869508895184	2.7920074	1.6709301
16.523579860127786	2.864034	1.6923457
16.541290608815117	2.9162698	1.707709
16.559001755407035	2.9938357	1.7302704
16.57671330035348	3.0707915	1.7523674
16.59442524410448	3.1100857	1.7635435
16.61213758711015	3.1391993	1.7717786
16.629850329820705	3.1845086	1.7845192
16.647563472686436	3.281267	1.8114268
16.665277016157724	3.395275	1.8426273
16.682990960685053	3.4541678	1.8585392
16.70070530671898	3.468454	1.8623786
16.718420054710155	3.492389	1.8687935
16.736135205109335	3.547423	1.8834604
16.753850758367335	3.61374	1.9009839
16.771566714935087	3.6885912	1.9205705
16.789283075263597	3.7193344	1.9285576
16.80699983980398	3.7436254	1.9348451
16.82471700900741	3.7569518	1.9382858
16.84243458332518	3.842756	1.9602948
16.860152563208665	4.0053043	2.0013256
16.87787094910932	4.138681	2.0343747
16.89558974147871	4.183622	2.0453904
16.913308940768466	4.23245	2.057292
16.931028547430333	4.308248	2.0756319
16.94874856191613	4.386039	2.0942872
16.966468984677785	4.387959	2.0947456
16.98418981616729	4.397133	2.096934
17.00191105683676	4.437562	2.1065521
17.019632707138374	4.4672437	2.1135855
17.03735476752442	4.433406	2.1055655
17.05507723844728	4.424799	2.1035206
17.072800120359403	4.4857383	2.1179562
17.090523413713353	4.5608287	2.1356096
17.108247118961785	4.587615	2.141872
17.125971236557437	4.580619	2.140238
17.143695766953133	4.62819	2.1513228
17.161420710601806	4.6754217	2.1622725
17.179146067956477	4.667599	2.1604626
17.19687183947025	4.6400433	2.1540759
17.21459802559634	4.6178594	2.1489205
17.232324626788028	4.601932	2.1452115
17.25005164349871	4.5972033	2.144109
17.267779076181863	4.6198025	2.1493726
17.285506925291074	4.618363	2.1490376
17.30323519127999	4.6219816	2.1498795
17.320963874602384	4.640358	2.154149
17.33869297571211	4.6191764	2.149227
17.356422495063114	4.561944	2.1358707
17.37415243310944	4.513512	2.124503
17.391882790305218	4.4852962	2.1178517
17.40961356710468	4.431172	2.1050348
17.42734476396215	4.425301	2.1036398
17.445076381332044	4.411107	2.1002636
17.462808419668868	4.506093	2.122756
17.48054087942723	4.658348	2.1583207
17.498273761061835	4.983478	2.2323706
17.51600706502747	5.440491	2.3324862
17.533740791779024	6.152786	2.480481
17.551474941771485	7.561301	2.749782
17.56920951545993	8.747735	2.957657
17.586944513299528	10.998895	3.3164582
17.60467993574556	12.776097	3.5743668
17.622415783253373	14.508941	3.8090603
17.64015205627843	15.955635	3.9944506
17.657888755276293	17.138119	4.139821
17.675625880702604	17.692358	4.2062283
17.69336343301311	17.563362	4.1908665
17.71110141266366	16.61	4.0755367
17.728839820110178	15.569536	3.945825
17.746578655808705	14.486768	3.8061488
17.764317920215372	12.956898	3.599569
17.7820576137864	11.317395	3.3641336
17.79979773697811	9.270871	3.0448105
17.81753829024692	7.4014254	2.720556
17.835279274049356	5.754549	2.398864
17.85302068884201	4.691982	2.1660984
17.870762535081607	4.0922313	2.0229263
17.888504813224934	3.8010075	1.9496173
17.90624752372891	3.6281564	1.904772
17.923990667050536	3.557166	1.8860451
17.941734243646895	3.4717762	1.8632703
17.959478253975185	3.4409785	1.8549875
17.9772226984927	3.4337177	1.8530294
17.994967577656833	3.4346433	1.8532791
18.01271289192506	3.3906796	1.8413798
18.030458641754965	3.3744001	1.836954
18.04820482760425	3.36994	1.8357396
18.06595144993067	3.3160737	1.8210089
18.083698509192125	3.2663462	1.8073035
18.101446005846576	3.1973715	1.7881196
18.119193940352105	3.198364	1.7883971
18.136942313166887	3.2014112	1.7892488
18.1546911247492	3.2015455	1.7892863
18.1724403755574	3.1560905	1.776539
18.19019006604997	3.1441214	1.773167
18.207940196685467	3.1067991	1.7626115
18.225690767922575	3.069175	1.7519062
18.243441780220046	3.0647097	1.7506312
18.261193234036764	3.0799341	1.7549741
18.278945129831676	3.0951355	1.7592998
18.29669746806386	3.0551908	1.7479104
18.314450249192483	3.0298805	1.7406552
18.3322034736768	3.0182369	1.7373073
18.349957141976184	3.0022764	1.7327079
18.3677112545501	2.972093	1.723976
18.385465811858108	2.9635842	1.7215064
18.403220814359884	2.9641519	1.7216712
18.420976262515172	3.0095854	1.7348157
18.43873215678387	3.0662882	1.7510821
18.456488497625923	3.1651788	1.7790949
18.474245285501407	3.262948	1.8063632
18.492002520870486	3.3565574	1.832091
18.50976020419343	3.4024782	1.8445808
18.527518335930615	3.6880736	1.9204358
18.545276916542516	4.215032	2.0530543
18.563035946489688	4.312167	2.0765758
18.580795426232832	4.7690377	2.1838126
18.598555356232698	4.7081685	2.1698315
18.616315736950185	5.0654783	2.2506618
18.63407656884626	4.756588	2.1809604
18.65183785238201	4.918435	2.2177546
18.669599588018617	4.64221	2.154579
18.68736177621737	4.599265	2.1445897
18.705124417439652	4.633032	2.152448
18.72288751214696	4.4743595	2.1152682
18.740651060800886	4.5875254	2.141851
18.758415063863115	4.282318	2.0693762
18.77617952179546	4.4259033	2.1037831
18.793944435059814	4.2366767	2.0583189
18.811709804118184	4.288798	2.0709412
18.829475629432675	4.2999597	2.0736344
18.8472419114655	4.0450788	2.011238
18.86500865067897	4.078596	2.0195534
18.88277584753551	3.6877067	1.9203403
18.90054350249763	3.7061648	1.9251403
18.918311616027957	3.397438	1.843214
18.936080188589226	3.3476217	1.8296506
18.953849220644265	3.0434744	1.7445557
18.971618712656007	2.8962853	1.7018476
18.9893886650875	2.8586087	1.690742
19.007159078401887	8.044434	2.836271
19.024929953062408	32.858913	5.7322693
19.042701289532435	32.767147	5.7242594
19.060473088275405	25.32547	5.0324416
19.07824534975489	2.6201994	1.618703
19.096018074434568	2.637628	1.6240776
19.113791262778197	2.619015	1.6183372
19.13156491524966	2.5900788	1.6093721
19.149339032312945	2.5842392	1.6075569
19.167113614432136	2.574576	1.6045485
19.184888662071433	2.5491498	1.5966057
19.202664175695123	2.5241327	1.5887519
19.220440155767623	2.5207813	1.5876968
19.238216602753447	2.5283594	1.5900816
19.2559935171172	2.5336409	1.5917414
19.27377089932361	2.5194225	1.587269
19.291548749837514	2.4605584	1.5686167
19.309327069123835	2.449994	1.5652457
19.32710585764763	2.4666605	1.5705606
19.344885115874032	2.4742346	1.57297
19.362664844268313	2.4809937	1.5751171
19.380445043295822	2.4694219	1.5714394
19.39822571342203	2.5008757	1.5814158
19.41600685511252	2.529347	1.5903921
19.43378846883297	2.4963229	1.5799756
19.451570555049173	2.4673312	1.5707741
19.469353114227037	2.4569101	1.5674534
19.48713614683254	2.4698021	1.5715604
19.50491965333182	2.4682794	1.5710759
19.52270363419109	2.4787161	1.5743939
19.540488089876686	2.4736655	1.5727891
19.55827302085503	2.4909854	1.5782856
19.576058427592674	2.49982	1.5810819
19.593844310556282	2.4866025	1.5768965
19.611630670212598	2.4526246	1.5660857
19.629417507028506	2.476587	1.5737176
19.64720482147098	2.4784148	1.5742981
19.6649926140071	2.4945974	1.5794295
19.682780885104084	2.4863162	1.5768057
19.70056963522921	2.5102167	1.5843663
19.718358864849908	2.5092924	1.5840746
19.7361485744337	2.503851	1.5823561
19.753938764448215	2.5018752	1.5817317
19.771729435361202	2.5039728	1.5823946
19.789520587640506	2.5181773	1.5868766
19.807312221754092	2.5251448	1.5890704
19.825104338170043	2.4908004	1.5782269
19.842896937356517	2.4807453	1.5750382
19.860690019781824	2.4915156	1.5784535
19.87848358591436	2.5162272	1.586262
19.896277636222635	2.502213	1.5818385
19.914072171175278	2.4886136	1.5775341
19.931867191241015	2.5119214	1.5849042
19.94966269688869	2.5078971	1.5836341
19.967458688587264	2.4701924	1.5716846
19.985255166805807	2.4334772	1.5599606
20.00305213201348	2.4246342	1.5571237
20.020849584679578	2.4322345	1.5595623
20.038647525273507	2.4638898	1.5696783
20.05644595426477	2.4693723	1.5714236
20.07424487212299	2.475128	1.573254
20.092044279317903	2.4488778	1.5648891
20.109844176319353	2.4115071	1.5529028
20.127644563597304	2.4109788	1.5527327
20.145445441621817	2.4161012	1.5543813
20.16324681086307	2.4307442	1.5590844
20.181048671791373	2.3938804	1.547217
20.198851024877122	2.3528805	1.5339102
20.216653870590836	2.3501809	1.5330299
20.234457209403146	2.3816764	1.5432681
20.252261041784802	2.4035017	1.5503231
20.270065368206662	2.4006686	1.5494092
20.287870189139685	2.3895333	1.5458115
20.305675505054968	2.351072	1.5333205
20.323481316423702	2.3387003	1.529281
20.341287623717207	2.3355095	1.5282373
20.359094427406884	2.3286035	1.5259763
20.376901727964288	2.3394625	1.5295302
20.39470952586107	2.3387299	1.5292907
20.41251782156899	2.3381677	1.5291069
20.430326615559935	2.3590999	1.5359361
20.448135908305886	2.3558605	1.5348812
20.465945700278965	2.366739	1.5384209
20.483755991951384	2.3518877	1.5335865
20.50156678379548	2.3636727	1.5374241
20.519378076283708	2.3723183	1.5402331
20.537189869888635	2.3850849	1.544372
20.55500216508294	2.3766441	1.5416368
20.572814962339415	2.3353703	1.5281918
20.59062826213098	2.3015802	1.5170959
20.60844206493066	2.2797194	1.509874
20.626256371211593	2.2730587	1.5076666
20.644071181447032	2.2932956	1.514363
20.66188649611036	2.2935998	1.5144635
20.67970231567506	2.2886827	1.5128393
20.697518640614742	2.3063054	1.5186524
20.715335471403122	2.3069339	1.5188594
20.73315280851404	2.2837687	1.5112143
20.750970652421447	2.274176	1.5080371
20.768789003599412	2.2600846	1.5033578
20.786607862522136	2.2684116	1.5061247
20.8044272296639	2.2616377	1.5038742
20.82224710549913	2.2512205	1.5004067
20.84006749050237	2.2424688	1.4974875
20.857888385148268	3.8363771	1.9586672
20.8757097899116	45.932777	6.7773724
20.893531705267254	64.78927	8.049178
20.911354131690224	83.76742	9.152454
20.92917706965566	69.01777	8.3076935
20.94700051963877	50.08004	7.076725
20.96482448211493	29.386276	5.420911
20.982648957559622	4.144968	2.0359194
21.00047394644843	2.2439194	1.4979718
21.01829944925707	2.2119138	1.4872504
21.036125466461375	2.197667	1.482453
21.053951998537297	2.1757438	1.4750403
21.071779045960906	2.181563	1.4770114
21.089606609208378	2.1848323	1.4781178
21.10743468875603	2.2071803	1.4856582
21.12526328508028	2.2344391	1.494804
21.143092398657675	2.250986	1.5003287
21.16092202996488	2.2360706	1.4953496
21.17875217947867	2.2268908	1.492277
21.19658284767596	2.2109425	1.4869238
21.21441403503377	2.189022	1.4795344
21.232245742029225	2.1718514	1.4737203
21.2500779691396	2.1715896	1.4736314
21.26791071684227	2.166885	1.4720342
21.28574398561475	2.1437917	1.4641693
21.30357777593465	2.1761143	1.4751658
21.321412088279704	2.1959176	1.4818629
21.339246923127792	2.1967366	1.4821392
21.357082280956888	2.1453798	1.4647115
21.3749181622451	2.1082923	1.451996
21.392754567470647	2.12832	1.4588763
21.41059149711187	2.1464326	1.4650708
21.42842895164726	2.161234	1.4701135
21.446266931555378	2.1391096	1.4625695
21.464105437314945	2.1038852	1.4504776
21.481944469404798	2.103032	1.4501835
21.49978402830388	2.090132	1.4457289
21.51762411449127	2.0737207	1.4400419
21.53546472844617	2.059544	1.4351112
21.553305870647876	2.059955	1.4352543
21.571147541575865	2.0650673	1.4370342
21.58898974170967	2.0603077	1.4353772
21.60683247152899	2.0622492	1.4360534
21.62467573151363	2.06308	1.4363426
21.642519522143523	2.0256898	1.4232674
21.660363843898722	2.0124254	1.4185998
21.6782086972594	2.013246	1.418889
21.696054082705864	2.0375261	1.4274194
21.713900000718535	2.018332	1.4206802
21.73174645177795	1.9988105	1.413793
21.749593436364794	2.015224	1.4195858
21.767440954959845	2.0547025	1.4334234
21.785289008044032	2.0746853	1.4403768
21.803137596098388	2.0890393	1.4453509
21.820986719604086	2.072661	1.4396739
21.838836379042412	2.0611997	1.4356879
21.85668657489478	2.0337076	1.4260812
21.87453730764273	2.017943	1.4205432
21.892388577767914	2.0130625	1.4188243
21.91024038575213	1.9912304	1.4111096
21.928092732077285	1.9435022	1.3940954
21.945945617225426	1.9501895	1.3964919
21.963799041678694	1.987561	1.4098089
21.981653005919398	31.335405	5.5978036
21.999507510429943	78.12098	8.838608
22.01736255569286	73.0546	8.547198
22.035218142190818	4.1638527	2.0405521
22.05307427040661	1.9825796	1.408041
22.07093094082315	1.9846319	1.4087696
22.088788153923474	1.9893421	1.4104404
22.106645910190746	1.9854317	1.4090534
22.12450421010827	1.9943247	1.4122056
22.142363054159464	2.0108678	1.4180508
22.16022244282787	2.048987	1.4314283
22.178082376597164	2.0332725	1.4259286
22.195942855951145	1.9865764	1.4094596
22.213803881373742	1.961202	1.4004292
22.231665453349002	1.960938	1.400335
22.24952757236111	1.9801112	1.4071642
22.26739023889438	1.9659307	1.4021165
22.28525345343323	1.9597306	1.3999038
22.30311721646225	1.9329796	1.3903164
22.320981528466113	1.9331051	1.3903615
22.33884638992964	1.9261776	1.387868
22.356711801337788	1.94794	1.3956861
22.37457776317561	1.9405352	1.3930309
22.392444275928337	1.9548255	1.3981508
22.410311340081282	1.9385196	1.3923073
22.428178956119904	1.9396129	1.3926998
22.446047124529805	1.9352143	1.3911198
22.46391584579669	1.9503522	1.39655
22.481785120406414	1.9645549	1.4016258
22.49965494884496	1.9588953	1.3996054
22.51752533159841	1.9239947	1.3870814
22.53539626915302	1.9200763	1.3856682
22.553267761995137	1.9284799	1.3886971
22.571139810611264	1.9626969	1.4009628
22.589012415488025	1.9632136	1.4011472
22.60688557711216	1.9652021	1.4018567
22.624759295970566	1.9423873	1.3936956
22.642633572550263	1.9572086	1.3990027
22.660508407338362	1.9391756	1.3925428
22.67838380082217	1.9183996	1.385063
22.696259753489077	1.9018147	1.379063
22.714136265826614	1.9418218	1.3934927
22.73201333832246	1.9707664	1.4038398
22.74989097146439	1.973867	1.4049438
22.76776916574035	1.9723856	1.4044164
22.785647921638393	1.9861317	1.4093019
22.803527239646712	1.9554291	1.3983666
22.82140712025363	1.9069147	1.3809109
22.839287563947593	1.8848227	1.3728884
22.85716857121719	1.8681483	1.3668022
22.875050142551135	1.8891258	1.3744547
22.892932278438277	1.8891484	1.374463
22.910814979367604	1.9006461	1.3786392
22.928698245828222	1.9074508	1.381105
22.946582078309387	1.9138666	1.3834257
22.96446647730047	1.8852017	1.3730265
22.98235144329098	1.8848869	1.3729118
23.000236976770562	1.8881916	1.3741149
23.018123078229	1.8544956	1.3617986
23.03600974815619	1.832524	1.3537074
23.053896987042194	1.8091317	1.3450397
23.071784795377173	1.8194679	1.3488765
23.08967317365145	1.8448248	1.3582432
23.10756212235546	1.9125942	1.3829657
23.125451641979787	1.9442104	1.3943495
23.143341733015134	1.940707	1.3930926
23.161232395952357	1.8941585	1.3762844
23.179123631282426	1.8650686	1.3656751
23.197015439496468	1.8706021	1.3676996
23.214907821085717	1.8962847	1.3770565
23.23280077654157	1.9022589	1.3792241
23.250694306355538	1.9326798	1.3902085
23.268588411019277	1.9202402	1.3857273
23.28648309102458	1.9279506	1.3885067
23.304378346863356	1.9059546	1.3805631
23.322274179027676	1.9163824	1.3843347
23.340170588009723	1.8676313	1.366613
23.358067574301852	1.8543506	1.3617454
23.37596513839651	1.8764329	1.3698295
23.39386328078629	1.9374123	1.3919096
23.411762001963947	1.9465823	1.3951998
23.429661302422353	1.9298555	1.3891923
23.4475611826545	1.8702047	1.3675543
23.46546164315356	1.8956308	1.3768191
23.48336268441279	1.8975886	1.3775299
23.501264306925638	1.9337454	1.3905917
23.51916651118564	1.9193453	1.3854043
23.537069297686497	1.958379	1.399421
23.554972666922037	1.9531035	1.3975348
23.57287661938623	1.9258497	1.3877499
23.59078115557318	1.9018998	1.3790939
23.608686275977128	1.8724185	1.3683635
23.62659198109246	1.8702692	1.3675779
23.6444982714137	1.8830009	1.3722248
23.66240514743549	1.9501021	1.3964605
23.68031260965263	1.9870306	1.4096208
23.698220658560068	1.9706374	1.4037939
23.716129294652845	1.9276414	1.3883953
23.7340385184262	1.9020693	1.3791553
23.75194833037546	1.9054129	1.3803669
23.769858730996123	1.8971803	1.3773817
23.78776972078382	1.8853511	1.3730808
23.80568130023431	1.914352	1.3836011
23.823593469843495	1.937453	1.3919243
23.841506230107424	1.9737855	1.4049147
23.859419581522275	1.9378088	1.3920519
23.87733352458438	1.8864003	1.3734629
23.89524805979019	1.836801	1.3552864
23.913163187636318	1.8674487	1.3665463
23.931078908619508	1.9329349	1.3903003
23.948995223236633	1.942643	1.3937873
23.966912131984735	1.9193388	1.3854021
23.98482963536096	1.9624249	1.4008658
24.002747733862616	1.992517	1.4115654
24.020666427987155	1.987753	1.409877
24.038585718232156	1.9512446	1.3968695
24.056505605095353	1.9511099	1.3968214
24.074426089074617	1.9846097	1.4087617
24.092347170667946	2.004082	1.415656
24.110268850373515	2.0127912	1.4187287
24.128191128689586	2.074419	1.4402844
24.146114006114626	2.07812	1.4415686
24.164037483147187	2.0476017	1.4309443
24.181961560286005	2.0165358	1.4200478
24.199886238029926	2.018229	1.4206439
24.21781151687797	2.1087663	1.4521592
24.235737397329274	2.1042821	1.4506145
24.253663879883135	2.0360181	1.4268911
24.271590965038975	1.9853164	1.4090126
24.289518653296376	1.9723057	1.404388
24.30744694515505	1.9933205	1.41185
24.32537584111486	2.0052164	1.4160566
24.34330534167581	1.9922303	1.4114639
24.361235447338046	1.9803106	1.407235
24.379166158601876	1.9791824	1.4068341
24.39709747596772	2.000342	1.4143344
24.41502939993615	2.0500138	1.4317869
24.432961931007917	2.0479956	1.431082
24.450895069683856	2.034731	1.42644
24.468828816465	1.9812491	1.4075685
24.4867631718525	1.9880031	1.4099656
24.504698136347656	1.9671438	1.402549
24.52263371045192	2.004212	1.4157019
24.540569894666874	1.9894638	1.4104835
24.558506689494266	1.9867679	1.4095275
24.57644409543597	1.9631734	1.401133
24.594382112994012	1.9115998	1.3826061
24.61232074267057	1.8605288	1.364012
24.630259984967953	1.8415326	1.3570307
24.64819984038863	1.8770918	1.37007
24.66614030943522	1.9181938	1.3849888
24.684081392610462	1.9930165	1.4117423
24.702023090417274	2.0060027	1.4163343
24.7199654033587	2.0417771	1.4289076
24.737908331937927	2.0514524	1.4322892
24.755851876658305	2.0588725	1.4348772
24.773796038023324	2.0670977	1.4377404
24.79174081653661	2.0787485	1.4417865
24.809686212701962	2.0772	1.4412495
24.827632227023294	2.0830166	1.4432659
24.8455788600047	2.065289	1.4371114
24.8635261121504	2.0563996	1.4340152
24.88147398396475	2.0419772	1.4289776
24.899422475952303	2.0496736	1.4316682
24.917371588617698	2.0496511	1.4316603
24.935321322465768	2.093382	1.4468524
24.953271678001478	2.2502074	1.5000691
24.97122265572994	2.4804492	1.5749441
24.989174256156414	2.7664645	1.6632692
25.00712647978632	3.1996167	1.7887472
25.02507932712521	3.7880864	1.9463007
25.043032798678798	4.39347	2.0960605
25.060986894952933	5.1163397	2.2619328
25.078941616453637	5.9450235	2.438242
25.096896963687055	6.932245	2.6329157
25.114852937159508	8.052562	2.8377037
25.132809537377444	8.48004	2.9120507
25.150766764847468	8.445028	2.906033
25.168724620076347	7.791604	2.7913444
25.186683103570985	6.7217803	2.5926397
25.204642215838426	5.5673685	2.359527
25.222601957385894	4.174706	2.0432098
25.24056232872074	3.1486948	1.7744561
25.25852333035048	2.5860822	1.6081301
25.276484962782778	2.2728782	1.5076067
25.294447226525435	2.1187038	1.4555768
25.312410122086423	1.9595027	1.3998224
25.330373649973843	1.9316646	1.3898433
25.348337810695988	1.9558465	1.3985158
25.366302604761245	1.9564908	1.3987461
25.384268032678207	1.8868046	1.37361
25.40223409495558	1.8534166	1.3614024
25.420200792102257	1.859506	1.3636371
25.438168124627246	1.9100673	1.3820518
25.45613609303974	1.9296902	1.3891329
25.474104697849057	1.899936	1.3783816
25.492073939564698	1.838295	1.3558373
25.510043818696285	1.8310506	1.3531632
25.528014335753614	1.8672171	1.3664615
25.54598549124664	1.8711079	1.3678845
25.56395728568544	1.827169	1.3517281
25.58192971958028	1.8410568	1.3568555
25.59990279344156	1.8539892	1.3616127
25.617876507779833	1.843768	1.3578542
25.635850863105826	1.8135852	1.3466941
25.653825859930386	1.8399105	1.356433
25.671801498764548	1.8473531	1.3591737
25.68977778011949	1.8440669	1.3579643
25.707754704506524	1.8380544	1.3557487
25.725732272437153	1.7991722	1.3413322
25.743710484423012	1.8094484	1.3451574
25.761689340975888	1.8146511	1.3470899
25.77966884260774	1.8690038	1.3671151
25.797648989830662	1.854572	1.3618268
25.815629783156922	1.8297396	1.3526787
25.83361122309895	1.8093332	1.3451146
25.85159331016929	1.8076341	1.3444829
25.869576044880695	1.8469747	1.3590345
25.887559427746034	1.8719378	1.3681878
25.90554345927836	1.8689406	1.367092
25.92352813999086	1.8441803	1.358006
25.94151347039689	1.820852	1.3493896
25.959499451009965	1.7934431	1.3391949
25.97748608234374	1.7855358	1.3362395
25.995473364912062	1.8068115	1.3441769
26.013461299228904	1.8484154	1.3595644
26.03144988580839	1.8747652	1.3692206
26.04943912516483	1.8777593	1.3703136
26.067429017812675	1.8644675	1.365455
26.085419564266537	1.8579113	1.3630522
26.103410765041186	1.7997618	1.341552
26.12140262065155	1.7914952	1.3384675
26.139395131612723	1.8164328	1.347751
26.157388298439948	1.836326	1.3551111
26.17538212164861	1.8770276	1.3700466
26.193376601754295	1.8765396	1.3698684
26.211371739272714	1.8467866	1.3589653
26.229367534719746	1.7980585	1.340917
26.247363988611433	1.8208244	1.3493793
26.26536110146397	1.8270473	1.3516831
26.283358873793727	1.8544469	1.3617808
26.301357306117204	1.829847	1.3527184
26.319356398951104	1.7999583	1.3416252
26.33735615281224	1.7422626	1.319948
26.35535656821762	1.7590123	1.3262776
26.373357645684404	1.7835661	1.3355021
26.39135938572991	1.7715752	1.3310053
26.409361788871614	1.8176343	1.3481967
26.427364855627165	1.8801627	1.3711903
26.445368586514352	1.8835909	1.3724397
26.46337298205115	1.8401693	1.3565284
26.48137804275568	1.8423355	1.3573266
26.499383769146217	1.8457757	1.3585933
26.517390161741215	1.7889929	1.3375324
26.53539722105928	1.7510284	1.3232644
26.553404947619182	1.7336323	1.3166747
26.571413341939856	1.751944	1.3236102
26.589422404540397	1.8254204	1.3510811
26.60743213594006	1.8207427	1.349349
26.62544253665827	1.7818298	1.334852
26.64345360721459	1.7728949	1.331501
26.66146534812879	1.777485	1.3332236
26.679477759920758	1.7270784	1.3141836
26.69749084311057	1.75649	1.3253263
26.71550459821847	1.8281808	1.3521024
26.733519025764842	1.8970015	1.3773168
26.751534126270258	1.8591304	1.3634993
26.769549900255434	1.7910047	1.3382843
26.787566348241267	1.7913677	1.3384198
26.80558347074881	1.7937592	1.3393129
26.823601268299267	1.7687166	1.329931
26.841619741414036	1.7756788	1.332546
26.85963889061465	1.8079643	1.3446057
26.877658716422832	1.8379581	1.3557131
26.89567921936045	1.8613302	1.3643057
26.913700399949544	1.8335009	1.3540683
26.93172225871233	1.7988156	1.3411993
26.949744796171174	1.8040656	1.343155
26.967768012848605	1.7903662	1.3380456
26.98579190926733	1.7705249	1.3306108
27.003816485950225	1.7715524	1.3309968
27.021841743420318	1.8113796	1.345875
27.039867682200814	1.7930589	1.3390515
27.057894302815072	1.7467386	1.3216424
27.07592160578664	1.7572099	1.3255979
27.0939495916392	1.8308564	1.3530915
27.111978260896635	1.8566082	1.3625741
27.13000761408296	1.8447133	1.3582022
27.148037651722397	1.7988658	1.341218
27.166068374339304	1.7970471	1.3405398
27.184099782458215	1.8087918	1.3449132
27.20213187660384	1.8419195	1.3571733
27.22016465730105	1.855042	1.3619993
27.23819812507487	1.8614352	1.3643442
27.256232280450533	1.8736888	1.3688276
27.274267123953383	1.8517922	1.3608057
27.292302656108987	1.8572465	1.3628083
27.31033887744306	1.8483536	1.3595417
27.32837578848146	1.7866982	1.3366743
27.34641338975026	1.7723082	1.3312807
27.364451681775673	1.7970976	1.3405586
27.382490665084074	1.8063967	1.3440226
27.400530340202046	1.7988578	1.341215
27.41857070765629	1.8354101	1.354773
27.436611767973726	1.8805462	1.3713301
27.454653521681404	1.8373896	1.3555034
27.472695969306564	1.7913917	1.3384289
27.490739111376627	1.7985706	1.341108
27.508782948419153	1.7973663	1.3406589
27.526827480961902	1.7751627	1.3323523
27.54487270953279	1.7834549	1.3354605
27.562918634659898	1.8191633	1.3487636
27.580965256871508	1.813595	1.3466978
27.599012576696026	1.8058549	1.343821
27.617060594662068	1.812132	1.3461546
27.63510931129842	1.8037976	1.3430554
27.65315872713401	1.8144858	1.3470285
27.67120884269797	1.8191516	1.3487593
27.68925965851958	1.8409274	1.3568078
27.707311175128307	1.8615409	1.364383
27.725363393053787	1.833939	1.35423
27.74341631282583	1.8500484	1.3601649
27.7614699349744	1.9139811	1.3834671
27.77952426002968	2.0929534	1.4467044
27.797579288521973	2.1194742	1.4558414
27.815635020981784	2.513692	1.5854627
27.83369145793979	2.5286217	1.5901641
27.85174859992682	2.3927524	1.5468525
27.869806447473923	2.1995485	1.4830875
27.887865001112267	1.9984487	1.413665
27.905924261373233	1.9315836	1.3898143
27.92398422878836	1.9138697	1.3834268
27.94204490388936	1.8828529	1.3721709
27.96010628720813	1.890482	1.374948
27.978168379276728	1.8789353	1.3707427
27.9962311806274	1.893929	1.3762009
28.014294691792568	1.87838	1.37054
28.0323589133048	1.8508582	1.3604625
28.050423845696887	1.8144257	1.3470062
28.068489489501758	1.7918777	1.3386104
28.086555845252523	1.7605349	1.3268515
28.104622913482487	1.793213	1.3391091
28.122690694725115	1.8324856	1.3536932
28.14075918951405	1.8808616	1.3714451
28.15882839838312	1.9228371	1.386664
28.176898321866304	1.8729658	1.3685634
28.1949689604978	1.851025	1.3605238
28.213040314811945	1.8564919	1.3625314
28.23111238534327	1.8488799	1.3597353
28.249185172626493	1.8601247	1.363864
28.267258677196473	1.8769186	1.3700068
28.285332899588294	1.8597221	1.3637162
28.303407840337172	1.8394527	1.3562642
28.321483499978545	1.8939035	1.3761916
28.33955987904799	1.9455528	1.3948307
28.357636978081285	1.9065362	1.3807738
28.37571479761439	1.9264411	1.3879629
28.393793338183425	1.9671135	1.4025382
28.41187260032469	2.0037804	1.4155495
28.429952584574686	1.9952785	1.4125433
28.448033291470065	1.98248	1.4080057
28.46611472154769	1.9914087	1.4111729
28.484196875344566	1.9785271	1.4066012
28.502279753397914	1.9469235	1.395322
28.52036335624511	1.8813463	1.3716218
28.538447684423716	1.8928316	1.3758022
28.556532738471482	1.9751992	1.4054178
28.574618518926325	2.005919	1.4163047
28.59270502632635	1.9719526	1.4042623
28.61079226120985	1.9792134	1.4068452
28.628880224115274	2.0016713	1.4148043
28.646968915581287	2.026505	1.4235537
28.66505833614671	2.0503235	1.431895
28.68314848635055	2.0410247	1.4286443
28.701239366732004	2.0145862	1.4193612
28.71933097783044	2.0174377	1.4203653
28.737423320185403	2.0442107	1.4297589
28.75551639433665	2.0991924	1.448859
28.773610200824074	2.1036184	1.4503856
28.791704740187793	2.120783	1.4562908
28.80980001296809	2.1210337	1.4563769
28.827896019705413	2.0971475	1.4481531
28.845992760940433	2.1401286	1.4629178
28.86409023721397	2.22258	1.490832
28.88218844906704	2.2322574	1.4940741
28.900287397040845	2.1938794	1.481175
28.918387081676755	2.1814618	1.4769772
28.936487503516343	2.2370193	1.4956669
28.954588663101365	2.301963	1.5172222
28.97269056097374	2.2814941	1.5104616
28.990793197675597	2.2677755	1.5059135
29.00889657374923	2.3140643	1.5212048
29.027000689737125	2.329305	1.526206
29.04510554618196	2.3833978	1.5438257
29.06321114362659	2.4525611	1.5660655
29.08131748261405	2.4477656	1.5645337
29.099424563687567	2.391503	1.5464486
29.11753238739057	2.4348822	1.5604109
29.13564095426663	2.474209	1.5729619
29.15375026485954	2.5120277	1.5849378
29.171860319713275	2.51995	1.587435
29.18997111937199	2.5880816	1.6087515
29.20808266438002	2.6795387	1.6369296
29.226194955281898	2.7540443	1.6595314
29.244307992622335	2.7647026	1.6627395
29.26242177694624	2.7492595	1.6580892
29.2805363087987	2.8065326	1.6752709
29.29865158872498	2.8708146	1.6943479
29.316767617270557	2.947452	1.7168145
29.334884394981064	2.9839678	1.7274165
29.353001922402367	2.974908	1.7247922
29.37112020008047	3.0380862	1.7430106
29.389239228561596	3.185375	1.7847619
29.407359008392152	3.3323312	1.8254673
29.42547954011872	3.6456335	1.9093542
29.44360082428809	4.2485843	2.0612094
29.46172286144722	5.3115063	2.3046706
29.479845652143283	6.904651	2.6276703
29.497969196923606	9.106229	3.0176528
29.516093496335728	11.727376	3.4245257
29.5342185509274	14.618061	3.8233573
29.55234436124651	16.967154	4.1191206
29.570470927841175	18.346664	4.283301
29.588598251259686	18.00256	4.2429423
29.60672633205055	16.751057	4.0928054
29.624855170762405	14.618146	3.8233683
29.642984767944146	11.790335	3.4337056
29.66111512414481	8.948264	2.991365
29.67924623991366	6.57798	2.5647573
29.697378115800138	4.998807	2.2358012
29.71551075235387	4.1170554	2.0290527
29.733644150124675	3.7555206	1.9379165
29.751778309662576	3.5702593	1.889513
29.769913231517766	3.5154655	1.8749574
29.78804891624066	3.468045	1.8622688
29.806185364381818	3.3178172	1.8214877
29.82432257649206	3.242469	1.8006858
29.842460553122333	3.2573206	1.8048049
29.86059929482382	3.2647016	1.8068485
29.878738802147872	3.2650535	1.8069459
29.896879075646048	3.2826426	1.8118064
29.915020115870114	3.2619421	1.8060848
29.933161923371976	3.2014914	1.7892712
29.951304498703777	3.210779	1.7918646
29.969447842417857	3.2268987	1.796357
29.987591955066733	3.2118564	1.7921653
30.005736837203123	3.2445886	1.8012742
30.023882489379943	3.175733	1.7820587
30.04202891215028	3.1263776	1.7681565
30.060176106067455	3.1529021	1.7756413
30.078324071684946	3.1716986	1.7809263
30.09647280955646	3.1281283	1.7686516
30.114622320235863	3.0880194	1.7572762
30.132772604277257	3.1229103	1.7671758
30.1509236622349	3.1505756	1.7749861
30.16907549466328	3.0571547	1.7484721
30.18722810211705	2.9881124	1.7286158
30.205381485151097	3.0165012	1.7368077
30.22353564432045	3.0770862	1.7541625
30.241690580180403	3.0360923	1.7424386
30.25984629328638	2.9701421	1.72341
30.278002784194037	2.950138	1.7175967
30.296160053459246	3.0149314	1.7363558
30.314318101638033	3.0172408	1.7370206
30.332476929286646	2.934445	1.7130221
30.35063653696153	2.8590598	1.6908754
30.368796925219307	2.831745	1.682779
30.386958094616844	2.870092	1.6941346
30.40512004571115	2.8891168	1.6997402
30.423282779059463	2.8971446	1.7021
30.441446295219233	2.932879	1.7125651
30.459610594748067	2.8368087	1.6842828
30.47777567820382	2.727251	1.6514391
30.495941546144504	2.7264965	1.6512105
30.51410819912835	2.7634547	1.6623641
30.532275637713795	2.7694912	1.6641788
30.55044386245946	2.7885814	1.6699046
30.56861287392416	2.7754726	1.665975
30.586782672666956	2.7336576	1.6533777
30.604953259247047	2.762861	1.6621857
30.623124634223885	2.8156016	1.6779754
30.641296798157075	2.8272762	1.6814506
30.659469751606462	2.7668593	1.6633879
30.677643495132074	2.7044096	1.644509
30.695818029294152	2.709779	1.6461407
30.713993354653116	2.6663232	1.632888
30.73216947176962	2.6017447	1.6129924
30.75034638120448	2.558836	1.5996362
30.768524083518756	2.5513315	1.5972888
30.786702579273673	2.7195837	1.649116
30.80488186903069	2.8740966	1.6953161
30.82306195335144	2.994012	1.7303214
30.841242832797782	3.1562333	1.7765791
30.85942450793176	3.3556874	1.8318535
30.877606979315637	3.6760871	1.9173125
30.895790247511883	4.0862064	2.0214367
30.913974313083134	4.5547743	2.1341918
30.932159176592283	4.8965273	2.2128098
30.95034483860237	5.0103574	2.2383828
30.968531299676698	4.8001647	2.1909277
30.98671856037873	4.4285045	2.104401
31.00490662127215	3.997308	1.999327
31.023095482920848	3.5980997	1.8968657
31.04128514588892	3.135924	1.7708541
31.059475610740662	2.6992	1.6429242
31.07766687804056	2.4936876	1.5791414
31.09585894835335	2.4587324	1.5680345
31.11405182224393	2.540769	1.593979
31.132245500277417	2.5882788	1.6088128
31.15043998301914	2.5540633	1.5981437
31.168635271034628	2.4538724	1.5664841
31.18683136488964	2.4070976	1.5514824
31.20502826515008	2.4313638	1.5592831
31.223225972382135	2.4556684	1.5670573
31.241424487152155	2.4273884	1.5580078
31.259623810026692	2.4702048	1.5716885
31.27782394157253	2.5027642	1.5820128
31.296024882356644	2.5069761	1.5833434
31.314226632946237	2.4981513	1.5805541
31.332429193908684	2.4184573	1.555139
31.350632565811598	2.3634515	1.5373521
31.368836749222787	2.3771138	1.5417892
31.387041744710295	2.4219503	1.5562617
31.40524755284232	2.4232101	1.5566664
31.423454174187317	2.4417236	1.5626016
31.441661609313922	2.480212	1.5748689
31.459869858791002	2.4744146	1.5730273
31.478078923187628	2.410899	1.552707
31.496288803073064	2.372371	1.5402503
31.514499499016807	2.3567839	1.535182
31.532711011588546	2.34702	1.5319986
31.550923341358178	2.3398416	1.529654
31.56913648889584	2.3515022	1.5334609
31.587350454771844	2.2887962	1.5128767
31.605565239556732	2.325676	1.5250167
31.62378084382127	2.3484094	1.5324521
31.641997268136382	2.3801894	1.5427862
31.660214513073274	2.4098613	1.5523728
31.67843257920331	2.386933	1.5449703
31.6966514670981	2.2204669	1.4901232
31.71487117732944	2.1510904	1.4666595
31.733091710469346	2.2079601	1.4859207
31.751313067090052	2.2985709	1.5161039
31.769535247764008	2.324492	1.5246285
31.787758253063878	2.2900522	1.5132918
31.805982083562526	2.2838583	1.5112439
31.824206739833024	2.3340375	1.5277557
31.84243222244869	2.3107793	1.5201248
31.860658531983013	2.2321794	1.494048
31.878885669009737	2.1500335	1.4662993
31.897113634102784	2.1565762	1.4685285
31.91534242783632	2.2075856	1.4857945
31.933572050784694	2.23997	1.496653
31.951802503522508	2.214042	1.4879657
31.970033786624548	2.1579058	1.4689813
31.988265900665834	2.1698296	1.4730341
32.006498846221575	2.2024531	1.4840664
32.02473262386724	2.223641	1.4911878
32.04296723417845	2.250797	1.5002656
32.0612026777311	2.2496488	1.4998829
32.07943895510129	2.2275753	1.4925064
32.097676066865304	2.2131903	1.4876795
32.115914013599685	2.2602327	1.503407
32.13415279588115	2.2181063	1.4893308
32.152392414286666	2.0930135	1.4467251
32.1706328693934	2.0697396	1.438659
32.18887416177875	2.0917103	1.4462746
32.20711629202032	2.0478532	1.4310322
32.225359260695924	2.076291	1.4409341
32.243603068383614	2.1752992	1.4748895
32.26184771566166	2.226334	1.4920905
32.28009320310852	2.2180114	1.4892989
32.2983395313029	2.148354	1.4657265
32.31658670082372	2.0762663	1.4409255
32.33483471225012	2.1314075	1.4599341
32.35308356616143	2.1961434	1.4819391
32.371333263137245	2.1488142	1.4658834
32.38958380375734	2.0207093	1.4215165
32.407835188601744	1.9677511	1.4027655
32.42608741825067	2.0104477	1.4179026
32.444340493284585	2.0398543	1.4282347
32.46259441428416	2.0530133	1.432834
32.48084918183028	2.0270264	1.4237368
32.49910479650405	1.9928839	1.4116954
32.51736125888683	1.995598	1.4126563
32.53561856956014	2.0462298	1.4304649
32.5538767291058	2.0674121	1.4378499
32.572135738105764	2.0073879	1.4168231
32.59039559714228	1.9815973	1.4076922
32.608656306797776	2.0495648	1.4316301
32.62691786765491	2.1142693	1.4540527
32.645180280296586	2.1184113	1.4554763
32.663443545305896	2.1019287	1.449803
32.68170766326619	2.1182113	1.4554076
32.69997263476099	2.047265	1.4308267
32.7182384603741	2.0216126	1.4218342
32.7365051406895	2.069956	1.4387342
32.75477267629144	1.9933618	1.4118646
32.77304106776434	1.9959294	1.4127736
32.79131031569289	1.9998146	1.414148
32.809580420661966	2.0199301	1.4212425
32.827851383256714	2.0340633	1.4262059
32.84612320406245	1.9742339	1.4050744
32.86439588366476	1.9999579	1.4141986
32.88266942264945	1.945608	1.3948505
32.9009438216025	1.9277174	1.3884226
32.9192190811102	1.9524778	1.397311
32.937495201758985	1.9594896	1.3998177
32.95577218413556	1.8971415	1.3773676
32.974050028826866	1.9011263	1.3788134
32.992328736420035	1.9700091	1.4035702
33.010608307502444	1.9835173	1.408374
33.02888874266169	1.9775902	1.4062682
33.047170042485604	1.9199592	1.385626
33.06545220756225	1.9140337	1.383486
33.083735238479896	1.9325008	1.3901442
33.10201913582707	1.9282471	1.3886133
33.12030390019248	1.9519728	1.3971303
33.138589532165135	1.9992616	1.4139525
33.15687603233419	2.0805244	1.4424024
33.17516340128909	2.0273588	1.4238535
33.19345163961947	1.9702917	1.4036708
33.211740747915215	1.9418241	1.3934935
33.23003072676643	1.9377016	1.3920135
33.248321576763466	1.9145132	1.3836594
33.266613298496885	1.9401188	1.3928815
33.28490589255747	1.9603518	1.4001256
33.30319935953626	1.9492735	1.3961638
33.32149370002451	2.0203009	1.4213729
33.339788914613706	1.9915122	1.4112095
33.358085003895575	1.9345089	1.3908663
33.376381968462034	1.8582416	1.3631734
33.39467980890529	1.8774328	1.3701944
33.41297852581774	1.9996517	1.4140904
33.43127811979204	1.9860786	1.409283
33.44957859142105	1.8909117	1.3751043
33.467879941297866	1.8256304	1.351159
33.486182170015844	1.9296548	1.3891202
33.50448527816853	1.9502506	1.3965137
33.522789266349754	1.8653412	1.365775
33.541094135153514	1.8901111	1.3748131
33.55939988517411	1.9770133	1.4060631
33.57770651700602	1.9914184	1.4111762
33.59601403124398	1.9601864	1.4000666
33.61432242848296	1.8334153	1.3540367
33.632631709318154	1.8048176	1.3434349
33.650941874344994	1.914036	1.3834869
33.66925292415916	1.9486134	1.3959274
33.68756485935654	1.9511381	1.3968315
33.70587768053328	1.963577	1.401277
33.724191388285746	1.8940198	1.3762339
33.74250598321054	1.888791	1.3743329
33.760821465904506	1.9222519	1.386453
33.77913783696474	1.9185642	1.3851224
33.79745509698852	1.9242008	1.3871557
33.815773246573414	1.9575535	1.3991259
33.8340922863172	1.9260472	1.3878211
33.852412216817896	1.887579	1.373892
33.87073303867377	1.8478392	1.3593525
33.889054752483304	1.9180489	1.3849365
33.907377358845245	1.9150023	1.3838362
33.92570085835853	1.893341	1.3759873
33.94402525162239	1.9615618	1.4005576
33.96235053923627	2.0695724	1.4386009
33.980676721799824	2.0059493	1.4163154
33.999003799912984	1.9655373	1.4019762
34.01733177417592	2.0512216	1.4322087
34.03566064518901	2.0955281	1.4475939
34.0539904135529	2.0192354	1.420998
34.07232107986846	1.8992738	1.3781414
34.090652644736785	1.890494	1.3749523
34.108985108759235	1.9836729	1.4084293
34.12731847253742	2.0507076	1.4320291
34.14565273667313	2.0495892	1.4316386
34.16398790176847	2.04836	1.4312093
34.18232396842574	2.0087402	1.4173003
34.20066093724749	1.9989132	1.4138292
34.21899880883651	2.077198	1.4412488
34.23733758379583	2.0381308	1.4276311
34.25567726272874	1.9233968	1.3868659
34.27401784623872	1.9399433	1.3928185
34.29235933492957	1.9089961	1.3816643
34.31070172940526	1.8348775	1.3545765
34.32904503027003	1.784434	1.3358271
34.347389238128386	1.9010231	1.378776
34.36573435358502	2.0495539	1.4316263
34.38408037724492	2.0153964	1.4196465
34.402427309713296	1.9309552	1.3895881
34.42077515159559	2.0438523	1.4296336
34.43912390349752	2.012776	1.4187233
34.45747356602499	1.9322553	1.3900559
34.47582413978423	1.9970121	1.4131567
34.49417562538163	1.9743937	1.4051312
34.51252802342388	1.6625966	1.2894171
34.53088133451789	1.6006426	1.2651651
34.54923555927084	1.756804	1.3254448
34.567590698290104	1.9541445	1.3979071
34.58594675218336	2.0401204	1.4283278
34.6043037215585	2.048158	1.4311386
34.62266160702365	2.030362	1.4249077
34.641020409187234	2.0264919	1.423549
34.65938012865785	1.9942505	1.4121794
34.677740766044394	1.9349029	1.3910079
34.69610232195598	1.913687	1.3833607
34.714464797002016	1.9928538	1.4116848
34.73282819179208	1.9470143	1.3953545
34.751192506936064	1.7519475	1.3236115
34.76955774304408	1.7330939	1.3164703
34.7879239007265	1.7959931	1.3401467
34.80629098059391	1.9105515	1.3822271
34.824658983257194	1.8927093	1.3757577
34.843027909327446	2.005077	1.4160074
34.86139775941603	2.075514	1.4406644
34.879768534134534	2.110705	1.4528265
34.89814023409483	2.0859187	1.444271
34.91651285990901	2.0510771	1.4321582
34.93488641218944	1.7723991	1.3313148
34.95326089154871	1.6995406	1.3036643
34.97163629859967	1.8253751	1.3510644
34.99001263395542	1.8120763	1.3461338
35.00838989822934	1.8110303	1.3457452
35.02676809203499	1.8968889	1.3772758
35.04514721598624	1.7621592	1.3274635
35.063527270697215	2.004251	1.4157157
35.081908256782256	2.0653775	1.4371421
35.10029017485597	1.9866753	1.4094946
35.11867302553321	2.016787	1.4201363
35.137056809429104	2.1033127	1.4502802
35.155441527159006	2.1432214	1.4639745
35.173827179338524	2.231846	1.4939364
35.19221376658354	2.036455	1.4270442
35.21060128951017	1.8713368	1.3679681
35.2289897487348	1.8041013	1.3431684
35.24737914487405	1.861934	1.364527
35.26576947854479	1.9359878	1.3913978
35.28416075036418	1.8443476	1.3580676
35.30255296094958	1.8180864	1.3483644
35.32094611091867	1.9843291	1.4086622
35.33934020088932	2.0735946	1.4399981
35.35773523147969	2.1814287	1.476966
35.3761312033082	2.4204798	1.5557891
35.394528116993506	2.3161373	1.5218861
35.41292597315452	2.102412	1.4499696
35.431324772410434	2.0285292	1.4242644
35.449724515380666	1.837254	1.3554535
35.46812520268491	1.9401273	1.3928845
35.486526834943106	2.2533965	1.5011318
35.504929412775454	2.2123005	1.4873804
35.52333293680242	1.947013	1.395354
35.54173740764471	2.05473	1.4334329
35.560142825923286	2.7508118	1.6585572
35.5785491922594	2.8403242	1.6853261
35.59695650727454	1.683107	1.2973461
35.61536477159042	1.3578206	1.1652557
