0.008763373481513119	0.0	0.0
0.026290120649546365	0.11242709	0.3353015
0.043816868432600686	0.121336736	0.34833422
0.06134361724069026	0.1009537	0.31773213
0.07887036748382949	0.15899666	0.39874384
0.0963971195720331	0.16945927	0.4116543
0.11392387391531617	0.19578671	0.4424779
0.1314506309236943	0.23181833	0.48147517
0.1489773910071836	0.26148087	0.511352
0.16650415457580078	0.28478372	0.5336513
0.18403092203956356	0.22014302	0.46919402
0.20155769380849	0.1730988	0.41605145
0.2190844702925996	0.09548484	0.3090062
0.2366112519019124	0.091301866	0.302162
0.2541380390464497	0.14274336	0.37781394
0.27166483213623416	0.18719007	0.43265468
0.28919163158128947	0.16401738	0.40499058
0.3067184377916406	0.14906438	0.38608855
0.324245251177314	0.08193649	0.28624552
0.34177207214833777	0.08609966	0.29342744
0.3592989011147415	0.10641636	0.3262152
0.37682573848655654	0.12189692	0.3491374
0.39435258467381573	0.137098	0.37026748
0.41187944008655414	0.14669783	0.38301152
0.42940630513480854	0.13409284	0.3661869
0.446933180228618	0.119807385	0.34613204
0.4644600657780234	0.13529532	0.36782512
0.48198696219306775	0.18459217	0.4296419
0.49951386988379676	0.1538159	0.3921937
0.5170407892602581	0.13768023	0.37105286
0.5345677207325025	0.11382908	0.33738565
0.5520946647105822	0.16093105	0.40116212
0.5696216216045534	0.16454852	0.4056458
0.5871485918244737	0.15424094	0.3927352
0.6046755757804043	0.16487788	0.40605158
0.6222025738824094	0.18950692	0.43532392
0.6397295865405557	0.17226516	0.4150484
0.6572566141649129	0.14903982	0.38605675
0.6747836571655547	0.13474147	0.36707148
0.6923107159525568	0.17280427	0.41569734
0.7098377909359992	0.18679772	0.43220103
0.7273648825259653	0.22565295	0.4750294
0.7448919911325411	0.2188661	0.46783125
0.762419117165817	0.23767582	0.48752007
0.7799462610358868	0.23892216	0.48879665
0.7974734231528482	0.24369058	0.49365026
0.8150006039268024	0.23180382	0.4814601
0.8325278037678551	0.22593004	0.475321
0.8500550230861152	0.21577355	0.46451432
0.8675822622916969	0.23433273	0.48407924
0.8851095217947171	0.23329102	0.4830021
0.9026368020052984	0.19147168	0.43757477
0.9201641033335665	0.18781102	0.4333717
0.9376914261896523	0.19909759	0.44620353
0.9552187709836915	0.19478202	0.44134116
0.9727461381258234	0.19885886	0.44593593
0.990273528026193	0.27237284	0.5218935
1.0078009410949496	0.29737782	0.5453236
1.0253283777422473	0.30057934	0.54825115
1.0428558383782454	0.27815676	0.5274057
1.0603833234131086	0.3001159	0.5478284
1.0779108332570058	0.34434074	0.5868055
1.0954383683201119	0.3768913	0.6139147
1.112965929012607	0.40120435	0.63340694
1.1304935157446763	0.48430666	0.6959214
1.1480211289265108	0.51353234	0.7166117
1.1655487689683062	1.4470195	1.2029213
1.1830764362802655	1.7963922	1.3402956
1.200604131272596	2.2190409	1.4896445
1.2181318543555117	2.5301824	1.5906547
1.235659605939232	2.5083785	1.5837861
1.253187386433982	4.094755	2.02355
1.270715196249994	6.292406	2.508467
1.2882430357975057	11.450036	3.3837903
1.3057709054867608	16.231432	4.0288253
1.3232988057280106	21.887392	4.678396
1.3408267369315112	27.07648	5.2035065
1.358354699507526	30.933685	5.5618057
1.3758826938663256	34.783512	5.8977547
1.3934107204181858	37.147675	6.094889
1.410938779573391	37.454666	6.120022
1.4284668717422309	37.940315	6.159571
1.4459949973350033	37.45404	6.119971
1.4635231567620117	37.134323	6.093794
1.4810513504335687	36.467712	6.0388503
1.4985795787599925	36.017963	6.001497
1.5161078421516088	35.303883	5.941707
1.5336361410187505	34.39585	5.8647976
1.5511644757717598	34.3775	5.8632326
1.5686928468209842	35.255283	5.937616
1.58622125457678	35.938107	5.99484
1.6037496994495108	37.294163	6.1068945
1.621278181849548	36.78314	6.0649104
1.6388067021872719	37.902023	6.1564617
1.6563352608730693	37.2152	6.100426
1.673863858317336	36.31799	6.0264406
1.6913924949304753	35.583317	5.965175
1.7089211711228998	34.49149	5.872946
1.7264498873050296	33.94493	5.8262277
1.7439786438872935	33.205578	5.7624283
1.7615074412801288	32.405567	5.692589
1.779036279893981	31.799353	5.6390915
1.796565160139305	30.588327	5.5306716
1.814094082426564	30.15195	5.4910793
1.8316230471662298	29.372717	5.41966
1.849152054768784	28.595898	5.347513
1.8666811056447168	27.978918	5.2895103
1.8842102002045273	27.22513	5.2177706
1.901739338858724	26.641085	5.1615005
1.9192685220178245	25.872774	5.086529
1.9367977500923557	25.175995	5.0175686
1.9543270234928547	25.08778	5.0087705
1.971856342629867	24.482313	4.9479604
1.9893857079139496	23.779064	4.876378
2.006915119755667	22.767391	4.7715187
2.0244445785655945	21.914354	4.681277
2.0419740847543175	21.79063	4.6680436
2.0595036387324317	21.490469	4.6357813
2.0770332409105414	21.2839	4.6134477
2.094562891699263	20.907173	4.5724363
2.1120925915092217	20.157288	4.489687
2.129622340751053	19.756533	4.4448323
2.1471521398354043	187.91153	13.708082
2.1646819891729323	444.4286	21.081474
2.182211889174303	440.75662	20.994204
2.1997418402501974	453.25308	21.289742
2.2172718428113023	433.27225	20.815193
2.234801897268317	321.10645	17.919443
2.2523320040319548	17.655432	4.2018366
2.269862163512935	17.07124	4.131736
2.287392376121992	16.55963	4.0693526
2.304922642269869	16.144085	4.01797
2.322452962367322	15.833391	3.9791193
2.3399833368251164	15.636586	3.9543123
2.357513766054032	15.338911	3.9164922
2.3750442504648586	15.191218	3.8975914
2.3925747904683963	14.948456	3.8663232
2.410105386475459	14.805744	3.8478234
2.4276360388968707	14.3633585	3.7899022
2.445166748143469	14.082719	3.7526948
2.4626975146261025	13.676278	3.6981452
2.4802283387556323	13.625467	3.6912692
2.4977592209429305	13.394824	3.659894
2.5152901615988825	12.969779	3.601358
2.5328211611343865	12.622303	3.552788
2.5503522199603523	12.3130455	3.508995
2.5678833384877024	12.411538	3.5230012
2.5854145171273712	12.345605	3.5136313
2.6029457562903064	12.194745	3.4920976
2.620477056387469	11.80966	3.4365187
2.6380084178298326	11.548588	3.3983214
2.655539841028383	11.382539	3.373802
2.673071326394119	11.267571	3.3567204
2.6906028743380523	11.048774	3.3239696
2.708134485271211	10.929184	3.3059316
2.7256661596046325	10.744932	3.2779462
2.743197897749369	10.562964	3.2500715
2.760729700116486	10.290837	3.2079334
2.778261567117063	10.187714	3.19182
2.795793499162193	10.120685	3.1813023
2.8133254966629817	9.977418	3.158705
2.830857560030551	9.816201	3.1330817
2.8483896896760337	9.643879	3.1054595
2.865921886010578	9.584148	3.0958276
2.883454149445347	9.423617	3.069791
2.9009864803915177	9.377268	3.0622325
2.91851887926028	9.237964	3.0394018
2.9360513464628384	9.10751	3.0178652
2.953583882410413	8.997611	2.9996018
2.9711164875142373	8.854943	2.9757257
2.9886491621855606	8.743857	2.9570014
3.0061819068356455	8.585367	2.9300797
3.023714721875769	8.397439	2.8978336
3.041247607717225	8.329274	2.886048
3.0587805647713213	8.227448	2.868353
3.0763135934493806	8.303152	2.881519
3.0938466941627407	8.35414	2.890353
3.1113798673227544	8.193362	2.862405
3.1289131133407904	8.109308	2.8476846
3.1464464326282315	7.9984627	2.8281553
3.1639798255964786	7.971162	2.8233247
3.1815132926569443	7.8517785	2.8021026
3.1990468342210603	7.737942	2.7817156
3.216580450700272	7.4757075	2.734174
3.2341141425060416	7.269997	2.696293
3.251647910049847	7.2095942	2.6850688
3.2691817537431813	7.152914	2.6744933
3.286715673997555	7.15156	2.67424
3.3042496712244938	7.0910783	2.6629078
3.32178374583554	6.950676	2.6364136
3.339317898242251	6.9108543	2.6288505
3.3568521288562034	6.823422	2.612168
3.3743864380889876	6.855766	2.6183517
3.3919208263522127	6.7953324	2.6067858
3.4094552940575023	6.827719	2.6129904
3.4269898416164972	6.8231683	2.6121194
3.444524469440858	6.7133007	2.591004
3.4620591779422587	6.530982	2.5555787
3.479593967532391	6.312244	2.512418
3.4971288386229658	6.253625	2.5007248
3.5146637916257086	6.3241467	2.5147855
3.5321988269523628	6.326372	2.515228
3.5497339450146903	6.3702874	2.523943
3.5672691462244708	6.2143435	2.4928584
3.5848044309934988	6.116337	2.4731228
3.60233979973359	6.1470065	2.4793158
3.619875252856575	6.184134	2.4867918
3.6374107907743034	6.231199	2.496237
3.6549464138986427	6.1947923	2.488934
3.6724821226414788	6.2460523	2.4992104
3.690017917414714	6.3117213	2.5123138
3.7075537986302702	6.39067	2.5279775
3.7250897667000857	6.392398	2.5283191
3.7426258220361235	6.4706593	2.543749
3.7601619650503553	6.795161	2.6067529
3.777698196154779	7.456691	2.7306943
3.7952345157614067	8.489098	2.9136057
3.8127709242822716	9.282685	3.04675
3.830307422129425	11.368182	3.3716736
3.847844009714936	30.203297	5.495753
3.8653806874508954	97.73255	9.885978
3.882917455749409	97.13631	9.855775
3.900454315022606	97.0218	9.849964
3.917991265682631	41.554974	6.446315
3.9355283081416506	11.018791	3.3194566
3.9530654428118495	8.690285	2.947929
3.970602670105433	7.368475	2.7144935
3.9881399904346244	6.6270866	2.574313
4.005677404211669	6.6618795	2.5810616
4.023214911848827	6.6545086	2.5796335
4.0407525137583855	6.602678	2.5695677
4.058290210352644	6.484718	2.546511
4.075828002043927	6.408829	2.5315666
4.0933658892445814	6.301413	2.5102615
4.110903872366966	6.3082933	2.5116317
4.128441951823468	6.203633	2.4907093
4.145980128026488	6.237727	2.4975443
4.163518401388452	6.1889343	2.487757
4.181056772321807	6.1556387	2.481056
4.1985952412390155	6.1236205	2.474595
4.216133808552567	6.136637	2.4772236
4.233672474674966	6.1544013	2.4808066
4.251211240018741	6.3580413	2.5215156
4.268750104996445	6.6048765	2.5699954
4.286289070020643	7.480334	2.73502
4.303828135503928	9.230448	3.038165
4.3213673018589125	29.60929	5.441442
4.3389065694982305	90.83273	9.530621
4.356445938834537	166.17113	12.8907385
4.3739854102805085	171.74747	13.105246
4.391524984248844	172.59494	13.137539
4.409064661152262	136.6607	11.690197
4.426604441403504	96.63711	9.830418
4.444144325415337	75.797	8.706147
4.461684313600543	21.733099	4.661877
4.47922440637193	22.205301	4.71225
4.496764604142329	20.472178	4.524619
4.5143049073245916	18.598124	4.3125544
4.531845316331589	16.49849	4.0618334
4.5493858315762195	13.671251	3.6974654
4.566926453471405	11.311485	3.3632553
4.584467182430081	9.276718	3.0457706
4.602008018865218	8.1756935	2.859317
4.619548963189798	7.547534	2.7472775
4.637090015816834	7.086217	2.661995
4.654631177159353	6.853774	2.6179714
4.672172447630417	6.5527086	2.559826
4.689713827643102	6.2954226	2.509068
4.7072553176105085	6.0323634	2.456087
4.724796917945764	5.8901067	2.4269543
4.742338629062015	5.8119836	2.4108057
4.759880451372434	5.8140345	2.4112308
4.777422385290215	5.798787	2.408067
4.794964431228581	5.7835374	2.4048986
4.812506589600768	5.785749	2.4053583
4.830048860820047	5.780057	2.4041748
4.847591245299709	5.730998	2.3939502
4.8651337434530655	5.6795564	2.383182
4.882676355693457	5.641793	2.3752458
4.900219082434242	5.7567816	2.3993294
4.917761924088813	5.7381997	2.395454
4.935304881070575	5.642568	2.3754091
4.952847953792969	5.5028152	2.345808
4.970391142669449	5.4874506	2.3425307
4.9879344481135055	5.507094	2.3467197
5.005477870538642	5.5575643	2.3574486
5.023021410358394	5.470237	2.3388538
5.040565067986324	5.4585366	2.3363512
5.05810884383601	5.374501	2.3182971
5.075652738321066	5.3535	2.3137631
5.09319675185512	5.300574	2.3022976
5.110740884851836	5.351297	2.313287
5.128285137724894	5.39721	2.3231897
5.145829510888007	5.3882785	2.3212667
5.163374004754908	5.3633733	2.3158958
5.1809186197393595	5.3392057	2.310672
5.198463356255145	5.35374	2.313815
5.216008214716077	5.327931	2.308231
5.233553195535998	5.338896	2.310605
5.251098299128764	5.3930125	2.3222861
5.268643525908272	5.4272537	2.3296466
5.286188876288432	5.416674	2.327375
5.3037343506831895	5.369821	2.3172874
5.32127994950651	5.3270226	2.3080344
5.3388256731723915	5.3107853	2.3045142
5.356371522094851	5.246669	2.2905607
5.373917496687938	5.233075	2.2875915
5.391463597365729	5.212864	2.2831697
5.40900982454232	5.273635	2.2964396
5.426556178631843	5.263313	2.2941911
5.444102660048449	5.191126	2.2784042
5.4616492692063225	5.186027	2.277285
5.479196006519669	5.20969	2.2824745
5.496742872402727	5.2448497	2.2901638
5.514289867269756	5.2212048	2.2849956
5.531836991535049	5.1513553	2.2696598
5.549384245612924	5.18973	2.2780979
5.566931629917724	5.194666	2.279181
5.584479144863822	5.261527	2.2938018
5.6020267908656205	5.2255735	2.2859514
5.619574568337545	5.189598	2.278069
5.637122477694054	5.1364613	2.2663763
5.654670519349629	5.0819163	2.2543106
5.672218693718784	5.0724287	2.2522054
5.689767001216059	5.095443	2.2573087
5.707315442256021	5.1070065	2.2598686
5.724864017253266	5.1688643	2.2735136
5.7424127266224225	5.128105	2.264532
5.75996157077814	5.178306	2.2755892
5.777510550135105	5.228875	2.2866733
5.795059665108022	5.255426	2.2924716
5.812608916111639	5.276798	2.2971282
5.830158303560715	5.363946	2.3160195
5.847707827870055	5.356125	2.3143303
5.86525748945448	5.393873	2.3224714
5.8828072887288485	5.5034995	2.345954
5.900357226108044	5.5186057	2.3491714
5.917907302006979	5.588804	2.3640652
5.9354575168406	6.2019467	2.4903708
5.9530078710238765	6.8163657	2.610817
5.970558364971812	7.430895	2.7259667
5.988108999099438	7.8345714	2.7990305
6.005659773821818	8.427908	2.903086
6.023210689554039	8.095483	2.845256
6.040761746711227	8.386743	2.8959873
6.058312945708531	7.6371317	2.763536
6.075864286961132	7.0597124	2.657012
6.093415770884244	6.5115557	2.551775
6.1109673978931065	6.0609674	2.4619033
6.128519168402993	5.6549406	2.378012
6.146071082829204	5.518855	2.3492243
6.163623141587075	5.3329225	2.309312
6.181175345091969	5.243043	2.2897692
6.198727693759281	5.1677575	2.2732701
6.216280188004435	5.155742	2.2706258
6.233832828242885	5.102851	2.258949
6.251385614890126	5.135326	2.2661257
6.268938548361669	5.057763	2.2489471
6.286491629073067	5.0560527	2.2485669
6.304044857439898	5.097133	2.257683
6.321598233877777	5.113504	2.2613058
6.339151758802344	5.0579724	2.2489936
6.356705432629277	5.025608	2.2417867
6.37425925577428	5.018429	2.240185
6.391813228653095	5.0193706	2.240395
6.409367351681486	4.9839854	2.232484
6.426921625275259	4.9287786	2.2200854
6.44447604985025	4.9281693	2.219948
6.46203062582232	4.9673133	2.2287471
6.47958535360737	4.994868	2.23492
6.497140233621328	5.0354376	2.243978
6.514695266280161	5.0493016	2.247065
6.532250451999859	5.115706	2.2617927
6.549805791196454	5.0677414	2.2511644
6.567361284286002	5.1348104	2.266012
6.584916931684597	5.111567	2.2608774
6.602472733808367	5.1048484	2.259391
6.6200286910734665	5.0672765	2.2510612
6.637584803896092	5.0454774	2.246214
6.655141072692462	5.0689454	2.251432
6.672697497878842	5.0331764	2.2434742
6.690254079871514	5.003516	2.236854
6.707810819086808	5.0077214	2.237794
6.725367715941078	5.061376	2.2497501
6.742924770850719	5.059824	2.2494051
6.760481984232151	5.08915	2.2559144
6.778039356501836	5.050191	2.247263
6.795596888076266	5.0189414	2.2402995
6.813154579371963	4.995931	2.235158
6.830712430805492	4.997529	2.2355154
6.84827044279344	5.013441	2.2390714
6.865828615752445	5.042122	2.245467
6.883386950099159	5.033247	2.24349
6.900945446250287	5.029124	2.2425709
6.918504104622553	5.005967	2.237402
6.936062925632727	5.019726	2.2404745
6.953621909697607	5.0659423	2.2507648
6.971181057234028	5.1959724	2.2794676
6.988740368658859	5.2811866	2.2980833
7.006299844389007	5.293944	2.3008573
7.023859484841407	5.2997317	2.3021147
7.041419290433036	5.324222	2.3074276
7.058979261580902	5.4702787	2.3388627
7.0765393987020495	5.6831365	2.383933
7.094099702213559	6.1463346	2.4791803
7.111660172532549	6.5123463	2.55193
7.129220810076164	6.8934183	2.625532
7.146781615261595	7.4240265	2.7247066
7.16434258850606	7.562315	2.7499664
7.181903730226821	7.9934664	2.827272
7.1994650408411704	8.085905	2.8435726
7.217026520766437	8.274312	2.8765104
7.234588170419983	8.509752	2.9171479
7.252149990219215	8.516853	2.9183648
7.269711980581568	8.513969	2.9178708
7.2872741419245175	8.314783	2.8835366
7.304836474665574	7.8523073	2.802197
7.322398979222286	7.513168	2.741016
7.339961656012233	7.1702795	2.6777377
7.357524505453039	6.853836	2.617983
7.375087527962357	6.588073	2.566724
7.392650723957886	6.3339887	2.5167418
7.410214093857353	6.021599	2.4538946
7.427777638078528	5.750109	2.3979385
7.445341357039213	5.5184426	2.3491366
7.4629052511572525	5.3461275	2.3121696
7.480469320850524	5.262413	2.293995
7.498033566536948	5.2065244	2.281781
7.5155979886344735	5.2435985	2.2898905
7.5331625875610975	5.163982	2.2724397
7.550727363734844	5.1902647	2.2782152
7.568292317573788	5.211287	2.2828243
7.585857449496025	5.254233	2.2922113
7.603422759919705	5.216911	2.2840557
7.620988249263007	5.2018266	2.2807512
7.638553917944147	5.193491	2.2789233
7.656119766381391	5.217054	2.2840872
7.673685794993023	5.253905	2.2921398
7.691252004197388	5.286653	2.2992723
7.70881839441285	5.266205	2.2948213
7.726384966057826	5.269408	2.295519
7.743951719550762	5.3046784	2.3031888
7.761518655310149	5.2900147	2.3000033
7.779085773754511	5.234644	2.2879345
7.796653075302419	5.2117386	2.2829232
7.814220560372475	5.2275352	2.2863803
7.831788229383323	5.301488	2.302496
7.8493560827536495	5.310705	2.3044968
7.866924120902174	5.3412533	2.3111153
7.884492344247663	5.303873	2.3030138
7.9020607532089135	5.2719927	2.296082
7.919629348204771	5.2415247	2.2894375
7.937198129654115	5.324442	2.3074753
7.954767097975865	5.394394	2.3225834
7.972336253588986	5.46378	2.337473
7.989905596912472	5.4104767	2.3260431
8.007475128365371	5.3681	2.316916
8.025044848366756	5.413162	2.3266203
8.042614757335754	5.553071	2.3564954
8.060184855691523	5.6959476	2.3866184
8.07775514385327	5.794869	2.4072535
8.095325622240228	5.841649	2.4169505
8.112896291271687	5.8539114	2.4194858
8.130467151366968	5.8382993	2.4162574
8.148038202945436	5.8480487	2.418274
8.165609446426497	5.8102064	2.4104369
8.183180882229594	5.886641	2.4262402
8.200752510774217	5.915034	2.4320843
8.218324332479893	5.9627132	2.4418666
8.235896347766193	6.0052075	2.4505525
8.253468557052724	6.0376453	2.4571621
8.27104096075914	6.0106673	2.451666
8.288613559305137	6.0691686	2.4635682
8.306186353110448	6.09559	2.468925
8.32375934259485	6.21151	2.4922903
8.341332528178162	6.235824	2.4971633
8.358905910280246	6.3122973	2.5124285
8.376479489321003	6.323819	2.5147204
8.394053265720377	6.3815646	2.526176
8.411627239898356	6.405134	2.5308366
8.42920141227497	6.4464884	2.5389936
8.44677578327029	6.4245176	2.5346632
8.464350353304427	6.365936	2.5230806
8.48192512279754	6.2944293	2.5088701
8.499500092169827	6.2920747	2.508401
8.51707526184153	6.241803	2.4983602
8.534650632232934	6.19015	2.488001
8.552226203764365	6.1437335	2.4786556
8.569801976856192	6.2108426	2.4921563
8.587377951928834	6.3203263	2.514026
8.60495412940274	6.3659053	2.5230746
8.622530509698416	6.3893113	2.5277088
8.6401070932364	6.4903665	2.5476198
8.657683880437283	6.548205	2.5589461
8.675260871721695	6.7103534	2.590435
8.692838067510303	6.751433	2.598352
8.710415468223834	6.9214435	2.6308637
8.727993074283043	7.1155524	2.6674993
8.745570886108737	7.105362	2.6655884
8.763148904121765	7.1551423	2.6749098
8.78072712874302	7.140864	2.6722395
8.798305560393441	7.3452682	2.7102156
8.815884199494006	7.4784603	2.7346773
8.833463046465745	7.690639	2.7732
8.851042101729728	7.8518147	2.802109
8.86862136570707	8.209586	2.8652375
8.886200838818924	8.356584	2.8907757
8.903780521486505	8.413064	2.9005282
8.921360414131055	8.507522	2.9167657
8.938940517173874	8.632832	2.938168
8.956520831036297	8.725451	2.9538875
8.97410135613971	9.007614	3.0012689
8.99168209290554	9.12737	3.0211537
9.009263041755265	9.433538	3.0714066
9.026844203110405	9.744909	3.1216838
9.044425577392525	9.913277	3.1485357
9.062007165023239	10.042621	3.1690094
9.079588966424197	10.304205	3.2100163
9.097170982017108	10.376704	3.2212892
9.11475321222372	11.310983	3.3631804
9.132335657465825	12.156097	3.4865596
9.149918318165264	12.257225	3.501032
9.167501194743924	12.792718	3.576691
9.18508428762374	12.429293	3.52552
9.202667597226693	12.453808	3.5289953
9.220251123974803	12.077648	3.475291
9.237834868290143	11.891111	3.448349
9.255418830594836	11.723821	3.4240065
9.273003011311046	11.301997	3.3618443
9.290587410860985	11.126897	3.3357003
9.308172029666911	10.530882	3.245132
9.32575686815113	10.171673	3.189306
9.343341926735997	8.70419	2.9502864
9.360927205843916	8.473299	2.9108932
9.378512705897327	8.337743	2.887515
9.396098427318728	8.223639	2.8676887
9.413684370530664	8.100219	2.8460884
9.431270535955722	7.9586277	2.821104
9.448856924016539	7.857578	2.803137
9.466443535135806	7.7147408	2.777542
9.484030369736251	7.7380323	2.7817318
9.501617428240658	7.7782855	2.7889578
9.519204711071852	7.811912	2.7949798
9.536792218652714	7.7949476	2.7919433
9.55437995140617	7.761342	2.7859185
9.571967909755191	7.829941	2.7982032
9.589556094122802	7.8822107	2.8075275
9.60714450493207	7.9978957	2.8280551
9.624733142606116	7.937246	2.8173118
9.642322007568108	7.94468	2.818631
9.659911100241267	7.980024	2.8248937
9.677500421048851	8.0667925	2.84021
9.695089970414175	8.10293	2.8465645
9.712679748760609	8.04766	2.8368397
9.730269756511557	8.045507	2.8364604
9.747859994090492	8.066044	2.840078
9.765450461920915	8.20515	2.8644633
9.78304116042639	8.239813	2.8705075
9.800632090030527	8.279437	2.877401
9.81822325115699	8.257089	2.8735151
9.835814644229481	8.2747555	2.8765874
9.853406269671762	8.287716	2.8788393
9.870998127907646	8.295381	2.8801703
9.888590219360985	8.2838545	2.8781686
9.906182544455698	8.29845	2.8807032
9.923775103615734	8.33377	2.886827
9.941367897265108	8.339202	2.8877676
9.958960925827878	8.3784075	2.894548
9.97655418972816	8.372689	2.89356
9.994147689390106	8.419998	2.9017234
10.011741425237934	8.384898	2.895669
10.029335397695904	8.331447	2.8864245
10.04692960718833	8.263532	2.874636
10.06452405413958	8.295457	2.8801835
10.082118738974064	8.29594	2.8802674
10.099713662116246	8.25272	2.8727548
10.117308823990651	8.201258	2.8637838
10.134904225021844	8.219182	2.8669116
10.152499865634445	8.197791	2.8631785
10.170095746253125	8.260605	2.874127
10.18769186730261	8.19761	2.8631468
10.205288229207675	8.285641	2.878479
10.222884832393145	8.269934	2.8757493
10.2404816772839	8.296929	2.880439
10.258078764304868	8.237757	2.8701491
10.275676093881035	8.223265	2.8676236
10.293273666437438	8.141028	2.8532488
10.310871482399158	8.113722	2.8484595
10.32846954219134	8.095319	2.8452275
10.346067846239173	8.11992	2.8495474
10.363666394967908	8.063713	2.8396678
10.38126518880283	8.043565	2.836118
10.398864228169298	8.093833	2.8449662
10.416463513492713	8.188304	2.8615212
10.434063045198531	8.26821	2.8754497
10.451662823712262	8.245555	2.8715074
10.469262849459467	8.2053385	2.8644962
10.486863122865758	8.086239	2.8436313
10.504463644356806	8.047858	2.8368747
10.522064414358338	7.9890847	2.8264968
10.539665433296118	7.8803043	2.807188
10.557266701595987	7.788513	2.7907908
10.574868219683818	7.7370853	2.7815616
10.592469987985552	7.7242603	2.7792554
10.610072006927185	7.6257586	2.7614777
10.627674276934751	7.535301	2.7450502
10.64527679843435	7.425025	2.72489
10.662879571852143	7.3223114	2.705977
10.680482597614331	7.217338	2.6865103
10.698085876147173	7.0672607	2.658432
10.715689407876988	6.977435	2.6414835
10.733293193230146	6.918059	2.6302204
10.750897232633072	6.843167	2.6159446
10.76850152651225	6.7379327	2.5957527
10.786106075294207	6.6517777	2.579104
10.803710879405534	6.644301	2.5776541
10.821315939272877	6.570514	2.5633013
10.83892125532294	6.509128	2.5512993
10.856526827982472	6.3667083	2.5232337
10.874132657678285	6.272688	2.5045335
10.891738744837243	6.2225	2.494494
10.909345089886271	6.1313004	2.4761462
10.926951693252343	6.0904675	2.4678872
10.944558555362494	6.025118	2.4546115
10.96216567664381	5.9752088	2.444424
10.979773057523436	5.8880734	2.4265354
10.997380698428573	5.814215	2.4112685
11.014988599786477	5.694887	2.3863962
11.032596762024461	5.649316	2.376829
11.050205185569892	5.5774865	2.3616703
11.067813870850198	5.554345	2.3567657
11.085422818292859	5.5385895	2.3534207
11.10303202832541	5.4759984	2.340085
11.120641501375454	5.447486	2.333985
11.138251237870636	5.408886	2.3257012
11.155861238238671	5.3589053	2.314931
11.173471502907317	5.213233	2.2832506
11.191082032304402	5.16519	2.2727056
11.208692826857805	5.1564655	2.2707853
11.226303886995465	5.1068397	2.2598317
11.243915213145371	5.0290146	2.2425466
11.261526805735578	4.9335074	2.22115
11.279138665194196	4.859264	2.2043738
11.296750791949393	4.82323	2.1961854
11.314363186429393	4.799341	2.1907399
11.331975849062479	4.7926188	2.189205
11.34958878027699	4.74612	2.178559
11.36720198050133	4.733386	2.1756346
11.384815450163948	4.681968	2.1637857
11.402429189693366	4.6351814	2.1529472
11.420043199518153	4.578429	2.1397264
11.437657480066942	63.483116	7.9676294
11.455272031768422	85.19812	9.230283
11.472886855051353	107.56543	10.371375
11.490501950344528	99.134026	9.956607
11.508117318076819	84.41193	9.187596
11.52573295867715	45.8178	6.7688847
11.543348872574514	4.1171026	2.0290644
11.560965060197946	4.0945415	2.0234973
11.57858152197655	4.0526724	2.013125
11.59619825833949	3.9916587	1.9979136
11.613815269715985	3.9779837	1.9944884
11.631432556535323	38.534836	6.2076435
11.649050119226837	83.111336	9.116542
11.666667958219929	93.53827	9.671518
11.68428607394406	107.8131	10.383308
11.701904466828756	82.617165	9.089398
11.719523137303586	65.41968	8.0882435
11.737142085798196	4.625446	2.150685
11.754761312742286	3.745188	1.9352489
11.772380818565619	3.7250464	1.930038
11.790000603698015	3.6870108	1.9201591
11.80762066856935	3.6534956	1.9114119
11.825241013609572	3.5996826	1.897283
11.842861639248683	3.563899	1.8878292
11.860482545916748	3.5294833	1.8786919
11.878103734043883	3.502904	1.8716047
11.895725204060282	3.4725125	1.8634678
11.91334695639619	3.4316673	1.852476
11.930968991481919	3.4029784	1.8447163
11.948591309747824	3.3513687	1.8306744
11.966213911624347	3.3277862	1.8242221
11.98383679754198	3.3336217	1.8258208
12.001459967931268	3.3191316	1.8218484
12.019083423222835	3.275258	1.8097674
12.036707163847352	3.2322328	1.7978412
12.05433119023556	3.2209625	1.7947041
12.071955502818259	3.2349443	1.7985951
12.089580102026313	3.1883583	1.7855974
12.107204988290643	3.1725652	1.7811697
12.12483016204224	3.1303992	1.7692934
12.142455623712152	3.1487548	1.7744731
12.16008137373149	3.1471465	1.7740198
12.177707412531431	3.0772016	1.7541955
12.19533374054321	3.0380373	1.7429967
12.212960358198126	2.996637	1.7310797
12.230587265927545	2.9955192	1.7307568
12.248214464162889	2.9890943	1.7288997
12.265841953335649	2.9871411	1.7283348
12.283469733877375	2.9821763	1.7268978
12.301097806219685	3.0023577	1.7327313
12.31872617079425	3.0187428	1.737453
12.336354828032825	3.0259802	1.7395345
12.353983778367205	3.0171916	1.7370065
12.371613022229262	3.010752	1.7351519
12.389242560050928	2.9813511	1.7266589
12.406872392264201	2.9214652	1.7092294
12.424502519301143	2.8865285	1.6989787
12.442132941593874	2.8669088	1.6931949
12.459763659574586	2.8575077	1.6904165
12.477394673675532	2.8831708	1.6979902
12.49502598432903	2.8474622	1.6874425
12.51265759196746	2.8228683	1.6801394
12.530289497023267	2.7892332	1.6700997
12.547921699928967	2.7854156	1.6689564
12.565554201117134	2.767933	1.6637106
12.583187001020404	2.777138	1.6664747
12.600820100071486	2.7916157	1.6708128
12.618453498703152	2.7817707	1.6678641
12.636087197348235	2.7738075	1.6654751
12.65372119643964	2.770898	1.6646014
12.671355496410326	2.7831979	1.6682919
12.68899009769333	2.7989295	1.6730001
12.706625000721749	2.825413	1.6808965
12.724260205928752	2.9022093	1.7035872
12.741895713747551	2.95282	1.7183771
12.759531524611454	3.015218	1.7364383
12.777167638953818	2.9761353	1.7251478
12.794804057208072	2.9841146	1.7274591
12.812440779807702	3.0279424	1.7400984
12.830077807186271	3.2242434	1.7956178
12.847715139777405	3.265697	1.8071239
12.865352778014795	3.4543068	1.8585765
12.882990722332197	3.5496752	1.8840582
12.90062897316344	3.656279	1.9121399
12.918267530942412	3.7445805	1.9350919
12.935906396103071	3.62002	1.902635
12.953545569079449	3.7497857	1.9364363
12.971185050305628	3.5731995	1.8902909
12.988824840215775	3.6241567	1.9037218
13.006464939244115	3.6563215	1.912151
13.024105347824943	3.5369332	1.8806736
13.041746066392617	3.5900283	1.894737
13.05938709538157	3.384796	1.8397815
13.077028435226296	3.3646076	1.8342867
13.094670086361363	3.223371	1.7953749
13.112312049221401	3.15199	1.7753844
13.129954324241112	3.07731	1.7542263
13.147596911855258	2.9279964	1.711139
13.165239812498685	2.911441	1.7062945
13.182883026606293	2.8433084	1.6862112
13.200526554613058	2.7688947	1.6639996
13.218170396954017	2.7108078	1.6464531
13.235814554064284	2.6728451	1.6348839
13.253459026379034	2.696993	1.6422524
13.271103814333523	2.722439	1.6499815
13.288748918363058	2.7623334	1.6620269
13.306394338903031	2.7464783	1.6572503
13.32404007638889	2.7002187	1.6432343
13.341686131256164	2.6966758	1.6421559
13.359332503940449	2.6484	1.6273906
13.376979194877402	2.6447754	1.6262765
13.394626204502751	2.6740658	1.6352571
13.412273533252307	2.7116	1.6466937
13.429921181561937	2.7433395	1.6563029
13.447569149867581	2.7394507	1.6551286
13.465217438605247	2.7057502	1.6449165
13.482866048211022	2.6516347	1.6283841
13.500514979121052	2.6098402	1.6155
13.518164231771568	2.603439	1.6135176
13.535813806598844	2.6042385	1.6137654
13.553463704039254	2.6474378	1.6270949
13.571113924529229	2.6742907	1.6353259
13.588764468505275	2.675887	1.635814
13.606415336403956	2.6803043	1.6371635
13.624066528661917	2.6986413	1.6427542
13.641718045715882	2.7912052	1.6706901
13.659369888002635	2.8652034	1.6926912
13.67702205595903	2.9167485	1.7078491
13.694674550021993	2.957948	1.7198685
13.712327370628532	3.003525	1.7330681
13.729980518215713	3.1190612	1.7660865
13.747633993220681	3.180594	1.783422
13.765287796080647	3.2094812	1.7915025
13.7829419272329	3.2243094	1.7956362
13.800596387114801	3.2559533	1.8044261
13.818251176163775	3.2650735	1.8069514
13.835906294817324	3.319592	1.8219748
13.853561743513023	3.3622057	1.8336319
13.871217522688525	3.4522107	1.8580126
13.888873632781538	3.4376342	1.8540858
13.906530074229858	3.44649	1.8564725
13.92418684747135	3.4003904	1.8440148
13.941843952943948	3.4073658	1.8459052
13.959501391085665	3.4472256	1.8566706
13.977159162334578	3.4292452	1.8518221
13.994817267128846	3.4301338	1.852062
14.012475705906693	3.3309462	1.825088
14.030134479106424	3.2483323	1.8023131
14.047793587166414	3.1496592	1.774728
14.065453030525108	3.1048977	1.762072
14.083112809621026	3.0468433	1.745521
14.100772924892766	2.9872527	1.7283671
14.118433376778997	2.9075327	1.7051489
14.136094165718458	2.8381355	1.6846766
14.153755292149969	2.7970302	1.6724324
14.171416756512416	2.7431166	1.6562357
14.189078559244768	2.6662269	1.6328585
14.20674070078606	2.6047103	1.6139115
14.224403181575408	2.5849953	1.607792
14.242066002051999	2.5718343	1.603694
14.259729162655093	2.5499275	1.5968492
14.277392663824022	2.5046575	1.582611
14.295056505998208	2.4909265	1.578267
14.312720689617128	2.472151	1.5723076
14.330385215120348	2.447587	1.5644766
14.348050082947497	2.4101162	1.552455
14.3657152935383	2.3575017	1.5354158
14.383380847332528	2.3657742	1.5381073
14.401046744770051	2.3783865	1.5422019
14.418712986290798	2.4140599	1.5537245
14.436379572334793	2.408712	1.5520025
14.454046503342123	2.400165	1.5492467
14.471713779752946	2.351995	1.5336215
14.489381402007504	2.3472672	1.5320793
14.507049370546113	2.337045	1.5287397
14.524717685809168	2.364351	1.5376446
14.542386348237134	2.3883715	1.5454357
14.560055358270553	2.387495	1.5451521
14.577724716350051	2.4166915	1.5545712
14.595394422916325	2.416458	1.554496
14.61306447841015	2.4239955	1.5569186
14.63073488327237	2.4333935	1.5599338
14.648405637943917	2.4935777	1.5791066
14.6660767428658	2.494523	1.5794059
14.683748198479094	2.5331361	1.5915829
14.701420005224954	2.551748	1.5974191
14.719092163544628	2.6123686	1.6162823
14.73676467387942	2.6664793	1.6329358
14.754437536670727	2.7028577	1.644037
14.772110752360014	2.7281823	1.651721
14.78978432138882	2.763993	1.6625261
14.807458244198777	2.7746248	1.6657205
14.82513252123159	2.7910674	1.6706488
14.842807152929028	2.8069794	1.6754043
14.860482139732962	2.7429442	1.6561836
14.87815748208531	2.6962414	1.6420236
14.8958331804281	2.6562355	1.6297961
14.91350923520342	2.6466203	1.6268437
14.931185646853438	2.6920016	1.640732
14.948862415820408	2.7175133	1.6484882
14.966539542546656	2.7162275	1.6480981
14.98421702747459	2.6718328	1.6345742
15.001894871046696	2.6642792	1.632262
15.019573073705542	2.6375303	1.6240475
15.037251635893766	2.6551692	1.629469
15.054930558054092	2.670901	1.6342891
15.072609840629323	2.7439003	1.6564722
15.090289484062351	2.8656018	1.6928089
15.107969488796124	3.1631591	1.7785273
15.125649855273691	3.598361	1.8969346
15.14333058393817	4.121832	2.0302296
15.161011675232768	5.104291	2.2592678
15.17869312960076	6.455523	2.5407722
15.196374947485506	8.229098	2.8686404
15.214057129330447	11.258294	3.355338
15.231739675579114	15.921498	3.9901752
15.249422586675102	21.047062	4.5877075
15.267105863062092	24.280085	4.9274826
15.284789505183847	24.725765	4.972501
15.302473513484218	22.763885	4.7711515
15.320157888407127	19.20462	4.3823075
15.337842630396578	14.866143	3.8556638
15.355527739896656	11.622168	3.40913
15.37321321735153	9.015902	3.002649
15.39089906320545	6.60621	2.5702548
15.408585277902748	4.90695	2.2151637
15.42627186188783	3.7247016	1.9299486
15.443958815605198	3.1430008	1.772851
15.461646139499424	2.8237822	1.6804113
15.479333834015168	2.70654	1.6451565
15.497021899597165	2.6873283	1.6393073
15.514710336690234	2.6603947	1.6310717
15.53239914573928	2.610895	1.6158264
15.550088327189297	2.5694838	1.602961
15.567777881485336	2.5252922	1.5891168
15.58546780907256	2.5110223	1.5846206
15.6031581103962	2.4593775	1.5682403
15.620848785901568	2.4614546	1.5689024
15.638539836034063	2.4800699	1.5748237
15.656231261239173	2.4939475	1.5792238
15.673923061962451	2.4833581	1.5758674
15.691615238649552	2.4879894	1.5773362
15.709307791746202	2.4637325	1.5696281
15.727000721698221	2.4536333	1.5664078
15.744694028951498	2.4266248	1.5577627
15.76238771395202	2.4353247	1.5605527
15.780081777145844	2.4253855	1.557365
15.797776218979125	2.4038808	1.5504453
15.815471039898094	2.3961732	1.5479578
15.833166240349064	2.3771873	1.541813
15.850861820778437	2.377916	1.5420493
15.868557781632699	2.365026	1.5378641
15.886254123358412	2.3986197	1.5487478
15.903950846402232	2.407145	1.5514977
15.921647951210897	2.3863335	1.5447762
15.939345438231225	2.380448	1.54287
15.957043307910133	2.4156222	1.5542272
15.974741560694602	2.4559567	1.5671493
15.992440197031714	2.4383779	1.5615306
16.01013921736862	2.4327693	1.5597337
16.02783862215259	2.4133542	1.5534974
16.045538411830933	2.405913	1.5511006
16.06323858685107	2.3903906	1.5460888
16.080939147660512	2.3651426	1.537902
16.09864009470684	2.3648229	1.537798
16.11634142843774	2.388787	1.5455701
16.134043149300954	2.454073	1.5665481
16.15174525774433	2.493207	1.5789893
16.169447754215817	2.4759638	1.5735196
16.18715063916342	2.46057	1.5686204
16.204853913035244	2.4664233	1.570485
16.222557576279478	2.488913	1.577629
16.240261629344403	22.472946	4.740564
16.257966072678386	42.97238	6.555332
16.275670906729868	38.09302	6.1719546
16.293376131947387	2.5405638	1.5939146
16.31108174877957	2.516677	1.5864037
16.328787757675133	2.511963	1.5849173
16.34649415908287	2.538273	1.5931959
16.364200953451657	2.6058638	1.6142688
16.38190814123048	2.6250062	1.620187
16.39961572286839	2.643815	1.6259812
16.41732369881455	2.662649	1.6317625
16.43503206951817	2.6876323	1.6394
16.45274083542859	2.7171476	1.6483773
16.47044999699522	2.773623	1.6654198
16.488159554667558	2.8292723	1.682044
16.505869508895184	2.8926475	1.7007785
16.523579860127786	2.918875	1.7084715
16.541290608815117	2.9834762	1.7272742
16.559001755407035	3.0285861	1.7402834
16.57671330035348	3.0780423	1.7544351
16.59442524410448	3.1221313	1.7669554
16.61213758711015	3.1610596	1.7779369
16.629850329820705	3.2249253	1.7958077
16.647563472686436	3.2940056	1.8149396
16.665277016157724	3.3746426	1.83702
16.682990960685053	3.4298434	1.8519837
16.70070530671898	3.4587607	1.8597744
16.718420054710155	3.4799404	1.8654598
16.736135205109335	3.522776	1.8769059
16.753850758367335	3.6024017	1.8979994
16.771566714935087	3.6527166	1.9112082
16.789283075263597	3.6996803	1.9234554
16.80699983980398	3.7040248	1.9245843
16.82471700900741	3.755668	1.9379545
16.84243458332518	3.7987444	1.9490368
16.860152563208665	3.8777356	1.9691967
16.87787094910932	4.002865	2.000716
16.89558974147871	4.116009	2.028795
16.913308940768466	4.2144403	2.0529103
16.931028547430333	4.2996283	2.0735545
16.94874856191613	4.3324356	2.0814505
16.966468984677785	4.353879	2.086595
16.98418981616729	4.3805814	2.092984
17.00191105683676	4.500508	2.12144
17.019632707138374	4.507202	2.1230173
17.03735476752442	4.5267963	2.127627
17.05507723844728	4.5490584	2.132852
17.072800120359403	4.63644	2.1532395
17.090523413713353	4.6773796	2.162725
17.108247118961785	4.6765523	2.1625338
17.125971236557437	4.666339	2.160171
17.143695766953133	4.68324	2.1640794
17.161420710601806	4.7345953	2.1759126
17.179146067956477	4.7545395	2.1804907
17.19687183947025	4.712534	2.1708372
17.21459802559634	4.6584883	2.158353
17.232324626788028	4.598453	2.1444004
17.25005164349871	4.6221986	2.14993
17.267779076181863	4.607732	2.1465628
17.285506925291074	4.598555	2.1444242
17.30323519127999	4.556913	2.1346927
17.320963874602384	4.5873466	2.1418092
17.33869297571211	4.600125	2.1447902
17.356422495063114	4.6179576	2.1489434
17.37415243310944	4.535209	2.1296031
17.391882790305218	4.4317675	2.1051764
17.40961356710468	4.4296856	2.1046817
17.42734476396215	4.497168	2.1206527
17.445076381332044	4.575679	2.1390836
17.462808419668868	4.614784	2.1482048
17.48054087942723	4.7318144	2.1752734
17.498273761061835	5.0036273	2.2368789
17.51600706502747	5.5004287	2.3452992
17.533740791779024	6.213316	2.4926524
17.551474941771485	7.6444507	2.76486
17.56920951545993	8.713393	2.9518456
17.586944513299528	10.931878	3.306339
17.60467993574556	12.612403	3.5513945
17.622415783253373	14.361874	3.7897062
17.64015205627843	15.733742	3.966578
17.657888755276293	16.869102	4.107201
17.675625880702604	17.344723	4.1646996
17.69336343301311	17.042522	4.128259
17.71110141266366	16.191576	4.0238757
17.728839820110178	15.366457	3.9200072
17.746578655808705	14.557902	3.815482
17.764317920215372	13.183876	3.6309607
17.7820576137864	11.576935	3.4024894
17.79979773697811	9.470038	3.0773427
17.81753829024692	7.5403256	2.7459652
17.835279274049356	5.8915753	2.4272568
17.85302068884201	4.90556	2.21485
17.870762535081607	4.2139683	2.0527952
17.888504813224934	3.9059842	1.9763563
17.90624752372891	3.7465844	1.9356096
17.923990667050536	3.6926386	1.921624
17.941734243646895	3.6012313	1.897691
17.959478253975185	3.54199	1.8820175
17.9772226984927	3.5006244	1.8709955
17.994967577656833	3.4457672	1.8562778
18.01271289192506	3.391552	1.8416166
18.030458641754965	3.393862	1.8422438
18.04820482760425	3.3668513	1.8348982
18.06595144993067	3.289761	1.8137698
18.083698509192125	3.2316377	1.7976756
18.101446005846576	3.2129133	1.7924601
18.119193940352105	3.233194	1.7981085
18.136942313166887	3.2206411	1.7946144
18.1546911247492	3.2000132	1.788858
18.1724403755574	3.1851394	1.7846959
18.19019006604997	3.1500676	1.774843
18.207940196685467	3.133295	1.7701116
18.225690767922575	3.1121142	1.7641186
18.243441780220046	3.094897	1.7592319
18.261193234036764	3.115832	1.765172
18.278945129831676	3.119378	1.7661761
18.29669746806386	3.1406455	1.7721866
18.314450249192483	3.114468	1.7647855
18.3322034736768	3.0424929	1.7442743
18.349957141976184	2.9885287	1.7287362
18.3677112545501	2.9652593	1.7219929
18.385465811858108	3.004572	1.7333701
18.403220814359884	3.0067785	1.7340065
18.420976262515172	3.0666752	1.7511925
18.43873215678387	3.0969198	1.7598068
18.456488497625923	3.138681	1.7716323
18.474245285501407	3.2152157	1.7931023
18.492002520870486	3.2751634	1.8097413
18.50976020419343	3.3239763	1.8231776
18.527518335930615	3.597897	1.8968123
18.545276916542516	4.240039	2.0591354
18.563035946489688	4.4187226	2.1020758
18.580795426232832	4.8846297	2.21012
18.598555356232698	4.7347074	2.1759384
18.616315736950185	5.015787	2.2395954
18.63407656884626	4.6104584	2.1471977
18.65183785238201	4.786591	2.1878278
18.669599588018617	4.635137	2.152937
18.68736177621737	4.69888	2.16769
18.705124417439652	4.671432	2.1613495
18.72288751214696	4.451194	2.1097853
18.740651060800886	4.582384	2.1406505
18.758415063863115	4.2975006	2.0730414
18.77617952179546	4.4808273	2.1167965
18.793944435059814	4.3272657	2.080208
18.811709804118184	4.358742	2.0877602
18.829475629432675	4.225898	2.0556989
18.8472419114655	3.9278908	1.9818907
18.86500865067897	4.005466	2.0013661
18.88277584753551	3.752152	1.9370472
18.90054350249763	3.780888	1.9444506
18.918311616027957	3.464128	1.8612168
18.936080188589226	3.3453865	1.8290398
18.953849220644265	3.0638807	1.7503945
18.971618712656007	2.8857257	1.6987424
18.9893886650875	2.814069	1.6775187
19.007159078401887	7.997256	2.827942
19.024929953062408	32.86422	5.7327323
19.042701289532435	32.794662	5.7266626
19.060473088275405	25.347984	5.034678
19.07824534975489	2.6395655	1.624674
19.096018074434568	2.6670086	1.6330979
19.113791262778197	2.6817997	1.6376201
19.13156491524966	2.6416457	1.625314
19.149339032312945	2.624948	1.6201692
19.167113614432136	2.5971298	1.6115613
19.184888662071433	2.5424194	1.5944966
19.202664175695123	2.5489953	1.5965573
19.220440155767623	2.543396	1.5948029
19.238216602753447	2.5613747	1.6004295
19.2559935171172	2.541168	1.5941042
19.27377089932361	2.525736	1.5892564
19.291548749837514	2.5409932	1.5940493
19.309327069123835	2.5481772	1.5963011
19.32710585764763	2.5485637	1.5964222
19.344885115874032	2.536288	1.5925728
19.362664844268313	2.531913	1.5911986
19.380445043295822	2.5044897	1.5825579
19.39822571342203	2.4938126	1.579181
19.41600685511252	2.4446187	1.5635277
19.43378846883297	2.428167	1.5582577
19.451570555049173	2.428696	1.5584273
19.469353114227037	2.4394178	1.5618635
19.48713614683254	2.473945	1.5728779
19.50491965333182	2.495459	1.5797023
19.52270363419109	2.480064	1.5748218
19.540488089876686	2.4696248	1.571504
19.55827302085503	2.487723	1.5772518
19.576058427592674	2.5091894	1.5840421
19.593844310556282	2.48529	1.5764803
19.611630670212598	2.495924	1.5798494
19.629417507028506	2.4928422	1.5788738
19.64720482147098	2.5136454	1.585448
19.6649926140071	2.4850338	1.576399
19.682780885104084	2.4886484	1.577545
19.70056963522921	2.4331818	1.559866
19.718358864849908	2.4782555	1.5742476
19.7361485744337	2.4820328	1.5754468
19.753938764448215	2.508275	1.5837535
19.771729435361202	2.5487676	1.596486
19.789520587640506	2.5711327	1.6034752
19.807312221754092	2.564841	1.6015121
19.825104338170043	2.5271575	1.5897036
19.842896937356517	2.49901	1.5808258
19.860690019781824	2.5070846	1.5833776
19.87848358591436	2.5363178	1.5925821
19.896277636222635	2.538622	1.5933053
19.914072171175278	2.5137177	1.5854708
19.931867191241015	2.535011	1.5921718
19.94966269688869	2.5152652	1.5859587
19.967458688587264	2.5080264	1.5836749
19.985255166805807	2.5188944	1.5871025
20.00305213201348	2.5290532	1.5902997
20.020849584679578	2.489875	1.5779338
20.038647525273507	2.4681854	1.571046
20.05644595426477	2.4086206	1.5519731
20.07424487212299	2.4068305	1.5513964
20.092044279317903	2.4022222	1.5499104
20.109844176319353	2.4235678	1.5567812
20.127644563597304	2.4024906	1.549997
20.145445441621817	2.390049	1.5459783
20.16324681086307	2.375944	1.5414097
20.181048671791373	2.4158778	1.5543095
20.198851024877122	2.435658	1.5606595
20.216653870590836	2.435943	1.5607507
20.234457209403146	2.4282212	1.5582751
20.252261041784802	2.446694	1.5641911
20.270065368206662	2.4579918	1.5677984
20.287870189139685	2.4537969	1.56646
20.305675505054968	2.4092693	1.5521821
20.323481316423702	2.3530574	1.5339679
20.341287623717207	2.3325653	1.5272738
20.359094427406884	2.3259482	1.525106
20.376901727964288	2.3255284	1.5249683
20.39470952586107	2.3648512	1.5378072
20.41251782156899	2.380423	1.5428619
20.430326615559935	2.3437977	1.5309466
20.448135908305886	2.3199692	1.5231445
20.465945700278965	2.3262522	1.5252056
20.483755991951384	2.3673053	1.538605
20.50156678379548	2.365339	1.5379659
20.519378076283708	2.3397746	1.5296322
20.537189869888635	2.2885058	1.5127808
20.55500216508294	2.2852762	1.511713
20.572814962339415	2.307848	1.5191603
20.59062826213098	2.3229728	1.5241302
20.60844206493066	2.3455129	1.5315068
20.626256371211593	2.3271956	1.5255148
20.644071181447032	2.3259866	1.5251186
20.66188649611036	2.3209345	1.5234613
20.67970231567506	2.3202941	1.5232512
20.697518640614742	2.3275244	1.5256226
20.715335471403122	2.3240173	1.5244728
20.73315280851404	2.3107758	1.5201236
20.750970652421447	2.325527	1.5249679
20.768789003599412	2.3500712	1.5329942
20.786607862522136	2.350382	1.5330956
20.8044272296639	2.331888	1.527052
20.82224710549913	2.291466	1.5137589
20.84006749050237	2.2552392	1.5017453
20.857888385148268	3.820814	1.9546902
20.8757097899116	45.939728	6.7778854
20.893531705267254	64.82071	8.051131
20.911354131690224	83.838	9.156309
20.92917706965566	69.077805	8.311306
20.94700051963877	50.135	7.0806074
20.96482448211493	29.409279	5.4230323
20.982648957559622	4.166742	2.0412598
21.00047394644843	2.2530162	1.501005
21.01829944925707	2.228703	1.4928842
21.036125466461375	2.2227454	1.4908874
21.053951998537297	2.224695	1.4915411
21.071779045960906	2.2324398	1.4941351
21.089606609208378	2.2338557	1.4946089
21.10743468875603	2.2741203	1.5080187
21.12526328508028	2.2684486	1.506137
21.143092398657675	2.273917	1.5079513
21.16092202996488	2.23066	1.4935395
21.17875217947867	2.177981	1.4757984
21.19658284767596	2.1352966	1.4612654
21.21441403503377	2.147637	1.4654818
21.232245742029225	2.1755867	1.474987
21.2500779691396	2.1824818	1.4773225
21.26791071684227	2.191042	1.4802169
21.28574398561475	2.1963603	1.4820123
21.30357777593465	2.1868248	1.4787917
21.321412088279704	2.1497529	1.4662036
21.339246923127792	2.1490173	1.4659528
21.357082280956888	2.1809685	1.4768102
21.3749181622451	2.1483774	1.4657345
21.392754567470647	2.1416893	1.4634511
21.41059149711187	2.1028779	1.4501303
21.42842895164726	2.1295526	1.4592986
21.446266931555378	2.1153884	1.4544375
21.464105437314945	2.130371	1.4595791
21.481944469404798	2.1163962	1.4547839
21.49978402830388	2.1491232	1.4659888
21.51762411449127	2.1231592	1.4571065
21.53546472844617	2.1116626	1.4531561
21.553305870647876	2.102973	1.4501631
21.571147541575865	2.1084456	1.4520488
21.58898974170967	2.077092	1.4412119
21.60683247152899	2.0608444	1.4355642
21.62467573151363	2.0443795	1.429818
21.642519522143523	2.0267813	1.4236507
21.660363843898722	2.0543275	1.4332925
21.6782086972594	2.0955777	1.4476111
21.696054082705864	2.1230333	1.4570632
21.713900000718535	2.0984678	1.4486089
21.73174645177795	2.0415435	1.4288259
21.749593436364794	2.0359757	1.4268762
21.767440954959845	2.0598493	1.4352175
21.785289008044032	2.0730233	1.4397998
21.803137596098388	2.0474916	1.4309058
21.820986719604086	2.0419893	1.4289819
21.838836379042412	2.019349	1.421038
21.85668657489478	1.9960414	1.4128133
21.87453730764273	1.9644538	1.4015898
21.892388577767914	1.9788638	1.406721
21.91024038575213	1.9888979	1.410283
21.928092732077285	2.021033	1.4216304
21.945945617225426	1.9987736	1.4137799
21.963799041678694	1.9912652	1.411122
21.981653005919398	31.302422	5.5948567
21.999507510429943	78.13282	8.839277
22.01736255569286	73.11455	8.550705
22.035218142190818	4.224794	2.0554304
22.05307427040661	2.014728	1.4194112
22.07093094082315	1.9931991	1.4118071
22.088788153923474	2.003979	1.4156196
22.106645910190746	2.0286565	1.4243091
22.12450421010827	2.0181997	1.4206336
22.142363054159464	1.9975165	1.4133352
22.16022244282787	1.9620687	1.4007386
22.178082376597164	1.9507855	1.3967053
22.195942855951145	1.9876641	1.4098455
22.213803881373742	2.00761	1.4169016
22.231665453349002	1.9842484	1.4086335
22.24952757236111	1.9617174	1.4006132
22.26739023889438	1.9725541	1.4044764
22.28525345343323	1.9638964	1.4013909
22.30311721646225	1.9806714	1.4073633
22.320981528466113	1.9742104	1.405066
22.33884638992964	2.0072317	1.4167681
22.356711801337788	2.01597	1.4198486
22.37457776317561	2.0378408	1.4275296
22.392444275928337	2.0289977	1.4244289
22.410311340081282	2.0060997	1.4163685
22.428178956119904	1.9863147	1.4093667
22.446047124529805	1.9859252	1.4092286
22.46391584579669	1.9800527	1.4071435
22.481785120406414	1.9602728	1.4000974
22.49965494884496	1.9433391	1.394037
22.51752533159841	1.9489026	1.396031
22.53539626915302	1.9733661	1.4047655
22.553267761995137	1.9324579	1.3901287
22.571139810611264	1.9383434	1.392244
22.589012415488025	1.9646976	1.4016767
22.60688557711216	1.9699774	1.4035589
22.624759295970566	1.9552605	1.3983063
22.642633572550263	1.9455206	1.3948193
22.660508407338362	1.9872994	1.4097161
22.67838380082217	2.0029078	1.4152412
22.696259753489077	1.9797875	1.4070492
22.714136265826614	1.9300061	1.3892466
22.73201333832246	1.8996508	1.3782783
22.74989097146439	1.878302	1.3705115
22.76776916574035	1.8826432	1.3720945
22.785647921638393	1.8924241	1.3756541
22.803527239646712	1.8901569	1.3748298
22.82140712025363	1.9225879	1.3865741
22.839287563947593	1.9401313	1.3928859
22.85716857121719	1.9246964	1.3873343
22.875050142551135	1.9253852	1.3875825
22.892932278438277	1.924498	1.3872627
22.910814979367604	1.9482362	1.3957924
22.928698245828222	1.9659693	1.4021302
22.946582078309387	1.9292623	1.3889788
22.96446647730047	1.8463733	1.3588132
22.98235144329098	1.8420125	1.3572077
23.000236976770562	1.8898991	1.3747361
23.018123078229	1.9436488	1.3941481
23.03600974815619	1.9384882	1.3922961
23.053896987042194	1.9288431	1.3888279
23.071784795377173	1.9390591	1.392501
23.08967317365145	1.9421912	1.3936253
23.10756212235546	1.932622	1.3901877
23.125451641979787	1.9214561	1.386166
23.143341733015134	1.9384108	1.3922682
23.161232395952357	1.9686482	1.4030852
23.179123631282426	1.9715447	1.4041171
23.197015439496468	1.9834913	1.4083648
23.214907821085717	1.9764547	1.4058644
23.23280077654157	1.9770137	1.4060632
23.250694306355538	1.963154	1.4011259
23.268588411019277	1.9720404	1.4042935
23.28648309102458	1.987029	1.4096202
23.304378346863356	1.9656521	1.4020171
23.322274179027676	1.9386116	1.3923403
23.340170588009723	1.9213475	1.3861268
23.358067574301852	1.9294654	1.389052
23.37596513839651	1.9361585	1.3914591
23.39386328078629	1.9481906	1.395776
23.411762001963947	1.9501667	1.3964837
23.429661302422353	1.9595654	1.3998448
23.4475611826545	1.9550942	1.3982469
23.46546164315356	1.9532106	1.3975731
23.48336268441279	1.9122205	1.3828306
23.501264306925638	1.8979107	1.3776468
23.51916651118564	1.8980259	1.3776886
23.537069297686497	1.9511662	1.3968415
23.554972666922037	1.9929888	1.4117326
23.57287661938623	2.0010078	1.4145699
23.59078115557318	1.9732107	1.4047102
23.608686275977128	1.947058	1.3953702
23.62659198109246	1.9667834	1.4024205
23.6444982714137	1.9493403	1.3961878
23.66240514743549	1.9257395	1.3877102
23.68031260965263	1.9062134	1.3806568
23.698220658560068	1.931365	1.3897356
23.716129294652845	1.9404955	1.3930167
23.7340385184262	1.9463894	1.3951306
23.75194833037546	1.9331424	1.3903749
23.769858730996123	1.9048636	1.380168
23.78776972078382	1.9021175	1.3791728
23.80568130023431	1.9329783	1.3903159
23.823593469843495	1.946233	1.3950746
23.841506230107424	1.954054	1.3978748
23.859419581522275	1.9317452	1.3898723
23.87733352458438	1.8938739	1.3761809
23.89524805979019	1.8873934	1.3738244
23.913163187636318	1.9379554	1.3921046
23.931078908619508	1.9806356	1.4073505
23.948995223236633	1.9880973	1.409999
23.966912131984735	2.0350418	1.426549
23.98482963536096	2.0418663	1.4289389
24.002747733862616	2.0322967	1.4255865
24.020666427987155	2.016249	1.4199468
24.038585718232156	2.0232027	1.4223933
24.056505605095353	2.0172932	1.4203144
24.074426089074617	2.0698247	1.4386885
24.092347170667946	2.0988755	1.4487497
24.110268850373515	2.0689237	1.4383754
24.128191128689586	2.0543709	1.4333076
24.146114006114626	2.0433657	1.4294634
24.164037483147187	2.0679135	1.4380242
24.181961560286005	2.0888507	1.4452857
24.199886238029926	2.0747063	1.440384
24.21781151687797	2.0724187	1.4395897
24.235737397329274	2.0899038	1.44565
24.253663879883135	2.0888546	1.445287
24.271590965038975	2.0937872	1.4469925
24.289518653296376	2.0874164	1.4447894
24.30744694515505	2.1112769	1.4530233
24.32537584111486	2.1181016	1.45537
24.34330534167581	2.0852327	1.4440335
24.361235447338046	2.0197566	1.4211814
24.379166158601876	1.9623207	1.4008286
24.39709747596772	1.9871751	1.409672
24.41502939993615	2.0008695	1.414521
24.432961931007917	1.9907972	1.4109561
24.450895069683856	1.9485351	1.3958994
24.468828816465	2.0018017	1.4148505
24.4867631718525	2.0194743	1.421082
24.504698136347656	2.0245688	1.4228734
24.52263371045192	1.9782138	1.4064898
24.540569894666874	1.9577678	1.3992026
24.558506689494266	1.9185258	1.3851086
24.57644409543597	1.8799531	1.3711138
24.594382112994012	1.8888726	1.3743626
24.61232074267057	1.9261276	1.3878499
24.630259984967953	1.8935307	1.3760562
24.64819984038863	1.9444027	1.3944184
24.66614030943522	1.9931198	1.4117789
24.684081392610462	2.024451	1.422832
24.702023090417274	2.0284996	1.4242541
24.7199654033587	2.0314786	1.4252995
24.737908331937927	2.0266955	1.4236206
24.755851876658305	2.0380833	1.4276146
24.773796038023324	2.1029615	1.4501592
24.79174081653661	2.1302977	1.459554
24.809686212701962	2.1142466	1.4540449
24.827632227023294	2.069097	1.4384357
24.8455788600047	2.0677533	1.4379685
24.8635261121504	2.0973823	1.4482342
24.88147398396475	2.0963435	1.4478755
24.899422475952303	2.0836961	1.4435014
24.917371588617698	2.0753162	1.4405957
24.935321322465768	2.0854874	1.4441217
24.953271678001478	2.185142	1.4782226
24.97122265572994	2.4405496	1.5622258
24.989174256156414	2.7822526	1.6680086
25.00712647978632	3.2325974	1.7979425
25.02507932712521	3.7808526	1.9444414
25.043032798678798	4.337678	2.0827093
25.060986894952933	4.985936	2.232921
25.078941616453637	5.7031274	2.388122
25.096896963687055	6.6556673	2.579858
25.114852937159508	7.7938495	2.7917466
25.132809537377444	8.279633	2.877435
25.150766764847468	8.299519	2.8808885
25.168724620076347	7.7200146	2.7784915
25.186683103570985	6.7627745	2.6005335
25.204642215838426	5.611818	2.3689275
25.222601957385894	4.228189	2.056256
25.24056232872074	3.2296357	1.7971188
25.25852333035048	2.6430671	1.6257513
25.276484962782778	2.2880466	1.512629
25.294447226525435	2.0928516	1.4466691
25.312410122086423	1.9647006	1.4016777
25.330373649973843	1.9208823	1.385959
25.348337810695988	1.9416393	1.3934271
25.366302604761245	1.9719087	1.4042467
25.384268032678207	1.9596282	1.3998672
25.40223409495558	1.9288738	1.388839
25.420200792102257	1.8921281	1.3755465
25.438168124627246	1.9062955	1.3806866
25.45613609303974	1.8886582	1.3742846
25.474104697849057	1.8791748	1.3708299
25.492073939564698	1.8466558	1.3589171
25.510043818696285	1.8649207	1.365621
25.528014335753614	1.9037961	1.3797811
25.54598549124664	1.9300183	1.389251
25.56395728568544	1.9415914	1.39341
25.58192971958028	1.8500226	1.3601553
25.59990279344156	1.8597121	1.3637127
25.617876507779833	1.843341	1.3576969
25.635850863105826	1.8682338	1.3668334
25.653825859930386	1.8765031	1.3698552
25.671801498764548	1.8470024	1.3590447
25.68977778011949	1.8269267	1.3516386
25.707754704506524	1.8632843	1.3650217
25.725732272437153	1.8472377	1.3591312
25.743710484423012	1.8523005	1.3609924
25.761689340975888	1.8709896	1.3678412
25.77966884260774	1.8606759	1.364066
25.797648989830662	1.8567964	1.3626431
25.815629783156922	1.8526851	1.3611337
25.83361122309895	1.8269913	1.3516624
25.85159331016929	1.7939693	1.3393914
25.869576044880695	1.7933787	1.3391709
25.887559427746034	1.8120432	1.3461215
25.90554345927836	1.8109037	1.3456982
25.92352813999086	1.8325125	1.3537033
25.94151347039689	1.855342	1.3621094
25.959499451009965	1.8647028	1.3655412
25.97748608234374	1.8451167	1.3583508
25.995473364912062	1.8262365	1.3513832
26.013461299228904	1.8313622	1.3532783
26.03144988580839	1.756566	1.325355
26.04943912516483	1.772641	1.3314056
26.067429017812675	1.8278798	1.351991
26.085419564266537	1.830475	1.3529505
26.103410765041186	1.7827047	1.3351797
26.12140262065155	1.794275	1.3395056
26.139395131612723	1.8415544	1.3570389
26.157388298439948	1.8520064	1.3608844
26.17538212164861	1.7838492	1.3356082
26.193376601754295	1.7293406	1.3150439
26.211371739272714	1.7475607	1.3219534
26.229367534719746	1.780011	1.3341706
26.247363988611433	1.7724642	1.3313392
26.26536110146397	1.7998487	1.3415844
26.283358873793727	1.8246926	1.3508118
26.301357306117204	1.8614873	1.3643633
26.319356398951104	1.8282833	1.3521403
26.33735615281224	1.791662	1.3385298
26.35535656821762	1.7870121	1.3367918
26.373357645684404	1.8404609	1.3566359
26.39135938572991	1.8848021	1.3728809
26.409361788871614	1.8599292	1.3637922
26.427364855627165	1.8483157	1.3595277
26.445368586514352	1.8563035	1.3624623
26.46337298205115	1.8458073	1.3586049
26.48137804275568	1.8525252	1.361075
26.499383769146217	1.8192652	1.3488014
26.517390161741215	1.7829754	1.335281
26.53539722105928	1.7712896	1.330898
26.553404947619182	1.8427494	1.3574791
26.571413341939856	1.8317432	1.3534191
26.589422404540397	1.7817284	1.334814
26.60743213594006	1.7535431	1.3242141
26.62544253665827	1.7750562	1.3323123
26.64345360721459	1.820235	1.3491609
26.66146534812879	1.8219916	1.3498117
26.679477759920758	1.8111887	1.3458041
26.69749084311057	1.7849633	1.3360251
26.71550459821847	1.8102112	1.3454409
26.733519025764842	1.8546815	1.361867
26.751534126270258	1.857711	1.3629787
26.769549900255434	1.8166949	1.3478482
26.787566348241267	1.8161494	1.3476459
26.80558347074881	1.8591839	1.363519
26.823601268299267	1.8670306	1.3663933
26.841619741414036	1.8619214	1.3645225
26.85963889061465	1.8196583	1.348947
26.877658716422832	1.7850989	1.3360759
26.89567921936045	1.7692691	1.3301388
26.913700399949544	1.798814	1.3411987
26.93172225871233	1.8428243	1.3575066
26.949744796171174	1.8520167	1.3608882
26.967768012848605	1.8033557	1.3428907
26.98579190926733	1.7764622	1.3328398
27.003816485950225	1.820257	1.349169
27.021841743420318	1.8409082	1.3568007
27.039867682200814	1.8050342	1.3435156
27.057894302815072	1.793014	1.3390348
27.07592160578664	1.7884382	1.337325
27.0939495916392	1.8147582	1.3471296
27.111978260896635	1.8437853	1.3578606
27.13000761408296	1.863416	1.36507
27.148037651722397	1.8157208	1.3474869
27.166068374339304	1.8142124	1.346927
27.184099782458215	1.8507512	1.3604232
27.20213187660384	1.8535888	1.3614657
27.22016465730105	1.8522831	1.3609861
27.23819812507487	1.8770099	1.37004
27.256232280450533	1.8499417	1.3601257
27.274267123953383	1.7851081	1.3360794
27.292302656108987	1.7560297	1.3251528
27.31033887744306	1.7876103	1.3370154
27.32837578848146	1.7918491	1.3385997
27.34641338975026	1.8070046	1.3442487
27.364451681775673	1.7782801	1.3335217
27.382490665084074	1.7486607	1.3223693
27.400530340202046	1.7722355	1.3312534
27.41857070765629	1.8434373	1.3577324
27.436611767973726	1.8413506	1.3569638
27.454653521681404	1.8214741	1.34962
27.472695969306564	1.8071336	1.3442967
27.490739111376627	1.7661204	1.3289547
27.508782948419153	1.7749457	1.3322709
27.526827480961902	1.8191878	1.3487726
27.54487270953279	1.8294886	1.3525859
27.562918634659898	1.7880852	1.337193
27.580965256871508	1.7493696	1.3226373
27.599012576696026	1.747663	1.321992
27.617060594662068	1.7814839	1.3347224
27.63510931129842	1.8265082	1.3514837
27.65315872713401	1.8347307	1.3545223
27.67120884269797	1.7963516	1.3402804
27.68925965851958	1.8101829	1.3454304
27.707311175128307	1.8290541	1.3524252
27.725363393053787	1.8281646	1.3520963
27.74341631282583	1.8345555	1.3544576
27.7614699349744	1.8803205	1.3712478
27.77952426002968	2.0580993	1.4346077
27.797579288521973	2.1025555	1.4500191
27.815635020981784	2.4819303	1.5754143
27.83369145793979	2.5164502	1.5863323
27.85174859992682	2.346292	1.531761
27.869806447473923	2.239724	1.4965707
27.887865001112267	1.9935534	1.4119325
27.905924261373233	1.900991	1.3787643
27.92398422878836	1.8919598	1.3754853
27.94204490388936	1.8726676	1.3684545
27.96010628720813	1.8580436	1.3631008
27.978168379276728	1.8569355	1.3626943
27.9962311806274	1.8815606	1.3716999
28.014294691792568	1.9054987	1.380398
28.0323589133048	1.8502878	1.3602529
28.050423845696887	1.7662426	1.3290006
28.068489489501758	1.7880118	1.3371656
28.086555845252523	1.8577245	1.3629837
28.104622913482487	1.9045742	1.380063
28.122690694725115	1.8822218	1.3719409
28.14075918951405	1.8713889	1.3679872
28.15882839838312	1.9147222	1.3837348
28.176898321866304	1.9235542	1.3869226
28.1949689604978	1.8946483	1.3764622
28.213040314811945	1.8868827	1.3736385
28.23111238534327	1.8689196	1.3670844
28.249185172626493	1.8723853	1.3683513
28.267258677196473	1.8858821	1.3732742
28.285332899588294	1.9254162	1.3875936
28.303407840337172	1.9211322	1.3860492
28.321483499978545	1.9160177	1.3842028
28.33955987904799	1.9480942	1.3957415
28.357636978081285	1.9818587	1.407785
28.37571479761439	1.9823663	1.4079653
28.393793338183425	1.9270816	1.3881936
28.41187260032469	1.9053506	1.3803444
28.429952584574686	1.9179053	1.3848846
28.448033291470065	1.9921038	1.411419
28.46611472154769	2.0513046	1.4322376
28.484196875344566	2.067988	1.43805
28.502279753397914	2.057067	1.4342479
28.52036335624511	2.0136988	1.4190485
28.538447684423716	2.0022047	1.4149928
28.556532738471482	2.0009415	1.4145464
28.574618518926325	1.9422833	1.3936583
28.59270502632635	1.9321846	1.3900304
28.61079226120985	1.944702	1.3945258
28.628880224115274	1.9735008	1.4048134
28.646968915581287	1.9585166	1.3994701
28.66505833614671	1.9735271	1.4048228
28.68314848635055	1.9946694	1.4123276
28.701239366732004	1.9953833	1.4125804
28.71933097783044	2.0202928	1.42137
28.737423320185403	2.107837	1.4518392
28.75551639433665	2.1564755	1.4684943
28.773610200824074	2.1287563	1.4590257
28.791704740187793	2.1288936	1.4590728
28.80980001296809	2.1791642	1.4761993
28.827896019705413	2.1656525	1.4716157
28.845992760940433	2.119017	1.4556843
28.86409023721397	2.1659505	1.4717169
28.88218844906704	2.2024417	1.4840626
28.900287397040845	2.1730998	1.4741437
28.918387081676755	2.1983163	1.482672
28.936487503516343	2.255588	1.5018616
28.954588663101365	2.2685044	1.5061555
28.97269056097374	2.2601297	1.5033728
28.990793197675597	2.2689178	1.5062927
29.00889657374923	2.3008635	1.5168598
29.027000689737125	2.33461	1.527943
29.04510554618196	2.3546968	1.5345021
29.06321114362659	2.376206	1.5414947
29.08131748261405	2.4431822	1.5630682
29.099424563687567	2.4723368	1.5723666
29.11753238739057	2.4935484	1.5790974
29.13564095426663	2.4987974	1.5807585
29.15375026485954	2.5552287	1.5985082
29.171860319713275	2.6163592	1.6175164
29.18997111937199	2.6850734	1.6386193
29.20808266438002	2.7139976	1.6474215
29.226194955281898	2.752915	1.659191
29.244307992622335	2.7771888	1.66649
29.26242177694624	2.763395	1.6623462
29.2805363087987	2.7761593	1.6661811
29.29865158872498	2.8261197	1.6811067
29.316767617270557	2.8702435	1.6941793
29.334884394981064	2.991373	1.7295586
29.353001922402367	3.051174	1.746761
29.37112020008047	3.0649035	1.7506865
29.389239228561596	3.1562605	1.7765868
29.407359008392152	3.4211936	1.8496469
29.42547954011872	3.7670493	1.9408888
29.44360082428809	4.364214	2.08907
29.46172286144722	5.351601	2.3133528
29.479845652143283	6.9401712	2.6344204
29.497969196923606	9.102215	3.0169878
29.516093496335728	11.69321	3.4195335
29.5342185509274	14.590289	3.8197236
29.55234436124651	16.976192	4.1202173
29.570470927841175	18.287834	4.2764277
29.588598251259686	18.091623	4.253425
29.60672633205055	16.683722	4.0845714
29.624855170762405	14.380299	3.7921364
29.642984767944146	11.606262	3.4067965
29.66111512414481	8.905666	2.9842362
29.67924623991366	6.6363254	2.5761065
29.697378115800138	5.1457357	2.2684214
29.71551075235387	4.2279673	2.0562022
29.733644150124675	3.6954195	1.9223474
29.751778309662576	3.4674418	1.8621068
29.769913231517766	3.4226825	1.8500494
29.78804891624066	3.4098086	1.8465667
29.806185364381818	3.3638663	1.8340846
29.82432257649206	3.345559	1.8290869
29.842460553122333	3.2538261	1.8038365
29.86059929482382	3.2528753	1.8035729
29.878738802147872	3.2281306	1.7966999
29.896879075646048	3.1806188	1.7834289
29.915020115870114	3.1913455	1.7864337
29.933161923371976	3.2430685	1.8008522
29.951304498703777	3.3107502	1.8195467
29.969447842417857	3.3154297	1.8208321
29.987591955066733	3.2438521	1.8010697
30.005736837203123	3.192443	1.7867409
30.023882489379943	3.1942735	1.787253
30.04202891215028	3.164485	1.7788999
30.060176106067455	3.1882038	1.7855542
30.078324071684946	3.1011174	1.760999
30.09647280955646	3.0572538	1.7485005
30.114622320235863	3.1317496	1.769675
30.132772604277257	3.1929166	1.7868735
30.1509236622349	3.2005937	1.7890203
30.16907549466328	3.1483295	1.7743533
30.18722810211705	3.0504518	1.7465543
30.205381485151097	3.0295877	1.7405711
30.22353564432045	3.010858	1.7351824
30.241690580180403	2.9783127	1.7257788
30.25984629328638	3.0501983	1.7464817
30.278002784194037	3.106469	1.7625178
30.296160053459246	3.0567682	1.7483616
30.314318101638033	2.9530914	1.7184561
30.332476929286646	2.9517176	1.7180563
30.35063653696153	2.9784338	1.725814
30.368796925219307	2.9350007	1.7131844
30.386958094616844	2.8244522	1.6806107
30.40512004571115	2.741935	1.6558789
30.423282779059463	2.8021677	1.6739676
30.441446295219233	2.8601625	1.6912014
30.459610594748067	2.9231288	1.709716
30.47777567820382	2.908617	1.7054667
30.495941546144504	2.8581507	1.6906066
30.51410819912835	2.8171346	1.6784322
30.532275637713795	2.834719	1.6836624
30.55044386245946	2.8790133	1.6967655
30.56861287392416	2.9062123	1.7047616
30.586782672666956	2.8766732	1.6960758
30.604953259247047	2.8205907	1.6794615
30.623124634223885	2.8214166	1.6797073
30.641296798157075	2.7890537	1.670046
30.659469751606462	2.7298112	1.652214
30.677643495132074	2.7059405	1.6449744
30.695818029294152	2.69315	1.6410819
30.713993354653116	2.7081623	1.6456496
30.73216947176962	2.7401297	1.6553338
30.75034638120448	2.6850452	1.6386107
30.768524083518756	2.6924157	1.6408582
30.786702579273673	2.815985	1.6780896
30.80488186903069	2.9119818	1.706453
30.82306195335144	2.9805012	1.7264128
30.841242832797782	3.1345348	1.7704618
30.85942450793176	3.4205654	1.849477
30.877606979315637	3.7820923	1.9447602
30.895790247511883	4.109456	2.0271792
30.913974313083134	4.4904428	2.1190665
30.932159176592283	4.7564483	2.1809282
30.95034483860237	4.7568517	2.1810207
30.968531299676698	4.5655613	2.1367173
30.98671856037873	4.324471	2.0795362
31.00490662127215	3.9728792	1.9932083
31.023095482920848	3.517898	1.8756061
31.04128514588892	3.1058583	1.7623446
31.059475610740662	2.8281207	1.6817018
31.07766687804056	2.6579723	1.6303289
31.09585894835335	2.599428	1.6122742
31.11405182224393	2.5388412	1.5933741
31.132245500277417	2.4544706	1.5666751
31.15043998301914	2.390594	1.5461546
31.168635271034628	2.3978384	1.5484955
31.18683136488964	2.5020978	1.5818021
31.20502826515008	2.4686012	1.5711783
31.223225972382135	2.4382143	1.5614783
31.241424487152155	2.4185336	1.5551635
31.259623810026692	2.3957782	1.5478301
31.27782394157253	2.4502966	1.5653423
31.296024882356644	2.4382763	1.561498
31.314226632946237	2.4009452	1.5494983
31.332429193908684	2.3804247	1.5428625
31.350632565811598	2.3480833	1.5323457
31.368836749222787	2.368479	1.5389863
31.387041744710295	2.4688437	1.5712554
31.40524755284232	2.604242	1.6137664
31.423454174187317	2.5598514	1.5999535
31.441661609313922	2.470085	1.5716504
31.459869858791002	2.3757718	1.5413538
31.478078923187628	2.303041	1.5175773
31.496288803073064	2.273375	1.5077715
31.514499499016807	2.3397067	1.5296099
31.532711011588546	2.3366542	1.5286119
31.550923341358178	2.2751095	1.5083467
31.56913648889584	2.2755692	1.508499
31.587350454771844	2.3598144	1.5361687
31.605565239556732	2.3989265	1.5488468
31.62378084382127	2.3349051	1.5280397
31.641997268136382	2.2987432	1.5161607
31.660214513073274	2.3421478	1.5304078
31.67843257920331	2.3282938	1.5258747
31.6966514670981	2.2828052	1.5108955
31.71487117732944	2.2122958	1.4873788
31.733091710469346	2.1637359	1.4709643
31.751313067090052	2.1842587	1.4779238
31.769535247764008	2.3179803	1.5224915
31.787758253063878	2.3866882	1.544891
31.805982083562526	2.33472	1.527979
31.824206739833024	2.2654548	1.5051428
31.84243222244869	2.2711995	1.5070499
31.860658531983013	2.270914	1.5069553
31.878885669009737	2.2247722	1.491567
31.897113634102784	2.1628563	1.4706652
31.91534242783632	2.2028418	1.4841974
31.933572050784694	2.2111456	1.4869921
31.951802503522508	2.2054021	1.4850596
31.970033786624548	2.244021	1.4980056
31.988265900665834	2.192448	1.4806917
32.006498846221575	2.1591504	1.4694048
32.02473262386724	2.1765008	1.4752969
32.04296723417845	2.2460737	1.4986907
32.0612026777311	2.2501886	1.5000628
32.07943895510129	2.1992996	1.4830036
32.097676066865304	2.2218258	1.490579
32.115914013599685	2.254461	1.5014863
32.13415279588115	2.195533	1.4817331
32.152392414286666	2.1442318	1.4643196
32.1706328693934	2.1027713	1.4500935
32.18887416177875	2.098304	1.4485524
32.20711629202032	2.1021261	1.4498711
32.225359260695924	2.13615	1.4615574
32.243603068383614	2.0919745	1.446366
32.26184771566166	2.021776	1.4218917
32.28009320310852	2.0226736	1.4222074
32.2983395313029	2.0985873	1.4486501
32.31658670082372	2.12545	1.4578923
32.33483471225012	2.0762672	1.4409258
32.35308356616143	2.0566723	1.4341103
32.371333263137245	2.1304677	1.4596121
32.38958380375734	2.1000109	1.4491414
32.407835188601744	2.0722764	1.4395404
32.42608741825067	2.1664336	1.4718809
32.444340493284585	2.1937473	1.4811304
32.46259441428416	2.1187558	1.4555947
32.48084918183028	2.0690343	1.4384139
32.49910479650405	2.05227	1.4325746
32.51736125888683	2.0502994	1.4318867
32.53561856956014	2.0274324	1.4238794
32.5538767291058	1.9901975	1.4107436
32.572135738105764	1.952479	1.3973113
32.59039559714228	1.9188396	1.3852218
32.608656306797776	1.8878297	1.3739831
32.62691786765491	1.9589384	1.3996208
32.645180280296586	1.9957657	1.4127157
32.663443545305896	1.9873058	1.4097183
32.68170766326619	1.9569855	1.3989229
32.69997263476099	1.9969639	1.4131397
32.7182384603741	2.0578654	1.4345262
32.7365051406895	2.0243278	1.4227887
32.75477267629144	1.9748819	1.4053049
32.77304106776434	1.931717	1.3898622
32.79131031569289	1.9942338	1.4121734
32.809580420661966	1.9829465	1.4081713
32.827851383256714	1.9936662	1.4119724
32.84612320406245	1.9416423	1.3934282
32.86439588366476	1.9684843	1.4030268
32.88266942264945	1.9707443	1.403832
32.9009438216025	2.0164409	1.4200144
32.9192190811102	2.0625668	1.4361639
32.937495201758985	2.058688	1.4348129
32.95577218413556	2.007234	1.4167689
32.974050028826866	1.99215	1.4114354
32.992328736420035	1.9939944	1.4120886
33.010608307502444	1.9114226	1.3825421
33.02888874266169	1.8856387	1.3731856
33.047170042485604	1.9659593	1.4021267
33.06545220756225	2.0739765	1.4401307
33.083735238479896	2.1119084	1.4532406
33.10201913582707	2.0684748	1.4382193
33.12030390019248	1.9856322	1.4091246
33.138589532165135	1.9630175	1.4010773
33.15687603233419	1.9509721	1.396772
33.17516340128909	1.9752892	1.4054499
33.19345163961947	2.0664847	1.4375273
33.211740747915215	2.152792	1.4672396
33.23003072676643	2.1218498	1.456657
33.248321576763466	2.0219226	1.4219432
33.266613298496885	1.9233743	1.3868577
33.28490589255747	1.8201066	1.3491132
33.30319935953626	1.8289627	1.3523915
33.32149370002451	1.8450558	1.3583283
33.339788914613706	1.8732845	1.3686799
33.358085003895575	1.9032205	1.3795726
33.376381968462034	1.9247736	1.3873621
33.39467980890529	1.948036	1.3957206
33.41297852581774	2.0080082	1.417042
33.43127811979204	1.9247804	1.3873645
33.44957859142105	1.8352216	1.3547035
33.467879941297866	1.821715	1.3497093
33.486182170015844	1.8214288	1.3496032
33.50448527816853	1.9464097	1.3951379
33.522789266349754	2.0459037	1.4303509
33.541094135153514	2.0701206	1.4387914
33.55939988517411	1.9961274	1.4128437
33.57770651700602	1.9404838	1.3930125
33.59601403124398	2.0105839	1.4179506
33.61432242848296	2.0726075	1.4396553
33.632631709318154	2.0101526	1.4177985
33.650941874344994	1.8659105	1.3659834
33.66925292415916	1.7828817	1.335246
33.68756485935654	1.8258162	1.3512276
33.70587768053328	1.9100407	1.3820423
33.724191388285746	1.9571248	1.3989727
33.74250598321054	2.0558007	1.4338063
33.760821465904506	2.1613755	1.4701617
33.77913783696474	2.0627306	1.4362209
33.79745509698852	1.9540844	1.3978857
33.815773246573414	1.8796303	1.3709961
33.8340922863172	1.8950392	1.3766042
33.852412216817896	1.942818	1.3938501
33.87073303867377	1.9465196	1.3951772
33.889054752483304	1.9709923	1.4039203
33.907377358845245	2.0454736	1.4302006
33.92570085835853	1.9517317	1.397044
33.94402525162239	1.9534206	1.3976482
33.96235053923627	2.032319	1.4255943
33.980676721799824	2.203215	1.484323
33.999003799912984	2.1032555	1.4502605
34.01733177417592	1.9641521	1.4014821
34.03566064518901	2.0164068	1.4200023
34.0539904135529	2.0637636	1.4365805
34.07232107986846	1.9389784	1.392472
34.090652644736785	1.8479395	1.3593894
34.108985108759235	1.8725014	1.3683938
34.12731847253742	1.915537	1.3840293
34.14565273667313	1.8231796	1.3502517
34.16398790176847	1.8229144	1.3501534
34.18232396842574	1.9900025	1.4106745
34.20066093724749	2.0618608	1.4359181
34.21899880883651	2.0584414	1.434727
34.23733758379583	1.9663419	1.4022632
34.25567726272874	1.9352808	1.3911437
34.27401784623872	1.8473436	1.3591702
34.29235933492957	1.8840519	1.3726077
34.31070172940526	1.9965104	1.4129792
34.32904503027003	1.9071221	1.380986
34.347389238128386	1.8671892	1.3664513
34.36573435358502	1.9285274	1.3887143
34.38408037724492	2.0038965	1.4155905
34.402427309713296	2.0395045	1.4281123
34.42077515159559	2.0943427	1.4471844
34.43912390349752	2.0661733	1.4374189
34.45747356602499	1.8630056	1.3649197
34.47582413978423	1.7676188	1.3295182
34.49417562538163	1.7778	1.3333416
34.51252802342388	1.7723036	1.3312789
34.53088133451789	1.878759	1.3706783
34.54923555927084	2.0317118	1.4253813
34.567590698290104	2.120456	1.4561785
34.58594675218336	2.1099806	1.4525772
34.6043037215585	2.0192108	1.4209894
34.62266160702365	2.0962172	1.4478319
34.641020409187234	2.1362734	1.4615996
34.65938012865785	2.0724034	1.4395845
34.677740766044394	1.9363075	1.3915126
34.69610232195598	1.7827879	1.3352108
34.714464797002016	1.9338636	1.3906343
34.73282819179208	2.0449288	1.4300101
34.751192506936064	1.9029969	1.3794916
34.76955774304408	1.9548286	1.3981519
34.7879239007265	2.0254455	1.4231814
34.80629098059391	2.0228922	1.4222841
34.824658983257194	2.0350342	1.4265462
34.843027909327446	2.1336207	1.4606919
34.86139775941603	2.0120199	1.4184569
34.879768534134534	1.8870829	1.3737113
34.89814023409483	1.9420804	1.3935854
34.91651285990901	1.9799961	1.4071233
34.93488641218944	2.169734	1.4730017
34.95326089154871	2.3120024	1.520527
34.97163629859967	2.3086054	1.5194095
34.99001263395542	2.0847652	1.4438716
35.00838989822934	1.9860988	1.4092902
35.02676809203499	2.0427356	1.429243
35.04514721598624	2.1506772	1.4665188
35.063527270697215	2.324451	1.524615
35.081908256782256	2.4876955	1.577243
35.10029017485597	2.33478	1.5279987
35.11867302553321	2.1689215	1.4727259
35.137056809429104	2.1989565	1.4828879
35.155441527159006	2.2255518	1.4918283
35.173827179338524	2.0512342	1.4322131
35.19221376658354	2.0892255	1.4454154
35.21060128951017	1.9736959	1.4048829
35.2289897487348	2.0456245	1.4302533
35.24737914487405	2.2348385	1.4949377
35.26576947854479	2.1975484	1.482413
35.28416075036418	2.0467322	1.4306405
35.30255296094958	1.963409	1.401217
35.32094611091867	1.9586438	1.3995155
35.33934020088932	1.8798052	1.3710599
35.35773523147969	1.9751371	1.4053957
35.3761312033082	2.033103	1.4258692
35.394528116993506	1.7191023	1.3111454
35.41292597315452	1.6598548	1.2883536
35.431324772410434	2.107839	1.4518399
35.449724515380666	2.3819542	1.5433581
35.46812520268491	2.3620927	1.5369102
35.486526834943106	2.357104	1.5352863
35.504929412775454	2.1886973	1.4794247
35.52333293680242	1.7003869	1.3039888
35.54173740764471	1.5403398	1.2411042
35.560142825923286	1.6278026	1.2758536
35.5785491922594	1.7781854	1.3334862
35.59695650727454	1.7352387	1.3172846
35.61536477159042	0.7646945	0.87446815
