0.008763373481513119	0.0	0.0
0.026290120649546365	0.0	0.0
0.043816868432600686	0.03550094	0.18841693
0.06134361724069026	0.082251735	0.28679565
0.07887036748382949	0.07345385	0.27102372
0.0963971195720331	0.2008468	0.44815937
0.11392387391531617	0.15148668	0.3892129
0.1314506309236943	0.1661519	0.40761733
0.1489773910071836	0.16669545	0.40828353
0.16650415457580078	0.10991041	0.33152738
0.18403092203956356	0.15967035	0.39958772
0.20155769380849	0.12454861	0.35291445
0.2190844702925996	0.14349842	0.37881187
0.2366112519019124	0.1383487	0.37195256
0.2541380390464497	0.15661786	0.39574975
0.27166483213623416	0.1623439	0.40291923
0.28919163158128947	0.21272354	0.4612196
0.3067184377916406	0.23223516	0.48190784
0.324245251177314	0.23643315	0.48624393
0.34177207214833777	0.18831049	0.43394756
0.3592989011147415	0.15209332	0.38999143
0.37682573848655654	0.17286187	0.4157666
0.39435258467381573	0.19380446	0.44023228
0.41187944008655414	0.17619853	0.41976008
0.42940630513480854	0.20844	0.4565523
0.446933180228618	0.19483256	0.4413984
0.4644600657780234	0.2146925	0.46334922
0.48198696219306775	0.20649073	0.45441252
0.49951386988379676	0.17528033	0.41866493
0.5170407892602581	0.17124008	0.41381165
0.5345677207325025	0.21376412	0.46234632
0.5520946647105822	0.2316868	0.48133856
0.5696216216045534	0.24721919	0.49721143
0.5871485918244737	0.22039536	0.46946284
0.6046755757804043	0.16383433	0.40476453
0.6222025738824094	0.14732173	0.38382512
0.6397295865405557	0.15694332	0.39616072
0.6572566141649129	0.15775403	0.3971826
0.6747836571655547	0.13346292	0.36532578
0.6923107159525568	0.14692113	0.38330293
0.7098377909359992	0.13175423	0.36297965
0.7273648825259653	0.17476943	0.41805434
0.7448919911325411	0.20356114	0.4511775
0.762419117165817	0.20163065	0.44903302
0.7799462610358868	0.19470583	0.44125482
0.7974734231528482	0.15932713	0.39915803
0.8150006039268024	0.17274103	0.41562125
0.8325278037678551	0.2184022	0.46733522
0.8500550230861152	0.276097	0.52544934
0.8675822622916969	0.3115919	0.5582042
0.8851095217947171	0.28801936	0.5366744
0.9026368020052984	0.25261763	0.5026108
0.9201641033335665	0.22705866	0.47650674
0.9376914261896523	0.20603004	0.4539053
0.9552187709836915	0.21150017	0.45989147
0.9727461381258234	0.23150115	0.48114565
0.990273528026193	0.25651678	0.50647485
1.0078009410949496	0.27619416	0.5255418
1.0253283777422473	0.29730085	0.54525304
1.0428558383782454	0.31148908	0.5581121
1.0603833234131086	0.2958765	0.5439453
1.0779108332570058	0.30874604	0.5556492
1.0954383683201119	0.2924889	0.54082245
1.112965929012607	0.39336887	0.62719125
1.1304935157446763	0.55824	0.7471546
1.1480211289265108	0.5733759	0.75721586
1.1655487689683062	1.4595189	1.2081054
1.1830764362802655	1.7490662	1.3225226
1.200604131272596	2.1623046	1.4704777
1.2181318543555117	2.5866928	1.6083199
1.235659605939232	2.576801	1.6052418
1.253187386433982	3.9678423	1.9919443
1.270715196249994	6.1393666	2.4777746
1.2882430357975057	11.595808	3.4052618
1.3057709054867608	16.376917	4.04684
1.3232988057280106	22.344988	4.7270484
1.3408267369315112	27.266361	5.22172
1.358354699507526	30.787811	5.5486765
1.3758826938663256	35.376	5.9477725
1.3934107204181858	37.7047	6.140415
1.410938779573391	38.451004	6.200887
1.4284668717422309	38.831596	6.2315
1.4459949973350033	38.56366	6.2099648
1.4635231567620117	38.309917	6.189501
1.4810513504335687	37.807014	6.148741
1.4985795787599925	36.815536	6.0675807
1.5161078421516088	36.21616	6.0179863
1.5336361410187505	35.635563	5.969553
1.5511644757717598	35.44248	5.9533587
1.5686928468209842	35.77489	5.9812117
1.58622125457678	36.258167	6.0214753
1.6037496994495108	37.05654	6.0874085
1.621278181849548	37.04988	6.086861
1.6388067021872719	37.90127	6.1564007
1.6563352608730693	37.4157	6.1168375
1.673863858317336	36.794518	6.0658484
1.6913924949304753	36.096096	6.0080028
1.7089211711228998	35.027927	5.9184394
1.7264498873050296	33.977898	5.8290563
1.7439786438872935	33.06906	5.7505703
1.7615074412801288	32.270336	5.6806984
1.779036279893981	31.763155	5.635881
1.796565160139305	30.775618	5.547578
1.814094082426564	30.188	5.494361
1.8316230471662298	29.206385	5.404293
1.849152054768784	28.393122	5.32852
1.8666811056447168	27.600122	5.253582
1.8842102002045273	27.032036	5.199234
1.901739338858724	26.49036	5.1468787
1.9192685220178245	26.224459	5.120982
1.9367977500923557	25.451033	5.044902
1.9543270234928547	25.07968	5.0079618
1.971856342629867	24.51553	4.951316
1.9893857079139496	23.973797	4.8963046
2.006915119755667	23.367182	4.8339615
2.0244445785655945	22.640434	4.7581964
2.0419740847543175	22.15558	4.7069716
2.0595036387324317	21.57157	4.6445203
2.0770332409105414	21.004755	4.5830946
2.094562891699263	20.725967	4.552578
2.1120925915092217	20.294111	4.5048985
2.129622340751053	19.959589	4.4676156
2.1471521398354043	188.05765	13.713411
2.1646819891729323	444.3473	21.079546
2.182211889174303	440.5552	20.989407
2.1997418402501974	452.8668	21.280666
2.2172718428113023	432.9028	20.806316
2.234801897268317	320.98523	17.916061
2.2523320040319548	17.569277	4.191572
2.269862163512935	17.268888	4.1555853
2.287392376121992	16.939621	4.115777
2.304922642269869	16.750248	4.0927067
2.322452962367322	16.622349	4.0770516
2.3399833368251164	16.21109	4.0263
2.357513766054032	15.765837	3.9706216
2.3750442504648586	15.111436	3.887343
2.3925747904683963	14.657554	3.8285184
2.410105386475459	14.528105	3.8115752
2.4276360388968707	14.261532	3.7764444
2.445166748143469	14.13586	3.7597687
2.4626975146261025	13.646245	3.6940825
2.4802283387556323	13.35484	3.6544275
2.4977592209429305	13.107999	3.620497
2.5152901615988825	12.984958	3.6034646
2.5328211611343865	12.966074	3.6008434
2.5503522199603523	12.91695	3.5940158
2.5678833384877024	12.761549	3.572331
2.5854145171273712	12.440351	3.5270882
2.6029457562903064	12.111565	3.4801674
2.620477056387469	11.860278	3.4438756
2.6380084178298326	11.677869	3.4172897
2.655539841028383	11.628321	3.4100323
2.673071326394119	11.51598	3.3935204
2.6906028743380523	11.341832	3.3677638
2.708134485271211	11.302831	3.3619683
2.7256661596046325	11.144859	3.3383918
2.743197897749369	10.897937	3.3012023
2.760729700116486	10.534025	3.2456162
2.778261567117063	10.207168	3.1948657
2.795793499162193	9.991849	3.1609886
2.8133254966629817	9.935917	3.152129
2.830857560030551	9.877499	3.1428487
2.8483896896760337	9.770037	3.1257057
2.865921886010578	9.739807	3.1208663
2.883454149445347	9.630568	3.1033156
2.9009864803915177	9.636826	3.1043236
2.91851887926028	9.496441	3.0816295
2.9360513464628384	9.376278	3.0620708
2.953583882410413	9.167431	3.0277765
2.9711164875142373	9.078963	3.0131319
2.9886491621855606	8.953887	2.9923046
3.0061819068356455	8.751856	2.9583535
3.023714721875769	8.609789	2.9342442
3.041247607717225	8.429956	2.9034388
3.0587805647713213	8.291516	2.8794992
3.0763135934493806	8.311468	2.8829618
3.0938466941627407	8.134143	2.852042
3.1113798673227544	8.079967	2.842528
3.1289131133407904	7.9358478	2.8170636
3.1464464326282315	7.8087854	2.7944205
3.1639798255964786	7.777503	2.7888174
3.1815132926569443	7.65127	2.766093
3.1990468342210603	7.653618	2.7665172
3.216580450700272	7.5172577	2.7417617
3.2341141425060416	7.477632	2.734526
3.251647910049847	7.47377	2.7338197
3.2691817537431813	7.3481	2.710738
3.286715673997555	7.3255954	2.7065837
3.3042496712244938	7.1748357	2.6785884
3.32178374583554	7.044652	2.6541762
3.339317898242251	6.8905063	2.6249774
3.3568521288562034	6.7574296	2.5995057
3.3743864380889876	6.6267385	2.5742452
3.3919208263522127	6.5881224	2.5667338
3.4094552940575023	6.623843	2.5736828
3.4269898416164972	6.65715	2.5801454
3.444524469440858	6.648541	2.5784764
3.4620591779422587	6.5655885	2.5623405
3.479593967532391	6.58281	2.5656986
3.4971288386229658	6.5474195	2.5587926
3.5146637916257086	6.5289435	2.5551798
3.5321988269523628	6.4773493	2.5450637
3.5497339450146903	6.528336	2.5550609
3.5672691462244708	6.4879208	2.5471396
3.5848044309934988	6.3939643	2.5286288
3.60233979973359	6.296146	2.5092123
3.619875252856575	6.2858443	2.5071585
3.6374107907743034	6.3075867	2.5114908
3.6549464138986427	6.4671	2.5430493
3.6724821226414788	6.541614	2.557658
3.690017917414714	6.5868435	2.5664847
3.7075537986302702	6.557413	2.5607445
3.7250897667000857	6.539544	2.5572531
3.7426258220361235	6.6774	2.5840666
3.7601619650503553	6.943522	2.6350563
3.777698196154779	7.501383	2.7388651
3.7952345157614067	8.555645	2.9250035
3.8127709242822716	9.265717	3.043964
3.830307422129425	11.323288	3.3650093
3.847844009714936	30.051428	5.4819183
3.8653806874508954	97.628685	9.880723
3.882917455749409	96.973625	9.847519
3.900454315022606	96.83493	9.840474
3.917991265682631	41.47327	6.4399743
3.9355283081416506	11.229592	3.3510585
3.9530654428118495	9.046972	3.0078185
3.970602670105433	7.736715	2.781495
3.9881399904346244	6.6821914	2.5849936
4.005677404211669	6.4716063	2.5439353
4.023214911848827	6.3985	2.5295258
4.0407525137583855	6.4237094	2.5345037
4.058290210352644	6.330733	2.5160947
4.075828002043927	6.246739	2.4993477
4.0933658892445814	6.25686	2.5013716
4.110903872366966	6.264129	2.5028243
4.128441951823468	6.2992496	2.5098307
4.145980128026488	6.2917128	2.5083287
4.163518401388452	6.222104	2.4944146
4.181056772321807	6.111518	2.4721484
4.1985952412390155	6.0155635	2.4526646
4.216133808552567	6.098406	2.469495
4.233672474674966	6.2524986	2.5004997
4.251211240018741	6.478925	2.5453732
4.268750104996445	6.642188	2.5772443
4.286289070020643	7.4479146	2.7290869
4.303828135503928	9.10192	3.016939
4.3213673018589125	29.44863	5.426659
4.3389065694982305	90.72378	9.524903
4.356445938834537	166.05653	12.886292
4.3739854102805085	172.03505	13.116213
4.391524984248844	172.90166	13.149207
4.409064661152262	136.97359	11.703571
4.426604441403504	96.96682	9.847173
4.444144325415337	75.70826	8.70105
4.461684313600543	21.728294	4.6613617
4.47922440637193	22.104065	4.701496
4.496764604142329	20.463226	4.5236297
4.5143049073245916	18.693665	4.323617
4.531845316331589	16.718863	4.0888705
4.5493858315762195	13.978132	3.738734
4.566926453471405	11.601012	3.406026
4.584467182430081	9.553285	3.090839
4.602008018865218	8.261274	2.8742433
4.619548963189798	7.533912	2.7447972
4.637090015816834	7.1370087	2.671518
4.654631177159353	6.9462533	2.6355746
4.672172447630417	6.6868052	2.5858858
4.689713827643102	6.3994446	2.5297124
4.7072553176105085	6.183488	2.486662
4.724796917945764	6.034705	2.4565637
4.742338629062015	5.908408	2.4307218
4.759880451372434	5.805208	2.4094
4.777422385290215	5.688898	2.3851411
4.794964431228581	5.6730657	2.3818197
4.812506589600768	5.662668	2.379636
4.830048860820047	5.6222973	2.3711383
4.847591245299709	5.6172056	2.3700645
4.8651337434530655	5.631097	2.3729932
4.882676355693457	5.60429	2.3673382
4.900219082434242	5.562006	2.3583906
4.917761924088813	5.5252953	2.3505948
4.935304881070575	5.5271297	2.3509848
4.952847953792969	5.535572	2.3527796
4.970391142669449	5.461429	2.33697
4.9879344481135055	5.4700074	2.3388047
5.005477870538642	5.5509586	2.3560472
5.023021410358394	5.5376525	2.3532217
5.040565067986324	5.5461297	2.3550222
5.05810884383601	5.544795	2.354739
5.075652738321066	5.6522226	2.3774405
5.09319675185512	5.5977063	2.3659472
5.110740884851836	5.5059443	2.346475
5.128285137724894	5.3680286	2.3169007
5.145829510888007	5.2842326	2.2987459
5.163374004754908	5.28808	2.2995827
5.1809186197393595	5.2885566	2.2996862
5.198463356255145	5.3295507	2.308582
5.216008214716077	5.3312144	2.3089423
5.233553195535998	5.3301187	2.308705
5.251098299128764	5.3055916	2.303387
5.268643525908272	5.254854	2.292347
5.286188876288432	5.301069	2.302405
5.3037343506831895	5.33679	2.3101494
5.32127994950651	5.32605	2.3078237
5.3388256731723915	5.2442646	2.290036
5.356371522094851	5.2295074	2.2868116
5.373917496687938	5.2764955	2.2970624
5.391463597365729	5.35186	2.3134089
5.40900982454232	5.3388753	2.3106005
5.426556178631843	5.324117	2.3074048
5.444102660048449	5.280224	2.2978737
5.4616492692063225	5.2705526	2.2957685
5.479196006519669	5.303907	2.3030212
5.496742872402727	5.2971277	2.301549
5.514289867269756	5.3158236	2.305607
5.531836991535049	5.3380527	2.3104227
5.549384245612924	5.36936	2.317188
5.566931629917724	5.334466	2.3096464
5.584479144863822	5.3328104	2.3092878
5.6020267908656205	5.2866325	2.2992678
5.619574568337545	5.2344317	2.287888
5.637122477694054	5.1921406	2.278627
5.654670519349629	5.148606	2.269054
5.672218693718784	5.128702	2.2646637
5.689767001216059	5.0913677	2.2564058
5.707315442256021	5.1149726	2.2616305
5.724864017253266	5.152603	2.2699347
5.7424127266224225	5.187622	2.277635
5.75996157077814	5.1694	2.2736316
5.777510550135105	5.1850944	2.2770803
5.795059665108022	5.2831535	2.2985113
5.812608916111639	5.3790054	2.3192682
5.830158303560715	5.4123015	2.3264353
5.847707827870055	5.3931937	2.322325
5.86525748945448	5.3494744	2.3128932
5.8828072887288485	5.441151	2.3326275
5.900357226108044	5.5064754	2.3465881
5.917907302006979	5.681881	2.3836696
5.9354575168406	6.3659167	2.5230768
5.9530078710238765	6.9925838	2.6443493
5.970558364971812	7.4872236	2.7362792
5.988108999099438	7.822774	2.7969222
6.005659773821818	8.394433	2.8973148
6.023210689554039	8.188713	2.8615928
6.040761746711227	8.586805	2.930325
6.058312945708531	7.8936872	2.8095706
6.075864286961132	7.3680596	2.714417
6.093415770884244	6.6730027	2.5832155
6.1109673978931065	6.0584464	2.4613912
6.128519168402993	5.5064287	2.3465781
6.146071082829204	5.2664514	2.294875
6.163623141587075	5.186519	2.277393
6.181175345091969	5.161934	2.2719889
6.198727693759281	5.1838903	2.276816
6.216280188004435	5.172845	2.2743888
6.233832828242885	5.139368	2.2670174
6.251385614890126	5.1893764	2.2780204
6.268938548361669	5.147553	2.268822
6.286491629073067	5.128694	2.264662
6.304044857439898	5.067546	2.251121
6.321598233877777	5.0136633	2.2391212
6.339151758802344	5.0122795	2.238812
6.356705432629277	5.0775957	2.2533522
6.37425925577428	5.1034603	2.259084
6.391813228653095	5.094316	2.257059
6.409367351681486	5.006961	2.237624
6.426921625275259	4.944122	2.2235382
6.44447604985025	4.991132	2.2340841
6.46203062582232	5.0274043	2.2421875
6.47958535360737	5.09087	2.2562957
6.497140233621328	5.0817018	2.254263
6.514695266280161	5.004824	2.2371464
6.532250451999859	4.994981	2.2349453
6.549805791196454	5.020176	2.2405748
6.567361284286002	5.0465035	2.2464423
6.584916931684597	5.0450535	2.2461197
6.602472733808367	5.0439615	2.2458766
6.6200286910734665	5.0237374	2.2413695
6.637584803896092	5.0706396	2.2518082
6.655141072692462	5.0483203	2.2468467
6.672697497878842	5.0084248	2.237951
6.690254079871514	4.9888616	2.233576
6.707810819086808	4.988548	2.2335057
6.725367715941078	5.054893	2.248309
6.742924770850719	5.0847116	2.2549305
6.760481984232151	5.070768	2.2518365
6.778039356501836	5.0916843	2.2564762
6.795596888076266	5.07934	2.253739
6.813154579371963	5.1200557	2.262754
6.830712430805492	5.1069436	2.2598548
6.84827044279344	5.087646	2.2555811
6.865828615752445	5.024707	2.2415857
6.883386950099159	5.038067	2.2445638
6.900945446250287	5.0774655	2.2533233
6.918504104622553	5.142665	2.2677445
6.936062925632727	5.184099	2.2768617
6.953621909697607	5.1874304	2.2775931
6.971181057234028	5.166072	2.2728994
6.988740368658859	5.1608663	2.271754
7.006299844389007	5.187317	2.277568
7.023859484841407	5.2584124	2.2931228
7.041419290433036	5.3724384	2.317852
7.058979261580902	5.556995	2.357328
7.0765393987020495	5.756695	2.3993113
7.094099702213559	6.1390514	2.477711
7.111660172532549	6.4719744	2.5440075
7.129220810076164	6.867669	2.6206238
7.146781615261595	7.5492077	2.7475822
7.16434258850606	7.7500057	2.783883
7.181903730226821	8.1644	2.8573415
7.1994650408411704	8.194453	2.8625956
7.217026520766437	8.304127	2.881688
7.234588170419983	8.578437	2.928897
7.252149990219215	8.631096	2.9378726
7.269711980581568	8.542214	2.9227066
7.2872741419245175	8.305314	2.881894
7.304836474665574	7.8649907	2.804459
7.322398979222286	7.4747715	2.7340028
7.339961656012233	7.1708374	2.677842
7.357524505453039	6.8231487	2.6121159
7.375087527962357	6.594298	2.5679364
7.392650723957886	6.3215575	2.5142708
7.410214093857353	5.9926515	2.4479892
7.427777638078528	5.757089	2.3993936
7.445341357039213	5.608876	2.3683066
7.4629052511572525	5.473257	2.3394992
7.480469320850524	5.443784	2.3331919
7.498033566536948	5.3947644	2.3226633
7.5155979886344735	5.28624	2.2991824
7.5331625875610975	5.267007	2.294996
7.550727363734844	5.232668	2.2875025
7.568292317573788	5.239862	2.2890744
7.585857449496025	5.2487855	2.2910228
7.603422759919705	5.2561197	2.2926228
7.620988249263007	5.1934624	2.2789168
7.638553917944147	5.143432	2.2679136
7.656119766381391	5.0992537	2.2581527
7.673685794993023	5.0810533	2.2541192
7.691252004197388	5.100775	2.2584894
7.70881839441285	5.1694665	2.273646
7.726384966057826	5.198251	2.2799673
7.743951719550762	5.229531	2.2868168
7.761518655310149	5.23943	2.28898
7.779085773754511	5.2533584	2.2920206
7.796653075302419	5.32778	2.3081985
7.814220560372475	5.337408	2.3102832
7.831788229383323	5.366809	2.3166375
7.8493560827536495	5.323943	2.307367
7.866924120902174	5.3328843	2.3093038
7.884492344247663	5.3371563	2.3102286
7.9020607532089135	5.3494797	2.312894
7.919629348204771	5.317327	2.305933
7.937198129654115	5.3423395	2.31135
7.954767097975865	5.378898	2.319245
7.972336253588986	5.399326	2.3236449
7.989905596912472	5.347205	2.3124025
8.007475128365371	5.411016	2.326159
8.025044848366756	5.444613	2.3333695
8.042614757335754	5.588605	2.364023
8.060184855691523	5.6248546	2.3716776
8.07775514385327	5.773482	2.402807
8.095325622240228	5.8237433	2.4132433
8.112896291271687	5.9410357	2.437424
8.130467151366968	6.0132165	2.452186
8.148038202945436	6.0506225	2.4598012
8.165609446426497	6.129547	2.4757922
8.183180882229594	6.11968	2.4737988
8.200752510774217	6.068493	2.4634311
8.218324332479893	6.0170574	2.452969
8.235896347766193	5.9627476	2.4418738
8.253468557052724	6.0064836	2.4508128
8.27104096075914	6.0590863	2.4615211
8.288613559305137	6.1617346	2.482284
8.306186353110448	6.247588	2.4995177
8.32375934259485	6.287614	2.5075114
8.341332528178162	6.2201433	2.4940214
8.358905910280246	6.2308292	2.496163
8.376479489321003	6.252545	2.500509
8.394053265720377	6.375453	2.524966
8.411627239898356	6.4333463	2.5364041
8.42920141227497	6.4164286	2.533067
8.44677578327029	6.3313136	2.51621
8.464350353304427	6.2804046	2.5060735
8.48192512279754	6.223591	2.4947126
8.499500092169827	6.214103	2.4928102
8.51707526184153	6.1332197	2.476534
8.534650632232934	6.163131	2.4825654
8.552226203764365	6.187276	2.4874237
8.569801976856192	6.259239	2.5018473
8.587377951928834	6.261227	2.5022445
8.60495412940274	6.323621	2.514681
8.622530509698416	6.4410257	2.5379176
8.6401070932364	6.565953	2.5624115
8.657683880437283	6.6449413	2.5777783
8.675260871721695	6.7828965	2.6043994
8.692838067510303	6.952496	2.6367586
8.710415468223834	7.1398544	2.6720507
8.727993074283043	7.255638	2.6936293
8.745570886108737	7.224743	2.6878881
8.763148904121765	7.219596	2.6869307
8.78072712874302	7.2115483	2.6854327
8.798305560393441	7.4400325	2.7276423
8.815884199494006	7.606248	2.7579427
8.833463046465745	7.8032603	2.7934318
8.851042101729728	7.984652	2.8257127
8.86862136570707	8.296259	2.8803227
8.886200838818924	8.418387	2.9014456
8.903780521486505	8.461464	2.9088595
8.921360414131055	8.5189	2.9187155
8.938940517173874	8.616675	2.9354174
8.956520831036297	8.796001	2.9658053
8.97410135613971	9.091975	3.0152903
8.99168209290554	9.268902	3.0444872
9.009263041755265	9.5602255	3.0919614
9.026844203110405	9.742841	3.1213524
9.044425577392525	9.915324	3.1488607
9.062007165023239	10.03791	3.168266
9.079588966424197	10.294314	3.2084754
9.097170982017108	10.481414	3.2375011
9.11475321222372	11.340518	3.3675685
9.132335657465825	12.165807	3.4879518
9.149918318165264	12.299042	3.506999
9.167501194743924	12.961488	3.6002066
9.18508428762374	12.692233	3.562616
9.202667597226693	12.555464	3.543369
9.220251123974803	12.179938	3.489977
9.237834868290143	11.848101	3.442107
9.255418830594836	11.773591	3.4312668
9.273003011311046	11.199254	3.3465288
9.290587410860985	10.975285	3.3128967
9.308172029666911	10.267305	3.2042637
9.32575686815113	10.049578	3.170107
9.343341926735997	8.874607	2.979028
9.360927205843916	8.691941	2.9482098
9.378512705897327	8.479858	2.9120197
9.396098427318728	8.237539	2.8701115
9.413684370530664	8.135173	2.8522224
9.431270535955722	8.044721	2.8363216
9.448856924016539	8.013506	2.8308136
9.466443535135806	7.865734	2.8045917
9.484030369736251	7.9092464	2.8123384
9.501617428240658	7.8890433	2.8087442
9.519204711071852	7.9085803	2.8122199
9.536792218652714	7.8972054	2.8101966
9.55437995140617	7.9153094	2.813416
9.571967909755191	7.9856486	2.825889
9.589556094122802	7.99635	2.8277817
9.60714450493207	7.9346275	2.816847
9.624733142606116	7.967703	2.822712
9.642322007568108	8.076003	2.841831
9.659911100241267	8.142718	2.853545
9.677500421048851	8.105976	2.8470995
9.695089970414175	8.085523	2.8435054
9.712679748760609	8.080819	2.842678
9.730269756511557	8.130546	2.851411
9.747859994090492	8.206147	2.8646374
9.765450461920915	8.256439	2.873402
9.78304116042639	8.299521	2.880889
9.800632090030527	8.378622	2.894585
9.81822325115699	8.410757	2.9001305
9.835814644229481	8.367924	2.8927364
9.853406269671762	8.419627	2.9016595
9.870998127907646	8.428657	2.903215
9.888590219360985	8.424022	2.9024165
9.906182544455698	8.360351	2.891427
9.923775103615734	8.340709	2.8880286
9.941367897265108	8.397964	2.897924
9.958960925827878	8.4855995	2.9130054
9.97655418972816	8.4745455	2.9111073
9.994147689390106	8.531603	2.9208908
10.011741425237934	8.527476	2.9201844
10.029335397695904	8.476243	2.911399
10.04692960718833	8.387382	2.8960977
10.06452405413958	8.271685	2.8760536
10.082118738974064	8.275737	2.876758
10.099713662116246	8.282549	2.8779418
10.117308823990651	8.323235	2.8850017
10.134904225021844	8.316649	2.88386
10.152499865634445	8.291355	2.8794713
10.170095746253125	8.293557	2.8798537
10.18769186730261	8.363635	2.891995
10.205288229207675	8.28909	2.879078
10.222884832393145	8.190446	2.8618956
10.2404816772839	8.126111	2.8506334
10.258078764304868	8.165883	2.857601
10.275676093881035	8.16655	2.8577175
10.293273666437438	8.173647	2.858959
10.310871482399158	8.188411	2.8615398
10.32846954219134	8.223248	2.8676205
10.346067846239173	8.21855	2.8668013
10.363666394967908	8.246681	2.8717036
10.38126518880283	8.224854	2.8679006
10.398864228169298	8.176601	2.8594756
10.416463513492713	8.170178	2.8583524
10.434063045198531	8.074611	2.8415859
10.451662823712262	8.089321	2.8441732
10.469262849459467	8.093971	2.8449905
10.486863122865758	8.081599	2.8428154
10.504463644356806	8.079574	2.842459
10.522064414358338	8.04783	2.8368697
10.539665433296118	7.958574	2.8210945
10.557266701595987	7.91424	2.813226
10.574868219683818	7.8294754	2.79812
10.592469987985552	7.770665	2.7875912
10.610072006927185	7.692001	2.7734456
10.627674276934751	7.6081896	2.7582946
10.64527679843435	7.4992247	2.7384713
10.662879571852143	7.310038	2.7037082
10.680482597614331	7.1830506	2.6801214
10.698085876147173	7.147118	2.6734095
10.715689407876988	7.1243525	2.6691482
10.733293193230146	7.0740466	2.659708
10.750897232633072	6.983787	2.6426857
10.76850152651225	6.8908625	2.6250453
10.786106075294207	6.7380667	2.5957787
10.803710879405534	6.6394653	2.576716
10.821315939272877	6.5559525	2.5604594
10.83892125532294	6.4719696	2.5440066
10.856526827982472	6.339781	2.5178921
10.874132657678285	6.2903104	2.508049
10.891738744837243	6.253834	2.5007668
10.909345089886271	6.222191	2.494432
10.926951693252343	6.13387	2.476665
10.944558555362494	6.0457597	2.4588127
10.96216567664381	5.9365716	2.4365082
10.979773057523436	5.813295	2.4110775
10.997380698428573	5.790457	2.4063368
11.014988599786477	5.74557	2.396992
11.032596762024461	5.7969656	2.4076889
11.050205185569892	5.770219	2.402128
11.067813870850198	5.697058	2.386851
11.085422818292859	5.584778	2.3632135
11.10303202832541	5.492661	2.3436427
11.120641501375454	5.401861	2.3241904
11.138251237870636	5.366636	2.3166
11.155861238238671	5.3046074	2.3031733
11.173471502907317	5.2569957	2.292814
11.191082032304402	5.206065	2.2816803
11.208692826857805	5.175281	2.2749245
11.226303886995465	5.1164246	2.2619514
11.243915213145371	5.0409546	2.245207
11.261526805735578	4.9456315	2.2238777
11.279138665194196	4.885591	2.2103374
11.296750791949393	4.8634915	2.2053325
11.314363186429393	4.819414	2.1953163
11.331975849062479	4.771866	2.1844602
11.34958878027699	4.6936007	2.166472
11.36720198050133	4.667331	2.1604006
11.384815450163948	4.6397634	2.154011
11.402429189693366	4.5864067	2.1415899
11.420043199518153	4.4719944	2.1147091
11.437657480066942	63.392536	7.961943
11.455272031768422	85.1002	9.224977
11.472886855051353	107.529755	10.369656
11.490501950344528	99.18397	9.959115
11.508117318076819	84.54763	9.194979
11.52573295867715	45.907223	6.775487
11.543348872574514	4.176652	2.043686
11.560965060197946	4.124037	2.0307724
11.57858152197655	4.1638436	2.0405498
11.59619825833949	4.1438756	2.0356512
11.613815269715985	4.087773	2.0218241
11.631432556535323	38.543636	6.208352
11.649050119226837	83.116684	9.116836
11.666667958219929	93.51248	9.670185
11.68428607394406	107.79256	10.382319
11.701904466828756	82.628105	9.09
11.719523137303586	65.49749	8.093052
11.737142085798196	4.7293	2.1746955
11.754761312742286	3.7711089	1.9419343
11.772380818565619	3.697603	1.9229152
11.790000603698015	3.6497161	1.910423
11.80762066856935	3.6288013	1.9049413
11.825241013609572	3.591811	1.8952074
11.842861639248683	3.563584	1.8877457
11.860482545916748	3.5170681	1.8753848
11.878103734043883	3.5370705	1.8807101
11.895725204060282	3.5476131	1.8835108
11.91334695639619	3.4896903	1.8680713
11.930968991481919	3.4481168	1.8569106
11.948591309747824	3.388847	1.8408822
11.966213911624347	3.3975456	1.8432432
11.98383679754198	3.3471453	1.8295205
12.001459967931268	3.3550942	1.8316916
12.019083423222835	3.321156	1.8224039
12.036707163847352	3.2955103	1.815354
12.05433119023556	3.2151482	1.7930834
12.071955502818259	3.181561	1.7836931
12.089580102026313	3.157858	1.7770363
12.107204988290643	3.2196586	1.7943407
12.12483016204224	3.213935	1.7927451
12.142455623712152	3.2069604	1.7907988
12.16008137373149	3.1934373	1.7870191
12.177707412531431	3.195846	1.7876929
12.19533374054321	3.1944973	1.7873157
12.212960358198126	3.1666586	1.7795107
12.230587265927545	3.1067088	1.7625858
12.248214464162889	3.008605	1.7345331
12.265841953335649	2.975139	1.7248591
12.283469733877375	2.9461925	1.7164476
12.301097806219685	2.9551187	1.7190459
12.31872617079425	2.9799025	1.7262394
12.336354828032825	2.9768202	1.7253464
12.353983778367205	3.0060601	1.7337993
12.371613022229262	2.9701562	1.7234141
12.389242560050928	2.926086	1.7105806
12.406872392264201	2.8949416	1.7014527
12.424502519301143	2.938553	1.7142209
12.442132941593874	2.9649303	1.7218972
12.459763659574586	2.9506075	1.7177333
12.477394673675532	2.9273906	1.7109619
12.49502598432903	2.9273164	1.7109402
12.51265759196746	2.9302998	1.7118118
12.530289497023267	2.8876922	1.6993212
12.547921699928967	2.861457	1.6915842
12.565554201117134	2.8208373	1.6795348
12.583187001020404	2.7812104	1.6676961
12.600820100071486	2.779162	1.6670818
12.618453498703152	2.8208542	1.6795399
12.636087197348235	2.805781	1.6750466
12.65372119643964	2.7916815	1.6708326
12.671355496410326	2.773179	1.6652864
12.68899009769333	2.8368397	1.6842921
12.706625000721749	2.8660998	1.692956
12.724260205928752	2.9168334	1.707874
12.741895713747551	2.9264417	1.7106845
12.759531524611454	2.966801	1.7224404
12.777167638953818	2.961664	1.7209486
12.794804057208072	3.0117357	1.7354352
12.812440779807702	3.0802097	1.7550527
12.830077807186271	3.271523	1.8087353
12.847715139777405	3.2818284	1.8115817
12.865352778014795	3.5236268	1.8771327
12.882990722332197	3.611729	1.9004549
12.90062897316344	3.6715	1.9161159
12.918267530942412	3.7462182	1.9355149
12.935906396103071	3.641317	1.9082235
12.953545569079449	3.8300672	1.9570557
12.971185050305628	3.6380496	1.9073672
12.988824840215775	3.605049	1.8986967
13.006464939244115	3.6149576	1.9013041
13.024105347824943	3.504943	1.8721492
13.041746066392617	3.579378	1.8919244
13.05938709538157	3.3648093	1.8343416
13.077028435226296	3.3631933	1.8339012
13.094670086361363	3.3058116	1.8181891
13.112312049221401	3.2534277	1.8037261
13.129954324241112	3.178993	1.782973
13.147596911855258	2.985866	1.7279658
13.165239812498685	2.9581559	1.719929
13.182883026606293	2.8817737	1.6975788
13.200526554613058	2.8138518	1.677454
13.218170396954017	2.775762	1.6660619
13.235814554064284	2.7675831	1.6636055
13.253459026379034	2.764901	1.6627991
13.271103814333523	2.7445195	1.6566591
13.288748918363058	2.7240243	1.6504618
13.306394338903031	2.7122211	1.6468823
13.32404007638889	2.7019653	1.6437656
13.341686131256164	2.6956968	1.6418577
13.359332503940449	2.657335	1.6301334
13.376979194877402	2.6712582	1.6343985
13.394626204502751	2.7325258	1.6530353
13.412273533252307	2.7819295	1.6679118
13.429921181561937	2.7723403	1.6650347
13.447569149867581	2.790512	1.6704826
13.465217438605247	2.7775824	1.6666081
13.482866048211022	2.7775974	1.6666125
13.500514979121052	2.7873197	1.6695268
13.518164231771568	2.761265	1.6617055
13.535813806598844	2.7300143	1.6522754
13.553463704039254	2.6861932	1.6389611
13.571113924529229	2.670852	1.6342741
13.588764468505275	2.6750078	1.6355451
13.606415336403956	2.70878	1.6458372
13.624066528661917	2.7776647	1.6666328
13.641718045715882	2.8526733	1.6889858
13.659369888002635	2.8892941	1.6997924
13.67702205595903	2.944403	1.7159263
13.694674550021993	3.002875	1.7328806
13.712327370628532	3.0619469	1.7498419
13.729980518215713	3.1103082	1.7636065
13.747633993220681	3.1877158	1.7854176
13.765287796080647	3.2686005	1.8079271
13.7829419272329	3.3237755	1.8231225
13.800596387114801	3.340221	1.8276272
13.818251176163775	3.3433595	1.8284856
13.835906294817324	3.3636923	1.8340372
13.853561743513023	3.4385104	1.8543221
13.871217522688525	3.5311944	1.8791473
13.888873632781538	3.5962129	1.8963684
13.906530074229858	3.6003153	1.8974497
13.92418684747135	3.5673985	1.8887558
13.941843952943948	3.5354002	1.880266
13.959501391085665	3.4383929	1.8542904
13.977159162334578	3.3933928	1.8421164
13.994817267128846	3.398518	1.843507
14.012475705906693	3.3207712	1.8222983
14.030134479106424	3.230592	1.7973847
14.047793587166414	3.1034718	1.7616674
14.065453030525108	3.0746682	1.7534732
14.083112809621026	3.0454323	1.7451167
14.100772924892766	3.0044596	1.7333378
14.118433376778997	2.9273412	1.7109475
14.136094165718458	2.8313518	1.6826621
14.153755292149969	2.7605114	1.6614786
14.171416756512416	2.755683	1.660025
14.189078559244768	2.722053	1.6498646
14.20674070078606	2.6897433	1.6400437
14.224403181575408	2.5900536	1.6093644
14.242066002051999	2.5132248	1.5853153
14.259729162655093	2.4887211	1.577568
14.277392663824022	2.4970448	1.580204
14.295056505998208	2.495651	1.5797629
14.312720689617128	2.504358	1.5825163
14.330385215120348	2.4846084	1.576264
14.348050082947497	2.467887	1.570951
14.3657152935383	2.4277668	1.5581293
14.383380847332528	2.4180975	1.5550233
14.401046744770051	2.416437	1.5544893
14.418712986290798	2.3855884	1.544535
14.436379572334793	2.3594217	1.5360409
14.454046503342123	2.333028	1.5274253
14.471713779752946	2.3648455	1.5378054
14.489381402007504	2.3864079	1.5448003
14.507049370546113	2.392385	1.5467336
14.524717685809168	2.4102287	1.5524912
14.542386348237134	2.4227507	1.5565188
14.560055358270553	2.4578846	1.5677642
14.577724716350051	2.520316	1.5875503
14.595394422916325	2.502997	1.5820862
14.61306447841015	2.5420578	1.5943832
14.63073488327237	2.5560343	1.5987602
14.648405637943917	2.5619783	1.6006181
14.6660767428658	2.5556273	1.5986329
14.683748198479094	2.5436153	1.5948715
14.701420005224954	2.5591433	1.5997323
14.719092163544628	2.5907495	1.6095805
14.73676467387942	2.6532888	1.628892
14.754437536670727	2.6975346	1.6424173
14.772110752360014	2.6790311	1.6367747
14.78978432138882	2.6647353	1.6324017
14.807458244198777	2.6568627	1.6299886
14.82513252123159	2.647567	1.6271346
14.842807152929028	2.6610913	1.6312852
14.860482139732962	2.6418772	1.6253853
14.87815748208531	2.6501803	1.6279374
14.8958331804281	2.6252806	1.6202718
14.91350923520342	2.6041987	1.613753
14.931185646853438	2.6241934	1.6199362
14.948862415820408	2.6028748	1.6133428
14.966539542546656	2.6681445	1.6334456
14.98421702747459	2.6371984	1.6239454
15.001894871046696	2.6450047	1.6263471
15.019573073705542	2.6341684	1.6230122
15.037251635893766	2.6200361	1.6186526
15.054930558054092	2.6422372	1.625496
15.072609840629323	2.7028332	1.6440295
15.090289484062351	2.9013255	1.7033278
15.107969488796124	3.2780132	1.8105284
15.125649855273691	3.71569	1.9276125
15.14333058393817	4.2141795	2.0528467
15.161011675232768	5.1141095	2.2614398
15.17869312960076	6.5249677	2.5544016
15.196374947485506	8.4231	2.902258
15.214057129330447	11.41419	3.3784893
15.231739675579114	15.978409	3.9973001
15.249422586675102	20.990412	4.5815296
15.267105863062092	24.228054	4.9222
15.284789505183847	24.548199	4.9546137
15.302473513484218	22.367208	4.7293983
15.320157888407127	18.73491	4.328384
15.337842630396578	14.597562	3.8206756
15.355527739896656	11.398771	3.3762066
15.37321321735153	8.916619	2.9860709
15.39089906320545	6.478677	2.5453246
15.408585277902748	4.8738565	2.2076812
15.42627186188783	3.753712	1.9374498
15.443958815605198	3.2277422	1.7965919
15.461646139499424	2.929566	1.7115974
15.479333834015168	2.8553472	1.6897773
15.497021899597165	2.8275142	1.6815214
15.514710336690234	2.7683191	1.6638267
15.53239914573928	2.6429775	1.6257237
15.550088327189297	2.5657477	1.6017952
15.567777881485336	2.5324225	1.5913587
15.58546780907256	2.5110598	1.5846324
15.6031581103962	2.5291638	1.5903345
15.620848785901568	2.5491354	1.5966012
15.638539836034063	2.535645	1.5923709
15.656231261239173	2.5208318	1.5877128
15.673923061962451	2.4602544	1.5685198
15.691615238649552	2.46134	1.5688658
15.709307791746202	2.4386134	1.561606
15.727000721698221	2.4158504	1.5543007
15.744694028951498	2.3698153	1.5394205
15.76238771395202	2.345785	1.5315956
15.780081777145844	2.3672142	1.5385754
15.797776218979125	2.3748915	1.5410683
15.815471039898094	2.41482	1.5539691
15.833166240349064	2.44485	1.5636016
15.850861820778437	2.45794	1.5677819
15.868557781632699	2.4262319	1.5576366
15.886254123358412	2.3858583	1.5446224
15.903950846402232	2.3779485	1.5420598
15.921647951210897	2.4084604	1.5519215
15.939345438231225	2.4210958	1.5559871
15.957043307910133	2.4267015	1.5577874
15.974741560694602	2.417647	1.5548785
15.992440197031714	2.4269512	1.5578675
16.01013921736862	2.4593852	1.5682427
16.02783862215259	2.4337163	1.5600373
16.045538411830933	2.407569	1.5516343
16.06323858685107	2.3988006	1.5488062
16.080939147660512	2.3929632	1.5469205
16.09864009470684	2.366917	1.5384787
16.11634142843774	2.3599114	1.5362003
16.134043149300954	2.3588095	1.5358416
16.15174525774433	2.3718193	1.5400711
16.169447754215817	2.3947263	1.5474904
16.18715063916342	2.4174466	1.554814
16.204853913035244	2.4182522	1.555073
16.222557576279478	2.427601	1.5580761
16.240261629344403	22.41506	4.7344546
16.257966072678386	42.9788	6.555822
16.275670906729868	38.073395	6.1703644
16.293376131947387	2.5124142	1.5850596
16.31108174877957	2.5305462	1.590769
16.328787757675133	2.580459	1.6063807
16.34649415908287	2.5918036	1.609908
16.364200953451657	2.5982025	1.611894
16.38190814123048	2.5986996	1.6120483
16.39961572286839	2.625134	1.6202265
16.41732369881455	2.6752896	1.6356313
16.43503206951817	2.6982284	1.6426286
16.45274083542859	2.7543793	1.6596323
16.47044999699522	2.7772927	1.6665212
16.488159554667558	2.8236592	1.6803747
16.505869508895184	2.8779664	1.696457
16.523579860127786	2.909754	1.7058002
16.541290608815117	2.974507	1.7246759
16.559001755407035	3.0406888	1.7437571
16.57671330035348	3.0860858	1.7567259
16.59442524410448	3.1212888	1.766717
16.61213758711015	3.1636446	1.7786638
16.629850329820705	3.2296271	1.7971163
16.647563472686436	3.3008142	1.8168143
16.665277016157724	3.3711348	1.836065
16.682990960685053	3.4384074	1.8542943
16.70070530671898	3.491324	1.8685085
16.718420054710155	3.5873485	1.8940297
16.736135205109335	3.639709	1.9078021
16.753850758367335	3.6925008	1.9215881
16.771566714935087	3.737042	1.933143
16.789283075263597	3.7603629	1.9391655
16.80699983980398	3.8146658	1.9531169
16.82471700900741	3.8488588	1.9618509
16.84243458332518	3.8893287	1.9721382
16.860152563208665	3.9472127	1.9867593
16.87787094910932	4.0303345	2.0075693
16.89558974147871	4.1481156	2.0366924
16.913308940768466	4.1794286	2.0443652
16.931028547430333	4.2166605	2.0534508
16.94874856191613	4.2745266	2.0674927
16.966468984677785	4.3346086	2.0819724
16.98418981616729	4.4004664	2.097729
17.00191105683676	4.4708743	2.1144443
17.019632707138374	4.523435	2.1268368
17.03735476752442	4.5376897	2.1301854
17.05507723844728	4.56046	2.1355233
17.072800120359403	4.5436463	2.131583
17.090523413713353	4.582	2.1405606
17.108247118961785	4.6276317	2.1511931
17.125971236557437	4.696402	2.1671183
17.143695766953133	4.7155423	2.17153
17.161420710601806	4.691024	2.165877
17.179146067956477	4.679163	2.1631372
17.19687183947025	4.6614413	2.159037
17.21459802559634	4.6715555	2.1613781
17.232324626788028	4.711007	2.1704855
17.25005164349871	4.7129564	2.1709344
17.267779076181863	4.753845	2.1803315
17.285506925291074	4.780698	2.1864808
17.30323519127999	4.793129	2.1893215
17.320963874602384	4.7045956	2.169008
17.33869297571211	4.6234303	2.1502163
17.356422495063114	4.601656	2.145147
17.37415243310944	4.566545	2.1369476
17.391882790305218	4.535351	2.1296363
17.40961356710468	4.527228	2.1277282
17.42734476396215	4.5365906	2.1299274
17.445076381332044	4.553706	2.1339414
17.462808419668868	4.6111693	2.1473634
17.48054087942723	4.724711	2.17364
17.498273761061835	5.01244	2.238848
17.51600706502747	5.533657	2.3523726
17.533740791779024	6.3399005	2.517916
17.551474941771485	7.6968994	2.7743287
17.56920951545993	8.725131	2.9538333
17.586944513299528	10.925488	3.3053727
17.60467993574556	12.587584	3.5478985
17.622415783253373	14.210303	3.7696557
17.64015205627843	15.468978	3.933062
17.657888755276293	16.425047	4.0527825
17.675625880702604	17.0173	4.125203
17.69336343301311	16.93566	4.115296
17.71110141266366	16.25184	4.0313573
17.728839820110178	15.247361	3.904787
17.746578655808705	14.3535	3.7886014
17.764317920215372	12.889873	3.590247
17.7820576137864	11.424844	3.3800657
17.79979773697811	9.430792	3.0709593
17.81753829024692	7.6174645	2.7599754
17.835279274049356	5.994045	2.448274
17.85302068884201	4.9964895	2.235283
17.870762535081607	4.3223405	2.0790238
17.888504813224934	3.962281	1.9905479
17.90624752372891	3.7474961	1.935845
17.923990667050536	3.6490016	1.910236
17.941734243646895	3.5524359	1.8847907
17.959478253975185	3.4978967	1.8702664
17.9772226984927	3.4571452	1.85934
17.994967577656833	3.4351327	1.8534111
18.01271289192506	3.4293053	1.8518384
18.030458641754965	3.4405982	1.854885
18.04820482760425	3.4121063	1.8471887
18.06595144993067	3.3685396	1.8353581
18.083698509192125	3.3038049	1.8176372
18.101446005846576	3.2490914	1.8025236
18.119193940352105	3.2349412	1.7985942
18.136942313166887	3.2165527	1.793475
18.1546911247492	3.203642	1.789872
18.1724403755574	3.2020235	1.7894199
18.19019006604997	3.1987522	1.7885056
18.207940196685467	3.1403172	1.772094
18.225690767922575	3.1350617	1.7706106
18.243441780220046	3.153999	1.7759502
18.261193234036764	3.144582	1.773297
18.278945129831676	3.1421824	1.7726202
18.29669746806386	3.1154563	1.7650656
18.314450249192483	3.1200778	1.7663742
18.3322034736768	3.1252553	1.7678392
18.349957141976184	3.1065621	1.7625443
18.3677112545501	3.0611556	1.7496158
18.385465811858108	3.0601397	1.7493255
18.403220814359884	3.117603	1.7656735
18.420976262515172	3.145988	1.7736933
18.43873215678387	3.1453466	1.7735125
18.456488497625923	3.2027295	1.7896172
18.474245285501407	3.3198106	1.8220347
18.492002520870486	3.3347049	1.8261174
18.50976020419343	3.3862987	1.8401898
18.527518335930615	3.6578887	1.9125607
18.545276916542516	4.21176	2.0522573
18.563035946489688	4.4046044	2.098715
18.580795426232832	4.937577	2.222066
18.598555356232698	4.864192	2.2054913
18.616315736950185	5.188213	2.2777648
18.63407656884626	4.8066573	2.192409
18.65183785238201	5.005226	2.2372363
18.669599588018617	4.7342873	2.1758418
18.68736177621737	4.7387457	2.176866
18.705124417439652	4.735273	2.1760683
18.72288751214696	4.5911684	2.1427011
18.740651060800886	4.763847	2.1826239
18.758415063863115	4.4494247	2.109366
18.77617952179546	4.579666	2.1400154
18.793944435059814	4.2561035	2.0630326
18.811709804118184	4.244323	2.0601754
18.829475629432675	4.188874	2.0466738
18.8472419114655	4.0043645	2.0010908
18.86500865067897	4.1365743	2.033857
18.88277584753551	3.820118	1.9545122
18.90054350249763	3.8432417	1.9604187
18.918311616027957	3.554406	1.8853133
18.936080188589226	3.4308977	1.8522682
18.953849220644265	3.0723605	1.752815
18.971618712656007	2.8878937	1.6993804
18.9893886650875	2.83649	1.6841882
19.007159078401887	8.010645	2.8303082
19.024929953062408	32.906536	5.736422
19.042701289532435	32.838684	5.7305045
19.060473088275405	25.416943	5.041522
19.07824534975489	2.684196	1.6383516
19.096018074434568	2.6824028	1.6378043
19.113791262778197	2.6490622	1.627594
19.13156491524966	2.6659334	1.6327686
19.149339032312945	2.6462815	1.6267395
19.167113614432136	2.587455	1.6085569
19.184888662071433	2.5471067	1.5959657
19.202664175695123	2.526939	1.5896349
19.220440155767623	2.5741951	1.6044298
19.238216602753447	2.5921662	1.6100205
19.2559935171172	2.5657804	1.6018053
19.27377089932361	2.5277605	1.5898932
19.291548749837514	2.514304	1.5856557
19.309327069123835	2.5034423	1.582227
19.32710585764763	2.4920852	1.578634
19.344885115874032	2.4902198	1.578043
19.362664844268313	2.4857457	1.5766248
19.380445043295822	2.5084546	1.5838101
19.39822571342203	2.5218089	1.5880204
19.41600685511252	2.5147414	1.5857936
19.43378846883297	2.4968586	1.5801451
19.451570555049173	2.4776397	1.574052
19.469353114227037	2.5067616	1.5832756
19.48713614683254	2.527825	1.5899136
19.50491965333182	2.5454278	1.5954397
19.52270363419109	2.5152931	1.5859675
19.540488089876686	2.5112066	1.5846788
19.55827302085503	2.497885	1.5804698
19.576058427592674	2.500821	1.5813985
19.593844310556282	2.4942086	1.5793064
19.611630670212598	2.529497	1.5904392
19.629417507028506	2.5635228	1.6011004
19.64720482147098	2.5422873	1.5944552
19.6649926140071	2.5097337	1.5842139
19.682780885104084	2.5029607	1.5820748
19.70056963522921	2.5128126	1.5851854
19.718358864849908	2.5373998	1.5929217
19.7361485744337	2.5184076	1.5869491
19.753938764448215	2.5399652	1.5937268
19.771729435361202	2.556395	1.598873
19.789520587640506	2.5433896	1.5948008
19.807312221754092	2.5184245	1.5869545
19.825104338170043	2.4821606	1.5754874
19.842896937356517	2.4702225	1.5716941
19.860690019781824	2.4654381	1.5701714
19.87848358591436	2.5110896	1.5846418
19.896277636222635	2.5239496	1.5886943
19.914072171175278	2.537252	1.5928754
19.931867191241015	2.5245287	1.5888766
19.94966269688869	2.5419555	1.5943512
19.967458688587264	2.5023391	1.5818783
19.985255166805807	2.449879	1.5652089
20.00305213201348	2.4207213	1.5558667
20.020849584679578	2.4301426	1.5588915
20.038647525273507	2.4326787	1.5597047
20.05644595426477	2.4272215	1.5579543
20.07424487212299	2.4436233	1.5632093
20.092044279317903	2.4699457	1.571606
20.109844176319353	2.479988	1.5747977
20.127644563597304	2.4217365	1.556193
20.145445441621817	2.380326	1.5428305
20.16324681086307	2.371453	1.5399523
20.181048671791373	2.39892	1.5488447
20.198851024877122	2.4370978	1.5611206
20.216653870590836	2.4289181	1.5584986
20.234457209403146	2.4522245	1.565958
20.252261041784802	2.4454386	1.5637898
20.270065368206662	2.4419665	1.5626793
20.287870189139685	2.418375	1.5551126
20.305675505054968	2.370664	1.539696
20.323481316423702	2.3692653	1.5392418
20.341287623717207	2.3515887	1.5334891
20.359094427406884	2.3831267	1.5437379
20.376901727964288	2.387334	1.5451
20.39470952586107	2.3955064	1.5477424
20.41251782156899	2.389793	1.5458955
20.430326615559935	2.3819752	1.5433649
20.448135908305886	2.358038	1.5355904
20.465945700278965	2.3587952	1.5358369
20.483755991951384	2.3606026	1.5364252
20.50156678379548	2.3620222	1.5368872
20.519378076283708	2.3379111	1.5290229
20.537189869888635	2.3315082	1.5269277
20.55500216508294	2.3656342	1.5380619
20.572814962339415	2.3734128	1.5405885
20.59062826213098	2.377182	1.5418112
20.60844206493066	2.381336	1.5431578
20.626256371211593	2.3834639	1.5438471
20.644071181447032	2.3905122	1.5461282
20.66188649611036	2.375713	1.5413349
20.67970231567506	2.3638642	1.5374863
20.697518640614742	2.3324437	1.527234
20.715335471403122	2.3320186	1.5270948
20.73315280851404	2.3316505	1.5269743
20.750970652421447	2.3474956	1.5321538
20.768789003599412	2.3483071	1.5324187
20.786607862522136	2.336458	1.5285476
20.8044272296639	2.3416522	1.5302458
20.82224710549913	2.3383648	1.5291713
20.84006749050237	2.3425782	1.5305483
20.857888385148268	3.9050095	1.9761097
20.8757097899116	45.9987	6.782234
20.893531705267254	64.82939	8.05167
20.911354131690224	83.815735	9.155093
20.92917706965566	69.06632	8.310615
20.94700051963877	50.119087	7.0794835
20.96482448211493	29.409115	5.423017
20.982648957559622	4.1578074	2.0390701
21.00047394644843	2.261071	1.5036858
21.01829944925707	2.2792385	1.5097147
21.036125466461375	2.2905068	1.513442
21.053951998537297	2.285461	1.5117741
21.071779045960906	2.2568128	1.5022693
21.089606609208378	2.226594	1.4921776
21.10743468875603	2.2227995	1.4909056
21.12526328508028	2.2159235	1.4885979
21.143092398657675	2.1801517	1.4765337
21.16092202996488	2.1570702	1.4686967
21.17875217947867	2.1734502	1.4742626
21.19658284767596	2.2324755	1.4941471
21.21441403503377	2.2358332	1.4952703
21.232245742029225	2.2065077	1.4854318
21.2500779691396	2.1888115	1.4794632
21.26791071684227	2.1901147	1.4799036
21.28574398561475	2.1725268	1.4739494
21.30357777593465	2.1436853	1.464133
21.321412088279704	2.1569126	1.4686431
21.339246923127792	2.1782603	1.475893
21.357082280956888	2.210815	1.4868809
21.3749181622451	2.2087862	1.4861985
21.392754567470647	2.1708329	1.4733746
21.41059149711187	2.144003	1.4642414
21.42842895164726	2.1215997	1.4565712
21.446266931555378	2.1062298	1.4512856
21.464105437314945	2.1163838	1.4547796
21.481944469404798	2.144008	1.4642432
21.49978402830388	2.1348903	1.4611263
21.51762411449127	2.1192126	1.4557515
21.53546472844617	2.1238146	1.4573313
21.553305870647876	2.1320012	1.4601374
21.571147541575865	2.156055	1.4683511
21.58898974170967	2.1450844	1.4646107
21.60683247152899	2.09581	1.4476912
21.62467573151363	2.063813	1.4365977
21.642519522143523	2.07232	1.4395555
21.660363843898722	2.1274476	1.4585773
21.6782086972594	2.0987854	1.4487185
21.696054082705864	2.0844314	1.443756
21.713900000718535	2.076442	1.4409865
21.73174645177795	2.0706363	1.4389706
21.749593436364794	2.035012	1.4265385
21.767440954959845	1.991691	1.4112729
21.785289008044032	1.9873914	1.4097487
21.803137596098388	2.0158584	1.4198093
21.820986719604086	2.0106018	1.417957
21.838836379042412	1.9607894	1.4002819
21.85668657489478	1.9826955	1.4080822
21.87453730764273	1.9997548	1.4141269
21.892388577767914	2.0450768	1.4300618
21.91024038575213	2.0780537	1.4415456
21.928092732077285	2.063044	1.4363301
21.945945617225426	2.0284257	1.4242281
21.963799041678694	2.0033138	1.4153847
21.981653005919398	31.291708	5.5938993
21.999507510429943	78.068695	8.8356495
22.01736255569286	73.02987	8.545752
22.035218142190818	4.1511717	2.0374424
22.05307427040661	1.9856586	1.409134
22.07093094082315	2.0122933	1.4185532
22.088788153923474	1.9923989	1.4115236
22.106645910190746	1.9900467	1.4106902
22.12450421010827	2.0095396	1.4175823
22.142363054159464	2.0252905	1.423127
22.16022244282787	2.0063868	1.4164698
22.178082376597164	1.9897616	1.4105891
22.195942855951145	1.9516863	1.3970276
22.213803881373742	1.9214479	1.386163
22.231665453349002	1.9069138	1.3809105
22.24952757236111	1.95797	1.3992748
22.26739023889438	2.0212271	1.4216987
22.28525345343323	2.027651	1.4239562
22.30311721646225	1.9894499	1.4104786
22.320981528466113	1.9775921	1.4062688
22.33884638992964	1.9821042	1.4078722
22.356711801337788	1.9655358	1.4019756
22.37457776317561	1.9288783	1.3888407
22.392444275928337	1.9420934	1.3935901
22.410311340081282	2.0120513	1.418468
22.428178956119904	2.0249283	1.4229997
22.446047124529805	2.004255	1.4157171
22.46391584579669	1.9388069	1.3924105
22.481785120406414	1.930088	1.389276
22.49965494884496	1.9468259	1.395287
22.51752533159841	1.9543599	1.3979843
22.53539626915302	1.9353603	1.3911723
22.553267761995137	1.9268763	1.3881197
22.571139810611264	1.9492897	1.3961697
22.589012415488025	1.9129254	1.3830855
22.60688557711216	1.9178408	1.3848614
22.624759295970566	1.9457817	1.3949128
22.642633572550263	1.981013	1.4074847
22.660508407338362	1.969654	1.4034436
22.67838380082217	1.9836532	1.4084222
22.696259753489077	1.978493	1.4065892
22.714136265826614	1.991042	1.4110429
22.73201333832246	1.929045	1.3889006
22.74989097146439	1.8967806	1.3772366
22.76776916574035	1.8961711	1.3770152
22.785647921638393	1.9329264	1.3902973
22.803527239646712	1.9186399	1.3851497
22.82140712025363	1.9449363	1.3946097
22.839287563947593	1.9480319	1.3957192
22.85716857121719	1.942255	1.3936481
22.875050142551135	1.9156015	1.3840525
22.892932278438277	1.8956622	1.3768305
22.910814979367604	1.9393377	1.392601
22.928698245828222	1.9298719	1.3891983
22.946582078309387	1.9090818	1.3816953
22.96446647730047	1.8660424	1.3660316
22.98235144329098	1.9190459	1.3852963
23.000236976770562	1.9534888	1.3976727
23.018123078229	1.9684551	1.4030164
23.03600974815619	2.000311	1.4143234
23.053896987042194	1.9943589	1.4122177
23.071784795377173	1.9748356	1.4052885
23.08967317365145	1.949686	1.3963116
23.10756212235546	1.9194094	1.3854275
23.125451641979787	1.8934276	1.3760188
23.143341733015134	1.9079629	1.3812903
23.161232395952357	1.9308407	1.389547
23.179123631282426	1.9242904	1.387188
23.197015439496468	1.8828943	1.372186
23.214907821085717	1.8980148	1.3776846
23.23280077654157	1.8926008	1.3757182
23.250694306355538	1.933056	1.3903438
23.268588411019277	1.9642211	1.4015068
23.28648309102458	1.9674209	1.4026479
23.304378346863356	1.9737588	1.4049053
23.322274179027676	1.9666834	1.4023849
23.340170588009723	1.9384638	1.3922873
23.358067574301852	1.8964003	1.3770986
23.37596513839651	1.9226662	1.3866024
23.39386328078629	1.9201694	1.3857018
23.411762001963947	1.9056481	1.3804522
23.429661302422353	1.8680409	1.3667629
23.4475611826545	1.879287	1.370871
23.46546164315356	1.8949425	1.3765692
23.48336268441279	1.8979869	1.3776745
23.501264306925638	1.8479742	1.3594022
23.51916651118564	1.846758	1.3589548
23.537069297686497	1.8991567	1.378099
23.554972666922037	1.9564877	1.3987451
23.57287661938623	1.9445987	1.3944887
23.59078115557318	1.9340708	1.3907088
23.608686275977128	1.911443	1.3825494
23.62659198109246	1.9158763	1.3841518
23.6444982714137	1.9201885	1.3857087
23.66240514743549	1.9501814	1.3964889
23.68031260965263	1.9194908	1.3854569
23.698220658560068	1.8786521	1.3706393
23.716129294652845	1.836831	1.3552973
23.7340385184262	1.8644587	1.3654518
23.75194833037546	1.8877407	1.3739507
23.769858730996123	1.9321476	1.3900172
23.78776972078382	1.9358345	1.3913428
23.80568130023431	1.9426929	1.3938051
23.823593469843495	1.9274387	1.3883222
23.841506230107424	1.8969601	1.3773018
23.859419581522275	1.879002	1.3707669
23.87733352458438	1.9034493	1.3796555
23.89524805979019	1.891026	1.3751458
23.913163187636318	1.9117327	1.3826542
23.931078908619508	1.95645	1.3987316
23.948995223236633	2.0115871	1.4183043
23.966912131984735	2.0584452	1.4347283
23.98482963536096	2.0751123	1.440525
24.002747733862616	2.0631042	1.436351
24.020666427987155	2.0407798	1.4285587
24.038585718232156	2.024766	1.4229428
24.056505605095353	2.0567522	1.4341382
24.074426089074617	2.0959415	1.4477367
24.092347170667946	2.0905068	1.4458585
24.110268850373515	2.0829039	1.4432269
24.128191128689586	2.1083524	1.4520167
24.146114006114626	2.0410419	1.4286504
24.164037483147187	2.0340202	1.4261909
24.181961560286005	2.043643	1.4295604
24.199886238029926	2.0850134	1.4439576
24.21781151687797	2.103433	1.4503217
24.235737397329274	2.138825	1.4624722
24.253663879883135	2.0953338	1.4475268
24.271590965038975	2.057831	1.4345142
24.289518653296376	2.0148373	1.4194497
24.30744694515505	1.9980714	1.4135315
24.32537584111486	1.9832628	1.4082836
24.34330534167581	1.9696535	1.4034435
24.361235447338046	1.9782218	1.4064927
24.379166158601876	1.9778678	1.406367
24.39709747596772	2.049676	1.4316689
24.41502939993615	2.0676491	1.4379323
24.432961931007917	2.025931	1.423352
24.450895069683856	1.9811013	1.407516
24.468828816465	1.9779506	1.4063963
24.4867631718525	1.9690406	1.4032251
24.504698136347656	1.9696431	1.4034398
24.52263371045192	1.993138	1.4117854
24.540569894666874	2.0253608	1.4231517
24.558506689494266	2.030538	1.4249696
24.57644409543597	2.0303621	1.4249078
24.594382112994012	2.002004	1.4149219
24.61232074267057	1.9794126	1.406916
24.630259984967953	1.9361157	1.3914437
24.64819984038863	1.9035645	1.3796972
24.66614030943522	1.9158033	1.3841255
24.684081392610462	1.9508237	1.3967189
24.702023090417274	1.9731575	1.4046912
24.7199654033587	1.9566025	1.3987861
24.737908331937927	1.9569808	1.3989213
24.755851876658305	1.9963056	1.4129068
24.773796038023324	1.9954607	1.4126078
24.79174081653661	2.0216904	1.4218615
24.809686212701962	2.0808163	1.4425035
24.827632227023294	2.1484284	1.4657519
24.8455788600047	2.1183631	1.4554597
24.8635261121504	2.1439664	1.464229
24.88147398396475	2.09581	1.4476912
24.899422475952303	2.097369	1.4482296
24.917371588617698	2.0842993	1.4437102
24.935321322465768	2.1857657	1.4784335
24.953271678001478	2.2439303	1.4979755
24.97122265572994	2.4187849	1.5552443
24.989174256156414	2.7078505	1.6455548
25.00712647978632	3.1666534	1.7795093
25.02507932712521	3.749015	1.9362373
25.043032798678798	4.3012657	2.0739493
25.060986894952933	4.9321623	2.2208471
25.078941616453637	5.6028776	2.36704
25.096896963687055	6.431718	2.5360832
25.114852937159508	7.5578303	2.7491508
25.132809537377444	8.094698	2.8451183
25.150766764847468	8.253522	2.8728943
25.168724620076347	7.687957	2.7727165
25.186683103570985	6.743377	2.5968013
25.204642215838426	5.640839	2.375045
25.222601957385894	4.3042526	2.0746694
25.24056232872074	3.241771	1.8004919
25.25852333035048	2.6382232	1.6242608
25.276484962782778	2.3057365	1.5184652
25.294447226525435	2.1285396	1.4589515
25.312410122086423	2.054109	1.4332163
25.330373649973843	2.0004282	1.4143649
25.348337810695988	1.987684	1.4098525
25.366302604761245	1.9967912	1.4130787
25.384268032678207	2.000267	1.414308
25.40223409495558	1.9640677	1.401452
25.420200792102257	1.9255232	1.3876323
25.438168124627246	1.8803203	1.3712478
25.45613609303974	1.8770956	1.3700714
25.474104697849057	1.9209447	1.3859814
25.492073939564698	1.9588575	1.3995919
25.510043818696285	1.9160023	1.3841974
25.528014335753614	1.8804641	1.3713001
25.54598549124664	1.8515878	1.3607306
25.56395728568544	1.8568733	1.3626714
25.58192971958028	1.9219038	1.3863275
25.59990279344156	1.9134549	1.3832768
25.617876507779833	1.8986617	1.3779193
25.635850863105826	1.8554006	1.3621309
25.653825859930386	1.8577747	1.3630021
25.671801498764548	1.8433219	1.35769
25.68977778011949	1.8361974	1.3550636
25.707754704506524	1.8664033	1.3661637
25.725732272437153	1.8923764	1.3756367
25.743710484423012	1.8568534	1.3626641
25.761689340975888	1.7991041	1.3413068
25.77966884260774	1.8216461	1.3496836
25.797648989830662	1.859442	1.3636136
25.815629783156922	1.8345728	1.354464
25.83361122309895	1.7971897	1.3405931
25.85159331016929	1.8370742	1.3553871
25.869576044880695	1.9048958	1.3801796
25.887559427746034	1.9468076	1.3952805
25.90554345927836	1.9250885	1.3874756
25.92352813999086	1.9255965	1.3876586
25.94151347039689	1.9766618	1.405938
25.959499451009965	1.9628364	1.4010127
25.97748608234374	1.9285977	1.3887396
25.995473364912062	1.9196507	1.3855146
26.013461299228904	1.8945916	1.3764416
26.03144988580839	1.891433	1.3752937
26.04943912516483	1.8904194	1.3749253
26.067429017812675	1.8825464	1.3720592
26.085419564266537	1.8205844	1.3492904
26.103410765041186	1.7700915	1.3304479
26.12140262065155	1.8037058	1.3430212
26.139395131612723	1.8214815	1.3496227
26.157388298439948	1.8475862	1.3592594
26.17538212164861	1.8188403	1.3486439
26.193376601754295	1.7863259	1.3365351
26.211371739272714	1.8034306	1.3429186
26.229367534719746	1.8322824	1.3536183
26.247363988611433	1.8974168	1.3774675
26.26536110146397	1.8936887	1.3761137
26.283358873793727	1.8643292	1.3654044
26.301357306117204	1.8365575	1.3551965
26.319356398951104	1.8568163	1.3626505
26.33735615281224	1.8680675	1.3667727
26.35535656821762	1.8624283	1.3647082
26.373357645684404	1.8874898	1.3738594
26.39135938572991	1.8402032	1.3565409
26.409361788871614	1.7857823	1.3363317
26.427364855627165	1.7403624	1.3192279
26.445368586514352	1.7386835	1.3185915
26.46337298205115	1.7635643	1.3279926
26.48137804275568	1.7858081	1.3363413
26.499383769146217	1.8163311	1.3477134
26.517390161741215	1.8471031	1.3590817
26.53539722105928	1.8546278	1.3618472
26.553404947619182	1.8336294	1.3541157
26.571413341939856	1.7782668	1.3335167
26.589422404540397	1.7740537	1.3319361
26.60743213594006	1.7933985	1.3391783
26.62544253665827	1.7812179	1.3346227
26.64345360721459	1.7684649	1.3298364
26.66146534812879	1.7601329	1.3267
26.679477759920758	1.8161267	1.3476374
26.69749084311057	1.8555793	1.3621964
26.71550459821847	1.8688798	1.3670698
26.733519025764842	1.8630459	1.3649344
26.751534126270258	1.8361932	1.355062
26.769549900255434	1.783992	1.3356616
26.787566348241267	1.775808	1.3325944
26.80558347074881	1.855852	1.3622966
26.823601268299267	1.8967572	1.3772281
26.841619741414036	1.8418388	1.3571436
26.85963889061465	1.78676	1.3366975
26.877658716422832	1.7628224	1.3277133
26.89567921936045	1.7556957	1.3250266
26.913700399949544	1.8021631	1.3424467
26.93172225871233	1.8209618	1.3494302
26.949744796171174	1.8359419	1.3549694
26.967768012848605	1.810557	1.3455694
26.98579190926733	1.8036618	1.3430048
27.003816485950225	1.7907962	1.3382063
27.021841743420318	1.8087628	1.3449025
27.039867682200814	1.8201364	1.3491243
27.057894302815072	1.8181202	1.3483769
27.07592160578664	1.7841398	1.335717
27.0939495916392	1.8088168	1.3449225
27.111978260896635	1.8181942	1.3484043
27.13000761408296	1.8158969	1.3475522
27.148037651722397	1.8140546	1.3468684
27.166068374339304	1.8405977	1.3566864
27.184099782458215	1.807047	1.3442645
27.20213187660384	1.7353529	1.317328
27.22016465730105	1.7142462	1.3092922
27.23819812507487	1.7656765	1.3287876
27.256232280450533	1.828582	1.3522507
27.274267123953383	1.8395022	1.3562825
27.292302656108987	1.8710022	1.3678458
27.31033887744306	1.8472658	1.3591416
27.32837578848146	1.7880311	1.3371727
27.34641338975026	1.7748243	1.3322253
27.364451681775673	1.8121227	1.3461511
27.382490665084074	1.7985729	1.3411088
27.400530340202046	1.7831385	1.335342
27.41857070765629	1.7757294	1.332565
27.436611767973726	1.8001235	1.3416868
27.454653521681404	1.8240024	1.3505564
27.472695969306564	1.8146987	1.3471075
27.490739111376627	1.7925152	1.3388485
27.508782948419153	1.7749383	1.3322681
27.526827480961902	1.8111852	1.3458028
27.54487270953279	1.8217925	1.3497379
27.562918634659898	1.8263813	1.3514367
27.580965256871508	1.8408635	1.3567842
27.599012576696026	1.8314638	1.3533158
27.617060594662068	1.804961	1.3434883
27.63510931129842	1.8053981	1.343651
27.65315872713401	1.819593	1.3489228
27.67120884269797	1.8088746	1.3449441
27.68925965851958	1.8321089	1.3535541
27.707311175128307	1.8443968	1.3580858
27.725363393053787	1.8426026	1.357425
27.74341631282583	1.8825754	1.3720697
27.7614699349744	1.9508519	1.396729
27.77952426002968	2.1246195	1.4576075
27.797579288521973	2.1689692	1.4727421
27.815635020981784	2.5705767	1.6033018
27.83369145793979	2.6364048	1.623701
27.85174859992682	2.4429097	1.562981
27.869806447473923	2.267253	1.50574
27.887865001112267	2.0042677	1.4157217
27.905924261373233	1.9273351	1.3882849
27.92398422878836	1.8945242	1.3764172
27.94204490388936	1.8866142	1.3735408
27.96010628720813	1.8840754	1.3726163
27.978168379276728	1.8949693	1.3765788
27.9962311806274	1.867696	1.3666368
28.014294691792568	1.8836232	1.3724515
28.0323589133048	1.8967408	1.3772222
28.050423845696887	1.9088746	1.3816203
28.068489489501758	1.9218211	1.3862976
28.086555845252523	1.9016452	1.3790015
28.104622913482487	1.8915311	1.3753295
28.122690694725115	1.8633919	1.3650612
28.14075918951405	1.8489453	1.3597592
28.15882839838312	1.8827865	1.3721467
28.176898321866304	1.9404039	1.3929838
28.1949689604978	1.9454079	1.3947787
28.213040314811945	1.9461092	1.3950301
28.23111238534327	1.989047	1.4103358
28.249185172626493	2.0290296	1.4244401
28.267258677196473	1.9846616	1.4087802
28.285332899588294	1.9215792	1.3862104
28.303407840337172	1.8914076	1.3752846
28.321483499978545	1.9251766	1.3875073
28.33955987904799	1.933969	1.3906721
28.357636978081285	1.9264903	1.3879807
28.37571479761439	1.9285318	1.3887159
28.393793338183425	1.9362242	1.3914827
28.41187260032469	1.9546199	1.3980772
28.429952584574686	1.9521914	1.3972085
28.448033291470065	1.9380327	1.3921324
28.46611472154769	1.9989333	1.4138364
28.484196875344566	2.0164247	1.4200087
28.502279753397914	2.026467	1.4235404
28.52036335624511	2.035478	1.4267018
28.538447684423716	2.0442367	1.4297681
28.556532738471482	2.0348058	1.4264662
28.574618518926325	1.9739431	1.4049709
28.59270502632635	2.0015047	1.4147455
28.61079226120985	2.0322413	1.425567
28.628880224115274	2.0123203	1.4185628
28.646968915581287	1.9997433	1.4141228
28.66505833614671	2.048833	1.4313744
28.68314848635055	2.058665	1.4348049
28.701239366732004	2.0121999	1.4185203
28.71933097783044	1.9954971	1.4126207
28.737423320185403	2.0191026	1.4209512
28.75551639433665	2.0925958	1.4465808
28.773610200824074	2.1940436	1.4812305
28.791704740187793	2.2161732	1.4886817
28.80980001296809	2.2028322	1.4841942
28.827896019705413	2.2155292	1.4884654
28.845992760940433	2.174604	1.4746538
28.86409023721397	2.1402426	1.4629568
28.88218844906704	2.090626	1.4458997
28.900287397040845	2.1418293	1.463499
28.918387081676755	2.256044	1.5020133
28.936487503516343	2.3217266	1.5237213
28.954588663101365	2.3118045	1.5204619
28.97269056097374	2.3316107	1.5269612
28.990793197675597	2.3570142	1.535257
29.00889657374923	2.359501	1.5360667
29.027000689737125	2.3370674	1.528747
29.04510554618196	2.3890107	1.5456425
29.06321114362659	2.4276304	1.5580854
29.08131748261405	2.4668145	1.5706096
29.099424563687567	2.5080042	1.583668
29.11753238739057	2.5711465	1.6034795
29.13564095426663	2.603256	1.6134609
29.15375026485954	2.5771036	1.605336
29.171860319713275	2.6023505	1.6131803
29.18997111937199	2.6885674	1.6396852
29.20808266438002	2.7342863	1.6535678
29.226194955281898	2.714503	1.6475749
29.244307992622335	2.758199	1.6607827
29.26242177694624	2.801021	1.6736251
29.2805363087987	2.8528137	1.6890274
29.29865158872498	2.9126499	1.7066487
29.316767617270557	2.894869	1.7014315
29.334884394981064	2.8841329	1.6982735
29.353001922402367	2.9088979	1.7055491
29.37112020008047	3.0390964	1.7433004
29.389239228561596	3.116591	1.7653869
29.407359008392152	3.2809863	1.8113493
29.42547954011872	3.5906029	1.8948886
29.44360082428809	4.210511	2.051953
29.46172286144722	5.215983	2.2838526
29.479845652143283	6.7500863	2.5980928
29.497969196923606	8.7853365	2.964007
29.516093496335728	11.256185	3.3550239
29.5342185509274	14.079692	3.7522914
29.55234436124651	16.379768	4.0471926
29.570470927841175	17.796547	4.2185955
29.588598251259686	17.63613	4.199539
29.60672633205055	16.363613	4.0451965
29.624855170762405	14.193219	3.7673888
29.642984767944146	11.578195	3.4026747
29.66111512414481	8.911792	2.9852624
29.67924623991366	6.697563	2.587965
29.697378115800138	5.1892347	2.2779891
29.71551075235387	4.315912	2.0774772
29.733644150124675	3.8473516	1.9614667
29.751778309662576	3.5750985	1.8907931
29.769913231517766	3.445214	1.8561288
29.78804891624066	3.4016774	1.8443637
29.806185364381818	3.3563857	1.8320441
29.82432257649206	3.2964864	1.8156228
29.842460553122333	3.2976787	1.8159512
29.86059929482382	3.3103092	1.8194255
29.878738802147872	3.3104277	1.8194581
29.896879075646048	3.3080845	1.818814
29.915020115870114	3.2345319	1.7984804
29.933161923371976	3.2186882	1.7940702
29.951304498703777	3.231466	1.7976279
29.969447842417857	3.2001095	1.788885
29.987591955066733	3.2880402	1.8132954
30.005736837203123	3.3607175	1.833226
30.023882489379943	3.3146167	1.8206089
30.04202891215028	3.2625852	1.8062627
30.060176106067455	3.2645903	1.8068178
30.078324071684946	3.2185721	1.7940379
30.09647280955646	3.1797392	1.7831824
30.114622320235863	3.112094	1.7641128
30.132772604277257	3.0858932	1.7566711
30.1509236622349	3.1695871	1.7803334
30.16907549466328	3.1461146	1.773729
30.18722810211705	3.1211522	1.7666783
30.205381485151097	3.1237316	1.7674081
30.22353564432045	3.0958977	1.7595164
30.241690580180403	3.0100212	1.7349412
30.25984629328638	2.9989133	1.731737
30.278002784194037	2.995164	1.7306542
30.296160053459246	2.9911249	1.7294868
30.314318101638033	3.010762	1.7351547
30.332476929286646	2.9740436	1.7245415
30.35063653696153	2.9241574	1.7100167
30.368796925219307	2.902932	1.7037992
30.386958094616844	2.8786564	1.6966604
30.40512004571115	2.8718941	1.6946664
30.423282779059463	2.9044185	1.7042354
30.441446295219233	2.9481974	1.7170316
30.459610594748067	2.8912978	1.7003816
30.47777567820382	2.8111258	1.6766412
30.495941546144504	2.7976863	1.6726285
30.51410819912835	2.850961	1.688479
30.532275637713795	2.8946195	1.7013581
30.55044386245946	2.8205667	1.6794543
30.56861287392416	2.8036973	1.6744245
30.586782672666956	2.8007169	1.6735343
30.604953259247047	2.8371534	1.6843852
30.623124634223885	2.8002386	1.6733913
30.641296798157075	2.7638865	1.6624941
30.659469751606462	2.7118316	1.6467639
30.677643495132074	2.7182462	1.6487105
30.695818029294152	2.7256067	1.6509411
30.713993354653116	2.7710469	1.6646461
30.73216947176962	2.7722218	1.664999
30.75034638120448	2.7547019	1.6597295
30.768524083518756	2.725436	1.6508894
30.786702579273673	2.7619019	1.6618971
30.80488186903069	2.816841	1.6783447
30.82306195335144	2.9163501	1.7077324
30.841242832797782	3.0811172	1.7553111
30.85942450793176	3.3222082	1.8226925
30.877606979315637	3.7111015	1.926422
30.895790247511883	4.0766563	2.0190732
30.913974313083134	4.4686666	2.113922
30.932159176592283	4.850063	2.2022858
30.95034483860237	4.9269595	2.2196755
30.968531299676698	4.6242027	2.1503959
30.98671856037873	4.219699	2.0541906
31.00490662127215	3.9225283	1.9805374
31.023095482920848	3.5558171	1.8856875
31.04128514588892	3.168596	1.780055
31.059475610740662	2.8408413	1.6854795
31.07766687804056	2.6523705	1.62861
31.09585894835335	2.5994892	1.6122931
31.11405182224393	2.5721085	1.6037794
31.132245500277417	2.4898663	1.577931
31.15043998301914	2.4354298	1.5605863
31.168635271034628	2.4831548	1.5758029
31.18683136488964	2.596704	1.6114292
31.20502826515008	2.5646963	1.6014669
31.223225972382135	2.5010488	1.5814705
31.241424487152155	2.493807	1.5791793
31.259623810026692	2.4669755	1.5706608
31.27782394157253	2.4738197	1.5728381
31.296024882356644	2.4273	1.5579795
31.314226632946237	2.366772	1.5384316
31.332429193908684	2.3543456	1.5343877
31.350632565811598	2.3727565	1.5403755
31.368836749222787	2.4452403	1.5637264
31.387041744710295	2.5247037	1.5889317
31.40524755284232	2.5752885	1.6047705
31.423454174187317	2.5826144	1.6070515
31.441661609313922	2.5193326	1.5872406
31.459869858791002	2.4579594	1.567788
31.478078923187628	2.480105	1.574835
31.496288803073064	2.4555466	1.5670184
31.514499499016807	2.3427026	1.530589
31.532711011588546	2.379259	1.5424848
31.550923341358178	2.4115715	1.5529236
31.56913648889584	2.3856363	1.5445505
31.587350454771844	2.3073297	1.5189897
31.605565239556732	2.2377234	1.4959022
31.62378084382127	2.2359831	1.4953204
31.641997268136382	2.2322638	1.4940763
31.660214513073274	2.249002	1.4996673
31.67843257920331	2.3189516	1.5228105
31.6966514670981	2.35707	1.5352752
31.71487117732944	2.3554707	1.5347543
31.733091710469346	2.3240454	1.524482
31.751313067090052	2.296569	1.5154436
31.769535247764008	2.2405622	1.4968507
31.787758253063878	2.2875218	1.5124556
31.805982083562526	2.3004987	1.5167395
31.824206739833024	2.266117	1.5053627
31.84243222244869	2.325328	1.5249027
31.860658531983013	2.4140038	1.5537065
31.878885669009737	2.441682	1.5625882
31.897113634102784	2.2569952	1.50233
31.91534242783632	2.200058	1.4832592
31.933572050784694	2.2124093	1.487417
31.951802503522508	2.2542489	1.5014156
31.970033786624548	2.2551453	1.5017141
31.988265900665834	2.2499292	1.4999764
32.006498846221575	2.2054095	1.4850621
32.02473262386724	2.2224283	1.4907811
32.04296723417845	2.2641156	1.5046978
32.0612026777311	2.1801775	1.4765424
32.07943895510129	2.143992	1.4642377
32.097676066865304	2.1728432	1.4740567
32.115914013599685	2.2129161	1.4875873
32.13415279588115	2.2084854	1.4860973
32.152392414286666	2.1743793	1.4745777
32.1706328693934	2.160538	1.4698769
32.18887416177875	2.1117494	1.4531859
32.20711629202032	2.110816	1.4528648
32.225359260695924	2.1331995	1.4605477
32.243603068383614	2.1493278	1.4660586
32.26184771566166	2.1208181	1.4563029
32.28009320310852	2.1001384	1.4491855
32.2983395313029	2.0173256	1.4203259
32.31658670082372	2.0127888	1.4187279
32.33483471225012	2.1280997	1.4588008
32.35308356616143	2.1723967	1.4739052
32.371333263137245	2.0704622	1.4389101
32.38958380375734	2.077651	1.4414059
32.407835188601744	2.102104	1.4498634
32.42608741825067	2.041475	1.428802
32.444340493284585	1.9965397	1.4129896
32.46259441428416	2.0257096	1.4232743
32.48084918183028	2.0854287	1.4441013
32.49910479650405	2.0851765	1.444014
32.51736125888683	2.11232	1.4533823
32.53561856956014	2.1121633	1.4533284
32.5538767291058	2.02403	1.4226841
32.572135738105764	1.9599936	1.3999977
32.59039559714228	1.9355608	1.3912443
32.608656306797776	1.9314423	1.3897634
32.62691786765491	1.9352814	1.3911439
32.645180280296586	2.0039372	1.415605
32.663443545305896	2.0707283	1.4390025
32.68170766326619	2.0343518	1.4263071
32.69997263476099	1.9502546	1.3965151
32.7182384603741	1.8922474	1.3755898
32.7365051406895	1.8907114	1.3750315
32.75477267629144	2.0082402	1.4171239
32.77304106776434	2.0041904	1.4156944
32.79131031569289	2.0238178	1.4226094
32.809580420661966	2.072161	1.4395002
32.827851383256714	2.058506	1.4347495
32.84612320406245	1.9788179	1.4067047
32.86439588366476	2.0131721	1.4188629
32.88266942264945	2.042316	1.4290962
32.9009438216025	1.9897946	1.4106008
32.9192190811102	2.0076818	1.4169269
32.937495201758985	2.0967944	1.4480312
32.95577218413556	2.0960765	1.4477834
32.974050028826866	2.039595	1.4281439
32.992328736420035	2.0456252	1.4302535
33.010608307502444	2.0324109	1.4256265
33.02888874266169	2.0546014	1.4333881
33.047170042485604	1.967875	1.4028097
33.06545220756225	1.923836	1.3870242
33.083735238479896	1.9725102	1.4044608
33.10201913582707	1.945508	1.3948147
33.12030390019248	1.8846798	1.3728364
33.138589532165135	1.8487747	1.3596965
33.15687603233419	1.9710604	1.4039446
33.17516340128909	2.0300882	1.4248116
33.19345163961947	2.037588	1.427441
33.211740747915215	1.996096	1.4128326
33.23003072676643	1.953937	1.397833
33.248321576763466	1.9639308	1.4014032
33.266613298496885	1.9162141	1.3842739
33.28490589255747	1.9470729	1.3953755
33.30319935953626	1.9652367	1.4018689
33.32149370002451	2.0185688	1.4207635
33.339788914613706	1.9718066	1.4042103
33.358085003895575	1.9107232	1.3822892
33.376381968462034	1.9388467	1.3924247
33.39467980890529	1.9792784	1.4068683
33.41297852581774	1.9058471	1.3805242
33.43127811979204	1.8650086	1.3656532
33.44957859142105	1.8681997	1.366821
33.467879941297866	1.8542862	1.3617218
33.486182170015844	1.8485227	1.3596039
33.50448527816853	1.8971378	1.3773662
33.522789266349754	1.9196246	1.3855052
33.541094135153514	1.9264185	1.3879548
33.55939988517411	1.9574627	1.3990935
33.57770651700602	1.9739196	1.4049625
33.59601403124398	1.9193933	1.3854218
33.61432242848296	1.9636114	1.4012892
33.632631709318154	2.0441115	1.4297242
33.650941874344994	1.99517	1.4125049
33.66925292415916	1.9928224	1.4116737
33.68756485935654	2.0096498	1.4176211
33.70587768053328	2.028317	1.4241899
33.724191388285746	2.016892	1.4201732
33.74250598321054	1.9818873	1.4077952
33.760821465904506	1.961266	1.4004521
33.77913783696474	1.985395	1.4090405
33.79745509698852	1.9849854	1.4088951
33.815773246573414	1.9426645	1.393795
33.8340922863172	1.9460032	1.3949922
33.852412216817896	1.9867169	1.4095094
33.87073303867377	2.0240107	1.4226773
33.889054752483304	1.9600036	1.4000013
33.907377358845245	1.9355875	1.391254
33.92570085835853	2.022471	1.4221361
33.94402525162239	2.0188508	1.4208627
33.96235053923627	1.9535673	1.3977007
33.980676721799824	2.0011928	1.4146352
33.999003799912984	2.1282914	1.4588665
34.01733177417592	2.2146022	1.4881539
34.03566064518901	2.1154609	1.4544624
34.0539904135529	2.0370119	1.4272393
34.07232107986846	2.1328185	1.4604173
34.090652644736785	2.1154141	1.4544463
34.108985108759235	2.1060019	1.451207
34.12731847253742	1.9804963	1.4073011
34.14565273667313	2.0170424	1.4202262
34.16398790176847	2.141159	1.46327
34.18232396842574	2.169477	1.4729145
34.20066093724749	2.0913644	1.4461551
34.21899880883651	1.9858747	1.4092107
34.23733758379583	2.0214388	1.4217731
34.25567726272874	2.0011141	1.4146074
34.27401784623872	1.8861766	1.3733815
34.29235933492957	1.8440906	1.357973
34.31070172940526	1.919535	1.3854729
34.32904503027003	1.9507014	1.3966751
34.347389238128386	1.8463993	1.3588228
34.36573435358502	1.9939691	1.4120797
34.38408037724492	2.0862436	1.4443835
34.402427309713296	2.1158168	1.4545847
34.42077515159559	2.0206578	1.4214984
34.43912390349752	2.0150075	1.4195096
34.45747356602499	2.065389	1.4371461
34.47582413978423	2.1268506	1.4583726
34.49417562538163	2.1001556	1.4491913
34.51252802342388	1.9320093	1.3899674
34.53088133451789	1.8667312	1.3662837
34.54923555927084	1.8167732	1.3478773
34.567590698290104	1.8172526	1.3480551
34.58594675218336	1.818094	1.3483672
34.6043037215585	1.7609524	1.3270088
34.62266160702365	1.7805147	1.3343593
34.641020409187234	1.7932891	1.3391374
34.65938012865785	1.8401655	1.356527
34.677740766044394	1.9265441	1.388
34.69610232195598	1.8990425	1.3780575
34.714464797002016	1.9229027	1.3866876
34.73282819179208	2.004819	1.4159163
34.751192506936064	2.0501416	1.4318316
34.76955774304408	2.067781	1.437978
34.7879239007265	2.0150363	1.4195198
34.80629098059391	1.9492116	1.3961416
34.824658983257194	2.0555356	1.4337139
34.843027909327446	2.086199	1.444368
34.86139775941603	2.06752	1.4378873
34.879768534134534	2.0024688	1.4150862
34.89814023409483	2.1668594	1.4720256
34.91651285990901	2.3267877	1.5253812
34.93488641218944	2.2862039	1.5120198
34.95326089154871	2.0656953	1.4372526
34.97163629859967	1.9427991	1.3938433
34.99001263395542	1.8812511	1.371587
35.00838989822934	1.8558236	1.3622862
35.02676809203499	1.7737303	1.3318146
35.04514721598624	1.793888	1.3393611
35.063527270697215	2.002803	1.4152043
35.081908256782256	2.0298986	1.4247451
35.10029017485597	2.036419	1.4270315
35.11867302553321	2.079015	1.441879
35.137056809429104	2.0294793	1.424598
35.155441527159006	1.9895896	1.4105281
35.173827179338524	2.0412486	1.4287227
35.19221376658354	2.0767605	1.441097
35.21060128951017	1.980943	1.4074597
35.2289897487348	1.9373131	1.391874
35.24737914487405	2.0044334	1.4157802
35.26576947854479	2.0952854	1.4475101
35.28416075036418	1.9808083	1.4074119
35.30255296094958	2.069557	1.4385955
35.32094611091867	2.1266532	1.4583049
35.33934020088932	1.943192	1.3939842
35.35773523147969	1.5906754	1.2612197
35.3761312033082	1.5785382	1.2563989
35.394528116993506	1.8481898	1.3594815
35.41292597315452	2.1725597	1.4739605
35.431324772410434	2.3163352	1.5219511
35.449724515380666	2.4487903	1.564861
35.46812520268491	2.5124147	1.5850599
35.486526834943106	2.3437989	1.5309471
35.504929412775454	2.1638153	1.4709913
35.52333293680242	1.9782242	1.4064935
35.54173740764471	1.8329257	1.3538558
35.560142825923286	2.103326	1.4502848
35.5785491922594	1.6639404	1.2899381
35.59695650727454	1.2475129	1.1169212
35.61536477159042	1.7820303	1.3349271
