0.008763373481513119	0.0	0.0
0.026290120649546365	0.0	0.0
0.043816868432600686	0.0	0.0
0.06134361724069026	0.07129023	0.2670023
0.07887036748382949	0.11087866	0.33298448
0.0963971195720331	0.13573766	0.3684259
0.11392387391531617	0.13380729	0.36579677
0.1314506309236943	0.17833641	0.42229897
0.1489773910071836	0.19417691	0.44065508
0.16650415457580078	0.22450499	0.47381958
0.18403092203956356	0.1462222	0.3823901
0.20155769380849	0.11704156	0.34211338
0.2190844702925996	0.097931	0.3129393
0.2366112519019124	0.079899296	0.28266463
0.2541380390464497	0.12264499	0.35020706
0.27166483213623416	0.11413645	0.33784086
0.28919163158128947	0.16063236	0.40078968
0.3067184377916406	0.17158142	0.41422388
0.324245251177314	0.19485451	0.44142327
0.34177207214833777	0.22983941	0.4794157
0.3592989011147415	0.1939517	0.44039947
0.37682573848655654	0.16009189	0.40011483
0.39435258467381573	0.17105718	0.41359058
0.41187944008655414	0.15550227	0.39433777
0.42940630513480854	0.14547807	0.38141587
0.446933180228618	0.15710478	0.39636445
0.4644600657780234	0.118194066	0.34379363
0.48198696219306775	0.14919993	0.3862641
0.49951386988379676	0.16623609	0.4077206
0.5170407892602581	0.16011108	0.40013883
0.5345677207325025	0.12416454	0.35236987
0.5520946647105822	0.11797004	0.34346768
0.5696216216045534	0.1242575	0.35250178
0.5871485918244737	0.13173367	0.36295134
0.6046755757804043	0.11917545	0.34521797
0.6222025738824094	0.10451608	0.32328948
0.6397295865405557	0.1530862	0.39126232
0.6572566141649129	0.15680483	0.3959859
0.6747836571655547	0.20203127	0.4494789
0.6923107159525568	0.18492761	0.4300321
0.7098377909359992	0.1609585	0.40119633
0.7273648825259653	0.14012104	0.37432745
0.7448919911325411	0.1843338	0.42934114
0.762419117165817	0.2093593	0.45755798
0.7799462610358868	0.22106282	0.47017318
0.7974734231528482	0.16727245	0.40898955
0.8150006039268024	0.15277164	0.3908601
0.8325278037678551	0.16746233	0.40922162
0.8500550230861152	0.17121115	0.4137767
0.8675822622916969	0.19320863	0.43955505
0.8851095217947171	0.1897518	0.4356051
0.9026368020052984	0.16566367	0.40701804
0.9201641033335665	0.18007576	0.42435336
0.9376914261896523	0.22394064	0.47322366
0.9552187709836915	0.24371417	0.49367416
0.9727461381258234	0.2603408	0.510236
0.990273528026193	0.24878092	0.49877945
1.0078009410949496	0.22741206	0.4768774
1.0253283777422473	0.26451877	0.5143139
1.0428558383782454	0.25885034	0.5087734
1.0603833234131086	0.28469723	0.5335703
1.0779108332570058	0.33878243	0.5820502
1.0954383683201119	0.33174255	0.57597095
1.112965929012607	0.38101578	0.61726475
1.1304935157446763	0.5335228	0.73042643
1.1480211289265108	0.5908285	0.7686537
1.1655487689683062	1.4611156	1.2087661
1.1830764362802655	1.7291107	1.3149565
1.200604131272596	2.1525087	1.467143
1.2181318543555117	2.5607579	1.6002368
1.235659605939232	2.5619266	1.6006019
1.253187386433982	3.9147975	1.9785848
1.270715196249994	6.1572614	2.4813828
1.2882430357975057	11.598197	3.4056125
1.3057709054867608	16.609455	4.07547
1.3232988057280106	22.244871	4.716447
1.3408267369315112	27.282373	5.2232533
1.358354699507526	30.901272	5.5588913
1.3758826938663256	35.08763	5.9234815
1.3934107204181858	36.934025	6.077337
1.410938779573391	36.91957	6.0761476
1.4284668717422309	37.1996	6.0991473
1.4459949973350033	36.907173	6.0751276
1.4635231567620117	37.008076	6.0834265
1.4810513504335687	36.643322	6.053373
1.4985795787599925	35.679817	5.9732585
1.5161078421516088	34.706707	5.8912396
1.5336361410187505	34.071106	5.837046
1.5511644757717598	34.157658	5.8444552
1.5686928468209842	35.010857	5.9169974
1.58622125457678	35.75725	5.979737
1.6037496994495108	37.044323	6.086405
1.621278181849548	36.958763	6.079372
1.6388067021872719	37.60722	6.1324725
1.6563352608730693	37.08521	6.0897627
1.673863858317336	36.549362	6.0456066
1.6913924949304753	35.72985	5.977445
1.7089211711228998	34.505436	5.8741326
1.7264498873050296	33.71755	5.806681
1.7439786438872935	32.925148	5.738044
1.7615074412801288	32.038757	5.660279
1.779036279893981	31.428377	5.606102
1.796565160139305	30.213745	5.496703
1.814094082426564	29.61005	5.4415116
1.8316230471662298	28.946861	5.3802285
1.849152054768784	28.08904	5.2999096
1.8666811056447168	27.519274	5.2458816
1.8842102002045273	26.523668	5.1501136
1.901739338858724	25.854328	5.0847154
1.9192685220178245	25.34128	5.0340123
1.9367977500923557	24.907263	4.990718
1.9543270234928547	24.623823	4.9622397
1.971856342629867	23.833395	4.8819456
1.9893857079139496	23.24854	4.821674
2.006915119755667	22.703634	4.764833
2.0244445785655945	22.290218	4.721252
2.0419740847543175	22.006792	4.6911397
2.0595036387324317	21.358486	4.6215243
2.0770332409105414	20.83237	4.564249
2.094562891699263	20.69807	4.5495133
2.1120925915092217	20.068293	4.479765
2.129622340751053	19.893137	4.460172
2.1471521398354043	187.87317	13.706683
2.1646819891729323	444.3128	21.07873
2.182211889174303	440.47772	20.98756
2.1997418402501974	452.961	21.28288
2.2172718428113023	433.02057	20.809147
2.234801897268317	320.83313	17.911816
2.2523320040319548	17.199759	4.147259
2.269862163512935	16.678823	4.0839715
2.287392376121992	16.441193	4.0547743
2.304922642269869	16.140461	4.0175195
2.322452962367322	15.982659	3.9978318
2.3399833368251164	15.884852	3.9855804
2.357513766054032	15.438724	3.929214
2.3750442504648586	15.026558	3.8764105
2.3925747904683963	14.653869	3.8280373
2.410105386475459	14.451956	3.8015728
2.4276360388968707	14.2219715	3.771203
2.445166748143469	14.015798	3.7437677
2.4626975146261025	13.615405	3.689906
2.4802283387556323	13.489001	3.6727376
2.4977592209429305	13.38599	3.6586869
2.5152901615988825	13.126205	3.6230106
2.5328211611343865	12.979278	3.6026764
2.5503522199603523	12.7057705	3.5645154
2.5678833384877024	12.690764	3.5624099
2.5854145171273712	12.495253	3.5348625
2.6029457562903064	12.229687	3.497097
2.620477056387469	11.837936	3.4406302
2.6380084178298326	11.451149	3.3839545
2.655539841028383	11.185018	3.344401
2.673071326394119	11.024728	3.3203506
2.6906028743380523	11.023816	3.3202133
2.708134485271211	11.020386	3.3196967
2.7256661596046325	10.830823	3.2910216
2.743197897749369	10.640011	3.261903
2.760729700116486	10.4429655	3.2315578
2.778261567117063	10.33401	3.2146556
2.795793499162193	10.186601	3.1916454
2.8133254966629817	10.002026	3.162598
2.830857560030551	9.821425	3.1339154
2.8483896896760337	9.746195	3.1218896
2.865921886010578	9.690413	3.112943
2.883454149445347	9.608339	3.0997322
2.9009864803915177	9.367933	3.060708
2.91851887926028	9.278319	3.0460334
2.9360513464628384	9.262554	3.0434444
2.953583882410413	9.290018	3.0479531
2.9711164875142373	9.227589	3.0376947
2.9886491621855606	9.020495	3.003414
3.0061819068356455	8.648081	2.940762
3.023714721875769	8.384047	2.8955219
3.041247607717225	8.202072	2.863926
3.0587805647713213	8.173398	2.8589156
3.0763135934493806	8.250811	2.8724225
3.0938466941627407	8.340566	2.8880038
3.1113798673227544	8.158613	2.8563287
3.1289131133407904	8.033567	2.8343549
3.1464464326282315	7.8289194	2.7980206
3.1639798255964786	7.6902003	2.773121
3.1815132926569443	7.6231427	2.761004
3.1990468342210603	7.472201	2.7335327
3.216580450700272	7.3992333	2.720153
3.2341141425060416	7.30792	2.7033165
3.251647910049847	7.2581134	2.6940887
3.2691817537431813	7.292363	2.7004375
3.286715673997555	7.2602563	2.6944864
3.3042496712244938	7.1167502	2.667724
3.32178374583554	7.0240917	2.6503003
3.339317898242251	6.866524	2.6204054
3.3568521288562034	6.870986	2.6212566
3.3743864380889876	6.9565353	2.6375244
3.3919208263522127	6.9279127	2.632093
3.4094552940575023	6.6741652	2.5834405
3.4269898416164972	6.554463	2.5601685
3.444524469440858	6.5040665	2.550307
3.4620591779422587	6.510432	2.5515547
3.479593967532391	6.5416164	2.5576584
3.4971288386229658	6.4989004	2.549294
3.5146637916257086	6.4181857	2.533414
3.5321988269523628	6.3566375	2.5212374
3.5497339450146903	6.2473283	2.4994657
3.5672691462244708	6.3188987	2.513742
3.5848044309934988	6.2719865	2.5043933
3.60233979973359	6.2674994	2.5034974
3.619875252856575	6.2271123	2.4954183
3.6374107907743034	6.2627344	2.5025456
3.6549464138986427	6.250695	2.500139
3.6724821226414788	6.3107905	2.5121286
3.690017917414714	6.3702583	2.523937
3.7075537986302702	6.379119	2.5256917
3.7250897667000857	6.409609	2.5317206
3.7426258220361235	6.5084105	2.5511587
3.7601619650503553	6.745514	2.5972128
3.777698196154779	7.20653	2.684498
3.7952345157614067	8.424442	2.902489
3.8127709242822716	9.391911	3.0646224
3.830307422129425	11.744776	3.4270651
3.847844009714936	30.299496	5.504498
3.8653806874508954	97.6232	9.8804455
3.882917455749409	96.84368	9.840919
3.900454315022606	96.8244	9.839939
3.917991265682631	41.431534	6.4367332
3.9355283081416506	11.0904875	3.3302383
3.9530654428118495	8.76592	2.9607296
3.970602670105433	7.425525	2.7249818
3.9881399904346244	6.581839	2.5655096
4.005677404211669	6.54816	2.5589373
4.023214911848827	6.5428095	2.5578916
4.0407525137583855	6.4418926	2.5380883
4.058290210352644	6.3172526	2.5134146
4.075828002043927	6.2397127	2.4979417
4.0933658892445814	6.2208285	2.494159
4.110903872366966	6.251971	2.500394
4.128441951823468	6.209945	2.4919763
4.145980128026488	6.139282	2.4777575
4.163518401388452	6.097634	2.4693387
4.181056772321807	6.099566	2.46973
4.1985952412390155	6.1478844	2.4794927
4.216133808552567	6.181946	2.486352
4.233672474674966	6.258283	2.501656
4.251211240018741	6.4722056	2.544053
4.268750104996445	6.7012386	2.588675
4.286289070020643	7.588379	2.7547011
4.303828135503928	9.182261	3.0302246
4.3213673018589125	29.48495	5.4300046
4.3389065694982305	90.61409	9.519143
4.356445938834537	165.82098	12.87715
4.3739854102805085	171.03131	13.077894
4.391524984248844	171.83813	13.108705
4.409064661152262	135.85359	11.655625
4.426604441403504	96.039635	9.799981
4.444144325415337	75.32312	8.678889
4.461684313600543	21.507711	4.637641
4.47922440637193	22.081837	4.6991315
4.496764604142329	20.406761	4.5173845
4.5143049073245916	18.476316	4.2984085
4.531845316331589	16.394575	4.0490217
4.5493858315762195	13.515635	3.6763616
4.566926453471405	11.325806	3.3653834
4.584467182430081	9.289927	3.047938
4.602008018865218	8.055714	2.838259
4.619548963189798	7.418347	2.7236643
4.637090015816834	6.9927454	2.6443799
4.654631177159353	6.7837024	2.6045542
4.672172447630417	6.4669404	2.5430179
4.689713827643102	6.246524	2.4993048
4.7072553176105085	5.9756866	2.4445217
4.724796917945764	5.762591	2.4005396
4.742338629062015	5.6813	2.3835478
4.759880451372434	5.694575	2.3863308
4.777422385290215	5.6640816	2.379933
4.794964431228581	5.6046443	2.367413
4.812506589600768	5.6213765	2.3709443
4.830048860820047	5.5860815	2.3634892
4.847591245299709	5.6648946	2.3801038
4.8651337434530655	5.7013717	2.3877544
4.882676355693457	5.6750097	2.382228
4.900219082434242	5.6842217	2.3841605
4.917761924088813	5.6174974	2.370126
4.935304881070575	5.613455	2.369273
4.952847953792969	5.541704	2.3540823
4.970391142669449	5.5052524	2.3463273
4.9879344481135055	5.4828568	2.34155
5.005477870538642	5.335676	2.3099082
5.023021410358394	5.2861314	2.2991588
5.040565067986324	5.2164564	2.2839563
5.05810884383601	5.296436	2.3013988
5.075652738321066	5.351857	2.3134081
5.09319675185512	5.3592	2.3149946
5.110740884851836	5.3191867	2.3063362
5.128285137724894	5.325476	2.3076994
5.145829510888007	5.3359566	2.309969
5.163374004754908	5.351084	2.313241
5.1809186197393595	5.334223	2.3095937
5.198463356255145	5.3127394	2.304938
5.216008214716077	5.3402495	2.310898
5.233553195535998	5.3128777	2.304968
5.251098299128764	5.313069	2.3050096
5.268643525908272	5.310542	2.3044612
5.286188876288432	5.347007	2.3123596
5.3037343506831895	5.3505726	2.3131304
5.32127994950651	5.2614684	2.2937891
5.3388256731723915	5.2059793	2.2816615
5.356371522094851	5.111969	2.2609663
5.373917496687938	5.0883427	2.2557354
5.391463597365729	5.124392	2.263712
5.40900982454232	5.2139854	2.2834153
5.426556178631843	5.1925435	2.2787154
5.444102660048449	5.2046785	2.2813764
5.4616492692063225	5.1707406	2.2739263
5.479196006519669	5.2081356	2.282134
5.496742872402727	5.134233	2.2658846
5.514289867269756	5.134515	2.2659469
5.531836991535049	5.080869	2.2540784
5.549384245612924	5.062605	2.2500234
5.566931629917724	5.033668	2.2435837
5.584479144863822	5.012034	2.2387571
5.6020267908656205	4.972468	2.2299032
5.619574568337545	5.031305	2.243057
5.637122477694054	5.0964146	2.257524
5.654670519349629	5.1741424	2.2746742
5.672218693718784	5.1813064	2.2762482
5.689767001216059	5.1472507	2.2687552
5.707315442256021	5.098014	2.257878
5.724864017253266	5.101635	2.2586799
5.7424127266224225	5.131377	2.2652543
5.75996157077814	5.1534505	2.2701213
5.777510550135105	5.142939	2.2678049
5.795059665108022	5.156592	2.270813
5.812608916111639	5.153952	2.2702317
5.830158303560715	5.3263817	2.3078954
5.847707827870055	5.2790985	2.2976289
5.86525748945448	5.366192	2.3165042
5.8828072887288485	5.50704	2.3467083
5.900357226108044	5.6032352	2.3671155
5.917907302006979	5.6299524	2.3727522
5.9354575168406	6.2797656	2.5059462
5.9530078710238765	6.937101	2.6338377
5.970558364971812	7.6055756	2.7578208
5.988108999099438	7.9128494	2.8129787
6.005659773821818	8.447621	2.9064791
6.023210689554039	8.145706	2.8540683
6.040761746711227	8.629856	2.9376616
6.058312945708531	7.9349594	2.816906
6.075864286961132	7.393688	2.7191336
6.093415770884244	6.6952167	2.5875118
6.1109673978931065	6.0364995	2.456929
6.128519168402993	5.429689	2.3301692
6.146071082829204	5.2807174	2.2979813
6.163623141587075	5.241972	2.2895353
6.181175345091969	5.2189975	2.2845125
6.198727693759281	5.1709914	2.2739813
6.216280188004435	5.1952977	2.2793195
6.233832828242885	5.2872005	2.2993913
6.251385614890126	5.329053	2.308474
6.268938548361669	5.275777	2.296906
6.286491629073067	5.1519403	2.2697885
6.304044857439898	5.0586076	2.2491348
6.321598233877777	5.0069995	2.2376325
6.339151758802344	5.0022697	2.2365754
6.356705432629277	4.977379	2.231004
6.37425925577428	4.937501	2.2220488
6.391813228653095	4.884257	2.2100356
6.409367351681486	4.9426003	2.223196
6.426921625275259	4.9797153	2.2315276
6.44447604985025	5.0059876	2.2374065
6.46203062582232	5.055751	2.2484996
6.47958535360737	5.035983	2.2440996
6.497140233621328	5.0286508	2.2424653
6.514695266280161	5.0463953	2.2464182
6.532250451999859	5.028832	2.2425058
6.549805791196454	5.0271935	2.2421403
6.567361284286002	4.989159	2.2336426
6.584916931684597	4.994606	2.2348616
6.602472733808367	5.02187	2.240953
6.6200286910734665	5.088282	2.255722
6.637584803896092	5.116652	2.2620018
6.655141072692462	5.065281	2.250618
6.672697497878842	5.009387	2.238166
6.690254079871514	5.010591	2.238435
6.707810819086808	5.0336657	2.2435832
6.725367715941078	5.0074315	2.237729
6.742924770850719	4.878702	2.2087784
6.760481984232151	4.8108907	2.1933742
6.778039356501836	4.7840533	2.187248
6.795596888076266	4.8709598	2.207025
6.813154579371963	4.9395323	2.2225058
6.830712430805492	5.0004706	2.2361732
6.84827044279344	4.918888	2.2178566
6.865828615752445	4.872577	2.2073915
6.883386950099159	4.819354	2.1953027
6.900945446250287	4.9027953	2.2142258
6.918504104622553	4.9632063	2.2278254
6.936062925632727	5.010202	2.238348
6.953621909697607	5.0120215	2.2387545
6.971181057234028	5.074975	2.2527704
6.988740368658859	5.0741024	2.2525768
7.006299844389007	5.18689	2.2774744
7.023859484841407	5.244349	2.2900543
7.041419290433036	5.325176	2.3076344
7.058979261580902	5.4412174	2.3326418
7.0765393987020495	5.5859723	2.3634663
7.094099702213559	5.97804	2.445003
7.111660172532549	6.330153	2.5159795
7.129220810076164	6.680195	2.5846074
7.146781615261595	7.212332	2.6855786
7.16434258850606	7.4710836	2.7333283
7.181903730226821	7.8578124	2.803179
7.1994650408411704	7.9884367	2.8263822
7.217026520766437	8.04886	2.8370512
7.234588170419983	8.350139	2.8896606
7.252149990219215	8.398758	2.898061
7.269711980581568	8.270252	2.8758047
7.2872741419245175	7.9763174	2.8242376
7.304836474665574	7.5937576	2.7556775
7.322398979222286	7.225958	2.6881142
7.339961656012233	7.052127	2.655584
7.357524505453039	6.762104	2.6004045
7.375087527962357	6.554627	2.5602005
7.392650723957886	6.334213	2.516786
7.410214093857353	5.8865705	2.4262257
7.427777638078528	5.629102	2.372573
7.445341357039213	5.406243	2.3251328
7.4629052511572525	5.3513517	2.313299
7.480469320850524	5.3405857	2.3109708
7.498033566536948	5.2767982	2.2971282
7.5155979886344735	5.1753983	2.2749503
7.5331625875610975	5.0840006	2.254773
7.550727363734844	5.0640683	2.2503486
7.568292317573788	5.104701	2.2593586
7.585857449496025	5.151375	2.269664
7.603422759919705	5.1221514	2.263217
7.620988249263007	5.1124787	2.261079
7.638553917944147	5.1230655	2.263419
7.656119766381391	5.194092	2.279055
7.673685794993023	5.201399	2.2806575
7.691252004197388	5.1826005	2.2765326
7.70881839441285	5.174105	2.2746658
7.726384966057826	5.265699	2.294711
7.743951719550762	5.2475657	2.2907567
7.761518655310149	5.230242	2.2869723
7.779085773754511	5.215076	2.283654
7.796653075302419	5.212226	2.28303
7.814220560372475	5.269728	2.295589
7.831788229383323	5.313282	2.3050559
7.8493560827536495	5.339554	2.3107474
7.866924120902174	5.37366	2.3181157
7.884492344247663	5.4020734	2.3242362
7.9020607532089135	5.392954	2.3222735
7.919629348204771	5.3190985	2.306317
7.937198129654115	5.351336	2.3132956
7.954767097975865	5.424062	2.3289616
7.972336253588986	5.452297	2.3350155
7.989905596912472	5.4258986	2.3293557
8.007475128365371	5.342954	2.3114831
8.025044848366756	5.356967	2.3145123
8.042614757335754	5.496569	2.3444762
8.060184855691523	5.52909	2.3514018
8.07775514385327	5.621556	2.370982
8.095325622240228	5.7055626	2.388632
8.112896291271687	5.780185	2.4042015
8.130467151366968	5.8320646	2.4149668
8.148038202945436	5.8690114	2.4226043
8.165609446426497	5.888	2.42652
8.183180882229594	5.937983	2.4367976
8.200752510774217	5.91283	2.431631
8.218324332479893	5.961088	2.441534
8.235896347766193	5.9256825	2.4342725
8.253468557052724	5.949822	2.4392257
8.27104096075914	5.950199	2.439303
8.288613559305137	5.93873	2.436951
8.306186353110448	5.995042	2.4484775
8.32375934259485	6.0499225	2.459659
8.341332528178162	6.1130676	2.472462
8.358905910280246	6.2189145	2.4937751
8.376479489321003	6.252832	2.5005662
8.394053265720377	6.4107084	2.5319376
8.411627239898356	6.3633933	2.5225768
8.42920141227497	6.3466463	2.5192552
8.44677578327029	6.315007	2.5129678
8.464350353304427	6.2051744	2.4910188
8.48192512279754	6.175851	2.485126
8.499500092169827	6.123204	2.474511
8.51707526184153	6.1255193	2.4749787
8.534650632232934	6.1205597	2.4739766
8.552226203764365	6.1021996	2.470263
8.569801976856192	6.08007	2.4657798
8.587377951928834	6.123942	2.47466
8.60495412940274	6.147207	2.479356
8.622530509698416	6.201554	2.4902918
8.6401070932364	6.3632536	2.522549
8.657683880437283	6.5099096	2.5514524
8.675260871721695	6.648177	2.5784059
8.692838067510303	6.7274213	2.5937274
8.710415468223834	6.8525586	2.6177392
8.727993074283043	7.03038	2.6514864
8.745570886108737	7.0812383	2.6610596
8.763148904121765	7.146744	2.6733394
8.78072712874302	7.1497183	2.6738956
8.798305560393441	7.3046217	2.7027063
8.815884199494006	7.4798203	2.734926
8.833463046465745	7.670677	2.7695987
8.851042101729728	7.7650156	2.7865777
8.86862136570707	7.9431686	2.8183627
8.886200838818924	8.060476	2.8390977
8.903780521486505	8.160984	2.8567436
8.921360414131055	8.248706	2.872056
8.938940517173874	8.413543	2.9006107
8.956520831036297	8.576409	2.9285507
8.97410135613971	8.830718	2.9716525
8.99168209290554	9.067263	3.0111895
9.009263041755265	9.39278	3.0647643
9.026844203110405	9.600911	3.0985336
9.044425577392525	9.900633	3.146527
9.062007165023239	10.066997	3.172853
9.079588966424197	10.412857	3.2268958
9.097170982017108	10.436122	3.2304988
9.11475321222372	11.43424	3.3814554
9.132335657465825	12.310154	3.5085828
9.149918318165264	12.424765	3.524878
9.167501194743924	13.030004	3.6097097
9.18508428762374	12.702828	3.5641026
9.202667597226693	12.768224	3.573265
9.220251123974803	12.493146	3.5345645
9.237834868290143	12.13127	3.4829974
9.255418830594836	11.807952	3.43627
9.273003011311046	11.283271	3.3590581
9.290587410860985	11.130397	3.336225
9.308172029666911	10.435651	3.2304258
9.32575686815113	10.066628	3.172795
9.343341926735997	8.712004	2.9516103
9.360927205843916	8.516274	2.9182656
9.378512705897327	8.386679	2.8959763
9.396098427318728	8.21033	2.8653674
9.413684370530664	8.141599	2.8533487
9.431270535955722	7.985155	2.8258016
9.448856924016539	7.9214993	2.8145158
9.466443535135806	7.8327594	2.7987068
9.484030369736251	7.8570423	2.8030417
9.501617428240658	7.8308735	2.79837
9.519204711071852	7.7539463	2.784591
9.536792218652714	7.748416	2.7835977
9.55437995140617	7.7684126	2.787187
9.571967909755191	7.839863	2.7999754
9.589556094122802	7.9015293	2.810966
9.60714450493207	7.926595	2.8154209
9.624733142606116	7.8776784	2.8067203
9.642322007568108	7.9427786	2.8182936
9.659911100241267	7.965014	2.8222356
9.677500421048851	8.010121	2.8302157
9.695089970414175	8.032989	2.8342528
9.712679748760609	8.032892	2.8342357
9.730269756511557	8.066723	2.8401976
9.747859994090492	8.130959	2.8514836
9.765450461920915	8.153899	2.8555033
9.78304116042639	8.165895	2.857603
9.800632090030527	8.122179	2.8499436
9.81822325115699	8.2091055	2.8651536
9.835814644229481	8.238177	2.8702226
9.853406269671762	8.318889	2.8842483
9.870998127907646	8.299002	2.8807988
9.888590219360985	8.27374	2.876411
9.906182544455698	8.270952	2.8759263
9.923775103615734	8.221587	2.867331
9.941367897265108	8.244684	2.8713558
9.958960925827878	8.235778	2.8698044
9.97655418972816	8.270466	2.8758419
9.994147689390106	8.313957	2.8833933
10.011741425237934	8.291292	2.8794603
10.029335397695904	8.269133	2.8756099
10.04692960718833	8.199089	2.8634052
10.06452405413958	8.198877	2.8633683
10.082118738974064	8.204504	2.8643506
10.099713662116246	8.241003	2.8707147
10.117308823990651	8.250961	2.8724487
10.134904225021844	8.239757	2.8704977
10.152499865634445	8.272056	2.8761182
10.170095746253125	8.277737	2.8771057
10.18769186730261	8.231454	2.869051
10.205288229207675	8.132256	2.851711
10.222884832393145	8.0393305	2.8353713
10.2404816772839	8.0538845	2.8379366
10.258078764304868	8.077149	2.8420327
10.275676093881035	8.087659	2.843881
10.293273666437438	8.119889	2.849542
10.310871482399158	8.117409	2.8491066
10.32846954219134	8.059805	2.8389795
10.346067846239173	8.018744	2.8317387
10.363666394967908	7.9676685	2.822706
10.38126518880283	8.051656	2.837544
10.398864228169298	8.12193	2.8499
10.416463513492713	8.081281	2.8427594
10.434063045198531	7.947959	2.8192124
10.451662823712262	7.940354	2.8178635
10.469262849459467	8.032203	2.834114
10.486863122865758	8.051539	2.8375235
10.504463644356806	8.020797	2.832101
10.522064414358338	7.901823	2.8110182
10.539665433296118	7.8530803	2.8023348
10.557266701595987	7.7619996	2.7860365
10.574868219683818	7.763599	2.7863235
10.592469987985552	7.7077975	2.776292
10.610072006927185	7.674611	2.7703087
10.627674276934751	7.565458	2.7505376
10.64527679843435	7.431825	2.7261374
10.662879571852143	7.2923856	2.7004418
10.680482597614331	7.179675	2.6794915
10.698085876147173	7.0983152	2.6642663
10.715689407876988	7.016344	2.6488383
10.733293193230146	6.913854	2.6294208
10.750897232633072	6.7571588	2.5994534
10.76850152651225	6.588471	2.5668018
10.786106075294207	6.495229	2.548574
10.803710879405534	6.4750743	2.5446167
10.821315939272877	6.432171	2.5361724
10.83892125532294	6.3714595	2.524175
10.856526827982472	6.2959986	2.509183
10.874132657678285	6.203527	2.490688
10.891738744837243	6.196572	2.4892914
10.909345089886271	6.143565	2.4786217
10.926951693252343	6.082429	2.466258
10.944558555362494	5.9523506	2.439744
10.96216567664381	5.882543	2.4253955
10.979773057523436	5.8433895	2.4173105
10.997380698428573	5.850819	2.4188466
11.014988599786477	5.8543186	2.41957
11.032596762024461	5.780972	2.4043653
11.050205185569892	5.6912456	2.3856332
11.067813870850198	5.6342735	2.3736625
11.085422818292859	5.550279	2.3559031
11.10303202832541	5.5005865	2.3453329
11.120641501375454	5.405106	2.3248885
11.138251237870636	5.326018	2.3078167
11.155861238238671	5.2997565	2.30212
11.173471502907317	5.238798	2.2888422
11.191082032304402	5.190229	2.2782073
11.208692826857805	5.0758963	2.252975
11.226303886995465	4.9447284	2.2236745
11.243915213145371	4.920316	2.2181785
11.261526805735578	4.8982973	2.2132096
11.279138665194196	4.8853273	2.2102776
11.296750791949393	4.8449345	2.201121
11.314363186429393	4.7332425	2.1756017
11.331975849062479	4.6690073	2.1607885
11.34958878027699	4.6066875	2.1463196
11.36720198050133	4.558776	2.135129
11.384815450163948	4.4886017	2.118632
11.402429189693366	4.4136934	2.1008792
11.420043199518153	4.411372	2.1003268
11.437657480066942	63.40387	7.9626546
11.455272031768422	85.18106	9.229359
11.472886855051353	107.55626	10.370934
11.490501950344528	99.1394	9.956877
11.508117318076819	84.44949	9.189641
11.52573295867715	45.865795	6.772429
11.543348872574514	4.1818027	2.0449457
11.560965060197946	4.123012	2.0305202
11.57858152197655	4.0998464	2.0248077
11.59619825833949	4.023446	2.005853
11.613815269715985	3.9973357	1.9993339
11.631432556535323	38.47568	6.202877
11.649050119226837	83.00949	9.110954
11.666667958219929	93.4158	9.665185
11.68428607394406	107.69706	10.377719
11.701904466828756	82.52801	9.084493
11.719523137303586	65.36078	8.084601
11.737142085798196	4.571949	2.1382117
11.754761312742286	3.680144	1.9183701
11.772380818565619	3.6443696	1.9090232
11.790000603698015	3.6483912	1.9100763
11.80762066856935	3.6158662	1.9015431
11.825241013609572	3.5792215	1.891883
11.842861639248683	3.5403204	1.8815739
11.860482545916748	3.517994	1.8756316
11.878103734043883	3.490089	1.868178
11.895725204060282	3.401681	1.8443646
11.91334695639619	3.329377	1.824658
11.930968991481919	3.3216913	1.8225508
11.948591309747824	3.360588	1.8331907
11.966213911624347	3.3644936	1.8342556
11.98383679754198	3.3499856	1.8302966
12.001459967931268	3.3291943	1.824608
12.019083423222835	3.2907677	1.8140473
12.036707163847352	3.2464774	1.8017983
12.05433119023556	3.2288163	1.7968907
12.071955502818259	3.2188118	1.7941047
12.089580102026313	3.2028947	1.7896633
12.107204988290643	3.1613674	1.7780235
12.12483016204224	3.1287162	1.7688178
12.142455623712152	3.0960686	1.7595649
12.16008137373149	3.0681567	1.7516154
12.177707412531431	3.025522	1.7394028
12.19533374054321	3.0013697	1.7324462
12.212960358198126	3.0093434	1.7347459
12.230587265927545	3.0219166	1.7383661
12.248214464162889	3.0408897	1.7438147
12.265841953335649	3.0122037	1.7355702
12.283469733877375	2.9763057	1.7251973
12.301097806219685	2.9600186	1.7204704
12.31872617079425	2.9601495	1.7205085
12.336354828032825	2.9686954	1.7229903
12.353983778367205	2.9501824	1.7176095
12.371613022229262	2.931569	1.7121825
12.389242560050928	2.8934672	1.7010194
12.406872392264201	2.889977	1.6999933
12.424502519301143	2.878347	1.6965692
12.442132941593874	2.8737395	1.6952107
12.459763659574586	2.8821604	1.6976926
12.477394673675532	2.85766	1.6904615
12.49502598432903	2.83326	1.6832291
12.51265759196746	2.8298376	1.6822121
12.530289497023267	2.805386	1.6749287
12.547921699928967	2.7658055	1.6630712
12.565554201117134	2.7400615	1.6553131
12.583187001020404	2.714719	1.6476405
12.600820100071486	2.7248554	1.6507136
12.618453498703152	2.7369533	1.654374
12.636087197348235	2.7513895	1.6587313
12.65372119643964	2.76428	1.6626124
12.671355496410326	2.7618995	1.6618963
12.68899009769333	2.790959	1.6706163
12.706625000721749	2.8043118	1.674608
12.724260205928752	2.8541834	1.6894329
12.741895713747551	2.8904436	1.7001305
12.759531524611454	2.9406517	1.7148328
12.777167638953818	2.9143739	1.7071537
12.794804057208072	2.8680186	1.6935226
12.812440779807702	2.892483	1.7007301
12.830077807186271	3.128426	1.7687358
12.847715139777405	3.2482052	1.8022778
12.865352778014795	3.5126195	1.8741983
12.882990722332197	3.6010892	1.8976536
12.90062897316344	3.681257	1.9186602
12.918267530942412	3.744405	1.9350466
12.935906396103071	3.6500514	1.9105108
12.953545569079449	3.8057997	1.950846
12.971185050305628	3.6063755	1.899046
12.988824840215775	3.5552127	1.8855271
13.006464939244115	3.528119	1.8783288
13.024105347824943	3.3881266	1.8406864
13.041746066392617	3.478558	1.8650893
13.05938709538157	3.3072295	1.818579
13.077028435226296	3.3541942	1.8314459
13.094670086361363	3.2628534	1.806337
13.112312049221401	3.1336403	1.7702091
13.129954324241112	3.0606167	1.7494619
13.147596911855258	2.88148	1.6974922
13.165239812498685	2.8746586	1.6954818
13.182883026606293	2.7856176	1.669017
13.200526554613058	2.7349875	1.6537797
13.218170396954017	2.6888733	1.6397784
13.235814554064284	2.6310456	1.6220498
13.253459026379034	2.629685	1.6216303
13.271103814333523	2.6326993	1.6225594
13.288748918363058	2.6814964	1.6375275
13.306394338903031	2.6665902	1.6329697
13.32404007638889	2.6645248	1.6323372
13.341686131256164	2.6530588	1.6288213
13.359332503940449	2.6436327	1.6259252
13.376979194877402	2.665224	1.6325514
13.394626204502751	2.7330616	1.6531974
13.412273533252307	2.7875798	1.6696047
13.429921181561937	2.8170087	1.6783947
13.447569149867581	2.7627354	1.6621478
13.465217438605247	2.7147849	1.6476604
13.482866048211022	2.6952648	1.6417261
13.500514979121052	2.696077	1.6419735
13.518164231771568	2.6621084	1.6315969
13.535813806598844	2.6576972	1.6302445
13.553463704039254	2.634562	1.6231334
13.571113924529229	2.6477783	1.6271995
13.588764468505275	2.6404626	1.62495
13.606415336403956	2.6738598	1.6351942
13.624066528661917	2.6965356	1.6421131
13.641718045715882	2.773387	1.6653489
13.659369888002635	2.7852538	1.668908
13.67702205595903	2.8359575	1.6840302
13.694674550021993	2.8984168	1.7024738
13.712327370628532	2.9820201	1.7268527
13.729980518215713	3.0570598	1.7484449
13.747633993220681	3.0995631	1.7605577
13.765287796080647	3.158962	1.7773468
13.7829419272329	3.2784197	1.8106407
13.800596387114801	3.3141518	1.8204812
13.818251176163775	3.3392377	1.8273581
13.835906294817324	3.3926268	1.8419085
13.853561743513023	3.417834	1.8487386
13.871217522688525	3.4521632	1.8579998
13.888873632781538	3.4503143	1.8575021
13.906530074229858	3.489998	1.8681537
13.92418684747135	3.4947953	1.8694372
13.941843952943948	3.483741	1.8664782
13.959501391085665	3.4748878	1.8641051
13.977159162334578	3.4205027	1.8494601
13.994817267128846	3.3732688	1.8366461
14.012475705906693	3.2480679	1.8022397
14.030134479106424	3.1345692	1.7704715
14.047793587166414	3.0663369	1.7510959
14.065453030525108	3.0368762	1.7426635
14.083112809621026	2.9597468	1.7203915
14.100772924892766	2.8942344	1.701245
14.118433376778997	2.8467731	1.6872383
14.136094165718458	2.7768972	1.6664025
14.153755292149969	2.7495334	1.6581717
14.171416756512416	2.696227	1.6420192
14.189078559244768	2.629629	1.621613
14.20674070078606	2.5858753	1.6080657
14.224403181575408	2.5123367	1.5850352
14.242066002051999	2.5046022	1.5825936
14.259729162655093	2.4613523	1.5688697
14.277392663824022	2.4496353	1.5651311
14.295056505998208	2.4380949	1.56144
14.312720689617128	2.4164047	1.5544789
14.330385215120348	2.4028137	1.5501012
14.348050082947497	2.3838096	1.543959
14.3657152935383	2.3687549	1.539076
14.383380847332528	2.3637185	1.537439
14.401046744770051	2.3361673	1.5284526
14.418712986290798	2.3298874	1.5263969
14.436379572334793	2.3257082	1.5250273
14.454046503342123	2.3398678	1.5296626
14.471713779752946	2.3503423	1.5330826
14.489381402007504	2.3510787	1.5333228
14.507049370546113	2.3907194	1.5461951
14.524717685809168	2.4340348	1.5601394
14.542386348237134	2.4298575	1.5588
14.560055358270553	2.3573167	1.5353556
14.577724716350051	2.3606777	1.5364497
14.595394422916325	2.3626666	1.5370969
14.61306447841015	2.3790412	1.5424141
14.63073488327237	2.382279	1.5434632
14.648405637943917	2.4718337	1.5722066
14.6660767428658	2.4921253	1.5786467
14.683748198479094	2.560734	1.6002294
14.701420005224954	2.571694	1.6036502
14.719092163544628	2.6580083	1.63034
14.73676467387942	2.678246	1.6365348
14.754437536670727	2.6920514	1.6407472
14.772110752360014	2.6864297	1.6390332
14.78978432138882	2.6303554	1.621837
14.807458244198777	2.6466515	1.6268532
14.82513252123159	2.6228504	1.6195216
14.842807152929028	2.6720927	1.6346537
14.860482139732962	2.6227498	1.6194906
14.87815748208531	2.6308103	1.6219772
14.8958331804281	2.6383553	1.6243014
14.91350923520342	2.6318898	1.62231
14.931185646853438	2.6843522	1.6383992
14.948862415820408	2.6528733	1.6287644
14.966539542546656	2.6561868	1.6297812
14.98421702747459	2.6017125	1.6129825
15.001894871046696	2.621904	1.6192294
15.019573073705542	2.631598	1.62222
15.037251635893766	2.625317	1.620283
15.054930558054092	2.6565537	1.6298938
15.072609840629323	2.7181947	1.6486949
15.090289484062351	2.869307	1.6939029
15.107969488796124	3.1550376	1.7762426
15.125649855273691	3.5448546	1.8827784
15.14333058393817	3.9740157	1.9934933
15.161011675232768	4.932708	2.22097
15.17869312960076	6.3055377	2.511083
15.196374947485506	8.213614	2.8659403
15.214057129330447	11.219943	3.3496184
15.231739675579114	15.859451	3.9823925
15.249422586675102	20.979027	4.580287
15.267105863062092	24.319502	4.931481
15.284789505183847	24.861012	4.9860816
15.302473513484218	22.923887	4.7878895
15.320157888407127	19.331713	4.3967843
15.337842630396578	14.989449	3.871621
15.355527739896656	11.616585	3.4083111
15.37321321735153	8.981404	2.9968991
15.39089906320545	6.514829	2.5524163
15.408585277902748	4.8320255	2.1981869
15.42627186188783	3.672397	1.9163499
15.443958815605198	3.1258984	1.768021
15.461646139499424	2.8379326	1.6846164
15.479333834015168	2.729291	1.6520566
15.497021899597165	2.6974585	1.6423942
15.514710336690234	2.6448338	1.6262945
15.53239914573928	2.571716	1.6036571
15.550088327189297	2.5233414	1.5885029
15.567777881485336	2.5195668	1.5873144
15.58546780907256	2.5141706	1.5856136
15.6031581103962	2.503912	1.5823754
15.620848785901568	2.4607086	1.5686646
15.638539836034063	2.4365087	1.560932
15.656231261239173	2.4353266	1.5605533
15.673923061962451	2.4375505	1.5612657
15.691615238649552	2.4585752	1.5679845
15.709307791746202	2.409179	1.552153
15.727000721698221	2.3932178	1.5470028
15.744694028951498	2.351893	1.5335883
15.76238771395202	2.371813	1.5400692
15.780081777145844	2.360613	1.5364287
15.797776218979125	2.356624	1.5351299
15.815471039898094	2.344549	1.531192
15.833166240349064	2.391622	1.546487
15.850861820778437	2.3981323	1.5485904
15.868557781632699	2.3751538	1.5411534
15.886254123358412	2.3551078	1.534636
15.903950846402232	2.366494	1.5383413
15.921647951210897	2.3548803	1.534562
15.939345438231225	2.352914	1.5339211
15.957043307910133	2.3371816	1.5287844
15.974741560694602	2.3542042	1.5343416
15.992440197031714	2.351863	1.5335785
16.01013921736862	2.3428276	1.5306298
16.02783862215259	2.3425856	1.5305507
16.045538411830933	2.3449595	1.531326
16.06323858685107	2.3792982	1.5424974
16.080939147660512	2.388919	1.5456128
16.09864009470684	2.4167695	1.5545963
16.11634142843774	2.3977025	1.5484517
16.134043149300954	2.3692482	1.5392362
16.15174525774433	2.3670244	1.5385137
16.169447754215817	2.4034972	1.5503217
16.18715063916342	2.420641	1.555841
16.204853913035244	2.4426537	1.5628991
16.222557576279478	2.4725223	1.5724256
16.240261629344403	22.437567	4.7368307
16.257966072678386	42.95781	6.5542207
16.275670906729868	38.02101	6.166118
16.293376131947387	2.46277	1.5693215
16.31108174877957	2.510163	1.5843494
16.328787757675133	2.5535502	1.5979831
16.34649415908287	2.5837278	1.6073978
16.364200953451657	2.617383	1.6178328
16.38190814123048	2.6424518	1.625562
16.39961572286839	2.6367736	1.6238145
16.41732369881455	2.6486738	1.6274747
16.43503206951817	2.6593196	1.6307421
16.45274083542859	2.684582	1.6384695
16.47044999699522	2.7348857	1.653749
16.488159554667558	2.8126512	1.677096
16.505869508895184	2.8486214	1.687786
16.523579860127786	2.8664534	1.6930604
16.541290608815117	2.9033048	1.7039087
16.559001755407035	2.9576712	1.7197881
16.57671330035348	3.057629	1.7486078
16.59442524410448	3.1293652	1.7690012
16.61213758711015	3.1751409	1.7818925
16.629850329820705	3.1951654	1.7875025
16.647563472686436	3.2841833	1.8122315
16.665277016157724	3.4049962	1.8452631
16.682990960685053	3.4713867	1.8631657
16.70070530671898	3.5307593	1.8790315
16.718420054710155	3.5246668	1.8774096
16.736135205109335	3.5299199	1.8788081
16.753850758367335	3.5758696	1.8909969
16.771566714935087	3.626559	1.9043527
16.789283075263597	3.6642287	1.9142175
16.80699983980398	3.708023	1.9256228
16.82471700900741	3.7943375	1.9479059
16.84243458332518	3.872775	1.9679368
16.860152563208665	3.9516807	1.9878834
16.87787094910932	4.0256824	2.0064104
16.89558974147871	4.0920424	2.0228798
16.913308940768466	4.208582	2.051483
16.931028547430333	4.2851133	2.0700514
16.94874856191613	4.3294744	2.080739
16.966468984677785	4.3402185	2.0833192
16.98418981616729	4.365904	2.0894744
17.00191105683676	4.440758	2.1073108
17.019632707138374	4.464775	2.1130013
17.03735476752442	4.499744	2.12126
17.05507723844728	4.5566497	2.1346312
17.072800120359403	4.5649853	2.1365826
17.090523413713353	4.5705504	2.1378846
17.108247118961785	4.603723	2.145629
17.125971236557437	4.6953263	2.16687
17.143695766953133	4.7427006	2.1777742
17.161420710601806	4.717054	2.1718779
17.179146067956477	4.6822453	2.1638496
17.19687183947025	4.6549993	2.1575446
17.21459802559634	4.6632204	2.159449
17.232324626788028	4.668715	2.160721
17.25005164349871	4.6517277	2.1567864
17.267779076181863	4.6651154	2.1598878
17.285506925291074	4.616801	2.1486742
17.30323519127999	4.596472	2.1439383
17.320963874602384	4.5576224	2.1348588
17.33869297571211	4.534932	2.129538
17.356422495063114	4.5280013	2.1279101
17.37415243310944	4.493321	2.1197455
17.391882790305218	4.4778447	2.116092
17.40961356710468	4.4712195	2.1145258
17.42734476396215	4.4695573	2.1141326
17.445076381332044	4.457454	2.1112683
17.462808419668868	4.4848547	2.1177475
17.48054087942723	4.6440635	2.155009
17.498273761061835	4.951791	2.225262
17.51600706502747	5.4240093	2.3289502
17.533740791779024	6.1105886	2.4719605
17.551474941771485	7.514343	2.7412302
17.56920951545993	8.568204	2.9271495
17.586944513299528	10.8322935	3.291245
17.60467993574556	12.583028	3.5472565
17.622415783253373	14.648042	3.827276
17.64015205627843	16.2191	4.0272946
17.657888755276293	17.364079	4.1670227
17.675625880702604	17.88308	4.228839
17.69336343301311	17.679003	4.2046404
17.71110141266366	16.8539	4.1053505
17.728839820110178	15.79257	3.9739866
17.746578655808705	14.669854	3.8301246
17.764317920215372	13.047239	3.6120963
17.7820576137864	11.397668	3.3760433
17.79979773697811	9.330317	3.0545566
17.81753829024692	7.3641853	2.7137032
17.835279274049356	5.7390466	2.3956308
17.85302068884201	4.751445	2.179781
17.870762535081607	4.1470327	2.0364265
17.888504813224934	3.846796	1.961325
17.90624752372891	3.685151	1.9196748
17.923990667050536	3.587184	1.8939862
17.941734243646895	3.5012538	1.8711637
17.959478253975185	3.4743574	1.8639628
17.9772226984927	3.3934743	1.8421385
17.994967577656833	3.3573503	1.8323073
18.01271289192506	3.34181	1.8280618
18.030458641754965	3.3564985	1.8320749
18.04820482760425	3.3277974	1.8242252
18.06595144993067	3.284843	1.8124136
18.083698509192125	3.2237651	1.7954847
18.101446005846576	3.1758082	1.7820797
18.119193940352105	3.1491473	1.7745837
18.136942313166887	3.135174	1.7706423
18.1546911247492	3.1537967	1.7758932
18.1724403755574	3.1803381	1.7833502
18.19019006604997	3.2229514	1.795258
18.207940196685467	3.2115362	1.792076
18.225690767922575	3.1744375	1.7816951
18.243441780220046	3.077703	1.7543384
18.261193234036764	3.0261865	1.7395937
18.278945129831676	3.0184085	1.7373568
18.29669746806386	3.047359	1.7456686
18.314450249192483	3.0142016	1.7361456
18.3322034736768	3.0282454	1.7401855
18.349957141976184	3.0064616	1.7339151
18.3677112545501	3.0258152	1.739487
18.385465811858108	3.0232847	1.7387595
18.403220814359884	3.0376608	1.7428887
18.420976262515172	3.0795176	1.7548554
18.43873215678387	3.1056883	1.7622963
18.456488497625923	3.1120927	1.7641125
18.474245285501407	3.1729164	1.7812682
18.492002520870486	3.242429	1.8006746
18.50976020419343	3.3210762	1.822382
18.527518335930615	3.618801	1.9023147
18.545276916542516	4.174746	2.0432196
18.563035946489688	4.353844	2.0865867
18.580795426232832	4.805245	2.192087
18.598555356232698	4.6682463	2.1606126
18.616315736950185	4.947627	2.2243261
18.63407656884626	4.6168356	2.1486824
18.65183785238201	4.7876215	2.1880634
18.669599588018617	4.577566	2.1395247
18.68736177621737	4.52191	2.1264784
18.705124417439652	4.5213337	2.1263428
18.72288751214696	4.381354	2.0931683
18.740651060800886	4.581109	2.1403525
18.758415063863115	4.320985	2.078698
18.77617952179546	4.4105535	2.1001318
18.793944435059814	4.1179643	2.0292768
18.811709804118184	4.104535	2.0259652
18.829475629432675	4.110561	2.0274518
18.8472419114655	3.9367652	1.9841284
18.86500865067897	3.9992073	1.9998018
18.88277584753551	3.6868353	1.9201133
18.90054350249763	3.681928	1.918835
18.918311616027957	3.325453	1.8235825
18.936080188589226	3.1913228	1.7864274
18.953849220644265	2.9369905	1.713765
18.971618712656007	2.8212008	1.679643
18.9893886650875	2.7748353	1.6657838
19.007159078401887	7.987283	2.8261783
19.024929953062408	32.871624	5.733378
19.042701289532435	32.801796	5.7272854
19.060473088275405	25.373657	5.037227
19.07824534975489	2.6408896	1.6250814
19.096018074434568	2.6101737	1.6156032
19.113791262778197	2.5615053	1.6004703
19.13156491524966	2.5503	1.5969658
19.149339032312945	2.5331056	1.5915734
19.167113614432136	2.530054	1.5906143
19.184888662071433	2.5226593	1.5882882
19.202664175695123	2.5409994	1.5940512
19.220440155767623	2.5562239	1.5988195
19.238216602753447	2.5604804	1.6001501
19.2559935171172	2.5519598	1.5974854
19.27377089932361	2.5259538	1.589325
19.291548749837514	2.5122852	1.585019
19.309327069123835	2.5064948	1.5831913
19.32710585764763	2.5335412	1.5917102
19.344885115874032	2.5335674	1.5917184
19.362664844268313	2.4976587	1.5803983
19.380445043295822	2.4722612	1.5723426
19.39822571342203	2.4566364	1.5673661
19.41600685511252	2.4431481	1.5630573
19.43378846883297	2.4332838	1.5598986
19.451570555049173	2.4555488	1.5670191
19.469353114227037	2.4665518	1.570526
19.48713614683254	2.4637363	1.5696293
19.50491965333182	2.457682	1.5676996
19.52270363419109	2.4871366	1.5770658
19.540488089876686	2.4805717	1.5749831
19.55827302085503	2.4566658	1.5673754
19.576058427592674	2.450886	1.5655305
19.593844310556282	2.494827	1.5795021
19.611630670212598	2.5151224	1.5859138
19.629417507028506	2.47633	1.5736359
19.64720482147098	2.46501	1.570035
19.6649926140071	2.4382646	1.5614944
19.682780885104084	2.4717906	1.5721929
19.70056963522921	2.4988413	1.5807724
19.718358864849908	2.5154512	1.5860174
19.7361485744337	2.5013986	1.581581
19.753938764448215	2.4968123	1.5801305
19.771729435361202	2.4979572	1.5804927
19.789520587640506	2.4993205	1.5809239
19.807312221754092	2.5039773	1.582396
19.825104338170043	2.5312116	1.5909781
19.842896937356517	2.5359836	1.5924772
19.860690019781824	2.4944134	1.5793712
19.87848358591436	2.484779	1.5763181
19.896277636222635	2.5008986	1.5814229
19.914072171175278	2.512278	1.5850167
19.931867191241015	2.5188184	1.5870786
19.94966269688869	2.5388994	1.5933924
19.967458688587264	2.542781	1.59461
19.985255166805807	2.5235662	1.5885737
20.00305213201348	2.520913	1.5877383
20.020849584679578	2.5104535	1.5844411
20.038647525273507	2.4833124	1.5758529
20.05644595426477	2.4936318	1.5791237
20.07424487212299	2.5118282	1.5848749
20.092044279317903	2.5175822	1.5866891
20.109844176319353	2.4854548	1.5765325
20.127644563597304	2.4720566	1.5722775
20.145445441621817	2.4922247	1.5786781
20.16324681086307	2.495053	1.5795738
20.181048671791373	2.4683056	1.5710843
20.198851024877122	2.4204507	1.5557798
20.216653870590836	2.3867383	1.5449072
20.234457209403146	2.3720822	1.5401566
20.252261041784802	2.3561823	1.5349861
20.270065368206662	2.3465517	1.5318458
20.287870189139685	2.3812225	1.543121
20.305675505054968	2.3712537	1.5398875
20.323481316423702	2.3595996	1.5360988
20.341287623717207	2.352373	1.5337447
20.359094427406884	2.3664198	1.5383172
20.376901727964288	2.34707	1.532015
20.39470952586107	2.3097236	1.5197775
20.41251782156899	2.3250947	1.5248262
20.430326615559935	2.3512375	1.5333745
20.448135908305886	2.3241022	1.5245006
20.465945700278965	2.286345	1.5120665
20.483755991951384	2.25908	1.5030236
20.50156678379548	2.2742517	1.5080622
20.519378076283708	2.317283	1.5222625
20.537189869888635	2.3651345	1.5378994
20.55500216508294	2.3298516	1.5263852
20.572814962339415	2.3039408	1.5178738
20.59062826213098	2.2911656	1.5136597
20.60844206493066	2.319857	1.5231076
20.626256371211593	2.3210537	1.5235004
20.644071181447032	2.33212	1.527128
20.66188649611036	2.3275728	1.5256385
20.67970231567506	2.3113496	1.5203123
20.697518640614742	2.3293738	1.5262287
20.715335471403122	2.3296885	1.5263318
20.73315280851404	2.323598	1.5243353
20.750970652421447	2.2745638	1.5081657
20.768789003599412	2.250677	1.5002257
20.786607862522136	2.2720602	1.5073354
20.8044272296639	2.2697139	1.506557
20.82224710549913	2.261406	1.5037972
20.84006749050237	2.2685502	1.5061707
20.857888385148268	3.8345249	1.9581943
20.8757097899116	45.942238	6.7780704
20.893531705267254	64.80434	8.050114
20.911354131690224	83.817245	9.155176
20.92917706965566	69.044014	8.309273
20.94700051963877	50.082542	7.076902
20.96482448211493	29.360054	5.418492
20.982648957559622	4.105248	2.0261412
21.00047394644843	2.2318094	1.4939241
21.01829944925707	2.23729	1.4957573
21.036125466461375	2.238102	1.4960288
21.053951998537297	2.2267709	1.4922369
21.071779045960906	2.2087295	1.4861795
21.089606609208378	2.2251568	1.491696
21.10743468875603	2.2553935	1.5017967
21.12526328508028	2.2900329	1.5132854
21.143092398657675	2.265959	1.5053103
21.16092202996488	2.2293532	1.4931018
21.17875217947867	2.185248	1.4782584
21.19658284767596	2.1772106	1.4755374
21.21441403503377	2.1806004	1.4766856
21.232245742029225	2.1726851	1.4740031
21.2500779691396	2.1407456	1.4631287
21.26791071684227	2.1418183	1.4634953
21.28574398561475	2.1754878	1.4749535
21.30357777593465	2.187118	1.4788908
21.321412088279704	2.144467	1.4643999
21.339246923127792	2.1253476	1.4578573
21.357082280956888	2.1498954	1.4662522
21.3749181622451	2.169686	1.4729854
21.392754567470647	2.1353614	1.4612876
21.41059149711187	2.1211452	1.4564152
21.42842895164726	2.1023333	1.4499425
21.446266931555378	2.1131144	1.4536555
21.464105437314945	2.1230574	1.4570715
21.481944469404798	2.1380124	1.4621943
21.49978402830388	2.1350343	1.4611757
21.51762411449127	2.1428373	1.4638433
21.53546472844617	2.119277	1.4557737
21.553305870647876	2.1047447	1.4507738
21.571147541575865	2.0843728	1.4437357
21.58898974170967	2.0408013	1.4285662
21.60683247152899	2.0167594	1.4201266
21.62467573151363	2.0074275	1.4168371
21.642519522143523	2.025592	1.4232329
21.660363843898722	2.0484648	1.4312459
21.6782086972594	2.0641806	1.4367256
21.696054082705864	2.0812907	1.442668
21.713900000718535	2.0767593	1.4410965
21.73174645177795	2.084099	1.443641
21.749593436364794	2.0768006	1.4411108
21.767440954959845	2.0322492	1.4255698
21.785289008044032	2.035039	1.4265479
21.803137596098388	2.0376303	1.4274559
21.820986719604086	2.0235407	1.4225122
21.838836379042412	1.9784471	1.4065728
21.85668657489478	1.9837958	1.4084729
21.87453730764273	2.007412	1.4168316
21.892388577767914	2.0567532	1.4341384
21.91024038575213	2.0383632	1.4277126
21.928092732077285	2.0207114	1.4215173
21.945945617225426	1.9932314	1.4118185
21.963799041678694	2.0013952	1.4147067
21.981653005919398	31.314478	5.595934
21.999507510429943	78.115395	8.838291
22.01736255569286	73.05416	8.547173
22.035218142190818	4.1578927	2.039091
22.05307427040661	1.9811699	1.4075404
22.07093094082315	2.0126078	1.4186641
22.088788153923474	2.0033906	1.4154118
22.106645910190746	2.0194733	1.4210818
22.12450421010827	1.9936706	1.411974
22.142363054159464	2.0033138	1.4153847
22.16022244282787	1.9909887	1.411024
22.178082376597164	1.9558737	1.3985256
22.195942855951145	1.926388	1.3879439
22.213803881373742	1.9206107	1.385861
22.231665453349002	1.9762238	1.4057823
22.24952757236111	1.9996879	1.4141033
22.26739023889438	1.9863781	1.4093893
22.28525345343323	1.9565585	1.3987703
22.30311721646225	1.9677844	1.4027774
22.320981528466113	1.9787825	1.406692
22.33884638992964	1.9641649	1.4014866
22.356711801337788	1.9476275	1.3955742
22.37457776317561	1.9403723	1.3929725
22.392444275928337	1.9273727	1.3882985
22.410311340081282	1.9305859	1.3894552
22.428178956119904	1.9160253	1.3842057
22.446047124529805	1.9072412	1.381029
22.46391584579669	1.8967476	1.3772246
22.481785120406414	1.902713	1.3793886
22.49965494884496	1.9152839	1.3839378
22.51752533159841	1.9200839	1.3856709
22.53539626915302	1.9221447	1.3864143
22.553267761995137	1.9347976	1.39097
22.571139810611264	1.9532948	1.3976033
22.589012415488025	1.9579617	1.3992718
22.60688557711216	1.942546	1.3937525
22.624759295970566	1.9517546	1.397052
22.642633572550263	1.9689469	1.4031917
22.660508407338362	1.9843465	1.4086684
22.67838380082217	2.0028532	1.4152219
22.696259753489077	1.9888452	1.4102643
22.714136265826614	1.9319831	1.3899579
22.73201333832246	1.9044123	1.3800044
22.74989097146439	1.8839111	1.3725564
22.76776916574035	1.8781108	1.3704418
22.785647921638393	1.8618311	1.3644893
22.803527239646712	1.8694633	1.3672832
22.82140712025363	1.8677435	1.3666542
22.839287563947593	1.8928175	1.375797
22.85716857121719	1.8827487	1.3721329
22.875050142551135	1.8622682	1.3646495
22.892932278438277	1.8591307	1.3634994
22.910814979367604	1.9077207	1.3812026
22.928698245828222	1.9531022	1.3975344
22.946582078309387	1.9558553	1.3985189
22.96446647730047	1.9111168	1.3824315
22.98235144329098	1.892104	1.3755378
23.000236976770562	1.9123437	1.3828752
23.018123078229	1.9317148	1.3898615
23.03600974815619	1.9365445	1.3915979
23.053896987042194	1.9023181	1.3792455
23.071784795377173	1.9041902	1.3799239
23.08967317365145	1.9343089	1.3907943
23.10756212235546	1.9543099	1.3979664
23.125451641979787	1.9481592	1.3957647
23.143341733015134	1.9553962	1.3983548
23.161232395952357	1.944013	1.3942786
23.179123631282426	1.946914	1.3953186
23.197015439496468	1.9252274	1.3875257
23.214907821085717	1.9313403	1.3897268
23.23280077654157	1.9185883	1.3851311
23.250694306355538	1.8945564	1.3764288
23.268588411019277	1.8857034	1.3732091
23.28648309102458	1.9241071	1.3871219
23.304378346863356	1.9337863	1.3906064
23.322274179027676	1.9166021	1.384414
23.340170588009723	1.912681	1.3829972
23.358067574301852	1.9165434	1.3843927
23.37596513839651	1.9303123	1.3893567
23.39386328078629	1.9360269	1.3914119
23.411762001963947	1.9588363	1.3995843
23.429661302422353	1.9540732	1.3978816
23.4475611826545	1.9584355	1.3994411
23.46546164315356	1.9282761	1.3886238
23.48336268441279	1.8822961	1.3719679
23.501264306925638	1.8692195	1.367194
23.51916651118564	1.905255	1.3803097
23.537069297686497	1.904355	1.3799837
23.554972666922037	1.8852738	1.3730527
23.57287661938623	1.827348	1.3517944
23.59078115557318	1.8129895	1.346473
23.608686275977128	1.8272365	1.3517531
23.62659198109246	1.8464615	1.3588457
23.6444982714137	1.8802526	1.371223
23.66240514743549	1.9224975	1.3865416
23.68031260965263	1.9428934	1.3938771
23.698220658560068	1.94661	1.3952097
23.716129294652845	1.9335735	1.3905299
23.7340385184262	1.9313877	1.3897437
23.75194833037546	1.9303218	1.3893602
23.769858730996123	1.9177215	1.3848182
23.78776972078382	1.9620445	1.40073
23.80568130023431	1.9526749	1.3973814
23.823593469843495	1.9482111	1.3957833
23.841506230107424	1.9005282	1.3785964
23.859419581522275	1.9199729	1.3856308
23.87733352458438	1.9476734	1.3955907
23.89524805979019	1.9655797	1.4019914
23.913163187636318	1.9774117	1.4062047
23.931078908619508	1.9436494	1.3941482
23.948995223236633	1.9712273	1.404004
23.966912131984735	2.014126	1.4191991
23.98482963536096	2.0399067	1.428253
24.002747733862616	1.9906877	1.4109173
24.020666427987155	1.9610218	1.4003649
24.038585718232156	1.9677602	1.4027687
24.056505605095353	1.9633927	1.4012111
24.074426089074617	2.0186007	1.4207747
24.092347170667946	1.976406	1.4058471
24.110268850373515	1.9699819	1.4035604
24.128191128689586	1.9745458	1.4051853
24.146114006114626	2.0056064	1.4161943
24.164037483147187	2.016608	1.4200733
24.181961560286005	1.9841082	1.4085838
24.199886238029926	1.9953252	1.4125597
24.21781151687797	1.9779992	1.4064136
24.235737397329274	1.9944428	1.4122474
24.253663879883135	2.0025773	1.4151245
24.271590965038975	2.0263696	1.4235061
24.289518653296376	2.0240278	1.4226834
24.30744694515505	2.006033	1.4163449
24.32537584111486	2.016618	1.4200767
24.34330534167581	2.0114095	1.4182417
24.361235447338046	1.9979357	1.4134835
24.379166158601876	1.9825696	1.4080375
24.39709747596772	1.9981519	1.41356
24.41502939993615	2.0055332	1.4161685
24.432961931007917	1.9769424	1.4060378
24.450895069683856	1.933756	1.3905956
24.468828816465	1.9523529	1.3972663
24.4867631718525	1.9888564	1.4102682
24.504698136347656	2.0408106	1.4285694
24.52263371045192	1.9707903	1.4038484
24.540569894666874	1.9423348	1.3936768
24.558506689494266	1.9400613	1.3928609
24.57644409543597	1.9409739	1.3931884
24.594382112994012	1.9776818	1.4063008
24.61232074267057	1.9941162	1.4121318
24.630259984967953	2.0033062	1.415382
24.64819984038863	1.9894903	1.4104929
24.66614030943522	2.0059721	1.4163234
24.684081392610462	1.9733531	1.4047608
24.702023090417274	1.909412	1.3818147
24.7199654033587	1.8777983	1.3703278
24.737908331937927	1.9278275	1.3884623
24.755851876658305	1.9871132	1.4096501
24.773796038023324	2.0388947	1.4278986
24.79174081653661	2.110796	1.4528579
24.809686212701962	2.1535783	1.4675075
24.827632227023294	2.1169927	1.454989
24.8455788600047	2.0836213	1.4434754
24.8635261121504	2.0981991	1.4485161
24.88147398396475	2.0801368	1.4422679
24.899422475952303	2.052086	1.4325104
24.917371588617698	2.0809047	1.4425341
24.935321322465768	2.1848054	1.4781088
24.953271678001478	2.264069	1.5046824
24.97122265572994	2.4773386	1.5739564
24.989174256156414	2.804564	1.6746832
25.00712647978632	3.278076	1.8105458
25.02507932712521	3.8265524	1.9561576
25.043032798678798	4.316823	2.0776966
25.060986894952933	5.057986	2.2489967
25.078941616453637	5.8713346	2.4230838
25.096896963687055	6.912907	2.6292408
25.114852937159508	8.011055	2.8303807
25.132809537377444	8.485065	2.9129136
25.150766764847468	8.468272	2.9100296
25.168724620076347	7.8872857	2.8084311
25.186683103570985	6.866176	2.620339
25.204642215838426	5.6836224	2.3840349
25.222601957385894	4.3168163	2.077695
25.24056232872074	3.2413123	1.8003645
25.25852333035048	2.573233	1.6041299
25.276484962782778	2.187112	1.4788888
25.294447226525435	2.0795958	1.4420804
25.312410122086423	2.0413978	1.428775
25.330373649973843	1.9870763	1.409637
25.348337810695988	1.900504	1.3785877
25.366302604761245	1.8788723	1.3707197
25.384268032678207	1.8735702	1.3687842
25.40223409495558	1.895578	1.3768
25.420200792102257	1.9303942	1.3893863
25.438168124627246	1.8932639	1.3759593
25.45613609303974	1.860346	1.363945
25.474104697849057	1.854024	1.3616256
25.492073939564698	1.8822014	1.3719335
25.510043818696285	1.8442616	1.3580359
25.528014335753614	1.7990948	1.3413033
25.54598549124664	1.818031	1.3483437
25.56395728568544	1.8622465	1.3646415
25.58192971958028	1.8874865	1.3738582
25.59990279344156	1.9194236	1.3854326
25.617876507779833	1.8925949	1.3757162
25.635850863105826	1.8427536	1.3574806
25.653825859930386	1.8442752	1.3580409
25.671801498764548	1.820783	1.3493639
25.68977778011949	1.7858365	1.3363519
25.707754704506524	1.8101205	1.3454071
25.725732272437153	1.8088456	1.3449333
25.743710484423012	1.7870427	1.3368032
25.761689340975888	1.7604208	1.3268085
25.77966884260774	1.7948629	1.3397249
25.797648989830662	1.8361034	1.355029
25.815629783156922	1.8483353	1.359535
25.83361122309895	1.8261044	1.3513343
25.85159331016929	1.8481891	1.3594812
25.869576044880695	1.8538505	1.3615618
25.887559427746034	1.8538411	1.3615583
25.90554345927836	1.815463	1.3473911
25.92352813999086	1.8004225	1.3417983
25.94151347039689	1.8012816	1.3421183
25.959499451009965	1.8491329	1.3598282
25.97748608234374	1.8875123	1.3738676
25.995473364912062	1.8820547	1.3718799
26.013461299228904	1.8147789	1.3471373
26.03144988580839	1.8006166	1.3418705
26.04943912516483	1.7969784	1.3405142
26.067429017812675	1.7528827	1.3239647
26.085419564266537	1.7671388	1.3293377
26.103410765041186	1.8370187	1.3553666
26.12140262065155	1.8398832	1.3564229
26.139395131612723	1.8177155	1.3482268
26.157388298439948	1.8151796	1.347286
26.17538212164861	1.8125747	1.346319
26.193376601754295	1.7955709	1.3399891
26.211371739272714	1.8115416	1.3459352
26.229367534719746	1.8365334	1.3551877
26.247363988611433	1.8251442	1.350979
26.26536110146397	1.7699475	1.3303938
26.283358873793727	1.8206667	1.3493208
26.301357306117204	1.8790544	1.3707861
26.319356398951104	1.8644459	1.3654472
26.33735615281224	1.8069292	1.3442206
26.35535656821762	1.7952076	1.3398535
26.373357645684404	1.7522343	1.3237199
26.39135938572991	1.7619369	1.3273797
26.409361788871614	1.8021818	1.3424537
26.427364855627165	1.7948128	1.3397062
26.445368586514352	1.802044	1.3424023
26.46337298205115	1.8026314	1.3426211
26.48137804275568	1.8225046	1.3500017
26.499383769146217	1.7776309	1.3332783
26.517390161741215	1.746119	1.3214079
26.53539722105928	1.763658	1.3280278
26.553404947619182	1.8055091	1.3436923
26.571413341939856	1.8220063	1.3498172
26.589422404540397	1.8055519	1.3437083
26.60743213594006	1.8249328	1.3509008
26.62544253665827	1.8524255	1.3610383
26.64345360721459	1.8154497	1.3473862
26.66146534812879	1.8207408	1.3493483
26.679477759920758	1.8261536	1.3513526
26.69749084311057	1.8515866	1.3607302
26.71550459821847	1.836427	1.3551483
26.733519025764842	1.8217455	1.3497205
26.751534126270258	1.7955273	1.3399729
26.769549900255434	1.790698	1.3381697
26.787566348241267	1.8370957	1.3553951
26.80558347074881	1.850538	1.3603448
26.823601268299267	1.8675427	1.3665807
26.841619741414036	1.8756262	1.3695351
26.85963889061465	1.8860188	1.373324
26.877658716422832	1.8696531	1.3673526
26.89567921936045	1.8518856	1.36084
26.913700399949544	1.8268358	1.3516049
26.93172225871233	1.8061639	1.343936
26.949744796171174	1.7749475	1.3322716
26.967768012848605	1.7584599	1.3260694
26.98579190926733	1.7993065	1.3413823
27.003816485950225	1.8534243	1.3614053
27.021841743420318	1.8377094	1.3556215
27.039867682200814	1.7944934	1.3395871
27.057894302815072	1.7772086	1.3331199
27.07592160578664	1.8228803	1.3501408
27.0939495916392	1.8436726	1.3578191
27.111978260896635	1.8296812	1.3526571
27.13000761408296	1.8890877	1.3744409
27.148037651722397	1.8403758	1.3566045
27.166068374339304	1.7801983	1.3342407
27.184099782458215	1.7681109	1.3297033
27.20213187660384	1.771117	1.3308332
27.22016465730105	1.8028321	1.3426958
27.23819812507487	1.8136953	1.346735
27.256232280450533	1.7488986	1.3224593
27.274267123953383	1.7472775	1.3218462
27.292302656108987	1.7730387	1.331555
27.31033887744306	1.8054383	1.343666
27.32837578848146	1.7920647	1.3386801
27.34641338975026	1.7888991	1.3374974
27.364451681775673	1.7896341	1.337772
27.382490665084074	1.8237997	1.3504813
27.400530340202046	1.8206561	1.3493168
27.41857070765629	1.8022121	1.3424649
27.436611767973726	1.8006521	1.3418838
27.454653521681404	1.8198272	1.3490098
27.472695969306564	1.8256327	1.3511598
27.490739111376627	1.7764975	1.3328531
27.508782948419153	1.7524743	1.3238106
27.526827480961902	1.7583922	1.3260438
27.54487270953279	1.7564726	1.3253198
27.562918634659898	1.8294501	1.3525717
27.580965256871508	1.8537174	1.3615129
27.599012576696026	1.8566344	1.3625838
27.617060594662068	1.8685356	1.366944
27.63510931129842	1.8980858	1.3777103
27.65315872713401	1.9078996	1.3812674
27.67120884269797	1.894477	1.3764
27.68925965851958	1.8538594	1.3615651
27.707311175128307	1.8596317	1.3636831
27.725363393053787	1.873821	1.3688759
27.74341631282583	1.874467	1.3691118
27.7614699349744	1.880144	1.3711834
27.77952426002968	2.0224836	1.4221405
27.797579288521973	2.0200408	1.4212813
27.815635020981784	2.378552	1.5422555
27.83369145793979	2.4844084	1.5762006
27.85174859992682	2.3980672	1.5485694
27.869806447473923	2.264512	1.5048295
27.887865001112267	1.992356	1.4115084
27.905924261373233	1.9424037	1.3937014
27.92398422878836	1.9405816	1.3930476
27.94204490388936	1.9575684	1.3991313
27.96010628720813	1.9580477	1.3993026
27.978168379276728	1.9181987	1.3849905
27.9962311806274	1.8765618	1.3698765
28.014294691792568	1.8502886	1.3602531
28.0323589133048	1.81155	1.3459383
28.050423845696887	1.791896	1.3386172
28.068489489501758	1.8561474	1.3624051
28.086555845252523	1.909915	1.3819968
28.104622913482487	1.8818482	1.3718047
28.122690694725115	1.817852	1.3482774
28.14075918951405	1.7926888	1.3389133
28.15882839838312	1.8154725	1.3473947
28.176898321866304	1.8828529	1.3721709
28.1949689604978	1.905766	1.3804948
28.213040314811945	1.9145991	1.3836904
28.23111238534327	1.9017797	1.3790503
28.249185172626493	1.8755428	1.3695046
28.267258677196473	1.9143063	1.3835846
28.285332899588294	1.9133973	1.3832561
28.303407840337172	1.9340866	1.3907144
28.321483499978545	1.9609586	1.4003423
28.33955987904799	1.9956479	1.4126741
28.357636978081285	1.9850078	1.408903
28.37571479761439	1.944402	1.3944181
28.393793338183425	1.9052482	1.3803073
28.41187260032469	1.877475	1.3702098
28.429952584574686	1.8711263	1.3678912
28.448033291470065	1.9660081	1.4021441
28.46611472154769	1.9908326	1.4109687
28.484196875344566	1.9915534	1.4112241
28.502279753397914	1.9884174	1.4101125
28.52036335624511	1.9550716	1.3982388
28.538447684423716	1.9641087	1.4014666
28.556532738471482	1.9723386	1.4043998
28.574618518926325	1.9935774	1.4119409
28.59270502632635	1.977096	1.4060924
28.61079226120985	1.9390942	1.3925136
28.628880224115274	1.9639205	1.4013995
28.646968915581287	1.9489911	1.3960627
28.66505833614671	1.9642018	1.4014999
28.68314848635055	2.0405867	1.4284911
28.701239366732004	2.1334238	1.4606245
28.71933097783044	2.1677828	1.4723393
28.737423320185403	2.1402605	1.4629629
28.75551639433665	2.143939	1.4642196
28.773610200824074	2.0977473	1.4483602
28.791704740187793	2.061601	1.4358276
28.80980001296809	2.081717	1.4428157
28.827896019705413	2.1275544	1.4586139
28.845992760940433	2.1458783	1.4648817
28.86409023721397	2.1879737	1.4791801
28.88218844906704	2.2414255	1.4971391
28.900287397040845	2.2712011	1.5070505
28.918387081676755	2.233294	1.494421
28.936487503516343	2.2050138	1.4849288
28.954588663101365	2.2234952	1.4911389
28.97269056097374	2.2308908	1.4936167
28.990793197675597	2.2909994	1.5136048
29.00889657374923	2.3948734	1.5475378
29.027000689737125	2.425183	1.5573
29.04510554618196	2.3871062	1.5450263
29.06321114362659	2.318933	1.5228044
29.08131748261405	2.376206	1.5414947
29.099424563687567	2.4785879	1.5743531
29.11753238739057	2.5693948	1.6029332
29.13564095426663	2.5753825	1.6047999
29.15375026485954	2.5854027	1.6079187
29.171860319713275	2.5635197	1.6010995
29.18997111937199	2.5780635	1.6056349
29.20808266438002	2.6344492	1.6230986
29.226194955281898	2.7268038	1.6513036
29.244307992622335	2.7659373	1.6631107
29.26242177694624	2.7602925	1.6614128
29.2805363087987	2.812683	1.6771055
29.29865158872498	2.832429	1.6829822
29.316767617270557	2.9000542	1.7029545
29.334884394981064	2.9682856	1.7228713
29.353001922402367	3.0070226	1.7340769
29.37112020008047	3.015426	1.7364982
29.389239228561596	3.164478	1.778898
29.407359008392152	3.3648145	1.8343431
29.42547954011872	3.6668656	1.9149061
29.44360082428809	4.2865663	2.0704024
29.46172286144722	5.423343	2.3288074
29.479845652143283	7.0624614	2.657529
29.497969196923606	9.192404	3.0318978
29.516093496335728	11.707318	3.4215958
29.5342185509274	14.664406	3.8294132
29.55234436124651	17.316042	4.161255
29.570470927841175	19.037106	4.363153
29.588598251259686	18.910566	4.348628
29.60672633205055	17.59633	4.194798
29.624855170762405	15.189109	3.8973207
29.642984767944146	12.088815	3.4768972
29.66111512414481	9.1166115	3.0193727
29.67924623991366	6.6870112	2.5859256
29.697378115800138	5.0658875	2.2507527
29.71551075235387	4.1604753	2.0397243
29.733644150124675	3.7116122	1.9265544
29.751778309662576	3.5112991	1.873846
29.769913231517766	3.3853195	1.8399237
29.78804891624066	3.3252728	1.823533
29.806185364381818	3.3374732	1.8268752
29.82432257649206	3.2662632	1.8072807
29.842460553122333	3.2450936	1.8014144
29.86059929482382	3.1931176	1.7869296
29.878738802147872	3.2076201	1.790983
29.896879075646048	3.229841	1.7971759
29.915020115870114	3.2499719	1.8027679
29.933161923371976	3.275609	1.8098644
29.951304498703777	3.283232	1.811969
29.969447842417857	3.246827	1.8018954
29.987591955066733	3.1996107	1.7887455
30.005736837203123	3.1928544	1.786856
30.023882489379943	3.1500494	1.7748379
30.04202891215028	3.1674664	1.7797377
30.060176106067455	3.1235793	1.7673651
30.078324071684946	3.1119082	1.7640601
30.09647280955646	3.0949163	1.7592374
30.114622320235863	3.1150134	1.76494
30.132772604277257	3.1257503	1.7679791
30.1509236622349	3.1132815	1.7644494
30.16907549466328	3.0978494	1.7600708
30.18722810211705	3.0714357	1.7525512
30.205381485151097	3.0410264	1.7438539
30.22353564432045	3.0090048	1.7346483
30.241690580180403	3.0043883	1.7333171
30.25984629328638	2.983147	1.7271789
30.278002784194037	3.0104456	1.7350636
30.296160053459246	3.0319762	1.7412571
30.314318101638033	3.0182767	1.7373189
30.332476929286646	2.9865613	1.728167
30.35063653696153	2.9438634	1.715769
30.368796925219307	2.9180157	1.70822
30.386958094616844	2.9325023	1.712455
30.40512004571115	2.8821037	1.697676
30.423282779059463	2.856776	1.6902
30.441446295219233	2.8792672	1.6968404
30.459610594748067	2.8400455	1.6852435
30.47777567820382	2.8239815	1.6804706
30.495941546144504	2.8692982	1.6939003
30.51410819912835	2.9126225	1.7066407
30.532275637713795	2.8803203	1.6971506
30.55044386245946	2.8705788	1.6942782
30.56861287392416	2.8366466	1.6842347
30.586782672666956	2.8088763	1.6759702
30.604953259247047	2.842849	1.6860751
30.623124634223885	2.8885996	1.6995881
30.641296798157075	2.8520956	1.6888149
30.659469751606462	2.83672	1.6842566
30.677643495132074	2.8256407	1.6809642
30.695818029294152	2.708271	1.6456826
30.713993354653116	2.6892478	1.6398926
30.73216947176962	2.7072372	1.6453685
30.75034638120448	2.7286024	1.6518482
30.768524083518756	2.7638056	1.6624697
30.786702579273673	2.769523	1.6641884
30.80488186903069	2.8444471	1.6865488
30.82306195335144	2.9439476	1.7157936
30.841242832797782	3.113515	1.7645155
30.85942450793176	3.4201808	1.8493731
30.877606979315637	3.77777	1.9436487
30.895790247511883	4.178966	2.044252
30.913974313083134	4.738351	2.1767755
30.932159176592283	5.0495954	2.2471304
30.95034483860237	4.9358926	2.2216868
30.968531299676698	4.5713596	2.138074
30.98671856037873	4.2319093	2.0571604
31.00490662127215	3.9060335	1.9763688
31.023095482920848	3.4705408	1.8629388
31.04128514588892	2.94829	1.7170585
31.059475610740662	2.5897627	1.6092739
31.07766687804056	2.4655008	1.5701914
31.09585894835335	2.5352361	1.5922425
31.11405182224393	2.5646632	1.6014565
31.132245500277417	2.5177388	1.5867385
31.15043998301914	2.4655566	1.5702091
31.168635271034628	2.4500136	1.565252
31.18683136488964	2.4049225	1.5507812
31.20502826515008	2.380953	1.5430337
31.223225972382135	2.3875518	1.5451704
31.241424487152155	2.4159157	1.5543216
31.259623810026692	2.391181	1.5463444
31.27782394157253	2.3850493	1.5443605
31.296024882356644	2.3828285	1.5436413
31.314226632946237	2.440449	1.5621936
31.332429193908684	2.460904	1.5687268
31.350632565811598	2.4437068	1.563236
31.368836749222787	2.4761107	1.5735662
31.387041744710295	2.576269	1.605076
31.40524755284232	2.5566096	1.5989401
31.423454174187317	2.5426037	1.5945544
31.441661609313922	2.5457082	1.5955275
31.459869858791002	2.534599	1.5920424
31.478078923187628	2.4625049	1.569237
31.496288803073064	2.4503746	1.5653672
31.514499499016807	2.32253	1.5239849
31.532711011588546	2.2199373	1.4899454
31.550923341358178	2.2780144	1.5093093
31.56913648889584	2.3915055	1.5464493
31.587350454771844	2.3820016	1.5433735
31.605565239556732	2.3251066	1.52483
31.62378084382127	2.3211122	1.5235196
31.641997268136382	2.396987	1.5482206
31.660214513073274	2.3993123	1.5489713
31.67843257920331	2.2959614	1.515243
31.6966514670981	2.280689	1.510195
31.71487117732944	2.2888794	1.5129043
31.733091710469346	2.2373652	1.4957825
31.751313067090052	2.198147	1.482615
31.769535247764008	2.1707401	1.4733431
31.787758253063878	2.1916637	1.4804269
31.805982083562526	2.1889336	1.4795045
31.824206739833024	2.2259963	1.4919773
31.84243222244869	2.2665398	1.5055032
31.860658531983013	2.2526212	1.5008734
31.878885669009737	2.2571082	1.5023675
31.897113634102784	2.2529173	1.5009722
31.91534242783632	2.2761443	1.5086896
31.933572050784694	2.2415972	1.4971964
31.951802503522508	2.2351956	1.4950571
31.970033786624548	2.2588704	1.5029539
31.988265900665834	2.332984	1.5274109
32.006498846221575	2.2847276	1.5115316
32.02473262386724	2.2483788	1.4994595
32.04296723417845	2.2381692	1.4960512
32.0612026777311	2.2039149	1.4845588
32.07943895510129	2.1038084	1.4504511
32.097676066865304	2.14511	1.4646194
32.115914013599685	2.213327	1.4877254
32.13415279588115	2.235106	1.4950271
32.152392414286666	2.1764808	1.4752901
32.1706328693934	2.114413	1.4541022
32.18887416177875	2.091194	1.4460961
32.20711629202032	2.054267	1.4332714
32.225359260695924	2.0973356	1.4482181
32.243603068383614	2.1240125	1.4573992
32.26184771566166	2.1199813	1.4560156
32.28009320310852	2.0938218	1.4470044
32.2983395313029	2.1028113	1.4501073
32.31658670082372	2.1555343	1.4681737
32.33483471225012	2.1730573	1.4741293
32.35308356616143	2.1928704	1.4808344
32.371333263137245	2.2150505	1.4883046
32.38958380375734	2.2852736	1.5117121
32.407835188601744	2.24745	1.4991498
32.42608741825067	2.144054	1.4642588
32.444340493284585	2.0431452	1.4293863
32.46259441428416	2.039371	1.4280655
32.48084918183028	2.0724564	1.4396029
32.49910479650405	2.0876732	1.4448782
32.51736125888683	2.0746257	1.4403561
32.53561856956014	2.0035362	1.4154632
32.5538767291058	1.9774363	1.4062135
32.572135738105764	1.9722706	1.4043756
32.59039559714228	1.9510361	1.3967949
32.608656306797776	1.9635031	1.4012506
32.62691786765491	1.9779407	1.4063928
32.645180280296586	1.953646	1.3977288
32.663443545305896	1.9051313	1.380265
32.68170766326619	1.8873646	1.3738139
32.69997263476099	1.9184616	1.3850853
32.7182384603741	1.9301382	1.3892941
32.7365051406895	2.014728	1.4194112
32.75477267629144	2.020285	1.4213673
32.77304106776434	1.9774556	1.4062203
32.79131031569289	1.9079998	1.3813037
32.809580420661966	1.9624444	1.4008727
32.827851383256714	2.0338042	1.426115
32.84612320406245	2.010271	1.4178402
32.86439588366476	1.9006721	1.3786486
32.88266942264945	1.8734423	1.3687375
32.9009438216025	1.9096155	1.3818884
32.9192190811102	1.9179825	1.3849125
32.937495201758985	1.8140621	1.3468713
32.95577218413556	1.8193364	1.3488278
32.974050028826866	1.8844385	1.3727485
32.992328736420035	1.9605354	1.4001912
33.010608307502444	2.0008335	1.4145082
33.02888874266169	1.9765396	1.4058946
33.047170042485604	2.0423782	1.4291179
33.06545220756225	2.035935	1.4268619
33.083735238479896	1.9952216	1.4125232
33.10201913582707	1.958673	1.399526
33.12030390019248	1.9680644	1.4028772
33.138589532165135	1.9650279	1.4017946
33.15687603233419	1.8139215	1.346819
33.17516340128909	1.7331138	1.3164778
33.19345163961947	1.8823735	1.3719962
33.211740747915215	1.9717855	1.4042028
33.23003072676643	2.0507696	1.4320508
33.248321576763466	1.9595087	1.3998245
33.266613298496885	1.8359647	1.3549777
33.28490589255747	1.7846888	1.3359225
33.30319935953626	1.8440487	1.3579576
33.32149370002451	1.8780817	1.3704312
33.339788914613706	1.8720007	1.3682108
33.358085003895575	1.8840983	1.3726246
33.376381968462034	1.8245327	1.3507527
33.39467980890529	1.8072965	1.3443573
33.41297852581774	1.8370831	1.3553904
33.43127811979204	1.894397	1.3763709
33.44957859142105	1.9653795	1.40192
33.467879941297866	2.062784	1.4362395
33.486182170015844	2.0900736	1.4457086
33.50448527816853	2.0252733	1.423121
33.522789266349754	1.9640309	1.4014388
33.541094135153514	1.9726839	1.4045227
33.55939988517411	1.8493292	1.3599005
33.57770651700602	1.7772949	1.3331522
33.59601403124398	1.7608063	1.3269538
33.61432242848296	1.8377172	1.3556243
33.632631709318154	1.9136653	1.3833529
33.650941874344994	1.965282	1.4018852
33.66925292415916	2.022627	1.4221909
33.68756485935654	2.0828	1.4431909
33.70587768053328	2.0333931	1.4259709
33.724191388285746	2.0736108	1.4400038
33.74250598321054	2.0052443	1.4160665
33.760821465904506	1.8316556	1.3533868
33.77913783696474	1.8581866	1.3631532
33.79745509698852	1.9645754	1.4016331
33.815773246573414	2.0076857	1.4169283
33.8340922863172	2.0079474	1.4170207
33.852412216817896	1.9509457	1.3967626
33.87073303867377	1.9234629	1.3868897
33.889054752483304	1.9692405	1.4032964
33.907377358845245	1.9350009	1.3910431
33.92570085835853	1.8840655	1.3726127
33.94402525162239	1.9664153	1.4022893
33.96235053923627	2.016272	1.4199549
33.980676721799824	1.9583493	1.3994104
33.999003799912984	1.8917642	1.3754141
34.01733177417592	1.9065387	1.3807747
34.03566064518901	1.899029	1.3780526
34.0539904135529	1.9255415	1.3876388
34.07232107986846	1.925929	1.3877784
34.090652644736785	1.9340961	1.3907179
34.108985108759235	2.0158417	1.4198034
34.12731847253742	2.048273	1.4311789
34.14565273667313	1.964215	1.4015045
34.16398790176847	1.9076461	1.3811756
34.18232396842574	1.9028682	1.3794448
34.20066093724749	2.0041504	1.4156802
34.21899880883651	2.0642478	1.4367491
34.23733758379583	2.025039	1.4230386
34.25567726272874	1.9642588	1.4015201
34.27401784623872	1.9325194	1.3901509
34.29235933492957	1.975099	1.4053822
34.31070172940526	1.9664179	1.4022902
34.32904503027003	1.897048	1.3773336
34.347389238128386	1.9356377	1.391272
34.36573435358502	1.97324	1.4047207
34.38408037724492	1.9785138	1.4065965
34.402427309713296	2.0547333	1.4334341
34.42077515159559	1.9506749	1.3966657
34.43912390349752	2.000567	1.414414
34.45747356602499	2.0407007	1.4285309
34.47582413978423	1.9640172	1.401434
34.49417562538163	1.8906095	1.3749944
34.51252802342388	1.8499821	1.3601404
34.53088133451789	1.8599612	1.363804
34.54923555927084	1.8846154	1.372813
34.567590698290104	1.96566	1.40202
34.58594675218336	2.0648472	1.4369576
34.6043037215585	2.1177151	1.4552372
34.62266160702365	2.0707264	1.4390019
34.641020409187234	1.8973669	1.3774494
34.65938012865785	1.95602	1.3985778
34.677740766044394	2.1412268	1.4632931
34.69610232195598	2.0694556	1.4385602
34.714464797002016	2.0157397	1.4197675
34.73282819179208	2.107585	1.4517524
34.751192506936064	2.062287	1.4360665
34.76955774304408	1.9498808	1.3963814
34.7879239007265	1.9156383	1.3840659
34.80629098059391	1.8424551	1.3573707
34.824658983257194	1.8412411	1.3569235
34.843027909327446	1.9254062	1.38759
34.86139775941603	1.8726547	1.3684497
34.879768534134534	1.778018	1.3334234
34.89814023409483	1.8250891	1.3509586
34.91651285990901	1.8817623	1.3717734
34.93488641218944	1.7614863	1.32721
34.95326089154871	1.6385238	1.2800484
34.97163629859967	1.8203876	1.3492174
34.99001263395542	1.6935632	1.3013698
35.00838989822934	1.6929773	1.3011446
35.02676809203499	1.9369034	1.3917267
35.04514721598624	2.0391204	1.4279778
35.063527270697215	1.9129189	1.3830831
35.081908256782256	1.6812896	1.2966455
35.10029017485597	1.6402446	1.2807204
35.11867302553321	1.7510862	1.3232862
35.137056809429104	1.7383385	1.3184607
35.155441527159006	1.7792041	1.3338681
35.173827179338524	1.9369605	1.3917472
35.19221376658354	2.0266855	1.423617
35.21060128951017	2.1242685	1.4574871
35.2289897487348	2.0796022	1.4420826
35.24737914487405	1.9837034	1.40844
35.26576947854479	2.1394522	1.4626867
35.28416075036418	2.0054834	1.4161509
35.30255296094958	1.8725066	1.3683957
35.32094611091867	2.0211644	1.4216766
35.33934020088932	2.0905156	1.4458616
35.35773523147969	1.794666	1.3396515
35.3761312033082	1.7202773	1.3115934
35.394528116993506	2.0974917	1.448272
35.41292597315452	2.4053721	1.5509262
35.431324772410434	2.3777359	1.5419909
35.449724515380666	2.4731812	1.5726352
35.46812520268491	2.6641462	1.6322212
35.486526834943106	2.751747	1.658839
35.504929412775454	2.459292	1.568213
35.52333293680242	1.7678498	1.3296051
35.54173740764471	1.5958939	1.263287
35.560142825923286	2.0340407	1.426198
35.5785491922594	2.1904533	1.480018
35.59695650727454	2.270985	1.5069788
35.61536477159042	1.9848942	1.4088627
