0.008763373481513119	0.051685803	0.22734512
0.026290120649546365	0.29672334	0.54472315
0.043816868432600686	0.4669648	0.68334824
0.06134361724069026	0.46830383	0.6843273
0.07887036748382949	0.37259877	0.61040866
0.0963971195720331	0.18257517	0.42728814
0.11392387391531617	0.10600375	0.32558218
0.1314506309236943	0.050593592	0.2249302
0.1489773910071836	0.076265864	0.27616274
0.16650415457580078	0.039385177	0.19845699
0.18403092203956356	0.06762863	0.26005507
0.20155769380849	0.06513948	0.25522438
0.2190844702925996	0.113244064	0.33651754
0.2366112519019124	0.15623333	0.3952636
0.2541380390464497	0.1829486	0.42772493
0.27166483213623416	0.162484	0.40309304
0.28919163158128947	0.14982669	0.38707453
0.3067184377916406	0.12523957	0.35389203
0.324245251177314	0.13093112	0.36184406
0.34177207214833777	0.17133729	0.4139291
0.3592989011147415	0.17613862	0.41968873
0.37682573848655654	0.17872037	0.42275333
0.39435258467381573	0.14700267	0.38340926
0.41187944008655414	0.13694127	0.37005576
0.42940630513480854	0.16084732	0.40105775
0.446933180228618	0.1490188	0.3860295
0.4644600657780234	0.15652135	0.3956278
0.48198696219306775	0.14463638	0.3803109
0.49951386988379676	0.13839869	0.37201974
0.5170407892602581	0.16425075	0.4052786
0.5345677207325025	0.15735333	0.39667785
0.5520946647105822	0.19552392	0.44218087
0.5696216216045534	0.19114353	0.43719965
0.5871485918244737	0.15478301	0.39342472
0.6046755757804043	0.15311839	0.39130345
0.6222025738824094	0.18625535	0.43157312
0.6397295865405557	0.19115473	0.43721247
0.6572566141649129	0.1865794	0.4319484
0.6747836571655547	0.17223412	0.415011
0.6923107159525568	0.16233781	0.40291166
0.7098377909359992	0.15085763	0.38840395
0.7273648825259653	0.16187106	0.40233204
0.7448919911325411	0.16377306	0.40468884
0.762419117165817	0.18132287	0.42582023
0.7799462610358868	0.19828178	0.44528842
0.7974734231528482	0.19871211	0.44577137
0.8150006039268024	0.21166253	0.46006796
0.8325278037678551	0.24571398	0.49569544
0.8500550230861152	0.20916395	0.45734444
0.8675822622916969	0.18833414	0.4339748
0.8851095217947171	0.17857555	0.422582
0.9026368020052984	0.23244867	0.4821293
0.9201641033335665	0.2411824	0.49110326
0.9376914261896523	0.26210845	0.5119653
0.9552187709836915	0.20429777	0.4519931
0.9727461381258234	0.25040445	0.5004043
0.990273528026193	0.2603117	0.5102075
1.0078009410949496	0.2868309	0.535566
1.0253283777422473	0.30972895	0.556533
1.0428558383782454	0.32269678	0.56806403
1.0603833234131086	0.30776098	0.5547621
1.0779108332570058	0.33941084	0.58258975
1.0954383683201119	0.33649924	0.5800856
1.112965929012607	0.37508604	0.6124427
1.1304935157446763	0.439809	0.66318095
1.1480211289265108	0.48359346	0.6954088
1.1655487689683062	1.3337034	1.1548607
1.1830764362802655	1.6740754	1.2938607
1.200604131272596	2.1511803	1.4666903
1.2181318543555117	2.5662	1.6019363
1.235659605939232	2.6448302	1.6262934
1.253187386433982	4.1285253	2.0318773
1.270715196249994	6.5934234	2.5677662
1.2882430357975057	12.209676	3.4942346
1.3057709054867608	17.118752	4.137481
1.3232988057280106	22.964806	4.792161
1.3408267369315112	27.982141	5.289815
1.358354699507526	31.557896	5.6176414
1.3758826938663256	35.34994	5.9455814
1.3934107204181858	37.301907	6.1075287
1.410938779573391	37.83364	6.1509056
1.4284668717422309	38.605972	6.2133703
1.4459949973350033	38.191383	6.179918
1.4635231567620117	38.51708	6.206213
1.4810513504335687	37.90679	6.1568494
1.4985795787599925	37.300514	6.1074147
1.5161078421516088	36.60658	6.0503373
1.5336361410187505	35.63182	5.9692397
1.5511644757717598	35.434357	5.9526763
1.5686928468209842	36.097466	6.0081167
1.58622125457678	36.647926	6.053753
1.6037496994495108	38.36434	6.1938953
1.621278181849548	38.042706	6.1678767
1.6388067021872719	38.673805	6.218827
1.6563352608730693	37.719498	6.14162
1.673863858317336	36.697533	6.057849
1.6913924949304753	36.23342	6.01942
1.7089211711228998	35.32283	5.943301
1.7264498873050296	34.219727	5.849763
1.7439786438872935	33.29044	5.769787
1.7615074412801288	32.03119	5.6596103
1.779036279893981	31.189955	5.584797
1.796565160139305	30.256332	5.5005755
1.814094082426564	29.61643	5.442098
1.8316230471662298	29.24779	5.4081225
1.849152054768784	28.710377	5.3582063
1.8666811056447168	28.35688	5.325118
1.8842102002045273	27.503124	5.2443423
1.901739338858724	26.844137	5.181133
1.9192685220178245	26.17558	5.1162076
1.9367977500923557	25.400444	5.0398855
1.9543270234928547	24.920753	4.9920692
1.971856342629867	24.03215	4.90226
1.9893857079139496	23.600597	4.8580446
2.006915119755667	23.415195	4.838925
2.0244445785655945	22.973333	4.7930503
2.0419740847543175	22.84861	4.780022
2.0595036387324317	22.173378	4.708862
2.0770332409105414	21.588217	4.646312
2.094562891699263	21.026442	4.5854597
2.1120925915092217	20.496433	4.5272985
2.129622340751053	20.088392	4.4820075
2.1471521398354043	188.11661	13.715561
2.1646819891729323	444.50107	21.083195
2.182211889174303	440.78033	20.99477
2.1997418402501974	453.2157	21.288864
2.2172718428113023	433.10376	20.811146
2.234801897268317	320.9386	17.914759
2.2523320040319548	17.434378	4.1754494
2.269862163512935	17.072252	4.1318583
2.287392376121992	16.716618	4.088596
2.304922642269869	16.410645	4.0510054
2.322452962367322	16.054064	4.0067525
2.3399833368251164	15.715333	3.964257
2.357513766054032	15.620217	3.9522421
2.3750442504648586	15.29302	3.910629
2.3925747904683963	15.131741	3.8899539
2.410105386475459	14.861357	3.855043
2.4276360388968707	14.542988	3.8135269
2.445166748143469	14.369708	3.7907398
2.4626975146261025	14.122781	3.7580287
2.4802283387556323	14.000473	3.7417207
2.4977592209429305	13.793838	3.7140057
2.5152901615988825	13.4931965	3.6733086
2.5328211611343865	13.327693	3.6507113
2.5503522199603523	12.793148	3.576751
2.5678833384877024	12.527171	3.5393744
2.5854145171273712	12.285068	3.505006
2.6029457562903064	12.243523	3.4990745
2.620477056387469	12.384654	3.5191836
2.6380084178298326	12.285898	3.5051246
2.655539841028383	11.896216	3.4490893
2.673071326394119	11.510249	3.3926759
2.6906028743380523	11.083654	3.3292122
2.708134485271211	10.890575	3.3000872
2.7256661596046325	10.836177	3.2918348
2.743197897749369	10.833975	3.2915003
2.760729700116486	10.731143	3.2758424
2.778261567117063	10.576576	3.2521648
2.795793499162193	10.482342	3.2376444
2.8133254966629817	10.302308	3.2097208
2.830857560030551	10.161366	3.1876898
2.8483896896760337	9.896141	3.1458132
2.865921886010578	9.739483	3.1208146
2.883454149445347	9.560506	3.0920067
2.9009864803915177	9.490064	3.0805948
2.91851887926028	9.376013	3.0620275
2.9360513464628384	9.239058	3.0395818
2.953583882410413	9.070134	3.0116663
2.9711164875142373	8.960537	2.9934156
2.9886491621855606	8.954496	2.9924064
3.0061819068356455	9.004069	3.000678
3.023714721875769	8.915112	2.9858184
3.041247607717225	8.680454	2.9462612
3.0587805647713213	8.48518	2.912933
3.0763135934493806	8.369158	2.8929496
3.0938466941627407	8.214346	2.8660681
3.1113798673227544	8.191962	2.8621604
3.1289131133407904	8.136737	2.8524966
3.1464464326282315	8.031802	2.8340435
3.1639798255964786	7.976834	2.824329
3.1815132926569443	7.787576	2.790623
3.1990468342210603	7.7347383	2.7811399
3.216580450700272	7.5693827	2.7512512
3.2341141425060416	7.4352183	2.7267597
3.251647910049847	7.3375506	2.7087913
3.2691817537431813	7.2812653	2.698382
3.286715673997555	7.2128234	2.68567
3.3042496712244938	7.1294637	2.6701055
3.32178374583554	7.0032997	2.646375
3.339317898242251	7.0039716	2.6465018
3.3568521288562034	7.0390496	2.6531208
3.3743864380889876	7.1464386	2.6732824
3.3919208263522127	7.0471215	2.6546414
3.4094552940575023	6.912307	2.6291265
3.4269898416164972	6.7426157	2.5966547
3.444524469440858	6.626505	2.5742
3.4620591779422587	6.657478	2.5802088
3.479593967532391	6.651654	2.57908
3.4971288386229658	6.693816	2.587241
3.5146637916257086	6.563757	2.561983
3.5321988269523628	6.54883	2.5590682
3.5497339450146903	6.483529	2.5462775
3.5672691462244708	6.4092894	2.5316575
3.5848044309934988	6.318292	2.5136213
3.60233979973359	6.361966	2.5222938
3.619875252856575	6.306742	2.5113227
3.6374107907743034	6.2926645	2.5085185
3.6549464138986427	6.2210155	2.4941964
3.6724821226414788	6.3040977	2.5107963
3.690017917414714	6.348348	2.5195928
3.7075537986302702	6.452813	2.5402389
3.7250897667000857	6.586102	2.5663402
3.7426258220361235	6.7280674	2.5938518
3.7601619650503553	7.0857606	2.661909
3.777698196154779	7.5907593	2.7551332
3.7952345157614067	8.512483	2.917616
3.8127709242822716	9.222907	3.036924
3.830307422129425	11.211327	3.348332
3.847844009714936	30.122501	5.488397
3.8653806874508954	97.660736	9.882344
3.882917455749409	96.92024	9.844808
3.900454315022606	96.653465	9.831249
3.917991265682631	41.262817	6.423614
3.9355283081416506	10.934292	3.306704
3.9530654428118495	8.821209	2.970052
3.970602670105433	7.6116896	2.758929
3.9881399904346244	6.645428	2.5778728
4.005677404211669	6.506396	2.5507638
4.023214911848827	6.472651	2.5441406
4.0407525137583855	6.519194	2.5532713
4.058290210352644	6.5010805	2.5497217
4.075828002043927	6.390565	2.5279567
4.0933658892445814	6.3533916	2.5205934
4.110903872366966	6.3370304	2.517346
4.128441951823468	6.3025503	2.510488
4.145980128026488	6.304718	2.5109198
4.163518401388452	6.2706304	2.5041227
4.181056772321807	6.204553	2.490894
4.1985952412390155	6.2201743	2.4940276
4.216133808552567	6.355815	2.521074
4.233672474674966	6.476422	2.5448816
4.251211240018741	6.6635447	2.5813842
4.268750104996445	6.8126855	2.6101122
4.286289070020643	7.781949	2.7896144
4.303828135503928	9.417924	3.0688636
4.3213673018589125	29.634556	5.4437633
4.3389065694982305	90.68174	9.5226965
4.356445938834537	165.82481	12.877298
4.3739854102805085	171.75235	13.1054325
4.391524984248844	172.69556	13.141368
4.409064661152262	136.91693	11.701151
4.426604441403504	97.042534	9.851017
4.444144325415337	75.75742	8.703874
4.461684313600543	21.806545	4.669748
4.47922440637193	22.141321	4.7054567
4.496764604142329	20.484335	4.5259624
4.5143049073245916	18.874147	4.3444386
4.531845316331589	16.855022	4.105487
4.5493858315762195	14.020557	3.7444034
4.566926453471405	11.523654	3.3946507
4.584467182430081	9.275137	3.045511
4.602008018865218	8.1304245	2.85139
4.619548963189798	7.522864	2.742784
4.637090015816834	7.090671	2.6628313
4.654631177159353	6.7483077	2.5977504
4.672172447630417	6.4911222	2.547768
4.689713827643102	6.3335752	2.5166595
4.7072553176105085	6.166058	2.4831548
4.724796917945764	6.042726	2.4581957
4.742338629062015	5.8564115	2.4200025
4.759880451372434	5.816686	2.4117806
4.777422385290215	5.7585692	2.3997018
4.794964431228581	5.7554407	2.39905
4.812506589600768	5.7558956	2.3991446
4.830048860820047	5.7978096	2.407864
4.847591245299709	5.8520036	2.4190915
4.8651337434530655	5.8339024	2.4153473
4.882676355693457	5.816567	2.411756
4.900219082434242	5.7233195	2.3923461
4.917761924088813	5.5064526	2.3465831
4.935304881070575	5.584339	2.3631206
4.952847953792969	5.6167073	2.3699594
4.970391142669449	5.741415	2.396125
4.9879344481135055	5.662909	2.3796868
5.005477870538642	5.690183	2.3854105
5.023021410358394	5.6883836	2.3850331
5.040565067986324	5.698476	2.3871481
5.05810884383601	5.653841	2.3777807
5.075652738321066	5.548707	2.3555694
5.09319675185512	5.5109296	2.3475368
5.110740884851836	5.4334736	2.3309813
5.128285137724894	5.4082203	2.325558
5.145829510888007	5.346014	2.312145
5.163374004754908	5.468365	2.3384535
5.1809186197393595	5.514428	2.3482819
5.198463356255145	5.52136	2.3497574
5.216008214716077	5.4345245	2.3312066
5.233553195535998	5.3821983	2.3199565
5.251098299128764	5.354773	2.3140383
5.268643525908272	5.292571	2.3005588
5.286188876288432	5.2814302	2.2981362
5.3037343506831895	5.334088	2.3095644
5.32127994950651	5.33598	2.309974
5.3388256731723915	5.330675	2.3088255
5.356371522094851	5.298041	2.3017473
5.373917496687938	5.2753477	2.2968125
5.391463597365729	5.241565	2.2894466
5.40900982454232	5.215618	2.2837727
5.426556178631843	5.237886	2.288643
5.444102660048449	5.277194	2.2972145
5.4616492692063225	5.311611	2.3046932
5.479196006519669	5.2923	2.3005
5.496742872402727	5.3193016	2.3063612
5.514289867269756	5.316964	2.3058543
5.531836991535049	5.326826	2.3079917
5.549384245612924	5.3185534	2.3061988
5.566931629917724	5.3018165	2.3025675
5.584479144863822	5.22726	2.2863202
5.6020267908656205	5.1991916	2.2801735
5.619574568337545	5.1880703	2.2777336
5.637122477694054	5.130671	2.2650986
5.654670519349629	5.151957	2.2697923
5.672218693718784	5.128557	2.2646317
5.689767001216059	5.13375	2.265778
5.707315442256021	5.163519	2.2723377
5.724864017253266	5.208117	2.28213
5.7424127266224225	5.2897453	2.2999446
5.75996157077814	5.307085	2.3037112
5.777510550135105	5.3403993	2.3109305
5.795059665108022	5.288143	2.2995963
5.812608916111639	5.2719717	2.2960775
5.830158303560715	5.4100738	2.3259566
5.847707827870055	5.4856825	2.3421533
5.86525748945448	5.5790467	2.3620005
5.8828072887288485	5.680725	2.3834271
5.900357226108044	5.723297	2.3923414
5.917907302006979	5.7733984	2.4027896
5.9354575168406	6.2774415	2.5054822
5.9530078710238765	6.8761845	2.622248
5.970558364971812	7.480997	2.735141
5.988108999099438	7.836225	2.7993257
6.005659773821818	8.407609	2.8995876
6.023210689554039	8.1381445	2.8527434
6.040761746711227	8.430764	2.9035778
6.058312945708531	7.7477183	2.7834723
6.075864286961132	7.2770166	2.6975946
6.093415770884244	6.743429	2.5968113
6.1109673978931065	6.311335	2.512237
6.128519168402993	5.7391944	2.3956616
6.146071082829204	5.620865	2.3708363
6.163623141587075	5.424932	2.3291483
6.181175345091969	5.329722	2.308619
6.198727693759281	5.2320695	2.2873716
6.216280188004435	5.246846	2.2905996
6.233832828242885	5.288076	2.2995818
6.251385614890126	5.307147	2.3037245
6.268938548361669	5.2399325	2.28909
6.286491629073067	5.1225014	2.2632945
6.304044857439898	5.105525	2.2595408
6.321598233877777	5.027837	2.2422838
6.339151758802344	4.9968987	2.2353745
6.356705432629277	4.9877477	2.2333267
6.37425925577428	4.982528	2.2321577
6.391813228653095	5.0083857	2.2379422
6.409367351681486	5.047575	2.246681
6.426921625275259	4.983192	2.2323065
6.44447604985025	5.0255055	2.2417638
6.46203062582232	5.0504146	2.2473128
6.47958535360737	5.0960193	2.2574365
6.497140233621328	5.11593	2.2618423
6.514695266280161	5.0232515	2.2412612
6.532250451999859	4.9808936	2.2317915
6.549805791196454	5.005128	2.2372143
6.567361284286002	5.075782	2.2529495
6.584916931684597	5.114036	2.2614233
6.602472733808367	5.113562	2.2613187
6.6200286910734665	5.0568857	2.248752
6.637584803896092	5.022254	2.2410386
6.655141072692462	5.005736	2.2373502
6.672697497878842	5.0322695	2.243272
6.690254079871514	5.064697	2.250488
6.707810819086808	5.0839157	2.254754
6.725367715941078	5.020571	2.240663
6.742924770850719	5.0547714	2.248282
6.760481984232151	5.031289	2.2430534
6.778039356501836	5.0218587	2.2409503
6.795596888076266	5.0450883	2.2461274
6.813154579371963	5.033322	2.2435067
6.830712430805492	5.0434847	2.2457705
6.84827044279344	4.977932	2.231128
6.865828615752445	5.0019608	2.2365065
6.883386950099159	5.0345974	2.2437909
6.900945446250287	5.143781	2.2679906
6.918504104622553	5.144257	2.2680955
6.936062925632727	5.1660175	2.2728875
6.953621909697607	5.1437416	2.2679818
6.971181057234028	5.170678	2.2739124
6.988740368658859	5.207413	2.2819757
7.006299844389007	5.187953	2.2777078
7.023859484841407	5.2421107	2.2895656
7.041419290433036	5.3528285	2.313618
7.058979261580902	5.540122	2.3537464
7.0765393987020495	5.8097076	2.4103334
7.094099702213559	6.219921	2.493977
7.111660172532549	6.645563	2.577899
7.129220810076164	6.973579	2.6407535
7.146781615261595	7.5613036	2.7497826
7.16434258850606	7.7321515	2.7806747
7.181903730226821	8.220104	2.8670723
7.1994650408411704	8.367595	2.8926795
7.217026520766437	8.481857	2.9123628
7.234588170419983	8.603457	2.933165
7.252149990219215	8.522598	2.919349
7.269711980581568	8.3858795	2.8958383
7.2872741419245175	8.232023	2.8691502
7.304836474665574	7.883231	2.8077092
7.322398979222286	7.6390305	2.7638795
7.339961656012233	7.3344617	2.7082212
7.357524505453039	6.988071	2.643496
7.375087527962357	6.683353	2.5852182
7.392650723957886	6.3814263	2.5261486
7.410214093857353	6.0601788	2.461743
7.427777638078528	5.831514	2.4148529
7.445341357039213	5.6784286	2.3829453
7.4629052511572525	5.503414	2.3459356
7.480469320850524	5.4355583	2.3314283
7.498033566536948	5.3615155	2.3154948
7.5155979886344735	5.2824287	2.2983534
7.5331625875610975	5.2105613	2.2826655
7.550727363734844	5.263541	2.294241
7.568292317573788	5.252602	2.2918556
7.585857449496025	5.3394504	2.310725
7.603422759919705	5.3489537	2.3127806
7.620988249263007	5.332061	2.3091257
7.638553917944147	5.2737255	2.2964594
7.656119766381391	5.23123	2.2871883
7.673685794993023	5.2361856	2.2882712
7.691252004197388	5.2680345	2.29522
7.70881839441285	5.2714276	2.295959
7.726384966057826	5.3048143	2.3032184
7.743951719550762	5.323972	2.3073735
7.761518655310149	5.369172	2.3171475
7.779085773754511	5.4236794	2.3288794
7.796653075302419	5.4745517	2.339776
7.814220560372475	5.479314	2.3407934
7.831788229383323	5.419336	2.3279467
7.8493560827536495	5.4038625	2.324621
7.866924120902174	5.406726	2.3252368
7.884492344247663	5.450635	2.3346596
7.9020607532089135	5.514016	2.3481941
7.919629348204771	5.541023	2.3539376
7.937198129654115	5.538682	2.3534405
7.954767097975865	5.5511036	2.356078
7.972336253588986	5.550009	2.3558457
7.989905596912472	5.5371566	2.3531163
8.007475128365371	5.5440707	2.354585
8.025044848366756	5.536608	2.353
8.042614757335754	5.6178865	2.370208
8.060184855691523	5.6490107	2.3767648
8.07775514385327	5.8847055	2.425841
8.095325622240228	5.9904423	2.447538
8.112896291271687	6.046574	2.4589782
8.130467151366968	5.9654226	2.4424214
8.148038202945436	5.9355884	2.4363062
8.165609446426497	5.942645	2.4377542
8.183180882229594	6.0466166	2.458987
8.200752510774217	6.110275	2.471897
8.218324332479893	6.1530643	2.4805372
8.235896347766193	6.1051445	2.470859
8.253468557052724	6.046506	2.4589643
8.27104096075914	5.988419	2.4471247
8.288613559305137	6.014052	2.4523563
8.306186353110448	6.130019	2.4758875
8.32375934259485	6.2873297	2.5074549
8.341332528178162	6.3457265	2.5190725
8.358905910280246	6.386617	2.5271757
8.376479489321003	6.3158765	2.5131407
8.394053265720377	6.315669	2.5130994
8.411627239898356	6.3631	2.5225186
8.42920141227497	6.367239	2.5233388
8.44677578327029	6.330487	2.5160458
8.464350353304427	6.3077993	2.5115333
8.48192512279754	6.3047976	2.5109355
8.499500092169827	6.2974086	2.5094638
8.51707526184153	6.2693133	2.5038598
8.534650632232934	6.2895956	2.5079067
8.552226203764365	6.304002	2.5107772
8.569801976856192	6.3487363	2.5196698
8.587377951928834	6.3702865	2.5239427
8.60495412940274	6.406517	2.5311098
8.622530509698416	6.411677	2.5321288
8.6401070932364	6.5239806	2.5542085
8.657683880437283	6.6296444	2.5748096
8.675260871721695	6.8210764	2.6117191
8.692838067510303	7.0049186	2.6466806
8.710415468223834	7.1705284	2.6777842
8.727993074283043	7.2611184	2.6946464
8.745570886108737	7.14428	2.6728785
8.763148904121765	7.175571	2.6787257
8.78072712874302	7.1710024	2.6778727
8.798305560393441	7.474732	2.7339957
8.815884199494006	7.589542	2.7549124
8.833463046465745	7.7800612	2.7892761
8.851042101729728	7.971827	2.8234425
8.86862136570707	8.346818	2.889086
8.886200838818924	8.577779	2.9287846
8.903780521486505	8.652678	2.9415433
8.921360414131055	8.681631	2.9464607
8.938940517173874	8.819153	2.9697058
8.956520831036297	8.961429	2.9935646
8.97410135613971	9.220811	3.036579
8.99168209290554	9.310128	3.0512502
9.009263041755265	9.589241	3.09665
9.026844203110405	9.809517	3.1320148
9.044425577392525	9.979396	3.1590183
9.062007165023239	10.036004	3.1679652
9.079588966424197	10.305313	3.2101889
9.097170982017108	10.427089	3.2291002
9.11475321222372	11.448384	3.383546
9.132335657465825	12.409373	3.522694
9.149918318165264	12.441069	3.52719
9.167501194743924	12.967986	3.601109
9.18508428762374	12.598078	3.5493772
9.202667597226693	12.592335	3.548568
9.220251123974803	12.326683	3.5109377
9.237834868290143	12.054689	3.4719863
9.255418830594836	11.989129	3.4625323
9.273003011311046	11.411632	3.3781106
9.290587410860985	11.152133	3.3394809
9.308172029666911	10.444152	3.2317412
9.32575686815113	10.162184	3.187818
9.343341926735997	8.842272	2.9735959
9.360927205843916	8.563396	2.9263282
9.378512705897327	8.366676	2.8925207
9.396098427318728	8.247037	2.8717654
9.413684370530664	8.206238	2.864653
9.431270535955722	8.107984	2.8474522
9.448856924016539	8.08287	2.8430388
9.466443535135806	7.925075	2.815151
9.484030369736251	7.84598	2.8010676
9.501617428240658	7.828541	2.797953
9.519204711071852	7.821105	2.796624
9.536792218652714	7.892742	2.8094025
9.55437995140617	7.8830147	2.8076706
9.571967909755191	7.888424	2.8086338
9.589556094122802	7.904558	2.8115046
9.60714450493207	7.988884	2.8264613
9.624733142606116	8.011427	2.8304465
9.642322007568108	8.06428	2.8397675
9.659911100241267	8.048451	2.8369794
9.677500421048851	8.132677	2.851785
9.695089970414175	8.110613	2.8479137
9.712679748760609	8.162104	2.8569396
9.730269756511557	8.189953	2.8618093
9.747859994090492	8.30282	2.8814614
9.765450461920915	8.348895	2.8894455
9.78304116042639	8.425453	2.9026632
9.800632090030527	8.419676	2.9016678
9.81822325115699	8.444005	2.905857
9.835814644229481	8.381073	2.8950083
9.853406269671762	8.393808	2.897207
9.870998127907646	8.370896	2.8932502
9.888590219360985	8.385906	2.895843
9.906182544455698	8.392821	2.8970366
9.923775103615734	8.345908	2.8889287
9.941367897265108	8.359644	2.891305
9.958960925827878	8.253812	2.8729448
9.97655418972816	8.219291	2.8669305
9.994147689390106	8.2889185	2.879048
10.011741425237934	8.410464	2.90008
10.029335397695904	8.457356	2.9081535
10.04692960718833	8.446666	2.9063148
10.06452405413958	8.457313	2.908146
10.082118738974064	8.440734	2.9052942
10.099713662116246	8.39657	2.8976836
10.117308823990651	8.302148	2.8813448
10.134904225021844	8.267217	2.8752768
10.152499865634445	8.253685	2.8729227
10.170095746253125	8.289362	2.879125
10.18769186730261	8.37521	2.8939955
10.205288229207675	8.368508	2.8928375
10.222884832393145	8.339418	2.8878052
10.2404816772839	8.201203	2.8637743
10.258078764304868	8.114388	2.8485765
10.275676093881035	8.077621	2.8421156
10.293273666437438	8.125656	2.8505538
10.310871482399158	8.220167	2.8670833
10.32846954219134	8.239839	2.870512
10.346067846239173	8.310124	2.8827286
10.363666394967908	8.265666	2.8750072
10.38126518880283	8.293411	2.8798285
10.398864228169298	8.288852	2.8790367
10.416463513492713	8.284263	2.8782394
10.434063045198531	8.1936865	2.8624616
10.451662823712262	8.152364	2.8552344
10.469262849459467	8.22068	2.867173
10.486863122865758	8.222314	2.8674576
10.504463644356806	8.251309	2.8725092
10.522064414358338	8.150644	2.8549333
10.539665433296118	7.9814515	2.8251462
10.557266701595987	7.9061337	2.8117847
10.574868219683818	7.852674	2.8022623
10.592469987985552	7.8194504	2.796328
10.610072006927185	7.7112374	2.7769115
10.627674276934751	7.5680203	2.7510035
10.64527679843435	7.4427648	2.7281432
10.662879571852143	7.274296	2.6970901
10.680482597614331	7.2110133	2.685333
10.698085876147173	7.1457205	2.6731482
10.715689407876988	7.061067	2.6572669
10.733293193230146	6.9499435	2.6362746
10.750897232633072	6.75677	2.5993788
10.76850152651225	6.6708794	2.5828044
10.786106075294207	6.6121755	2.5714152
10.803710879405534	6.610274	2.5710454
10.821315939272877	6.569983	2.5631979
10.83892125532294	6.4437704	2.5384583
10.856526827982472	6.420475	2.5338657
10.874132657678285	6.4038563	2.530584
10.891738744837243	6.3653097	2.5229566
10.909345089886271	6.3118954	2.5123487
10.926951693252343	6.2669587	2.5033894
10.944558555362494	6.15022	2.4799638
10.96216567664381	6.076798	2.4651163
10.979773057523436	5.9968514	2.448847
10.997380698428573	5.9536815	2.4400167
11.014988599786477	5.8794355	2.4247546
11.032596762024461	5.7626414	2.4005501
11.050205185569892	5.7301354	2.3937702
11.067813870850198	5.698105	2.3870704
11.085422818292859	5.666945	2.3805346
11.10303202832541	5.634996	2.3738146
11.120641501375454	5.5149627	2.3483958
11.138251237870636	5.406691	2.3252292
11.155861238238671	5.2934937	2.3007593
11.173471502907317	5.187853	2.2776859
11.191082032304402	5.125209	2.2638924
11.208692826857805	5.1171665	2.2621155
11.226303886995465	5.083316	2.254621
11.243915213145371	5.0712357	2.2519405
11.261526805735578	4.9763927	2.230783
11.279138665194196	4.913601	2.2166643
11.296750791949393	4.8288465	2.1974638
11.314363186429393	4.754573	2.1804984
11.331975849062479	4.708076	2.16981
11.34958878027699	4.694618	2.1667068
11.36720198050133	4.667832	2.1605165
11.384815450163948	4.624904	2.150559
11.402429189693366	4.5877624	2.1419063
11.420043199518153	4.523548	2.1268635
11.437657480066942	63.50726	7.9691443
11.455272031768422	85.23941	9.232519
11.472886855051353	107.613365	10.373686
11.490501950344528	99.20129	9.959984
11.508117318076819	84.57155	9.19628
11.52573295867715	45.987373	6.7813993
11.543348872574514	4.314238	2.0770743
11.560965060197946	4.216027	2.0532966
11.57858152197655	4.135399	2.033568
11.59619825833949	4.0364733	2.0090976
11.613815269715985	3.957794	1.9894205
11.631432556535323	38.47452	6.2027836
11.649050119226837	83.04033	9.112647
11.666667958219929	93.51621	9.670378
11.68428607394406	107.775826	10.381514
11.701904466828756	82.57572	9.087118
11.719523137303586	65.41002	8.0876465
11.737142085798196	4.570323	2.1378314
11.754761312742286	3.675905	1.9172649
11.772380818565619	3.651047	1.9107713
11.790000603698015	3.6556487	1.911975
11.80762066856935	3.6387525	1.9075514
11.825241013609572	3.5958571	1.8962746
11.842861639248683	3.573084	1.8902603
11.860482545916748	3.5263066	1.8778462
11.878103734043883	3.4965148	1.869897
11.895725204060282	3.4845066	1.8666834
11.91334695639619	3.5084171	1.8730769
11.930968991481919	3.473614	1.8637633
11.948591309747824	3.4131694	1.8474765
11.966213911624347	3.3696203	1.8356526
11.98383679754198	3.3218498	1.8225943
12.001459967931268	3.331691	1.825292
12.019083423222835	3.3490162	1.8300318
12.036707163847352	3.3323128	1.8254623
12.05433119023556	3.3284128	1.8243939
12.071955502818259	3.302081	1.8171629
12.089580102026313	3.3004253	1.8167073
12.107204988290643	3.2646828	1.8068433
12.12483016204224	3.226091	1.7961322
12.142455623712152	3.2397296	1.7999249
12.16008137373149	3.1739023	1.7815449
12.177707412531431	3.1424212	1.7726876
12.19533374054321	3.129563	1.7690572
12.212960358198126	3.1171756	1.7655525
12.230587265927545	3.144386	1.7732416
12.248214464162889	3.1067936	1.7626098
12.265841953335649	3.0785675	1.7545847
12.283469733877375	3.0643723	1.7505349
12.301097806219685	3.0501835	1.7464775
12.31872617079425	3.082505	1.7557064
12.336354828032825	3.0162647	1.7367396
12.353983778367205	2.951325	1.7179421
12.371613022229262	2.8940883	1.701202
12.389242560050928	2.9022946	1.7036122
12.406872392264201	2.920135	1.7088403
12.424502519301143	2.9281483	1.7111833
12.442132941593874	2.9311924	1.7120725
12.459763659574586	2.929394	1.7115473
12.477394673675532	2.926858	1.7108063
12.49502598432903	2.9173956	1.7080386
12.51265759196746	2.9336007	1.7127757
12.530289497023267	2.9216378	1.7092799
12.547921699928967	2.9135418	1.70691
12.565554201117134	2.9012828	1.7033153
12.583187001020404	2.8530796	1.6891061
12.600820100071486	2.8052468	1.6748871
12.618453498703152	2.755244	1.6598928
12.636087197348235	2.766843	1.663383
12.65372119643964	2.782748	1.6681571
12.671355496410326	2.7972434	1.6724962
12.68899009769333	2.8225584	1.6800472
12.706625000721749	2.8785498	1.6966289
12.724260205928752	2.9320047	1.7123097
12.741895713747551	2.9813645	1.7266629
12.759531524611454	3.033435	1.741676
12.777167638953818	3.0460029	1.7452801
12.794804057208072	3.0668128	1.7512318
12.812440779807702	3.1242597	1.7675575
12.830077807186271	3.3390427	1.8273047
12.847715139777405	3.3617718	1.8335135
12.865352778014795	3.5428913	1.882257
12.882990722332197	3.5987983	1.8970499
12.90062897316344	3.7043924	1.9246799
12.918267530942412	3.7839127	1.9452282
12.935906396103071	3.6817446	1.9187872
12.953545569079449	3.8450615	1.9608829
12.971185050305628	3.6739023	1.9167426
12.988824840215775	3.683095	1.9191391
13.006464939244115	3.5972636	1.8966453
13.024105347824943	3.4239986	1.850405
13.041746066392617	3.5057697	1.8723701
13.05938709538157	3.3765993	1.8375525
13.077028435226296	3.3962288	1.842886
13.094670086361363	3.3579268	1.8324647
13.112312049221401	3.2537248	1.8038085
13.129954324241112	3.1132393	1.7644374
13.147596911855258	2.8865159	1.698975
13.165239812498685	2.8237336	1.6803968
13.182883026606293	2.7802308	1.6674024
13.200526554613058	2.7424877	1.6560458
13.218170396954017	2.7689922	1.6640289
13.235814554064284	2.8039198	1.6744909
13.253459026379034	2.8258054	1.6810132
13.271103814333523	2.7706213	1.6645184
13.288748918363058	2.7442272	1.6565709
13.306394338903031	2.7453172	1.6568999
13.32404007638889	2.7404997	1.6554455
13.341686131256164	2.724788	1.6506932
13.359332503940449	2.6903582	1.6402311
13.376979194877402	2.7118149	1.6467589
13.394626204502751	2.7641318	1.6625679
13.412273533252307	2.7573106	1.6605152
13.429921181561937	2.7131236	1.6471562
13.447569149867581	2.722956	1.6501381
13.465217438605247	2.7494884	1.6581581
13.482866048211022	2.76423	1.6625974
13.500514979121052	2.7977207	1.6726389
13.518164231771568	2.758427	1.6608512
13.535813806598844	2.760235	1.6613955
13.553463704039254	2.6905205	1.6402806
13.571113924529229	2.6933343	1.6411381
13.588764468505275	2.7005148	1.6433243
13.606415336403956	2.7279809	1.6516601
13.624066528661917	2.7789016	1.6670038
13.641718045715882	2.8357153	1.6839582
13.659369888002635	2.9169667	1.7079129
13.67702205595903	2.9608169	1.7207024
13.694674550021993	3.0281188	1.7401491
13.712327370628532	3.080193	1.7550479
13.729980518215713	3.182281	1.7838949
13.747633993220681	3.2714586	1.8087174
13.765287796080647	3.2865255	1.8128777
13.7829419272329	3.3089595	1.8190546
13.800596387114801	3.3427038	1.8283063
13.818251176163775	3.406439	1.8456541
13.835906294817324	3.4739804	1.8638617
13.853561743513023	3.5310888	1.8791192
13.871217522688525	3.5814326	1.8924674
13.888873632781538	3.611848	1.9004862
13.906530074229858	3.6317105	1.9057047
13.92418684747135	3.5992212	1.8971614
13.941843952943948	3.5807064	1.8922755
13.959501391085665	3.5671346	1.888686
13.977159162334578	3.479076	1.865228
13.994817267128846	3.4270074	1.8512179
14.012475705906693	3.305908	1.8182156
14.030134479106424	3.2317493	1.7977067
14.047793587166414	3.1316848	1.7696567
14.065453030525108	3.0877411	1.7571969
14.083112809621026	3.0444434	1.7448334
14.100772924892766	3.0023444	1.7327274
14.118433376778997	2.9133615	1.7068572
14.136094165718458	2.8368316	1.6842896
14.153755292149969	2.8018718	1.6738793
14.171416756512416	2.7535372	1.6593785
14.189078559244768	2.7164655	1.6481704
14.20674070078606	2.6400175	1.6248131
14.224403181575408	2.5960224	1.6112176
14.242066002051999	2.5358095	1.5924225
14.259729162655093	2.484545	1.576244
14.277392663824022	2.455088	1.566872
14.295056505998208	2.4238007	1.556856
14.312720689617128	2.3911302	1.546328
14.330385215120348	2.3823364	1.543482
14.348050082947497	2.411333	1.5528468
14.3657152935383	2.4480364	1.5646203
14.383380847332528	2.4483275	1.5647132
14.401046744770051	2.4715204	1.572107
14.418712986290798	2.4802203	1.5748715
14.436379572334793	2.4841578	1.5761211
14.454046503342123	2.41693	1.5546478
14.471713779752946	2.3828368	1.543644
14.489381402007504	2.3790793	1.5424265
14.507049370546113	2.386893	1.5449573
14.524717685809168	2.437097	1.5611205
14.542386348237134	2.4627125	1.5693032
14.560055358270553	2.4323654	1.5596043
14.577724716350051	2.454009	1.5665277
14.595394422916325	2.4577115	1.567709
14.61306447841015	2.5243638	1.5888246
14.63073488327237	2.5165775	1.5863724
14.648405637943917	2.5342345	1.5919279
14.6660767428658	2.5288026	1.5902209
14.683748198479094	2.587911	1.6086985
14.701420005224954	2.668472	1.6335459
14.719092163544628	2.7379062	1.654662
14.73676467387942	2.7439604	1.6564903
14.754437536670727	2.761289	1.6617126
14.772110752360014	2.7623415	1.6620294
14.78978432138882	2.7476847	1.6576141
14.807458244198777	2.7078938	1.6455679
14.82513252123159	2.6735764	1.6351074
14.842807152929028	2.673998	1.6352364
14.860482139732962	2.6916428	1.6406226
14.87815748208531	2.7043421	1.6444885
14.8958331804281	2.704111	1.6444181
14.91350923520342	2.6790931	1.6367935
14.931185646853438	2.695948	1.6419342
14.948862415820408	2.7334485	1.6533144
14.966539542546656	2.7473302	1.6575072
14.98421702747459	2.709889	1.6461741
15.001894871046696	2.6708612	1.634277
15.019573073705542	2.6904266	1.640252
15.037251635893766	2.6925092	1.6408867
15.054930558054092	2.7570274	1.6604298
15.072609840629323	2.8103757	1.6764175
15.090289484062351	2.9662929	1.7222929
15.107969488796124	3.240296	1.8000822
15.125649855273691	3.6304004	1.9053609
15.14333058393817	4.1230555	2.030531
15.161011675232768	5.081858	2.2542977
15.17869312960076	6.462502	2.5421453
15.196374947485506	8.25196	2.8726225
15.214057129330447	11.247846	3.3537807
15.231739675579114	15.968364	3.9960434
15.249422586675102	21.0293	4.5857716
15.267105863062092	24.24019	4.923433
15.284789505183847	24.574358	4.957253
15.302473513484218	22.46203	4.7394123
15.320157888407127	18.850216	4.3416834
15.337842630396578	14.656897	3.8284326
15.355527739896656	11.487855	3.3893738
15.37321321735153	8.988422	2.9980698
15.39089906320545	6.6098866	2.57097
15.408585277902748	5.0085006	2.237968
15.42627186188783	3.88471	1.9709668
15.443958815605198	3.3188329	1.8217664
15.461646139499424	2.9762564	1.725183
15.479333834015168	2.8250058	1.6807754
15.497021899597165	2.76509	1.662856
15.514710336690234	2.7543943	1.6596367
15.53239914573928	2.7340443	1.6534946
15.550088327189297	2.667139	1.6331378
15.567777881485336	2.620028	1.6186501
15.58546780907256	2.5575647	1.5992388
15.6031581103962	2.5304477	1.590738
15.620848785901568	2.5055351	1.5828882
15.638539836034063	2.4720688	1.5722814
15.656231261239173	2.4606848	1.568657
15.673923061962451	2.4365602	1.5609485
15.691615238649552	2.4167123	1.5545778
15.709307791746202	2.388581	1.5455035
15.727000721698221	2.384815	1.5442846
15.744694028951498	2.3977942	1.5484812
15.76238771395202	2.3946404	1.5474626
15.780081777145844	2.3521054	1.5336576
15.797776218979125	2.3161564	1.5218924
15.815471039898094	2.3339093	1.5277138
15.833166240349064	2.34798	1.532312
15.850861820778437	2.3565223	1.5350969
15.868557781632699	2.3618402	1.536828
15.886254123358412	2.4095092	1.5522593
15.903950846402232	2.401839	1.5497868
15.921647951210897	2.4183786	1.5551137
15.939345438231225	2.4175155	1.5548362
15.957043307910133	2.4290695	1.5585473
15.974741560694602	2.4353647	1.5605655
15.992440197031714	2.445867	1.5639268
16.01013921736862	2.443705	1.5632354
16.02783862215259	2.4370449	1.5611037
16.045538411830933	2.4309218	1.5591414
16.06323858685107	2.4109936	1.5527375
16.080939147660512	2.430246	1.5589247
16.09864009470684	2.4356446	1.5606552
16.11634142843774	2.4031103	1.5501969
16.134043149300954	2.382428	1.5435115
16.15174525774433	2.386065	1.5446893
16.169447754215817	2.422383	1.5564007
16.18715063916342	2.4397707	1.5619766
16.204853913035244	2.4909143	1.578263
16.222557576279478	2.5232499	1.588474
16.240261629344403	22.476515	4.74094
16.257966072678386	42.965126	6.554779
16.275670906729868	38.07103	6.1701727
16.293376131947387	2.5438066	1.5949315
16.31108174877957	2.6174636	1.6178577
16.328787757675133	2.61853	1.6181873
16.34649415908287	2.6143062	1.6168816
16.364200953451657	2.6482046	1.6273305
16.38190814123048	2.7022038	1.6438382
16.39961572286839	2.7207372	1.6494657
16.41732369881455	2.734742	1.6537055
16.43503206951817	2.7555556	1.6599866
16.45274083542859	2.7909245	1.670606
16.47044999699522	2.7937188	1.6714422
16.488159554667558	2.8397484	1.6851553
16.505869508895184	2.863546	1.6922015
16.523579860127786	2.9431777	1.7155693
16.541290608815117	2.968629	1.722971
16.559001755407035	3.0423846	1.7442433
16.57671330035348	3.076194	1.7539083
16.59442524410448	3.1474025	1.7740921
16.61213758711015	3.2511134	1.8030844
16.629850329820705	3.3115742	1.8197731
16.647563472686436	3.3828933	1.8392644
16.665277016157724	3.3862972	1.8401895
16.682990960685053	3.4209437	1.8495793
16.70070530671898	3.4492605	1.8572185
16.718420054710155	3.511797	1.8739789
16.736135205109335	3.5706143	1.889607
16.753850758367335	3.633091	1.9060669
16.771566714935087	3.707169	1.925401
16.789283075263597	3.784945	1.9454935
16.80699983980398	3.8437243	1.9605418
16.82471700900741	3.8469224	1.9613572
16.84243458332518	3.9317582	1.9828662
16.860152563208665	3.9766278	1.9941484
16.87787094910932	4.0187893	2.0046918
16.89558974147871	4.08129	2.0202203
16.913308940768466	4.146475	2.0362895
16.931028547430333	4.2296576	2.0566132
16.94874856191613	4.260894	2.0641932
16.966468984677785	4.328495	2.0805035
16.98418981616729	4.390106	2.095258
17.00191105683676	4.470553	2.1143682
17.019632707138374	4.514627	2.1247652
17.03735476752442	4.489963	2.1189532
17.05507723844728	4.505117	2.1225262
17.072800120359403	4.587551	2.141857
17.090523413713353	4.6842265	2.1643074
17.108247118961785	4.7759714	2.1853995
17.125971236557437	4.797602	2.190343
17.143695766953133	4.7942224	2.1895714
17.161420710601806	4.7898693	2.188577
17.179146067956477	4.755381	2.1806836
17.19687183947025	4.720422	2.1726532
17.21459802559634	4.6941237	2.1665926
17.232324626788028	4.707235	2.1696162
17.25005164349871	4.7654305	2.1829865
17.267779076181863	4.708792	2.1699753
17.285506925291074	4.6945376	2.1666882
17.30323519127999	4.6729903	2.16171
17.320963874602384	4.662355	2.1592486
17.33869297571211	4.623739	2.150288
17.356422495063114	4.5688896	2.137496
17.37415243310944	4.542776	2.131379
17.391882790305218	4.5505095	2.1331923
17.40961356710468	4.5893064	2.1422668
17.42734476396215	4.5558	2.134432
17.445076381332044	4.574678	2.1388497
17.462808419668868	4.595569	2.1437278
17.48054087942723	4.718818	2.1722841
17.498273761061835	4.9872394	2.2332127
17.51600706502747	5.4825745	2.3414898
17.533740791779024	6.28214	2.5064197
17.551474941771485	7.7203403	2.77855
17.56920951545993	8.806609	2.9675932
17.586944513299528	10.955647	3.3099318
17.60467993574556	12.563946	3.5445657
17.622415783253373	14.216118	3.7704268
17.64015205627843	15.594455	3.9489815
17.657888755276293	16.791805	4.0977807
17.675625880702604	17.370867	4.167837
17.69336343301311	17.134832	4.1394243
17.71110141266366	16.195745	4.024394
17.728839820110178	15.120679	3.8885317
17.746578655808705	14.311669	3.7830768
17.764317920215372	12.876854	3.5884333
17.7820576137864	11.403504	3.3769076
17.79979773697811	9.427862	3.0704825
17.81753829024692	7.6045103	2.7576277
17.835279274049356	5.9395113	2.4371114
17.85302068884201	4.870993	2.2070327
17.870762535081607	4.2846656	2.0699434
17.888504813224934	3.9784577	1.9946072
17.90624752372891	3.832355	1.9576402
17.923990667050536	3.6915147	1.9213315
17.941734243646895	3.5513763	1.8845096
17.959478253975185	3.475728	1.8643304
17.9772226984927	3.4744177	1.863979
17.994967577656833	3.456899	1.8592738
18.01271289192506	3.3947515	1.8424852
18.030458641754965	3.361907	1.8335503
18.04820482760425	3.3400795	1.8275884
18.06595144993067	3.3372471	1.8268133
18.083698509192125	3.3275347	1.8241532
18.101446005846576	3.2854955	1.8125936
18.119193940352105	3.2634463	1.8065012
18.136942313166887	3.228212	1.7967227
18.1546911247492	3.2291377	1.7969801
18.1724403755574	3.1878858	1.7854651
18.19019006604997	3.1730764	1.7813131
18.207940196685467	3.1368923	1.7711275
18.225690767922575	3.1159728	1.7652118
18.243441780220046	3.078083	1.7544466
18.261193234036764	3.0771382	1.7541773
18.278945129831676	3.0558567	1.7481009
18.29669746806386	3.0473409	1.7456634
18.314450249192483	3.046297	1.7453644
18.3322034736768	3.0557961	1.7480836
18.349957141976184	3.058603	1.7488862
18.3677112545501	3.0551302	1.7478931
18.385465811858108	3.091205	1.7581823
18.403220814359884	3.0857375	1.7566267
18.420976262515172	3.1103978	1.7636319
18.43873215678387	3.1235752	1.7673639
18.456488497625923	3.1621578	1.7782457
18.474245285501407	3.2463331	1.8017583
18.492002520870486	3.3457723	1.8291452
18.50976020419343	3.4289367	1.8517388
18.527518335930615	3.732443	1.9319532
18.545276916542516	4.344941	2.0844522
18.563035946489688	4.4912324	2.1192527
18.580795426232832	4.9029245	2.2142549
18.598555356232698	4.796922	2.1901877
18.616315736950185	5.1457033	2.2684143
18.63407656884626	4.7754297	2.1852756
18.65183785238201	4.9393015	2.2224538
18.669599588018617	4.7292557	2.1746852
18.68736177621737	4.7671585	2.1833823
18.705124417439652	4.7190423	2.1723356
18.72288751214696	4.52156	2.126396
18.740651060800886	4.689256	2.165469
18.758415063863115	4.415863	2.1013956
18.77617952179546	4.5793467	2.1399407
18.793944435059814	4.3222833	2.0790102
18.811709804118184	4.3379974	2.082786
18.829475629432675	4.298984	2.073399
18.8472419114655	4.0877047	2.0218072
18.86500865067897	4.2016277	2.0497873
18.88277584753551	3.8913875	1.97266
18.90054350249763	3.8661232	1.966246
18.918311616027957	3.512752	1.8742337
18.936080188589226	3.390879	1.8414339
18.953849220644265	3.1061919	1.7624391
18.971618712656007	2.9300926	1.7117513
18.9893886650875	2.8369489	1.6843245
19.007159078401887	8.001731	2.8287332
19.024929953062408	32.892693	5.735215
19.042701289532435	32.846024	5.731145
19.060473088275405	25.389837	5.038833
19.07824534975489	2.6955776	1.6418214
19.096018074434568	2.7104762	1.6463524
19.113791262778197	2.692816	1.6409802
19.13156491524966	2.6931577	1.6410843
19.149339032312945	2.6440322	1.6260481
19.167113614432136	2.60109	1.6127895
19.184888662071433	2.5581827	1.599432
19.202664175695123	2.5804985	1.606393
19.220440155767623	2.619779	1.6185732
19.238216602753447	2.6148636	1.617054
19.2559935171172	2.6100001	1.6155494
19.27377089932361	2.613758	1.6167121
19.291548749837514	2.5985396	1.6119987
19.309327069123835	2.5574372	1.5991989
19.32710585764763	2.5054216	1.5828524
19.344885115874032	2.509821	1.5842414
19.362664844268313	2.5400255	1.5937457
19.380445043295822	2.5362203	1.5925515
19.39822571342203	2.5330634	1.59156
19.41600685511252	2.5601468	1.6000459
19.43378846883297	2.560746	1.6002331
19.451570555049173	2.5576928	1.5992788
19.469353114227037	2.5392427	1.5935001
19.48713614683254	2.512716	1.5851549
19.50491965333182	2.4990475	1.5808376
19.52270363419109	2.4711087	1.5719761
19.540488089876686	2.4931176	1.5789609
19.55827302085503	2.499464	1.5809693
19.576058427592674	2.4965665	1.5800527
19.593844310556282	2.4631138	1.5694311
19.611630670212598	2.4624574	1.569222
19.629417507028506	2.4910824	1.5783163
19.64720482147098	2.5139904	1.5855569
19.6649926140071	2.5347223	1.5920812
19.682780885104084	2.5264418	1.5894785
19.70056963522921	2.55264	1.5976983
19.718358864849908	2.557883	1.5993383
19.7361485744337	2.5599058	1.5999706
19.753938764448215	2.561702	1.6005318
19.771729435361202	2.5900168	1.609353
19.789520587640506	2.6170604	1.6177331
19.807312221754092	2.6193955	1.6184547
19.825104338170043	2.574831	1.604628
19.842896937356517	2.5100365	1.5843095
19.860690019781824	2.5065343	1.5832038
19.87848358591436	2.5333564	1.5916522
19.896277636222635	2.5883985	1.60885
19.914072171175278	2.5571666	1.5991143
19.931867191241015	2.5076685	1.583562
19.94966269688869	2.4996834	1.5810387
19.967458688587264	2.497413	1.5803205
19.985255166805807	2.504183	1.5824611
20.00305213201348	2.4906669	1.5781847
20.020849584679578	2.4912825	1.5783798
20.038647525273507	2.4578269	1.5677458
20.05644595426477	2.4570048	1.5674835
20.07424487212299	2.4430447	1.5630242
20.092044279317903	2.4543135	1.5666249
20.109844176319353	2.450917	1.5655404
20.127644563597304	2.470501	1.5717827
20.145445441621817	2.466944	1.5706508
20.16324681086307	2.4520555	1.565904
20.181048671791373	2.4441478	1.563377
20.198851024877122	2.4488423	1.5648777
20.216653870590836	2.4253476	1.5573528
20.234457209403146	2.3765776	1.5416152
20.252261041784802	2.3712664	1.5398917
20.270065368206662	2.4026577	1.5500509
20.287870189139685	2.4082246	1.5518456
20.305675505054968	2.3948736	1.5475379
20.323481316423702	2.372304	1.5402285
20.341287623717207	2.3592305	1.5359787
20.359094427406884	2.34619	1.5317278
20.376901727964288	2.3837972	1.5439551
20.39470952586107	2.386422	1.5448048
20.41251782156899	2.3688867	1.5391188
20.430326615559935	2.3530133	1.5339534
20.448135908305886	2.3487685	1.5325693
20.465945700278965	2.3425157	1.530528
20.483755991951384	2.3327725	1.5273416
20.50156678379548	2.3470407	1.5320054
20.519378076283708	2.3634634	1.537356
20.537189869888635	2.3562005	1.534992
20.55500216508294	2.3346813	1.5279664
20.572814962339415	2.3294985	1.5262694
20.59062826213098	2.3602335	1.5363052
20.60844206493066	2.370578	1.5396682
20.626256371211593	2.3903477	1.546075
20.644071181447032	2.388581	1.5455035
20.66188649611036	2.3977172	1.5484564
20.67970231567506	2.4030108	1.5501648
20.697518640614742	2.4006164	1.5493922
20.715335471403122	2.4074855	1.5516074
20.73315280851404	2.4027236	1.5500721
20.750970652421447	2.3822567	1.5434561
20.768789003599412	2.3404062	1.5298386
20.786607862522136	2.337151	1.5287744
20.8044272296639	2.2995408	1.5164237
20.82224710549913	2.267016	1.5056612
20.84006749050237	2.2528796	1.5009595
20.857888385148268	3.818306	1.9540486
20.8757097899116	45.93889	6.7778234
20.893531705267254	64.815155	8.050786
20.911354131690224	83.82196	9.155434
20.92917706965566	69.08301	8.311619
20.94700051963877	50.13999	7.08096
20.96482448211493	29.408611	5.422971
20.982648957559622	4.169812	2.0420117
21.00047394644843	2.2518404	1.5006133
21.01829944925707	2.2292964	1.4930829
21.036125466461375	2.2536848	1.5012277
21.053951998537297	2.2945495	1.5147771
21.071779045960906	2.27877	1.5095595
21.089606609208378	2.2476015	1.4992003
21.10743468875603	2.2545807	1.5015261
21.12526328508028	2.27639	1.5087711
21.143092398657675	2.2869415	1.5122637
21.16092202996488	2.268307	1.5060899
21.17875217947867	2.2644598	1.5048122
21.19658284767596	2.2665012	1.5054903
21.21441403503377	2.2413926	1.4971281
21.232245742029225	2.2225003	1.4908053
21.2500779691396	2.1724257	1.4739151
21.26791071684227	2.1729274	1.4740852
21.28574398561475	2.2105622	1.4867959
21.30357777593465	2.2303967	1.4934512
21.321412088279704	2.2368996	1.4956268
21.339246923127792	2.2448936	1.4982969
21.357082280956888	2.234128	1.4947
21.3749181622451	2.1992028	1.482971
21.392754567470647	2.1734588	1.4742656
21.41059149711187	2.173404	1.4742469
21.42842895164726	2.160837	1.4699786
21.446266931555378	2.138532	1.4623721
21.464105437314945	2.1342595	1.4609104
21.481944469404798	2.1302223	1.4595281
21.49978402830388	2.1142023	1.4540297
21.51762411449127	2.1457138	1.4648255
21.53546472844617	2.167864	1.4723668
21.553305870647876	2.1742837	1.4745452
21.571147541575865	2.1377153	1.4620928
21.58898974170967	2.115508	1.4544786
21.60683247152899	2.090214	1.4457573
21.62467573151363	2.1076496	1.4517746
21.642519522143523	2.1146348	1.4541783
21.660363843898722	2.1116257	1.4531434
21.6782086972594	2.1027827	1.4500974
21.696054082705864	2.0918639	1.4463277
21.713900000718535	2.0427852	1.4292604
21.73174645177795	2.0175276	1.4203969
21.749593436364794	2.0306604	1.4250125
21.767440954959845	2.0670123	1.4377108
21.785289008044032	2.0389946	1.4279337
21.803137596098388	2.0075037	1.416864
21.820986719604086	2.0086591	1.4172717
21.838836379042412	2.0019026	1.4148861
21.85668657489478	2.0514517	1.432289
21.87453730764273	2.0729976	1.4397908
21.892388577767914	2.095045	1.447427
21.91024038575213	2.0648217	1.4369488
21.928092732077285	2.0268571	1.4236773
21.945945617225426	2.0034387	1.4154288
21.963799041678694	1.9971126	1.4131924
21.981653005919398	31.336355	5.5978885
21.999507510429943	78.12092	8.838604
22.01736255569286	73.0814	8.548766
22.035218142190818	4.195451	2.04828
22.05307427040661	2.0501354	1.4318293
22.07093094082315	2.0464618	1.430546
22.088788153923474	2.0298378	1.4247237
22.106645910190746	1.9993666	1.4139897
22.12450421010827	2.0053596	1.4161072
22.142363054159464	2.03675	1.4271475
22.16022244282787	2.077106	1.4412168
22.178082376597164	2.0687895	1.4383287
22.195942855951145	2.0450323	1.4300462
22.213803881373742	1.9911968	1.4110978
22.231665453349002	1.9800148	1.40713
22.24952757236111	1.9998009	1.4141432
22.26739023889438	2.0400867	1.428316
22.28525345343323	2.0217216	1.4218726
22.30311721646225	1.982806	1.4081215
22.320981528466113	1.9570378	1.3989416
22.33884638992964	1.9342339	1.3907673
22.356711801337788	1.9175514	1.3847568
22.37457776317561	1.9206455	1.3858736
22.392444275928337	1.9616231	1.4005796
22.410311340081282	1.9655036	1.4019642
22.428178956119904	1.9979466	1.4134874
22.446047124529805	2.0022902	1.4150231
22.46391584579669	2.018666	1.4207977
22.481785120406414	1.9903678	1.4108039
22.49965494884496	1.9964702	1.412965
22.51752533159841	1.964664	1.4016647
22.53539626915302	1.9685634	1.4030551
22.553267761995137	1.9702265	1.4036475
22.571139810611264	1.9534035	1.3976421
22.589012415488025	1.9436125	1.394135
22.60688557711216	1.9393971	1.3926224
22.624759295970566	1.9817379	1.4077421
22.642633572550263	1.9747611	1.405262
22.660508407338362	1.9794631	1.4069339
22.67838380082217	1.9850208	1.4089077
22.696259753489077	2.0185647	1.4207621
22.714136265826614	2.0209634	1.421606
22.73201333832246	1.9990648	1.4138829
22.74989097146439	1.9671462	1.4025499
22.76776916574035	1.9764144	1.40585
22.785647921638393	1.9415041	1.3933786
22.803527239646712	1.9478413	1.3956509
22.82140712025363	1.9298613	1.3891945
22.839287563947593	1.9554294	1.3983667
22.85716857121719	1.9683402	1.4029754
22.875050142551135	1.982129	1.407881
22.892932278438277	1.9307833	1.3895262
22.910814979367604	1.9328992	1.3902875
22.928698245828222	1.920101	1.3856771
22.946582078309387	1.934812	1.3909752
22.96446647730047	1.9097807	1.3819481
22.98235144329098	1.9337503	1.3905935
23.000236976770562	1.8959858	1.376948
23.018123078229	1.8567564	1.3626285
23.03600974815619	1.8294266	1.352563
23.053896987042194	1.8791134	1.3708075
23.071784795377173	1.9365247	1.3915907
23.08967317365145	1.982737	1.4080969
23.10756212235546	1.9669219	1.40247
23.125451641979787	1.9278369	1.3884656
23.143341733015134	1.9045293	1.3800468
23.161232395952357	1.9237055	1.3869771
23.179123631282426	1.9449711	1.3946222
23.197015439496468	1.9738743	1.4049463
23.214907821085717	1.9727871	1.4045594
23.23280077654157	1.947258	1.3954419
23.250694306355538	1.9330962	1.3903583
23.268588411019277	1.9399649	1.3928262
23.28648309102458	1.9266397	1.3880345
23.304378346863356	1.9466733	1.3952323
23.322274179027676	1.9661349	1.4021894
23.340170588009723	1.9664751	1.4023106
23.358067574301852	1.9708494	1.4038694
23.37596513839651	1.9794675	1.4069355
23.39386328078629	1.9619716	1.400704
23.411762001963947	1.9451935	1.394702
23.429661302422353	1.934001	1.3906837
23.4475611826545	1.961044	1.4003727
23.46546164315356	1.9304061	1.3893906
23.48336268441279	1.9436727	1.3941566
23.501264306925638	1.9297227	1.3891445
23.51916651118564	1.9362797	1.3915026
23.537069297686497	1.9446139	1.3944942
23.554972666922037	1.9563644	1.398701
23.57287661938623	1.9394432	1.3926389
23.59078115557318	1.919557	1.3854808
23.608686275977128	1.8949176	1.3765601
23.62659198109246	1.8687794	1.3670331
23.6444982714137	1.8907781	1.3750557
23.66240514743549	1.9732088	1.4047095
23.68031260965263	2.0219247	1.421944
23.698220658560068	2.0104446	1.4179015
23.716129294652845	1.9648312	1.4017243
23.7340385184262	1.955636	1.3984406
23.75194833037546	1.9741333	1.4050385
23.769858730996123	1.9853015	1.4090073
23.78776972078382	1.941378	1.3933334
23.80568130023431	1.9245172	1.3872697
23.823593469843495	1.8884202	1.3741981
23.841506230107424	1.9041189	1.3798982
23.859419581522275	1.8997068	1.3782985
23.87733352458438	1.9325438	1.3901596
23.89524805979019	1.881717	1.3717569
23.913163187636318	1.9050802	1.3802464
23.931078908619508	1.9100183	1.3820342
23.948995223236633	1.9965103	1.4129792
23.966912131984735	2.0475488	1.4309258
23.98482963536096	2.0845735	1.4438052
24.002747733862616	2.0455427	1.4302247
24.020666427987155	2.0463898	1.4305208
24.038585718232156	2.0599635	1.4352573
24.056505605095353	2.0644119	1.4368061
24.074426089074617	2.0766945	1.4410741
24.092347170667946	2.0968366	1.4480457
24.110268850373515	2.10473	1.4507687
24.128191128689586	2.1019363	1.4498056
24.146114006114626	2.107889	1.4518571
24.164037483147187	2.0992117	1.4488657
24.181961560286005	2.1163833	1.4547795
24.199886238029926	2.099171	1.4488516
24.21781151687797	2.0583496	1.434695
24.235737397329274	2.0222635	1.4220631
24.253663879883135	2.0229585	1.4223075
24.271590965038975	2.0487366	1.4313408
24.289518653296376	2.0563304	1.4339911
24.30744694515505	2.0955746	1.44761
24.32537584111486	2.12886	1.4590614
24.34330534167581	2.1542327	1.4677305
24.361235447338046	2.115526	1.4544848
24.379166158601876	2.0454242	1.4301833
24.39709747596772	2.0486	1.4312931
24.41502939993615	2.0349412	1.4265137
24.432961931007917	1.9881756	1.4100268
24.450895069683856	1.9948051	1.4123757
24.468828816465	2.001144	1.4146179
24.4867631718525	1.9746114	1.4052087
24.504698136347656	1.9578705	1.3992393
24.52263371045192	1.9616735	1.4005976
24.540569894666874	1.952022	1.3971478
24.558506689494266	1.9197377	1.385546
24.57644409543597	1.9312378	1.3896898
24.594382112994012	1.901387	1.3789079
24.61232074267057	1.9221307	1.3864093
24.630259984967953	1.9558285	1.3985094
24.64819984038863	2.005264	1.4160734
24.66614030943522	2.0070071	1.4166888
24.684081392610462	1.9616809	1.4006002
24.702023090417274	1.9690514	1.4032289
24.7199654033587	1.9823925	1.4079746
24.737908331937927	2.0051782	1.4160432
24.755851876658305	2.0195365	1.421104
24.773796038023324	2.039131	1.4279814
24.79174081653661	2.0629478	1.4362966
24.809686212701962	2.0840898	1.4436377
24.827632227023294	2.1215844	1.456566
24.8455788600047	2.1367407	1.4617594
24.8635261121504	2.0988047	1.4487252
24.88147398396475	2.0721152	1.4394844
24.899422475952303	2.106414	1.451349
24.917371588617698	2.1791344	1.4761891
24.935321322465768	2.2099333	1.4865844
24.953271678001478	2.2632475	1.5044093
24.97122265572994	2.4331238	1.5598474
24.989174256156414	2.7616103	1.6618093
25.00712647978632	3.1519015	1.7753595
25.02507932712521	3.6398058	1.9078275
25.043032798678798	4.1446104	2.0358317
25.060986894952933	4.837467	2.1994243
25.078941616453637	5.6123223	2.369034
25.096896963687055	6.5678883	2.5627892
25.114852937159508	7.6277547	2.761839
25.132809537377444	8.056612	2.838417
25.150766764847468	8.142213	2.8534563
25.168724620076347	7.6230826	2.760993
25.186683103570985	6.6580663	2.580323
25.204642215838426	5.5278206	2.3511317
25.222601957385894	4.2528076	2.0622337
25.24056232872074	3.2406664	1.8001851
25.25852333035048	2.642564	1.6255965
25.276484962782778	2.2735622	1.5078336
25.294447226525435	2.0521288	1.4325253
25.312410122086423	1.9181165	1.3849608
25.330373649973843	1.8967819	1.3772371
25.348337810695988	1.9298497	1.3891903
25.366302604761245	1.9443353	1.3943943
25.384268032678207	1.936342	1.391525
25.40223409495558	1.9049506	1.3801994
25.420200792102257	1.8716005	1.3680645
25.438168124627246	1.873212	1.3686533
25.45613609303974	1.8645986	1.3655031
25.474104697849057	1.8906884	1.375023
25.492073939564698	1.9130577	1.3831333
25.510043818696285	1.9281368	1.3885736
25.528014335753614	1.9295357	1.3890773
25.54598549124664	1.9158956	1.3841588
25.56395728568544	1.8977154	1.3775759
25.58192971958028	1.9255309	1.387635
25.59990279344156	1.9345381	1.3908768
25.617876507779833	1.8819839	1.3718542
25.635850863105826	1.8485333	1.3596078
25.653825859930386	1.8619736	1.3645415
25.671801498764548	1.883914	1.3725575
25.68977778011949	1.9127043	1.3830055
25.707754704506524	1.8874116	1.373831
25.725732272437153	1.854351	1.3617456
25.743710484423012	1.8302108	1.3528528
25.761689340975888	1.852663	1.3611257
25.77966884260774	1.8655053	1.3658351
25.797648989830662	1.8466179	1.3589032
25.815629783156922	1.8285711	1.3522466
25.83361122309895	1.815496	1.3474034
25.85159331016929	1.8295101	1.3525938
25.869576044880695	1.8695699	1.3673222
25.887559427746034	1.890466	1.3749422
25.90554345927836	1.9286965	1.3887752
25.92352813999086	1.9020969	1.3791653
25.94151347039689	1.8463	1.3587862
25.959499451009965	1.8144344	1.3470094
25.97748608234374	1.8383307	1.3558506
25.995473364912062	1.83914	1.356149
26.013461299228904	1.8722346	1.3682963
26.03144988580839	1.8670087	1.3663852
26.04943912516483	1.831457	1.3533133
26.067429017812675	1.8034688	1.3429329
26.085419564266537	1.7827252	1.3351873
26.103410765041186	1.78083	1.3344774
26.12140262065155	1.8068714	1.3441992
26.139395131612723	1.8057071	1.343766
26.157388298439948	1.8181456	1.3483863
26.17538212164861	1.8172554	1.3480562
26.193376601754295	1.8616606	1.3644269
26.211371739272714	1.8277866	1.3519566
26.229367534719746	1.8088921	1.3449506
26.247363988611433	1.8204962	1.3492577
26.26536110146397	1.8274624	1.3518367
26.283358873793727	1.8046726	1.343381
26.301357306117204	1.8237301	1.3504555
26.319356398951104	1.8547814	1.3619035
26.33735615281224	1.8955488	1.3767893
26.35535656821762	1.889871	1.3747258
26.373357645684404	1.8740896	1.368974
26.39135938572991	1.8616912	1.364438
26.409361788871614	1.8462383	1.3587635
26.427364855627165	1.8092973	1.3451012
26.445368586514352	1.8128659	1.3464271
26.46337298205115	1.834416	1.3544061
26.48137804275568	1.8358665	1.3549415
26.499383769146217	1.8280319	1.3520473
26.517390161741215	1.7816434	1.3347821
26.53539722105928	1.7601615	1.3267108
26.553404947619182	1.7519641	1.3236178
26.571413341939856	1.790907	1.3382478
26.589422404540397	1.8182273	1.3484166
26.60743213594006	1.8147845	1.3471394
26.62544253665827	1.7922889	1.338764
26.64345360721459	1.8209236	1.349416
26.66146534812879	1.8495526	1.3599826
26.679477759920758	1.8098435	1.3453043
26.69749084311057	1.7591668	1.3263359
26.71550459821847	1.7747948	1.3322142
26.733519025764842	1.836016	1.3549967
26.751534126270258	1.9018232	1.379066
26.769549900255434	1.8847532	1.3728632
26.787566348241267	1.8766781	1.3699191
26.80558347074881	1.7940829	1.3394338
26.823601268299267	1.7799832	1.3341601
26.841619741414036	1.8271327	1.3517147
26.85963889061465	1.8228042	1.3501127
26.877658716422832	1.8149464	1.3471994
26.89567921936045	1.8315724	1.353356
26.913700399949544	1.8462554	1.3587698
26.93172225871233	1.8329407	1.3538615
26.949744796171174	1.8008605	1.3419615
26.967768012848605	1.7943673	1.33954
26.98579190926733	1.8063097	1.3439902
27.003816485950225	1.8103855	1.3455056
27.021841743420318	1.8272513	1.3517586
27.039867682200814	1.8329798	1.3538759
27.057894302815072	1.8228818	1.3501414
27.07592160578664	1.8302308	1.3528602
27.0939495916392	1.8578173	1.3630177
27.111978260896635	1.8788521	1.3707123
27.13000761408296	1.8887476	1.3743172
27.148037651722397	1.8897688	1.3746886
27.166068374339304	1.8969096	1.3772835
27.184099782458215	1.8738391	1.3688824
27.20213187660384	1.8623351	1.364674
27.22016465730105	1.8492886	1.3598855
27.23819812507487	1.830078	1.3528037
27.256232280450533	1.8008157	1.3419447
27.274267123953383	1.7784808	1.333597
27.292302656108987	1.7677411	1.3295642
27.31033887744306	1.782084	1.3349472
27.32837578848146	1.7793199	1.3339115
27.34641338975026	1.8205336	1.3492715
27.364451681775673	1.8093601	1.3451246
27.382490665084074	1.7682499	1.3297555
27.400530340202046	1.762515	1.3275974
27.41857070765629	1.8201131	1.3491156
27.436611767973726	1.9051396	1.380268
27.454653521681404	1.9198753	1.3855957
27.472695969306564	1.8723148	1.3683256
27.490739111376627	1.8744384	1.3691013
27.508782948419153	1.8757954	1.3695968
27.526827480961902	1.8593097	1.3635651
27.54487270953279	1.8305719	1.3529863
27.562918634659898	1.7887343	1.3374357
27.580965256871508	1.824918	1.3508953
27.599012576696026	1.8215892	1.3496627
27.617060594662068	1.8229324	1.3501601
27.63510931129842	1.8454698	1.3584807
27.65315872713401	1.8169278	1.3479346
27.67120884269797	1.7370003	1.3179531
27.68925965851958	1.7365222	1.3177717
27.707311175128307	1.8128444	1.3464191
27.725363393053787	1.8382089	1.3558056
27.74341631282583	1.8511981	1.3605874
27.7614699349744	1.8652099	1.365727
27.77952426002968	2.0356667	1.426768
27.797579288521973	2.139584	1.4627317
27.815635020981784	2.6127124	1.6163887
27.83369145793979	2.6892245	1.6398855
27.85174859992682	2.514637	1.5857607
27.869806447473923	2.3563247	1.5350325
27.887865001112267	2.0613098	1.4357263
27.905924261373233	1.9512372	1.3968669
27.92398422878836	1.9040755	1.3798825
27.94204490388936	1.8744888	1.3691198
27.96010628720813	1.8734914	1.3687555
27.978168379276728	1.8753095	1.3694193
27.9962311806274	1.8485837	1.3596263
28.014294691792568	1.840675	1.3567147
28.0323589133048	1.8646432	1.3655194
28.050423845696887	1.9015235	1.3789574
28.068489489501758	1.8691207	1.3671579
28.086555845252523	1.8299682	1.3527632
28.104622913482487	1.8654734	1.3658234
28.122690694725115	1.8661543	1.3660725
28.14075918951405	1.8122356	1.346193
28.15882839838312	1.8360912	1.3550245
28.176898321866304	1.9045323	1.3800479
28.1949689604978	1.9229981	1.3867221
28.213040314811945	1.918249	1.3850087
28.23111238534327	1.9372988	1.3918688
28.249185172626493	1.9416124	1.3934175
28.267258677196473	1.9657661	1.4020578
28.285332899588294	1.9828565	1.4081393
28.303407840337172	1.9809653	1.4074677
28.321483499978545	1.9417231	1.3934573
28.33955987904799	1.915816	1.38413
28.357636978081285	1.9125428	1.3829472
28.37571479761439	1.9396495	1.392713
28.393793338183425	1.9545571	1.3980547
28.41187260032469	1.9066626	1.3808196
28.429952584574686	1.9386175	1.3923424
28.448033291470065	1.9740175	1.4049973
28.46611472154769	1.9444463	1.3944341
28.484196875344566	1.8979415	1.377658
28.502279753397914	1.8901901	1.3748418
28.52036335624511	1.9072183	1.3810208
28.538447684423716	1.9150431	1.3838508
28.556532738471482	1.9703975	1.4037085
28.574618518926325	2.057215	1.4342995
28.59270502632635	2.0892954	1.4454395
28.61079226120985	2.0547004	1.4334226
28.628880224115274	2.021368	1.4217483
28.646968915581287	1.975632	1.4055717
28.66505833614671	1.9639493	1.4014097
28.68314848635055	1.9818392	1.4077781
28.701239366732004	2.0176554	1.420442
28.71933097783044	2.0391233	1.4279788
28.737423320185403	2.07612	1.4408747
28.75551639433665	2.065437	1.4371629
28.773610200824074	2.1138682	1.4539148
28.791704740187793	2.1600933	1.4697256
28.80980001296809	2.1923373	1.4806544
28.827896019705413	2.131193	1.4598606
28.845992760940433	2.138421	1.4623342
28.86409023721397	2.1341536	1.4608743
28.88218844906704	2.1405473	1.463061
28.900287397040845	2.1249943	1.457736
28.918387081676755	2.2101672	1.4866631
28.936487503516343	2.2937043	1.514498
28.954588663101365	2.3084416	1.5193557
28.97269056097374	2.225381	1.4917711
28.990793197675597	2.1996756	1.4831303
29.00889657374923	2.2427554	1.4975832
29.027000689737125	2.356176	1.534984
29.04510554618196	2.4233294	1.5567046
29.06321114362659	2.4500139	1.5652521
29.08131748261405	2.506289	1.5831263
29.099424563687567	2.5017934	1.5817058
29.11753238739057	2.548028	1.5962543
29.13564095426663	2.5990076	1.6121438
29.15375026485954	2.6288886	1.6213847
29.171860319713275	2.6504335	1.6280152
29.18997111937199	2.7121246	1.646853
29.20808266438002	2.7909477	1.6706129
29.226194955281898	2.8750556	1.6955988
29.244307992622335	2.8929667	1.7008723
29.26242177694624	2.870314	1.6942
29.2805363087987	2.8655815	1.6928029
29.29865158872498	2.9194543	1.708641
29.316767617270557	2.9755554	1.7249799
29.334884394981064	2.9783409	1.725787
29.353001922402367	2.9542847	1.7188033
29.37112020008047	3.0018678	1.73259
29.389239228561596	3.099488	1.7605363
29.407359008392152	3.3711796	1.8360772
29.42547954011872	3.7882283	1.9463371
29.44360082428809	4.4296365	2.10467
29.46172286144722	5.40016	2.3238244
29.479845652143283	6.8737636	2.6217864
29.497969196923606	8.844011	2.9738882
29.516093496335728	11.205555	3.34747
29.5342185509274	13.994031	3.7408597
29.55234436124651	16.369959	4.0459805
29.570470927841175	17.784735	4.217195
29.588598251259686	17.445805	4.1768174
29.60672633205055	16.064928	4.0081077
29.624855170762405	14.0588455	3.7495127
29.642984767944146	11.560471	3.4000692
29.66111512414481	8.886213	2.9809752
29.67924623991366	6.6007223	2.5691872
29.697378115800138	5.027626	2.2422369
29.71551075235387	4.1972094	2.0487092
29.733644150124675	3.8640566	1.9657204
29.751778309662576	3.5475323	1.8834894
29.769913231517766	3.3835604	1.8394457
29.78804891624066	3.332029	1.8253846
29.806185364381818	3.3539815	1.8313879
29.82432257649206	3.3497288	1.8302264
29.842460553122333	3.3373816	1.8268502
29.86059929482382	3.3185446	1.8216873
29.878738802147872	3.3253982	1.8235674
29.896879075646048	3.3093557	1.8191634
29.915020115870114	3.2966375	1.8156645
29.933161923371976	3.249772	1.8027124
29.951304498703777	3.2893448	1.8136551
29.969447842417857	3.2888842	1.8135281
29.987591955066733	3.2753453	1.8097916
30.005736837203123	3.2146616	1.7929478
30.023882489379943	3.183323	1.784187
30.04202891215028	3.2110782	1.7919482
30.060176106067455	3.2020109	1.7894163
30.078324071684946	3.1429589	1.7728392
30.09647280955646	3.1655724	1.7792056
30.114622320235863	3.1729374	1.7812741
30.132772604277257	3.1549978	1.7762314
30.1509236622349	3.1423874	1.772678
30.16907549466328	3.1188343	1.7660222
30.18722810211705	3.0475292	1.7457174
30.205381485151097	3.0546923	1.7477678
30.22353564432045	3.0947568	1.7591921
30.241690580180403	3.090795	1.7580657
30.25984629328638	3.0512521	1.7467834
30.278002784194037	2.9951482	1.7306496
30.296160053459246	3.0003126	1.732141
30.314318101638033	3.0448787	1.744958
30.332476929286646	2.9885263	1.7287354
30.35063653696153	2.9153452	1.7074382
30.368796925219307	2.9739602	1.7245173
30.386958094616844	2.9770882	1.725424
30.40512004571115	2.8967566	1.7019861
30.423282779059463	2.912649	1.7066485
30.441446295219233	2.9059067	1.704672
30.459610594748067	2.8594632	1.6909947
30.47777567820382	2.8865283	1.6989785
30.495941546144504	2.8475435	1.6874666
30.51410819912835	2.8146343	1.6776872
30.532275637713795	2.799169	1.6730717
30.55044386245946	2.8009436	1.673602
30.56861287392416	2.8324406	1.6829857
30.586782672666956	2.8637896	1.6922735
30.604953259247047	2.9148204	1.7072846
30.623124634223885	2.8848822	1.6984941
30.641296798157075	2.8559594	1.6899585
30.659469751606462	2.8010728	1.6736406
30.677643495132074	2.8287108	1.6818771
30.695818029294152	2.7913172	1.6707236
30.713993354653116	2.7365453	1.6542507
30.73216947176962	2.7145588	1.6475918
30.75034638120448	2.6973379	1.6423575
30.768524083518756	2.6622992	1.6316553
30.786702579273673	2.7742302	1.6656021
30.80488186903069	2.8653805	1.6927435
30.82306195335144	3.001537	1.7324945
30.841242832797782	3.2340055	1.7983341
30.85942450793176	3.479426	1.8653219
30.877606979315637	3.7395794	1.9337993
30.895790247511883	4.0370817	2.009249
30.913974313083134	4.3786855	2.092531
30.932159176592283	4.6646047	2.1597695
30.95034483860237	4.8026094	2.1914856
30.968531299676698	4.645989	2.1554556
30.98671856037873	4.3077984	2.0755236
31.00490662127215	3.9225414	1.9805406
31.023095482920848	3.5915325	1.8951339
31.04128514588892	3.179736	1.7831814
31.059475610740662	2.770689	1.6645386
31.07766687804056	2.6136918	1.6166916
31.09585894835335	2.5980759	1.6118548
31.11405182224393	2.5523324	1.5976021
31.132245500277417	2.5298164	1.5905397
31.15043998301914	2.5035334	1.5822558
31.168635271034628	2.496923	1.5801655
31.18683136488964	2.4778132	1.5741072
31.20502826515008	2.4862006	1.576769
31.223225972382135	2.450028	1.5652565
31.241424487152155	2.4478557	1.5645624
31.259623810026692	2.4782786	1.574255
31.27782394157253	2.5256968	1.5892441
31.296024882356644	2.551234	1.5972583
31.314226632946237	2.51402	1.5855662
31.332429193908684	2.4528682	1.5661635
31.350632565811598	2.4519997	1.5658863
31.368836749222787	2.4482455	1.564687
31.387041744710295	2.451814	1.5658269
31.40524755284232	2.4126167	1.5532601
31.423454174187317	2.388203	1.5453812
31.441661609313922	2.4530382	1.5662178
31.459869858791002	2.4498768	1.5652082
31.478078923187628	2.337168	1.5287799
31.496288803073064	2.2817812	1.5105566
31.514499499016807	2.3350472	1.5280862
31.532711011588546	2.3899453	1.5459448
31.550923341358178	2.3832057	1.5437635
31.56913648889584	2.3013837	1.5170312
31.587350454771844	2.2923198	1.5140408
31.605565239556732	2.290276	1.5133657
31.62378084382127	2.3069267	1.518857
31.641997268136382	2.3198924	1.5231193
31.660214513073274	2.3481357	1.5323628
31.67843257920331	2.3724413	1.5402731
31.6966514670981	2.3805628	1.5429072
31.71487117732944	2.3793988	1.5425301
31.733091710469346	2.3634384	1.5373478
31.751313067090052	2.3875318	1.545164
31.769535247764008	2.415809	1.5542873
31.787758253063878	2.3142426	1.5212635
31.805982083562526	2.2767165	1.5088792
31.824206739833024	2.317724	1.5224073
31.84243222244869	2.3493886	1.5327716
31.860658531983013	2.3439932	1.5310105
31.878885669009737	2.3082294	1.5192858
31.897113634102784	2.3295603	1.5262897
31.91534242783632	2.2440038	1.4979999
31.933572050784694	2.1667023	1.4719722
31.951802503522508	2.1967943	1.4821587
31.970033786624548	2.2810159	1.5103033
31.988265900665834	2.2708242	1.5069255
32.006498846221575	2.2187967	1.4895626
32.02473262386724	2.190235	1.4799442
32.04296723417845	2.2143075	1.488055
32.0612026777311	2.1656215	1.4716051
32.07943895510129	2.0952678	1.4475039
32.097676066865304	2.1730127	1.4741142
32.115914013599685	2.2178168	1.4892336
32.13415279588115	2.1675448	1.4722584
32.152392414286666	2.158484	1.469178
32.1706328693934	2.2102277	1.4866835
32.18887416177875	2.2194307	1.4897754
32.20711629202032	2.2102892	1.4867041
32.225359260695924	2.1633737	1.4708412
32.243603068383614	2.0828447	1.4432064
32.26184771566166	2.107931	1.4518715
32.28009320310852	2.1330419	1.4604937
32.2983395313029	2.1712217	1.4735066
32.31658670082372	2.1484592	1.4657624
32.33483471225012	2.1205976	1.4562272
32.35308356616143	2.1574628	1.4688305
32.371333263137245	2.1327794	1.4604038
32.38958380375734	2.0735972	1.439999
32.407835188601744	2.0415766	1.4288375
32.42608741825067	2.0864244	1.4444461
32.444340493284585	2.0631573	1.4363695
32.46259441428416	2.0814493	1.4427229
32.48084918183028	2.1789353	1.4761217
32.49910479650405	2.207787	1.4858624
32.51736125888683	2.095072	1.4474363
32.53561856956014	2.0059285	1.416308
32.5538767291058	1.9716542	1.4041561
32.572135738105764	2.0482748	1.4311795
32.59039559714228	2.042384	1.42912
32.608656306797776	2.0325675	1.4256815
32.62691786765491	2.0301044	1.4248173
32.645180280296586	2.045263	1.4301269
32.663443545305896	2.0368629	1.4271871
32.68170766326619	2.0435684	1.4295343
32.69997263476099	2.03186	1.4254333
32.7182384603741	2.039837	1.4282286
32.7365051406895	2.0900474	1.4456996
32.75477267629144	2.122544	1.4568954
32.77304106776434	2.0329762	1.4258248
32.79131031569289	1.9325038	1.3901453
32.809580420661966	1.9314989	1.3897837
32.827851383256714	1.9842149	1.4086217
32.84612320406245	2.0222998	1.4220759
32.86439588366476	1.9739957	1.4049896
32.88266942264945	1.8702652	1.3675764
32.9009438216025	1.923485	1.3868977
32.9192190811102	1.9436435	1.3941461
32.937495201758985	1.978531	1.4066026
32.95577218413556	2.0131185	1.4188441
32.974050028826866	1.9520674	1.3971641
32.992328736420035	1.950752	1.3966932
33.010608307502444	1.9645288	1.4016165
33.02888874266169	1.89213	1.3755472
33.047170042485604	1.9594771	1.3998132
33.06545220756225	2.0087116	1.4172902
33.083735238479896	1.9470578	1.3953701
33.10201913582707	1.8932185	1.3759428
33.12030390019248	1.886597	1.3735346
33.138589532165135	1.9109049	1.3823549
33.15687603233419	1.9442921	1.3943788
33.17516340128909	1.9343439	1.3908069
33.19345163961947	1.8516808	1.3607647
33.211740747915215	1.9182615	1.3850132
33.23003072676643	1.9521878	1.3972071
33.248321576763466	2.0330377	1.4258463
33.266613298496885	2.0649607	1.4369972
33.28490589255747	2.0366528	1.4271134
33.30319935953626	1.9766711	1.4059414
33.32149370002451	1.937746	1.3920295
33.339788914613706	1.7887496	1.3374414
33.358085003895575	1.7989955	1.3412664
33.376381968462034	2.006981	1.4166795
33.39467980890529	2.084766	1.4438719
33.41297852581774	2.042809	1.4292687
33.43127811979204	2.0685158	1.4382336
33.44957859142105	2.0572546	1.4343133
33.467879941297866	2.0035174	1.4154567
33.486182170015844	1.9967262	1.4130557
33.50448527816853	2.0793164	1.4419835
33.522789266349754	2.1135893	1.4538189
33.541094135153514	2.013905	1.4191213
33.55939988517411	1.883961	1.3725746
33.57770651700602	1.9692377	1.4032953
33.59601403124398	1.9564679	1.3987379
33.61432242848296	1.9152439	1.3839234
33.632631709318154	1.9571977	1.3989989
33.650941874344994	1.9604864	1.4001737
33.66925292415916	2.018225	1.4206425
33.68756485935654	2.0306368	1.4250041
33.70587768053328	1.8839525	1.3725715
33.724191388285746	1.8431427	1.3576239
33.74250598321054	1.9015095	1.3789524
33.760821465904506	1.9177079	1.3848133
33.77913783696474	1.854389	1.3617595
33.79745509698852	1.872529	1.3684038
33.815773246573414	1.9512365	1.3968667
33.8340922863172	2.0185673	1.4207629
33.852412216817896	2.0221488	1.4220228
33.87073303867377	2.0102563	1.4178351
33.889054752483304	1.8588326	1.3633901
33.907377358845245	1.8129493	1.3464581
33.92570085835853	1.8053042	1.3436161
33.94402525162239	1.8334769	1.3540595
33.96235053923627	1.7997296	1.34154
33.980676721799824	1.8167542	1.3478702
33.999003799912984	1.9293146	1.3889977
34.01733177417592	2.0240748	1.4226998
34.03566064518901	1.9784228	1.4065641
34.0539904135529	1.9721787	1.4043428
34.07232107986846	2.0809853	1.4425621
34.090652644736785	2.1312847	1.459892
34.108985108759235	2.1660903	1.4717643
34.12731847253742	2.1692877	1.4728502
34.14565273667313	2.0185554	1.4207587
34.16398790176847	1.8407271	1.356734
34.18232396842574	1.8181795	1.3483988
34.20066093724749	1.969661	1.4034461
34.21899880883651	2.010088	1.4177758
34.23733758379583	1.9335052	1.3905053
34.25567726272874	1.8392442	1.3561873
34.27401784623872	1.9419237	1.3935293
34.29235933492957	2.0102534	1.417834
34.31070172940526	2.012434	1.4186028
34.32904503027003	1.9158369	1.3841376
34.347389238128386	2.0124435	1.4186062
34.36573435358502	2.1445544	1.4644297
34.38408037724492	2.176722	1.4753718
34.402427309713296	2.0149703	1.4194965
34.42077515159559	1.9151325	1.3838831
34.43912390349752	1.7924509	1.3388244
34.45747356602499	1.8061451	1.3439289
34.47582413978423	1.8803506	1.3712587
34.49417562538163	1.913061	1.3831345
34.51252802342388	1.992347	1.4115052
34.53088133451789	2.0788739	1.44183
34.54923555927084	2.096429	1.4479051
34.567590698290104	1.9866675	1.4094919
34.58594675218336	1.8065293	1.3440719
34.6043037215585	1.7507077	1.3231431
34.62266160702365	1.7594786	1.3264533
34.641020409187234	1.7194018	1.3112596
34.65938012865785	1.8856926	1.3732052
34.677740766044394	1.9514279	1.3969352
34.69610232195598	1.8789089	1.370733
34.714464797002016	1.8475434	1.3592436
34.73282819179208	1.9004341	1.3785623
34.751192506936064	1.8547195	1.3618809
34.76955774304408	1.8076378	1.3444842
34.7879239007265	1.8632141	1.3649961
34.80629098059391	2.091773	1.4462963
34.824658983257194	2.1327467	1.4603926
34.843027909327446	2.1563463	1.4684503
34.86139775941603	2.088879	1.4452955
34.879768534134534	2.093278	1.4468164
34.89814023409483	1.987528	1.4097972
34.91651285990901	1.8177046	1.3482227
34.93488641218944	1.8885605	1.3742491
34.95326089154871	1.7644573	1.3283287
34.97163629859967	1.5688759	1.2525477
34.99001263395542	1.5807225	1.2572678
35.00838989822934	1.7917622	1.3385673
35.02676809203499	1.8879786	1.3740373
35.04514721598624	1.9315532	1.3898033
35.063527270697215	2.0006425	1.4144408
35.081908256782256	1.8179448	1.3483118
35.10029017485597	1.7217302	1.3121471
35.11867302553321	1.6695004	1.2920915
35.137056809429104	1.6218652	1.2735246
35.155441527159006	1.6600955	1.2884469
35.173827179338524	1.7646368	1.3283963
35.19221376658354	1.9757063	1.4055982
35.21060128951017	2.1675146	1.4722481
35.2289897487348	1.969378	1.4033453
35.24737914487405	1.7563446	1.3252715
35.26576947854479	1.6939772	1.3015288
35.28416075036418	1.8237665	1.350469
35.30255296094958	2.125814	1.4580171
35.32094611091867	2.2530668	1.5010219
35.33934020088932	2.2949388	1.5149056
35.35773523147969	2.446497	1.5641282
35.3761312033082	2.3274066	1.525584
35.394528116993506	1.7412484	1.3195637
35.41292597315452	1.5584577	1.2483821
35.431324772410434	1.4894323	1.220423
35.449724515380666	1.7115904	1.3082776
35.46812520268491	1.7535093	1.3242013
35.486526834943106	1.8460019	1.3586766
35.504929412775454	1.8769088	1.3700032
35.52333293680242	1.9257368	1.3877091
35.54173740764471	2.2177687	1.4892175
35.560142825923286	2.1500733	1.4663128
35.5785491922594	1.7177299	1.310622
35.59695650727454	1.6817479	1.2968222
35.61536477159042	1.7820303	1.3349271
