0.008763373481513119	0.0	0.0
0.026290120649546365	0.14626539	0.3824466
0.043816868432600686	0.1255995	0.3544002
0.06134361724069026	0.15644462	0.39553082
0.07887036748382949	0.18832175	0.43396056
0.0963971195720331	0.1209869	0.34783173
0.11392387391531617	0.07695831	0.2774136
0.1314506309236943	0.045359474	0.21297763
0.1489773910071836	0.09040499	0.30067423
0.16650415457580078	0.1487507	0.3856821
0.18403092203956356	0.15044105	0.3878673
0.20155769380849	0.16316172	0.4039328
0.2190844702925996	0.12799971	0.35777047
0.2366112519019124	0.10130574	0.3182856
0.2541380390464497	0.097465426	0.31219453
0.27166483213623416	0.1007788	0.31745678
0.28919163158128947	0.09921981	0.31499174
0.3067184377916406	0.092746824	0.30454364
0.324245251177314	0.112940975	0.33606693
0.34177207214833777	0.1475027	0.3840608
0.3592989011147415	0.13809992	0.37161797
0.37682573848655654	0.12241729	0.34988183
0.39435258467381573	0.06757418	0.25995034
0.41187944008655414	0.06227114	0.24954186
0.42940630513480854	0.084805936	0.2912146
0.446933180228618	0.09598508	0.30981457
0.4644600657780234	0.11430081	0.33808404
0.48198696219306775	0.1567894	0.3959664
0.49951386988379676	0.2099419	0.45819417
0.5170407892602581	0.2135301	0.46209317
0.5345677207325025	0.19612512	0.44286016
0.5520946647105822	0.19305874	0.43938452
0.5696216216045534	0.17970069	0.42391118
0.5871485918244737	0.17923391	0.42336026
0.6046755757804043	0.17590582	0.41941127
0.6222025738824094	0.19114491	0.43720123
0.6397295865405557	0.18394649	0.42888984
0.6572566141649129	0.20210007	0.4495554
0.6747836571655547	0.17766145	0.42149904
0.6923107159525568	0.1788755	0.42293677
0.7098377909359992	0.1762722	0.41984782
0.7273648825259653	0.176369	0.4199631
0.7448919911325411	0.20463708	0.4523683
0.762419117165817	0.19011325	0.43601978
0.7799462610358868	0.1666426	0.40821883
0.7974734231528482	0.17738943	0.42117625
0.8150006039268024	0.18801539	0.4336074
0.8325278037678551	0.20461011	0.4523385
0.8500550230861152	0.22925188	0.47880253
0.8675822622916969	0.20471627	0.45245582
0.8851095217947171	0.20884718	0.45699802
0.9026368020052984	0.19962864	0.4467982
0.9201641033335665	0.22887982	0.47841385
0.9376914261896523	0.25178748	0.5017843
0.9552187709836915	0.23585707	0.4856512
0.9727461381258234	0.28062114	0.5297369
0.990273528026193	0.2949053	0.54305184
1.0078009410949496	0.33122772	0.57552385
1.0253283777422473	0.3764369	0.6135445
1.0428558383782454	0.38674694	0.6218898
1.0603833234131086	0.36894184	0.60740584
1.0779108332570058	0.3077768	0.5547764
1.0954383683201119	0.23861498	0.48848233
1.112965929012607	0.26113892	0.5110175
1.1304935157446763	0.36516437	0.60428834
1.1480211289265108	0.45879978	0.6773476
1.1655487689683062	1.4201559	1.191703
1.1830764362802655	1.7588476	1.3262155
1.200604131272596	2.1943047	1.4813186
1.2181318543555117	2.597542	1.6116892
1.235659605939232	2.5662763	1.6019602
1.253187386433982	4.142623	2.0353434
1.270715196249994	6.3694863	2.5237842
1.2882430357975057	11.949622	3.4568226
1.3057709054867608	16.612833	4.0758843
1.3232988057280106	22.313353	4.723701
1.3408267369315112	27.53471	5.2473526
1.358354699507526	31.358086	5.599829
1.3758826938663256	36.055305	6.004607
1.3934107204181858	37.914505	6.1574755
1.410938779573391	38.8667	6.2343163
1.4284668717422309	39.629185	6.2951717
1.4459949973350033	39.198273	6.2608523
1.4635231567620117	38.762737	6.2259727
1.4810513504335687	37.75073	6.144162
1.4985795787599925	37.0305	6.085269
1.5161078421516088	36.548954	6.045573
1.5336361410187505	35.49102	5.957434
1.5511644757717598	34.937855	5.9108253
1.5686928468209842	35.68539	5.973725
1.58622125457678	36.402546	6.033452
1.6037496994495108	38.044853	6.1680512
1.621278181849548	38.133766	6.1752543
1.6388067021872719	38.71334	6.2220044
1.6563352608730693	37.951588	6.160486
1.673863858317336	36.877583	6.0726914
1.6913924949304753	36.134674	6.0112123
1.7089211711228998	35.08592	5.923337
1.7264498873050296	34.128033	5.8419204
1.7439786438872935	33.392906	5.7786593
1.7615074412801288	32.52134	5.7027483
1.779036279893981	31.945234	5.6520114
1.796565160139305	30.90503	5.5592294
1.814094082426564	30.101408	5.486475
1.8316230471662298	29.254145	5.40871
1.849152054768784	28.619997	5.3497663
1.8666811056447168	27.992023	5.290749
1.8842102002045273	27.274752	5.2225237
1.901739338858724	26.541077	5.151803
1.9192685220178245	25.833666	5.082683
1.9367977500923557	25.180256	5.0179935
1.9543270234928547	24.586582	4.958486
1.971856342629867	23.918379	4.890642
1.9893857079139496	23.476727	4.8452787
2.006915119755667	23.071503	4.8032804
2.0244445785655945	22.5679	4.7505684
2.0419740847543175	22.01168	4.691661
2.0595036387324317	21.56415	4.6437216
2.0770332409105414	20.964016	4.5786476
2.094562891699263	20.62178	4.541121
2.1120925915092217	20.246517	4.499613
2.129622340751053	19.941189	4.4655557
2.1471521398354043	187.89761	13.707575
2.1646819891729323	444.2426	21.077065
2.182211889174303	440.47748	20.987555
2.1997418402501974	452.87708	21.280909
2.2172718428113023	432.81726	20.80426
2.234801897268317	320.79	17.910612
2.2523320040319548	17.32072	4.161817
2.269862163512935	16.870678	4.1073933
2.287392376121992	16.498306	4.0618105
2.304922642269869	16.22443	4.027956
2.322452962367322	16.068905	4.008604
2.3399833368251164	15.873902	3.9842067
2.357513766054032	15.539162	3.9419744
2.3750442504648586	15.186635	3.8970034
2.3925747904683963	14.956229	3.8673284
2.410105386475459	14.751649	3.8407876
2.4276360388968707	14.301636	3.7817504
2.445166748143469	14.07821	3.752094
2.4626975146261025	13.779029	3.7120113
2.4802283387556323	13.698324	3.7011247
2.4977592209429305	13.801689	3.7150624
2.5152901615988825	13.573849	3.6842704
2.5328211611343865	13.164388	3.628276
2.5503522199603523	12.840159	3.5833168
2.5678833384877024	12.506154	3.5364041
2.5854145171273712	12.328369	3.5111778
2.6029457562903064	12.091799	3.4773264
2.620477056387469	12.020652	3.467081
2.6380084178298326	11.827146	3.4390616
2.655539841028383	11.585255	3.4037118
2.673071326394119	11.337734	3.3671553
2.6906028743380523	11.092115	3.3304827
2.708134485271211	10.924941	3.3052897
2.7256661596046325	10.817082	3.2889333
2.743197897749369	10.744124	3.2778232
2.760729700116486	10.5766115	3.2521703
2.778261567117063	10.460656	3.2342937
2.795793499162193	10.294312	3.2084749
2.8133254966629817	10.177146	3.1901639
2.830857560030551	9.979796	3.1590815
2.8483896896760337	9.958455	3.155702
2.865921886010578	9.796053	3.1298647
2.883454149445347	9.796373	3.129916
2.9009864803915177	9.627666	3.102848
2.91851887926028	9.4508705	3.0742269
2.9360513464628384	9.355273	3.058639
2.953583882410413	9.343726	3.056751
2.9711164875142373	9.205927	3.034127
2.9886491621855606	9.106628	3.017719
3.0061819068356455	8.849624	2.9748318
3.023714721875769	8.692603	2.948322
3.041247607717225	8.652728	2.941552
3.0587805647713213	8.5139265	2.9178634
3.0763135934493806	8.529559	2.9205408
3.0938466941627407	8.383118	2.8953614
3.1113798673227544	8.2882805	2.8789375
3.1289131133407904	8.089511	2.8442066
3.1464464326282315	7.8366213	2.7993965
3.1639798255964786	7.6502175	2.7659028
3.1815132926569443	7.476514	2.7343214
3.1990468342210603	7.495027	2.7377048
3.216580450700272	7.478747	2.7347298
3.2341141425060416	7.4211025	2.72417
3.251647910049847	7.4639554	2.732024
3.2691817537431813	7.3656573	2.7139745
3.286715673997555	7.2210526	2.6872017
3.3042496712244938	7.1966496	2.6826572
3.32178374583554	7.1321216	2.6706033
3.339317898242251	7.204201	2.6840644
3.3568521288562034	7.129174	2.6700513
3.3743864380889876	7.077655	2.6603863
3.3919208263522127	7.0434446	2.6539488
3.4094552940575023	6.885933	2.6241062
3.4269898416164972	6.8216543	2.6118298
3.444524469440858	6.762814	2.600541
3.4620591779422587	6.6341686	2.575688
3.479593967532391	6.5255733	2.5545201
3.4971288386229658	6.3872414	2.5272992
3.5146637916257086	6.390275	2.5278993
3.5321988269523628	6.363929	2.522683
3.5497339450146903	6.3437657	2.5186834
3.5672691462244708	6.427506	2.5352526
3.5848044309934988	6.4048862	2.5307877
3.60233979973359	6.4222755	2.534221
3.619875252856575	6.337807	2.5175002
3.6374107907743034	6.290662	2.508119
3.6549464138986427	6.32049	2.5140584
3.6724821226414788	6.3798566	2.525838
3.690017917414714	6.4577236	2.5412052
3.7075537986302702	6.5209503	2.553615
3.7250897667000857	6.552761	2.5598361
3.7426258220361235	6.6628394	2.5812476
3.7601619650503553	6.928431	2.6321912
3.777698196154779	7.494545	2.7376168
3.7952345157614067	8.549437	2.9239419
3.8127709242822716	9.28898	3.0477827
3.830307422129425	11.4205065	3.379424
3.847844009714936	12.776227	3.574385
3.8653806874508954	16.115477	4.0144086
3.882917455749409	15.682135	3.9600675
3.900454315022606	15.74822	3.9684029
3.917991265682631	12.732257	3.5682287
3.9355283081416506	10.889701	3.2999547
3.9530654428118495	8.851024	2.975067
3.970602670105433	7.5980287	2.756452
3.9881399904346244	6.7152433	2.5913787
4.005677404211669	6.6559706	2.5799167
4.023214911848827	6.6686754	2.582378
4.0407525137583855	6.6560106	2.5799246
4.058290210352644	6.645398	2.577867
4.075828002043927	6.5378904	2.5569298
4.0933658892445814	6.4538126	2.5404356
4.110903872366966	6.330779	2.516104
4.128441951823468	6.234428	2.4968836
4.145980128026488	6.1996517	2.48991
4.163518401388452	6.276953	2.505385
4.181056772321807	6.4049697	2.5308042
4.1985952412390155	6.3419795	2.5183287
4.216133808552567	6.3075886	2.5114913
4.233672474674966	6.2695055	2.5038981
4.251211240018741	6.483879	2.5463462
4.268750104996445	6.806354	2.608899
4.286289070020643	7.7739186	2.7881749
4.303828135503928	9.461639	3.0759778
4.3213673018589125	29.711002	5.45078
4.3389065694982305	90.91907	9.535149
4.356445938834537	166.20341	12.891991
4.3739854102805085	171.97675	13.113991
4.391524984248844	172.83138	13.146535
4.409064661152262	136.75471	11.694217
4.426604441403504	96.8448	9.840976
4.444144325415337	75.58313	8.693856
4.461684313600543	21.706142	4.658985
4.47922440637193	21.972616	4.6874957
4.496764604142329	20.305279	4.506138
4.5143049073245916	18.487152	4.299669
4.531845316331589	16.452234	4.056135
4.5493858315762195	13.772778	3.7111692
4.566926453471405	11.494247	3.3903167
4.584467182430081	9.498515	3.0819662
4.602008018865218	8.322786	2.884924
4.619548963189798	7.6098127	2.7585888
4.637090015816834	7.165881	2.6769164
4.654631177159353	6.8758655	2.6221871
4.672172447630417	6.576314	2.5644324
4.689713827643102	6.4383774	2.5373957
4.7072553176105085	6.269723	2.5039415
4.724796917945764	6.1487994	2.4796772
4.742338629062015	5.989632	2.4473724
4.759880451372434	5.8829045	2.4254699
4.777422385290215	5.821178	2.4127119
4.794964431228581	5.78507	2.4052172
4.812506589600768	5.780704	2.4043095
4.830048860820047	5.803831	2.4091141
4.847591245299709	5.7536173	2.39867
4.8651337434530655	5.608239	2.3681722
4.882676355693457	5.5461307	2.3550224
4.900219082434242	5.5867977	2.3636408
4.917761924088813	5.6023116	2.3669202
4.935304881070575	5.560758	2.358126
4.952847953792969	5.5373354	2.3531544
4.970391142669449	5.5478597	2.3553896
4.9879344481135055	5.5033455	2.345921
5.005477870538642	5.4578342	2.3362007
5.023021410358394	5.4782968	2.3405762
5.040565067986324	5.4706407	2.3389401
5.05810884383601	5.4649205	2.337717
5.075652738321066	5.467632	2.338297
5.09319675185512	5.46895	2.3385787
5.110740884851836	5.5265384	2.3508592
5.128285137724894	5.445993	2.3336651
5.145829510888007	5.40623	2.32513
5.163374004754908	5.3795066	2.3193762
5.1809186197393595	5.277139	2.2972026
5.198463356255145	5.315425	2.3055205
5.216008214716077	5.31324	2.3050466
5.233553195535998	5.365783	2.316416
5.251098299128764	5.291764	2.3003833
5.268643525908272	5.263113	2.2941475
5.286188876288432	5.183823	2.276801
5.3037343506831895	5.2249403	2.2858129
5.32127994950651	5.2449317	2.2901816
5.3388256731723915	5.2073145	2.281954
5.356371522094851	5.1668754	2.2730763
5.373917496687938	5.2340975	2.287815
5.391463597365729	5.359893	2.3151443
5.40900982454232	5.4072094	2.3253407
5.426556178631843	5.4102793	2.3260007
5.444102660048449	5.2806025	2.2979562
5.4616492692063225	5.2457776	2.2903662
5.479196006519669	5.220141	2.2847629
5.496742872402727	5.2405515	2.289225
5.514289867269756	5.2391725	2.288924
5.531836991535049	5.2363915	2.2883162
5.549384245612924	5.1805925	2.2760916
5.566931629917724	5.246276	2.2904751
5.584479144863822	5.2033796	2.2810917
5.6020267908656205	5.1125193	2.2610881
5.619574568337545	5.0184507	2.2401898
5.637122477694054	5.0164137	2.2397351
5.654670519349629	5.112241	2.2610264
5.672218693718784	5.173901	2.274621
5.689767001216059	5.25206	2.2917373
5.707315442256021	5.2490287	2.291076
5.724864017253266	5.249598	2.2912002
5.7424127266224225	5.19812	2.2799387
5.75996157077814	5.199765	2.2802994
5.777510550135105	5.2020035	2.28079
5.795059665108022	5.1510096	2.2695835
5.812608916111639	5.131756	2.265338
5.830158303560715	5.3131127	2.3050191
5.847707827870055	5.398195	2.3234015
5.86525748945448	5.408208	2.3255553
5.8828072887288485	5.503425	2.345938
5.900357226108044	5.5775857	2.3616912
5.917907302006979	5.6778846	2.382831
5.9354575168406	6.236824	2.4973633
5.9530078710238765	6.8053737	2.608711
5.970558364971812	7.377935	2.7162354
5.988108999099438	7.7760615	2.788559
6.005659773821818	8.359437	2.8912692
6.023210689554039	8.10632	2.84716
6.040761746711227	8.517132	2.9184124
6.058312945708531	7.8390646	2.799833
6.075864286961132	7.422203	2.7243721
6.093415770884244	6.82833	2.6131074
6.1109673978931065	6.317971	2.5135574
6.128519168402993	5.706444	2.3888164
6.146071082829204	5.465034	2.3377411
6.163623141587075	5.2908425	2.300183
6.181175345091969	5.2004924	2.280459
6.198727693759281	5.230658	2.2870631
6.216280188004435	5.2567806	2.292767
6.233832828242885	5.2034154	2.2810996
6.251385614890126	5.218962	2.284505
6.268938548361669	5.2624054	2.2939932
6.286491629073067	5.1741276	2.2746708
6.304044857439898	5.169228	2.2735937
6.321598233877777	5.122211	2.2632303
6.339151758802344	5.1308117	2.2651296
6.356705432629277	5.1058865	2.259621
6.37425925577428	5.0760894	2.253018
6.391813228653095	5.0920577	2.256559
6.409367351681486	5.0954123	2.257302
6.426921625275259	5.0632477	2.2501662
6.44447604985025	5.077164	2.2532563
6.46203062582232	5.1130347	2.261202
6.47958535360737	5.103676	2.2591317
6.497140233621328	5.065524	2.2506719
6.514695266280161	5.024469	2.2415328
6.532250451999859	5.0259423	2.2418613
6.549805791196454	5.0484977	2.2468863
6.567361284286002	5.0722995	2.2521765
6.584916931684597	5.0467124	2.2464888
6.602472733808367	5.030784	2.242941
6.6200286910734665	5.1057262	2.2595854
6.637584803896092	5.1058464	2.259612
6.655141072692462	5.068796	2.2513988
6.672697497878842	5.005059	2.2371988
6.690254079871514	5.020252	2.240592
6.707810819086808	5.047972	2.2467692
6.725367715941078	5.073104	2.252355
6.742924770850719	5.00171	2.2364502
6.760481984232151	5.0332766	2.2434964
6.778039356501836	5.094906	2.2571898
6.795596888076266	5.122445	2.2632818
6.813154579371963	5.0779834	2.2534382
6.830712430805492	4.988745	2.2335498
6.84827044279344	4.943938	2.2234967
6.865828615752445	4.935637	2.2216294
6.883386950099159	5.0341916	2.2437005
6.900945446250287	5.1096716	2.2604582
6.918504104622553	5.127342	2.2643635
6.936062925632727	5.149571	2.2692666
6.953621909697607	5.154016	2.2702458
6.971181057234028	5.1856766	2.277208
6.988740368658859	5.24714	2.2906637
7.006299844389007	5.335445	2.3098583
7.023859484841407	5.4445295	2.3333516
7.041419290433036	5.5136023	2.3481061
7.058979261580902	5.5687065	2.3598106
7.0765393987020495	5.74309	2.3964746
7.094099702213559	6.1378846	2.4774754
7.111660172532549	6.5273156	2.554861
7.129220810076164	6.9514847	2.6365669
7.146781615261595	7.545577	2.7469213
7.16434258850606	7.683133	2.7718465
7.181903730226821	8.052292	2.837656
7.1994650408411704	8.072428	2.8412018
7.217026520766437	8.317875	2.8840725
7.234588170419983	8.630317	2.93774
7.252149990219215	8.6765	2.94559
7.269711980581568	8.579651	2.929104
7.2872741419245175	8.387633	2.896141
7.304836474665574	7.9671783	2.822619
7.322398979222286	7.6587076	2.767437
7.339961656012233	7.3655953	2.713963
7.357524505453039	6.996819	2.6451502
7.375087527962357	6.68557	2.5856469
7.392650723957886	6.383958	2.5266495
7.410214093857353	6.0175505	2.4530697
7.427777638078528	5.798304	2.4079669
7.445341357039213	5.6028385	2.3670316
7.4629052511572525	5.511219	2.3475986
7.480469320850524	5.502318	2.345702
7.498033566536948	5.478223	2.3405604
7.5155979886344735	5.3152137	2.3054748
7.5331625875610975	5.1646776	2.2725928
7.550727363734844	5.180662	2.2761068
7.568292317573788	5.2470884	2.2906525
7.585857449496025	5.276982	2.2971683
7.603422759919705	5.217334	2.2841485
7.620988249263007	5.1665483	2.2730043
7.638553917944147	5.1506763	2.26951
7.656119766381391	5.1855593	2.2771823
7.673685794993023	5.2071843	2.2819257
7.691252004197388	5.199955	2.280341
7.70881839441285	5.2827463	2.2984226
7.726384966057826	5.3007092	2.302327
7.743951719550762	5.3500867	2.3130255
7.761518655310149	5.296124	2.3013308
7.779085773754511	5.3554187	2.3141778
7.796653075302419	5.412446	2.3264663
7.814220560372475	5.4280515	2.329818
7.831788229383323	5.384163	2.32038
7.8493560827536495	5.3617406	2.3155432
7.866924120902174	5.3167987	2.3058186
7.884492344247663	5.3284397	2.3083413
7.9020607532089135	5.3345957	2.3096743
7.919629348204771	5.3576035	2.3146498
7.937198129654115	5.3330336	2.3093362
7.954767097975865	5.3453856	2.312009
7.972336253588986	5.3635597	2.315936
7.989905596912472	5.4486885	2.3342426
8.007475128365371	5.50954	2.347241
8.025044848366756	5.5805316	2.362315
8.042614757335754	5.754155	2.398782
8.060184855691523	5.7920213	2.4066617
8.07775514385327	5.852605	2.4192157
8.095325622240228	5.8301287	2.414566
8.112896291271687	5.8789415	2.4246528
8.130467151366968	5.9543295	2.4401495
8.148038202945436	6.037602	2.4571533
8.165609446426497	5.997904	2.4490619
8.183180882229594	6.0338097	2.4563813
8.200752510774217	6.0241513	2.4544146
8.218324332479893	6.089124	2.4676151
8.235896347766193	6.0709686	2.4639335
8.253468557052724	6.0919566	2.468189
8.27104096075914	6.1382823	2.4775558
8.288613559305137	6.2002034	2.4900208
8.306186353110448	6.2547116	2.5009422
8.32375934259485	6.2051706	2.491018
8.341332528178162	6.2307553	2.496148
8.358905910280246	6.292024	2.5083907
8.376479489321003	6.3706207	2.5240088
8.394053265720377	6.436776	2.5370803
8.411627239898356	6.4394855	2.537614
8.42920141227497	6.421038	2.5339768
8.44677578327029	6.4198003	2.5337324
8.464350353304427	6.323594	2.5146759
8.48192512279754	6.287812	2.507551
8.499500092169827	6.2694697	2.503891
8.51707526184153	6.280011	2.505995
8.534650632232934	6.378825	2.5256336
8.552226203764365	6.416764	2.5331333
8.569801976856192	6.439356	2.5375886
8.587377951928834	6.4103045	2.531858
8.60495412940274	6.4062963	2.5310662
8.622530509698416	6.381424	2.526148
8.6401070932364	6.4779387	2.5451796
8.657683880437283	6.536712	2.5566995
8.675260871721695	6.7420206	2.5965402
8.692838067510303	6.8790097	2.6227865
8.710415468223834	7.104928	2.665507
8.727993074283043	7.274514	2.6971307
8.745570886108737	7.3094177	2.7035935
8.763148904121765	7.340494	2.7093346
8.78072712874302	7.338275	2.708925
8.798305560393441	7.6010633	2.7570026
8.815884199494006	7.692244	2.7734895
8.833463046465745	7.8973603	2.8102243
8.851042101729728	8.116377	2.8489256
8.86862136570707	8.477662	2.9116426
8.886200838818924	8.585693	2.9301355
8.903780521486505	8.542569	2.9227674
8.921360414131055	8.583838	2.9298189
8.938940517173874	8.717695	2.9525743
8.956520831036297	8.843127	2.9737396
8.97410135613971	9.094383	3.0156896
8.99168209290554	9.3014	3.0498197
9.009263041755265	9.645824	3.1057727
9.026844203110405	9.925079	3.1504095
9.044425577392525	10.0550165	3.1709647
9.062007165023239	10.144703	3.185075
9.079588966424197	10.351113	3.2173147
9.097170982017108	10.397473	3.2245114
9.11475321222372	11.242912	3.3530452
9.132335657465825	12.145659	3.4850624
9.149918318165264	12.267756	3.5025358
9.167501194743924	12.846242	3.5841653
9.18508428762374	12.568253	3.5451732
9.202667597226693	12.603443	3.5501328
9.220251123974803	12.208652	3.4940882
9.237834868290143	11.879023	3.446596
9.255418830594836	11.658132	3.4144006
9.273003011311046	11.14726	3.3387513
9.290587410860985	10.931568	3.3062923
9.308172029666911	10.310984	3.211072
9.32575686815113	10.046203	3.1695745
9.343341926735997	8.89022	2.9816473
9.360927205843916	8.616552	2.9353964
9.378512705897327	8.439925	2.905155
9.396098427318728	8.276462	2.876884
9.413684370530664	8.12767	2.8509068
9.431270535955722	8.004385	2.8292022
9.448856924016539	7.9532213	2.8201456
9.466443535135806	7.89528	2.809854
9.484030369736251	7.9124575	2.8129091
9.501617428240658	7.790299	2.7911108
9.519204711071852	7.7430043	2.7826254
9.536792218652714	7.7263527	2.7796319
9.55437995140617	7.838122	2.7996645
9.571967909755191	7.9188123	2.8140385
9.589556094122802	8.029641	2.833662
9.60714450493207	8.092948	2.8448107
9.624733142606116	8.197522	2.8631315
9.642322007568108	8.172274	2.8587189
9.659911100241267	8.167914	2.8579564
9.677500421048851	8.136997	2.8525422
9.695089970414175	8.162917	2.857082
9.712679748760609	8.159161	2.8564243
9.730269756511557	8.067254	2.8402913
9.747859994090492	8.091964	2.8446376
9.765450461920915	8.204195	2.8642967
9.78304116042639	8.364083	2.8920724
9.800632090030527	8.463351	2.909184
9.81822325115699	8.470723	2.9104507
9.835814644229481	8.464396	2.9093635
9.853406269671762	8.427915	2.9030871
9.870998127907646	8.478557	2.911796
9.888590219360985	8.424979	2.9025815
9.906182544455698	8.440815	2.905308
9.923775103615734	8.362175	2.8917425
9.941367897265108	8.29148	2.879493
9.958960925827878	8.259653	2.8739612
9.97655418972816	8.34382	2.888567
9.994147689390106	8.447701	2.906493
10.011741425237934	8.520261	2.9189487
10.029335397695904	8.464149	2.909321
10.04692960718833	8.433364	2.9040256
10.06452405413958	8.394083	2.8972545
10.082118738974064	8.420492	2.9018085
10.099713662116246	8.413437	2.9005926
10.117308823990651	8.416753	2.901164
10.134904225021844	8.451276	2.9071078
10.152499865634445	8.437297	2.9047024
10.170095746253125	8.355663	2.8906164
10.18769186730261	8.276281	2.8768528
10.205288229207675	8.199561	2.8634875
10.222884832393145	8.265832	2.875036
10.2404816772839	8.2503805	2.8723476
10.258078764304868	8.237133	2.8700407
10.275676093881035	8.225498	2.868013
10.293273666437438	8.210803	2.86545
10.310871482399158	8.196387	2.8629334
10.32846954219134	8.20817	2.8649905
10.346067846239173	8.246212	2.8716218
10.363666394967908	8.27367	2.8763988
10.38126518880283	8.306746	2.8821425
10.398864228169298	8.393139	2.8970914
10.416463513492713	8.432754	2.9039204
10.434063045198531	8.394341	2.897299
10.451662823712262	8.344139	2.8886223
10.469262849459467	8.396965	2.8977518
10.486863122865758	8.2771015	2.8769953
10.504463644356806	8.215699	2.8663042
10.522064414358338	8.030827	2.8338714
10.539665433296118	7.965848	2.8223834
10.557266701595987	7.96909	2.8229578
10.574868219683818	7.8779798	2.806774
10.592469987985552	7.842449	2.8004372
10.610072006927185	7.6494913	2.7657714
10.627674276934751	7.5245156	2.7430851
10.64527679843435	7.4480896	2.7291188
10.662879571852143	7.403667	2.720968
10.680482597614331	7.376418	2.7159562
10.698085876147173	7.2510557	2.6927783
10.715689407876988	7.1011887	2.6648057
10.733293193230146	6.9791102	2.6418006
10.750897232633072	6.8922253	2.6253047
10.76850152651225	6.8497696	2.6172063
10.786106075294207	6.7530856	2.59867
10.803710879405534	6.6354003	2.575927
10.821315939272877	6.529859	2.555359
10.83892125532294	6.4684706	2.5433187
10.856526827982472	6.43525	2.5367794
10.874132657678285	6.372506	2.5243824
10.891738744837243	6.277736	2.505541
10.909345089886271	6.2263255	2.4952607
10.926951693252343	6.197023	2.489382
10.944558555362494	6.1709046	2.4841306
10.96216567664381	6.1327505	2.476439
10.979773057523436	6.021163	2.453806
10.997380698428573	5.93844	2.4368913
11.014988599786477	5.8555193	2.419818
11.032596762024461	5.791665	2.4065878
11.050205185569892	5.72168	2.3920033
11.067813870850198	5.6581683	2.3786905
11.085422818292859	5.5250325	2.3505387
11.10303202832541	5.461357	2.3369546
11.120641501375454	5.414085	2.3268187
11.138251237870636	5.4366093	2.3316538
11.155861238238671	5.3962636	2.322986
11.173471502907317	5.3336635	2.3094726
11.191082032304402	5.259795	2.2934244
11.208692826857805	5.1646585	2.2725885
11.226303886995465	5.0864034	2.2553055
11.243915213145371	4.999563	2.2359703
11.261526805735578	4.9530835	2.2255523
11.279138665194196	4.8601527	2.2045753
11.296750791949393	4.79614	2.190009
11.314363186429393	4.6990924	2.167739
11.331975849062479	4.694252	2.1666222
11.34958878027699	4.682871	2.163994
11.36720198050133	4.6775928	2.1627743
11.384815450163948	4.6592655	2.158533
11.402429189693366	4.640234	2.1541202
11.420043199518153	4.5737896	2.138642
11.437657480066942	63.502785	7.9688635
11.455272031768422	85.18347	9.229489
11.472886855051353	107.59021	10.37257
11.490501950344528	99.19471	9.959654
11.508117318076819	84.5181	9.193373
11.52573295867715	45.87522	6.7731247
11.543348872574514	4.1693845	2.041907
11.560965060197946	4.142197	2.0352387
11.57858152197655	4.115622	2.0286996
11.59619825833949	4.0787263	2.0195856
11.613815269715985	4.022746	2.0056784
11.631432556535323	38.538864	6.2079678
11.649050119226837	83.06416	9.113955
11.666667958219929	93.46094	9.66752
11.68428607394406	107.78117	10.381771
11.701904466828756	82.60865	9.08893
11.719523137303586	65.45144	8.090206
11.737142085798196	4.6605105	2.1588216
11.754761312742286	3.7280405	1.9308134
11.772380818565619	3.7160404	1.9277034
11.790000603698015	3.7022305	1.924118
11.80762066856935	3.6818914	1.9188255
11.825241013609572	3.6529152	1.9112601
11.842861639248683	3.6081634	1.8995166
11.860482545916748	3.5762079	1.8910865
11.878103734043883	3.5254161	1.8776091
11.895725204060282	3.476281	1.8644787
11.91334695639619	3.4403193	1.8548098
11.930968991481919	3.4330935	1.8528609
11.948591309747824	3.3897622	1.8411307
11.966213911624347	3.3713121	1.8361133
11.98383679754198	3.307216	1.8185753
12.001459967931268	3.267656	1.807666
12.019083423222835	3.225821	1.7960571
12.036707163847352	3.2651777	1.8069803
12.05433119023556	3.2446625	1.8012947
12.071955502818259	3.1990733	1.7885953
12.089580102026313	3.1522336	1.7754531
12.107204988290643	3.1772087	1.7824726
12.12483016204224	3.1968799	1.7879821
12.142455623712152	3.2334898	1.7981907
12.16008137373149	3.165677	1.779235
12.177707412531431	3.1605554	1.7777951
12.19533374054321	3.1433868	1.77296
12.212960358198126	3.1521044	1.7754167
12.230587265927545	3.1201286	1.7663885
12.248214464162889	3.0670402	1.7512968
12.265841953335649	3.0388458	1.7432286
12.283469733877375	3.027546	1.7399845
12.301097806219685	3.0122228	1.7355757
12.31872617079425	3.028572	1.7402793
12.336354828032825	3.0065315	1.7339352
12.353983778367205	2.988747	1.7287992
12.371613022229262	2.9664788	1.7223469
12.389242560050928	2.9599037	1.720437
12.406872392264201	2.9814115	1.7266765
12.424502519301143	2.9765203	1.7252595
12.442132941593874	2.942909	1.7154909
12.459763659574586	2.9031327	1.7038581
12.477394673675532	2.9032762	1.7039003
12.49502598432903	2.8608396	1.6914017
12.51265759196746	2.8638594	1.6922941
12.530289497023267	2.8363042	1.684133
12.547921699928967	2.8429663	1.6861098
12.565554201117134	2.826455	1.6812065
12.583187001020404	2.8156176	1.6779802
12.600820100071486	2.7722073	1.6649947
12.618453498703152	2.8310359	1.6825682
12.636087197348235	2.8669257	1.6931999
12.65372119643964	2.8759854	1.695873
12.671355496410326	2.8353627	1.6838535
12.68899009769333	2.8510323	1.6885
12.706625000721749	2.9021733	1.7035766
12.724260205928752	2.956861	1.7195525
12.741895713747551	2.9899614	1.7291505
12.759531524611454	3.0174308	1.7370753
12.777167638953818	3.023955	1.7389523
12.794804057208072	3.0091677	1.7346953
12.812440779807702	3.0914404	1.7582493
12.830077807186271	3.2529936	1.8036057
12.847715139777405	3.298598	1.8162043
12.865352778014795	3.475386	1.8642387
12.882990722332197	3.5657988	1.8883322
12.90062897316344	3.6515625	1.9109062
12.918267530942412	3.773227	1.9424796
12.935906396103071	3.695329	1.9223238
12.953545569079449	3.8357198	1.9584994
12.971185050305628	3.6261525	1.904246
12.988824840215775	3.6335382	1.9061842
13.006464939244115	3.620316	1.9027128
13.024105347824943	3.4456964	1.8562587
13.041746066392617	3.5294425	1.8786811
13.05938709538157	3.365459	1.8345187
13.077028435226296	3.383925	1.8395448
13.094670086361363	3.2902646	1.8139087
13.112312049221401	3.2022147	1.7894733
13.129954324241112	3.1494036	1.7746559
13.147596911855258	2.985433	1.7278405
13.165239812498685	2.9537745	1.7186549
13.182883026606293	2.86382	1.6922826
13.200526554613058	2.7776651	1.6666329
13.218170396954017	2.751898	1.6588845
13.235814554064284	2.7554302	1.6599488
13.253459026379034	2.7563522	1.6602266
13.271103814333523	2.743374	1.6563134
13.288748918363058	2.716477	1.6481738
13.306394338903031	2.6827471	1.6379094
13.32404007638889	2.6522505	1.6285732
13.341686131256164	2.6815877	1.6375554
13.359332503940449	2.6974685	1.6423972
13.376979194877402	2.6558084	1.6296651
13.394626204502751	2.7098413	1.6461595
13.412273533252307	2.7316523	1.6527711
13.429921181561937	2.7537537	1.6594437
13.447569149867581	2.7389596	1.6549802
13.465217438605247	2.7447028	1.6567144
13.482866048211022	2.7501168	1.6583476
13.500514979121052	2.7725663	1.6651025
13.518164231771568	2.77839	1.6668503
13.535813806598844	2.7774203	1.6665595
13.553463704039254	2.7567892	1.6603582
13.571113924529229	2.6921582	1.6407797
13.588764468505275	2.6664386	1.6329234
13.606415336403956	2.7065709	1.6451659
13.624066528661917	2.7652156	1.6628938
13.641718045715882	2.856386	1.6900846
13.659369888002635	2.8783743	1.6965772
13.67702205595903	2.9433334	1.7156146
13.694674550021993	2.982941	1.7271192
13.712327370628532	3.0731072	1.753028
13.729980518215713	3.1835918	1.7842623
13.747633993220681	3.2549596	1.8041507
13.765287796080647	3.2861195	1.8127657
13.7829419272329	3.3139143	1.820416
13.800596387114801	3.3492181	1.830087
13.818251176163775	3.356631	1.8321111
13.835906294817324	3.3811674	1.8387951
13.853561743513023	3.4117835	1.8471013
13.871217522688525	3.4600782	1.8601285
13.888873632781538	3.5040557	1.8719124
13.906530074229858	3.5489	1.8838524
13.92418684747135	3.5850778	1.8934301
13.941843952943948	3.5705674	1.8895946
13.959501391085665	3.5553713	1.8855692
13.977159162334578	3.4619875	1.8606417
13.994817267128846	3.4163766	1.8483443
14.012475705906693	3.3336134	1.8258185
14.030134479106424	3.286798	1.8129529
14.047793587166414	3.1927898	1.7868379
14.065453030525108	3.1136827	1.7645631
14.083112809621026	2.9951549	1.7306516
14.100772924892766	2.9548836	1.7189775
14.118433376778997	2.9031296	1.7038573
14.136094165718458	2.8396256	1.6851189
14.153755292149969	2.7781	1.6667633
14.171416756512416	2.7022343	1.6438473
14.189078559244768	2.668179	1.6334561
14.20674070078606	2.6422603	1.6255031
14.224403181575408	2.6185098	1.618181
14.242066002051999	2.5837374	1.6074008
14.259729162655093	2.5117786	1.5848591
14.277392663824022	2.48186	1.575392
14.295056505998208	2.4411552	1.5624197
14.312720689617128	2.4451423	1.5636951
14.330385215120348	2.4372694	1.5611757
14.348050082947497	2.4055743	1.5509914
14.3657152935383	2.4173653	1.5547879
14.383380847332528	2.4084976	1.5519335
14.401046744770051	2.4124904	1.5532193
14.418712986290798	2.3821032	1.5434064
14.436379572334793	2.3659632	1.5381688
14.454046503342123	2.3848004	1.5442799
14.471713779752946	2.449315	1.5650288
14.489381402007504	2.4697921	1.5715573
14.507049370546113	2.4840553	1.5760885
14.524717685809168	2.4683995	1.5711141
14.542386348237134	2.4335825	1.5599945
14.560055358270553	2.4030967	1.5501925
14.577724716350051	2.457809	1.5677401
14.595394422916325	2.4945402	1.5794114
14.61306447841015	2.5485547	1.5964193
14.63073488327237	2.5155454	1.586047
14.648405637943917	2.5108323	1.5845606
14.6660767428658	2.4935844	1.5791087
14.683748198479094	2.5424168	1.5944958
14.701420005224954	2.6220465	1.6192734
14.719092163544628	2.683682	1.6381947
14.73676467387942	2.6783597	1.6365695
14.754437536670727	2.6701283	1.6340528
14.772110752360014	2.6108027	1.6157979
14.78978432138882	2.619204	1.6183956
14.807458244198777	2.6680121	1.6334051
14.82513252123159	2.698953	1.642849
14.842807152929028	2.7288368	1.6519191
14.860482139732962	2.7100923	1.6462358
14.87815748208531	2.695777	1.6418822
14.8958331804281	2.696066	1.6419702
14.91350923520342	2.664729	1.6323998
14.931185646853438	2.722597	1.6500293
14.948862415820408	2.676828	1.6361015
14.966539542546656	2.6723928	1.6347455
14.98421702747459	2.6295164	1.6215783
15.001894871046696	2.6397774	1.6247392
15.019573073705542	2.68309	1.6380141
15.037251635893766	2.6635303	1.6320326
15.054930558054092	2.6874049	1.6393306
15.072609840629323	2.760935	1.6616062
15.090289484062351	2.940695	1.7148455
15.107969488796124	3.245444	1.8015116
15.125649855273691	3.6427877	1.9086088
15.14333058393817	4.1301594	2.0322793
15.161011675232768	5.071339	2.2519634
15.17869312960076	6.4358835	2.5369043
15.196374947485506	8.281932	2.8778346
15.214057129330447	11.375019	3.372687
15.231739675579114	16.00148	4.000185
15.249422586675102	21.018469	4.5845904
15.267105863062092	24.089922	4.9081483
15.284789505183847	24.196995	4.919044
15.302473513484218	21.940971	4.684119
15.320157888407127	18.393147	4.288723
15.337842630396578	14.395666	3.794162
15.355527739896656	11.269661	3.3570316
15.37321321735153	8.797292	2.966023
15.39089906320545	6.4214787	2.5340636
15.408585277902748	4.8312902	2.1980195
15.42627186188783	3.6733942	1.9166101
15.443958815605198	3.1813016	1.7836204
15.461646139499424	2.948009	1.7169768
15.479333834015168	2.8595057	1.6910073
15.497021899597165	2.7840817	1.6685568
15.514710336690234	2.7100892	1.6462349
15.53239914573928	2.6424816	1.6255711
15.550088327189297	2.6056108	1.6141905
15.567777881485336	2.5609796	1.6003062
15.58546780907256	2.5384166	1.593241
15.6031581103962	2.5181391	1.5868646
15.620848785901568	2.4753668	1.5733298
15.638539836034063	2.4438386	1.5632782
15.656231261239173	2.4339707	1.5601188
15.673923061962451	2.442276	1.5627784
15.691615238649552	2.47054	1.5717952
15.709307791746202	2.4973814	1.5803106
15.727000721698221	2.4926064	1.578799
15.744694028951498	2.4381068	1.5614438
15.76238771395202	2.3729827	1.5404489
15.780081777145844	2.3711593	1.5398569
15.797776218979125	2.4115825	1.552927
15.815471039898094	2.436228	1.560842
15.833166240349064	2.4030366	1.550173
15.850861820778437	2.3817346	1.5432869
15.868557781632699	2.3944125	1.5473889
15.886254123358412	2.429008	1.5585275
15.903950846402232	2.4417672	1.5626155
15.921647951210897	2.383613	1.5438955
15.939345438231225	2.3448088	1.5312768
15.957043307910133	2.3461912	1.5317281
15.974741560694602	2.3612545	1.5366374
15.992440197031714	2.3576834	1.535475
16.01013921736862	2.3427114	1.5305918
16.02783862215259	2.363361	1.5373226
16.045538411830933	2.380244	1.542804
16.06323858685107	2.3879344	1.5452943
16.080939147660512	2.4213064	1.5560547
16.09864009470684	2.462085	1.5691032
16.11634142843774	2.4748821	1.5731758
16.134043149300954	2.4899716	1.5779644
16.15174525774433	2.4452107	1.563717
16.169447754215817	2.4106562	1.5526288
16.18715063916342	2.426085	1.5575895
16.204853913035244	2.4749644	1.5732019
16.222557576279478	2.5286715	1.5901797
16.240261629344403	22.484007	4.74173
16.257966072678386	43.01878	6.5588703
16.275670906729868	38.114166	6.173667
16.293376131947387	2.5641153	1.6012855
16.31108174877957	2.5985894	1.612014
16.328787757675133	2.6043146	1.6137888
16.34649415908287	2.6148722	1.6170566
16.364200953451657	2.6120994	1.616199
16.38190814123048	2.65452	1.6292698
16.39961572286839	2.6629987	1.6318697
16.41732369881455	2.696576	1.6421255
16.43503206951817	2.7107697	1.6464415
16.45274083542859	2.7294214	1.652096
16.47044999699522	2.8086748	1.6759101
16.488159554667558	2.8664844	1.6930696
16.505869508895184	2.9012349	1.7033012
16.523579860127786	2.920179	1.7088531
16.541290608815117	2.9774153	1.7255188
16.559001755407035	3.073094	1.7530242
16.57671330035348	3.1426983	1.7727658
16.59442524410448	3.1615171	1.7780656
16.61213758711015	3.2039032	1.789945
16.629850329820705	3.2766747	1.8101587
16.647563472686436	3.3869596	1.8403695
16.665277016157724	3.3937001	1.8421998
16.682990960685053	3.4441047	1.85583
16.70070530671898	3.4759738	1.8643963
16.718420054710155	3.5757737	1.8909717
16.736135205109335	3.6558769	1.9120347
16.753850758367335	3.713609	1.9270726
16.771566714935087	3.7302575	1.9313874
16.789283075263597	3.7839417	1.9452356
16.80699983980398	3.8527632	1.9628457
16.82471700900741	3.9123588	1.9779683
16.84243458332518	3.9134963	1.9782559
16.860152563208665	3.9374177	1.9842927
16.87787094910932	4.012303	2.0030735
16.89558974147871	4.087636	2.0217903
16.913308940768466	4.149442	2.037018
16.931028547430333	4.2728677	2.0670917
16.94874856191613	4.3563004	2.0871751
16.966468984677785	4.3959913	2.096662
16.98418981616729	4.388845	2.094957
17.00191105683676	4.4267635	2.1039875
17.019632707138374	4.491764	2.1193783
17.03735476752442	4.551507	2.1334262
17.05507723844728	4.579465	2.1399684
17.072800120359403	4.6267157	2.1509802
17.090523413713353	4.6246195	2.150493
17.108247118961785	4.664454	2.1597347
17.125971236557437	4.709347	2.1701028
17.143695766953133	4.7881002	2.1881728
17.161420710601806	4.782867	2.1869767
17.179146067956477	4.7849703	2.1874576
17.19687183947025	4.7489276	2.1792035
17.21459802559634	4.732048	2.175327
17.232324626788028	4.7016034	2.168318
17.25005164349871	4.721585	2.1729207
17.267779076181863	4.7481666	2.1790287
17.285506925291074	4.7409654	2.1773758
17.30323519127999	4.6617727	2.159114
17.320963874602384	4.587721	2.1418965
17.33869297571211	4.6041803	2.1457355
17.356422495063114	4.6325	2.1523244
17.37415243310944	4.6006627	2.1449156
17.391882790305218	4.509874	2.1236463
17.40961356710468	4.4680157	2.113768
17.42734476396215	4.4504128	2.1096
17.445076381332044	4.477635	2.1160424
17.462808419668868	4.5710883	2.1380103
17.48054087942723	4.7585173	2.1814027
17.498273761061835	5.08394	2.2547593
17.51600706502747	5.618421	2.3703208
17.533740791779024	6.310169	2.512005
17.551474941771485	7.7080398	2.7763357
17.56920951545993	8.695136	2.9487517
17.586944513299528	10.769376	3.2816727
17.60467993574556	12.321404	3.5101857
17.622415783253373	13.87618	3.7250745
17.64015205627843	15.19386	3.8979301
17.657888755276293	16.305248	4.037976
17.675625880702604	16.879656	4.1084857
17.69336343301311	16.707745	4.0875106
17.71110141266366	15.940937	3.9926102
17.728839820110178	14.943346	3.8656623
17.746578655808705	14.088081	3.7534094
17.764317920215372	12.691747	3.5625477
17.7820576137864	11.253102	3.3545644
17.79979773697811	9.275197	3.0455208
17.81753829024692	7.4048877	2.7211924
17.835279274049356	5.814724	2.4113739
17.85302068884201	4.8250337	2.196596
17.870762535081607	4.229875	2.056666
17.888504813224934	3.9349387	1.983668
17.90624752372891	3.7839627	1.9452411
17.923990667050536	3.6932964	1.9217951
17.941734243646895	3.5912337	1.895055
17.959478253975185	3.5092137	1.8732896
17.9772226984927	3.4646523	1.8613577
17.994967577656833	3.429134	1.8517921
18.01271289192506	3.4274085	1.8513261
18.030458641754965	3.4026449	1.844626
18.04820482760425	3.3829637	1.8392835
18.06595144993067	3.3306108	1.8249961
18.083698509192125	3.3163671	1.8210895
18.101446005846576	3.2821798	1.8116788
18.119193940352105	3.2674599	1.8076117
18.136942313166887	3.2478983	1.8021927
18.1546911247492	3.176981	1.7824087
18.1724403755574	3.13332	1.7701187
18.19019006604997	3.12477	1.7677019
18.207940196685467	3.124981	1.7677616
18.225690767922575	3.13633	1.7709687
18.243441780220046	3.14728	1.7740575
18.261193234036764	3.171001	1.7807305
18.278945129831676	3.155002	1.7762326
18.29669746806386	3.108285	1.7630329
18.314450249192483	3.070177	1.752192
18.3322034736768	3.0419257	1.7441117
18.349957141976184	3.059809	1.749231
18.3677112545501	3.051063	1.7467293
18.385465811858108	3.0284078	1.7402321
18.403220814359884	3.015383	1.7364858
18.420976262515172	3.084141	1.7561723
18.43873215678387	3.167267	1.7796817
18.456488497625923	3.192805	1.7868422
18.474245285501407	3.2544975	1.8040226
18.492002520870486	3.329171	1.8246015
18.50976020419343	3.4443667	1.8559005
18.527518335930615	3.7981114	1.9488744
18.545276916542516	4.451145	2.1097736
18.563035946489688	4.652161	2.1568868
18.580795426232832	5.1109242	2.2607353
18.598555356232698	4.9581614	2.226693
18.616315736950185	5.2887244	2.2997227
18.63407656884626	4.8482533	2.201875
18.65183785238201	5.082992	2.2545493
18.669599588018617	4.8129606	2.193846
18.68736177621737	4.812261	2.1936867
18.705124417439652	4.765581	2.183021
18.72288751214696	4.560941	2.135636
18.740651060800886	4.7491455	2.1792533
18.758415063863115	4.4454174	2.1084158
18.77617952179546	4.666777	2.1602724
18.793944435059814	4.3322244	2.0813997
18.811709804118184	4.339207	2.0830765
18.829475629432675	4.250767	2.061739
18.8472419114655	4.0515695	2.012851
18.86500865067897	4.145851	2.0361364
18.88277584753551	3.852643	1.962815
18.90054350249763	3.907337	1.9766985
18.918311616027957	3.5747313	1.890696
18.936080188589226	3.4456413	1.8562438
18.953849220644265	3.1038606	1.7617776
18.971618712656007	2.919859	1.7087594
18.9893886650875	2.889494	1.6998512
19.007159078401887	8.051625	2.8375385
19.024929953062408	32.889954	5.7349763
19.042701289532435	32.81526	5.728461
19.060473088275405	25.409384	5.040772
19.07824534975489	2.7262135	1.651125
19.096018074434568	2.7092872	1.6459912
19.113791262778197	2.6292982	1.6215111
19.13156491524966	2.591167	1.6097102
19.149339032312945	2.5757973	1.6049291
19.167113614432136	2.597512	1.6116799
19.184888662071433	2.602621	1.6132641
19.202664175695123	2.5958412	1.6111615
19.220440155767623	2.612136	1.6162103
19.238216602753447	2.596498	1.6113653
19.2559935171172	2.5647798	1.601493
19.27377089932361	2.5189073	1.5871066
19.291548749837514	2.5294385	1.5904208
19.309327069123835	2.5247192	1.5889366
19.32710585764763	2.5234573	1.5885394
19.344885115874032	2.486712	1.5769312
19.362664844268313	2.4867322	1.5769377
19.380445043295822	2.5329816	1.5915344
19.39822571342203	2.5188956	1.5871029
19.41600685511252	2.4936218	1.5791206
19.43378846883297	2.4808934	1.5750852
19.451570555049173	2.4603074	1.5685366
19.469353114227037	2.4662557	1.5704317
19.48713614683254	2.5014474	1.5815965
19.50491965333182	2.5146124	1.585753
19.52270363419109	2.496204	1.5799379
19.540488089876686	2.4887714	1.577584
19.55827302085503	2.473683	1.5727947
19.576058427592674	2.4628663	1.5693521
19.593844310556282	2.4621358	1.5691195
19.611630670212598	2.4949117	1.5795289
19.629417507028506	2.510673	1.5845103
19.64720482147098	2.546802	1.5958703
19.6649926140071	2.578079	1.6056397
19.682780885104084	2.5990672	1.6121622
19.70056963522921	2.5830827	1.6071972
19.718358864849908	2.5625987	1.6008118
19.7361485744337	2.5228229	1.5883397
19.753938764448215	2.5006988	1.5813597
19.771729435361202	2.5108888	1.5845784
19.789520587640506	2.5056925	1.582938
19.807312221754092	2.5306356	1.5907972
19.825104338170043	2.5702386	1.6031964
19.842896937356517	2.5803998	1.6063622
19.860690019781824	2.5526955	1.5977157
19.87848358591436	2.5170345	1.5865165
19.896277636222635	2.4933224	1.5790257
19.914072171175278	2.5385203	1.5932735
19.931867191241015	2.5359914	1.5924797
19.94966269688869	2.5360851	1.592509
19.967458688587264	2.4396973	1.5619531
19.985255166805807	2.4434495	1.5631537
20.00305213201348	2.494568	1.5794202
20.020849584679578	2.5238225	1.5886543
20.038647525273507	2.501873	1.581731
20.05644595426477	2.4878843	1.5773028
20.07424487212299	2.527495	1.5898097
20.092044279317903	2.545968	1.595609
20.109844176319353	2.5345805	1.5920366
20.127644563597304	2.4916437	1.5784941
20.145445441621817	2.4481833	1.5646671
20.16324681086307	2.4054368	1.5509471
20.181048671791373	2.4232066	1.5566652
20.198851024877122	2.4355533	1.5606259
20.216653870590836	2.4185777	1.5551777
20.234457209403146	2.391318	1.5463887
20.252261041784802	2.3669224	1.5384805
20.270065368206662	2.3428652	1.5306422
20.287870189139685	2.3440156	1.5310178
20.305675505054968	2.3890662	1.5456605
20.323481316423702	2.4202812	1.5557253
20.341287623717207	2.4145072	1.5538684
20.359094427406884	2.4094644	1.5522449
20.376901727964288	2.3813634	1.5431666
20.39470952586107	2.3678074	1.5387682
20.41251782156899	2.3573048	1.5353516
20.430326615559935	2.381111	1.5430849
20.448135908305886	2.3773165	1.5418549
20.465945700278965	2.3543382	1.5343853
20.483755991951384	2.3481996	1.5323837
20.50156678379548	2.3729255	1.5404303
20.519378076283708	2.3634179	1.5373411
20.537189869888635	2.348654	1.5325319
20.55500216508294	2.3366554	1.5286123
20.572814962339415	2.3502479	1.5330518
20.59062826213098	2.3688374	1.5391028
20.60844206493066	2.372224	1.5402026
20.626256371211593	2.3651564	1.5379065
20.644071181447032	2.3556757	1.534821
20.66188649611036	2.365623	1.5380582
20.67970231567506	2.3435423	1.5308633
20.697518640614742	2.3234186	1.5242764
20.715335471403122	2.2871542	1.512334
20.73315280851404	2.2994978	1.5164095
20.750970652421447	2.3191018	1.5228597
20.768789003599412	2.314562	1.5213685
20.786607862522136	2.3347638	1.5279933
20.8044272296639	2.3571808	1.5353113
20.82224710549913	2.364992	1.537853
20.84006749050237	2.347065	1.5320134
20.857888385148268	3.8863907	1.9713931
20.8757097899116	45.99566	6.78201
20.893531705267254	64.838135	8.052213
20.911354131690224	83.879036	9.15855
20.92917706965566	69.14893	8.315584
20.94700051963877	50.178337	7.083667
20.96482448211493	29.428976	5.424848
20.982648957559622	4.136889	2.0339344
21.00047394644843	2.2754326	1.5084537
21.01829944925707	2.2946105	1.5147972
21.036125466461375	2.3184798	1.5226555
21.053951998537297	2.3041904	1.517956
21.071779045960906	2.261334	1.5037732
21.089606609208378	2.2087924	1.4862007
21.10743468875603	2.218661	1.4895171
21.12526328508028	2.225751	1.4918951
21.143092398657675	2.2097042	1.4865074
21.16092202996488	2.169461	1.472909
21.17875217947867	2.176047	1.4751431
21.19658284767596	2.2012553	1.4836628
21.21441403503377	2.2477713	1.4992568
21.232245742029225	2.2434397	1.4978117
21.2500779691396	2.2265356	1.492158
21.26791071684227	2.1746397	1.474666
21.28574398561475	2.1446912	1.4644765
21.30357777593465	2.1557062	1.4682323
21.321412088279704	2.1889906	1.4795238
21.339246923127792	2.1913104	1.4803076
21.357082280956888	2.204304	1.4846898
21.3749181622451	2.2122796	1.4873734
21.392754567470647	2.2101543	1.4866588
21.41059149711187	2.19375	1.4811313
21.42842895164726	2.1802468	1.4765658
21.446266931555378	2.152575	1.4671656
21.464105437314945	2.12061	1.4562315
21.481944469404798	2.118623	1.455549
21.49978402830388	2.1110504	1.4529454
21.51762411449127	2.0754197	1.4406317
21.53546472844617	2.095843	1.4477026
21.553305870647876	2.126306	1.4581859
21.571147541575865	2.1537814	1.4675767
21.58898974170967	2.1283257	1.4588783
21.60683247152899	2.0988097	1.4487269
21.62467573151363	2.0748808	1.4404447
21.642519522143523	2.097415	1.4482455
21.660363843898722	2.1019113	1.449797
21.6782086972594	2.1049178	1.4508334
21.696054082705864	2.1194892	1.4558465
21.713900000718535	2.091769	1.4462949
21.73174645177795	2.0239406	1.4226526
21.749593436364794	2.003761	1.4155427
21.767440954959845	2.0402029	1.4283566
21.785289008044032	2.066673	1.4375927
21.803137596098388	2.0673666	1.437834
21.820986719604086	2.0407195	1.4285375
21.838836379042412	2.0472133	1.4308087
21.85668657489478	2.0338118	1.4261178
21.87453730764273	2.0325763	1.4256845
21.892388577767914	2.0531344	1.4328762
21.91024038575213	2.031459	1.4252926
21.928092732077285	2.0565307	1.4340609
21.945945617225426	2.057539	1.4344124
21.963799041678694	2.0476756	1.4309702
21.981653005919398	31.327374	5.597086
21.999507510429943	78.102	8.837533
22.01736255569286	73.0789	8.54862
22.035218142190818	4.185833	2.0459309
22.05307427040661	2.0223625	1.4220979
22.07093094082315	2.0331695	1.4258925
22.088788153923474	1.9782001	1.406485
22.106645910190746	1.9731275	1.4046806
22.12450421010827	1.9646566	1.4016621
22.142363054159464	1.9910203	1.4110352
22.16022244282787	1.9977561	1.41342
22.178082376597164	2.0114748	1.4182647
22.195942855951145	2.0196302	1.421137
22.213803881373742	1.9723622	1.4044081
22.231665453349002	1.9572846	1.3990299
22.24952757236111	1.9475299	1.3955393
22.26739023889438	1.9572406	1.3990141
22.28525345343323	1.9893458	1.4104418
22.30311721646225	2.0261981	1.4234458
22.320981528466113	1.9973576	1.413279
22.33884638992964	1.9807863	1.4074041
22.356711801337788	1.9775229	1.4062443
22.37457776317561	1.9775193	1.406243
22.392444275928337	1.9539158	1.3978254
22.410311340081282	1.9577947	1.3992121
22.428178956119904	1.9697752	1.4034868
22.446047124529805	1.9648051	1.401715
22.46391584579669	1.9567884	1.3988526
22.481785120406414	1.962495	1.4008908
22.49965494884496	1.9860237	1.4092635
22.51752533159841	1.9649289	1.4017591
22.53539626915302	1.9335015	1.390504
22.553267761995137	1.8965776	1.3771629
22.571139810611264	1.9442254	1.3943548
22.589012415488025	1.9952451	1.4125315
22.60688557711216	1.9708197	1.4038589
22.624759295970566	1.9165496	1.384395
22.642633572550263	1.8857379	1.3732218
22.660508407338362	1.8966817	1.3772006
22.67838380082217	1.9409088	1.393165
22.696259753489077	1.9728769	1.4045913
22.714136265826614	1.9914984	1.4112046
22.73201333832246	1.9794962	1.4069457
22.74989097146439	1.96389	1.4013885
22.76776916574035	1.9630804	1.4010997
22.785647921638393	1.9504887	1.3965989
22.803527239646712	1.9386936	1.3923697
22.82140712025363	1.9315697	1.3898093
22.839287563947593	1.9173781	1.3846942
22.85716857121719	1.9195839	1.3854905
22.875050142551135	1.9143158	1.3835881
22.892932278438277	1.925577	1.3876517
22.910814979367604	1.9251407	1.3874944
22.928698245828222	1.9043466	1.3799807
22.946582078309387	1.914135	1.3835226
22.96446647730047	1.9087281	1.3815672
22.98235144329098	1.938631	1.3923473
23.000236976770562	1.9441447	1.3943259
23.018123078229	1.908107	1.3813425
23.03600974815619	1.8595893	1.3636676
23.053896987042194	1.8924115	1.3756495
23.071784795377173	1.9206235	1.3858657
23.08967317365145	1.920069	1.3856655
23.10756212235546	1.9000392	1.378419
23.125451641979787	1.9112393	1.3824757
23.143341733015134	1.9270232	1.3881726
23.161232395952357	1.922325	1.3864794
23.179123631282426	1.9385282	1.3923104
23.197015439496468	1.9578606	1.3992357
23.214907821085717	1.9596318	1.3998685
23.23280077654157	1.952807	1.3974288
23.250694306355538	1.9479619	1.395694
23.268588411019277	1.9519182	1.3971107
23.28648309102458	1.9357624	1.3913168
23.304378346863356	1.9342903	1.3907876
23.322274179027676	1.9429766	1.393907
23.340170588009723	1.9487475	1.3959755
23.358067574301852	1.9619712	1.4007038
23.37596513839651	1.950277	1.3965231
23.39386328078629	1.9486079	1.3959255
23.411762001963947	1.9190147	1.385285
23.429661302422353	1.890957	1.3751208
23.4475611826545	1.9309931	1.3896018
23.46546164315356	1.9565412	1.3987641
23.48336268441279	1.9589553	1.3996269
23.501264306925638	1.9405928	1.3930516
23.51916651118564	1.9269102	1.3881319
23.537069297686497	1.9135902	1.3833258
23.554972666922037	1.9156575	1.3840728
23.57287661938623	1.9236039	1.3869405
23.59078115557318	1.9338933	1.3906449
23.608686275977128	1.9508542	1.3967298
23.62659198109246	1.9444381	1.3944311
23.6444982714137	1.9486722	1.3959485
23.66240514743549	1.9469665	1.3953375
23.68031260965263	1.92292	1.386694
23.698220658560068	1.9235134	1.3869078
23.716129294652845	1.946601	1.3952065
23.7340385184262	1.9885831	1.4101713
23.75194833037546	1.985838	1.4091977
23.769858730996123	1.961707	1.4006095
23.78776972078382	1.9661444	1.4021927
23.80568130023431	1.9870718	1.4096353
23.823593469843495	1.99301	1.4117401
23.841506230107424	1.9631723	1.4011325
23.859419581522275	1.9325873	1.3901752
23.87733352458438	1.9140086	1.383477
23.89524805979019	1.8839612	1.3725747
23.913163187636318	1.9247822	1.3873652
23.931078908619508	1.981024	1.4074886
23.948995223236633	2.0488188	1.4313695
23.966912131984735	2.0844834	1.443774
23.98482963536096	2.0953536	1.4475336
24.002747733862616	2.0344872	1.4263545
24.020666427987155	2.0284033	1.4242202
24.038585718232156	2.061182	1.4356817
24.056505605095353	2.0846086	1.4438174
24.074426089074617	2.0912251	1.4461069
24.092347170667946	2.0969276	1.4480772
24.110268850373515	2.0652425	1.4370952
24.128191128689586	2.0528529	1.432778
24.146114006114626	2.0690482	1.4384186
24.164037483147187	2.1022508	1.4499141
24.181961560286005	2.1546881	1.4678856
24.199886238029926	2.1259496	1.4580636
24.21781151687797	2.0636551	1.4365427
24.235737397329274	2.0846353	1.4438266
24.253663879883135	2.1320846	1.460166
24.271590965038975	2.2018356	1.4838583
24.289518653296376	2.1639886	1.4710501
24.30744694515505	2.0889168	1.4453086
24.32537584111486	2.0362	1.4269549
24.34330534167581	2.0712843	1.4391958
24.361235447338046	2.091337	1.4461455
24.379166158601876	2.0665267	1.4375418
24.39709747596772	2.0514348	1.432283
24.41502939993615	2.0379627	1.4275723
24.432961931007917	2.0081775	1.4171019
24.450895069683856	1.9679592	1.4028397
24.468828816465	2.0038798	1.4155846
24.4867631718525	2.0486228	1.4313011
24.504698136347656	2.031286	1.4252319
24.52263371045192	1.9833475	1.4083138
24.540569894666874	1.9564313	1.3987249
24.558506689494266	1.9536196	1.3977194
24.57644409543597	1.9639362	1.4014051
24.594382112994012	1.9745078	1.4051718
24.61232074267057	1.9843751	1.4086785
24.630259984967953	1.9558703	1.3985243
24.64819984038863	1.9438086	1.3942053
24.66614030943522	1.9776092	1.4062749
24.684081392610462	1.9770771	1.4060857
24.702023090417274	1.9655037	1.4019642
24.7199654033587	1.9782475	1.4065019
24.737908331937927	1.9832907	1.4082935
24.755851876658305	2.0129387	1.4187807
24.773796038023324	2.0286715	1.4243144
24.79174081653661	2.0532892	1.4329302
24.809686212701962	2.0860548	1.444318
24.827632227023294	2.0794995	1.442047
24.8455788600047	2.0773795	1.4413117
24.8635261121504	2.0927656	1.4466394
24.88147398396475	2.1322463	1.4602213
24.899422475952303	2.1476502	1.4654864
24.917371588617698	2.1547124	1.4678938
24.935321322465768	2.1684277	1.4725583
24.953271678001478	2.2587898	1.5029271
24.97122265572994	2.4248648	1.5571977
24.989174256156414	2.7690296	1.6640402
25.00712647978632	3.1721106	1.781042
25.02507932712521	3.6151512	1.901355
25.043032798678798	4.1408215	2.034901
25.060986894952933	4.775506	2.1852932
25.078941616453637	5.4361067	2.331546
25.096896963687055	6.3174553	2.513455
25.114852937159508	7.5328274	2.7445996
25.132809537377444	8.067788	2.8403852
25.150766764847468	8.119852	2.8495355
25.168724620076347	7.464327	2.7320921
25.186683103570985	6.438597	2.537439
25.204642215838426	5.320447	2.3066094
25.222601957385894	4.1040463	2.0258446
25.24056232872074	3.2167337	1.7935255
25.25852333035048	2.6962686	1.6420318
25.276484962782778	2.315447	1.5216594
25.294447226525435	2.126802	1.4583559
25.312410122086423	2.0267305	1.4236329
25.330373649973843	2.014	1.4191546
25.348337810695988	1.9436458	1.394147
25.366302604761245	1.943928	1.3942481
25.384268032678207	1.9422904	1.3936608
25.40223409495558	1.9501363	1.3964728
25.420200792102257	1.9200972	1.3856758
25.438168124627246	1.8754605	1.3694745
25.45613609303974	1.8754518	1.3694713
25.474104697849057	1.8975011	1.3774981
25.492073939564698	1.8940563	1.3762472
25.510043818696285	1.8840774	1.372617
25.528014335753614	1.8935218	1.376053
25.54598549124664	1.9145637	1.3836776
25.56395728568544	1.9222069	1.3864367
25.58192971958028	1.8652836	1.3657539
25.59990279344156	1.8552804	1.3620868
25.617876507779833	1.8698778	1.3674347
25.635850863105826	1.9122869	1.3828546
25.653825859930386	1.8771136	1.370078
25.671801498764548	1.8386055	1.3559519
25.68977778011949	1.8172554	1.3480562
25.707754704506524	1.860182	1.3638849
25.725732272437153	1.8399655	1.3564533
25.743710484423012	1.7947779	1.3396932
25.761689340975888	1.7836723	1.335542
25.77966884260774	1.8333999	1.354031
25.797648989830662	1.925964	1.387791
25.815629783156922	1.9155481	1.3840333
25.83361122309895	1.8681368	1.366798
25.85159331016929	1.8217692	1.3497293
25.869576044880695	1.8127611	1.3463881
25.887559427746034	1.8220947	1.3498498
25.90554345927836	1.8465704	1.3588858
25.92352813999086	1.8679785	1.3667401
25.94151347039689	1.839344	1.3562242
25.959499451009965	1.8751422	1.3693583
25.97748608234374	1.8727878	1.3684984
25.995473364912062	1.8377416	1.3556333
26.013461299228904	1.7984343	1.3410572
26.03144988580839	1.8419883	1.3571987
26.04943912516483	1.8932432	1.3759518
26.067429017812675	1.8576424	1.3629535
26.085419564266537	1.8573719	1.3628544
26.103410765041186	1.8294976	1.3525892
26.12140262065155	1.7806213	1.3343992
26.139395131612723	1.7921416	1.3387089
26.157388298439948	1.8382114	1.3558066
26.17538212164861	1.8725587	1.3684146
26.193376601754295	1.8523442	1.3610085
26.211371739272714	1.8488543	1.3597258
26.229367534719746	1.8201789	1.34914
26.247363988611433	1.7741765	1.3319821
26.26536110146397	1.7428474	1.3201694
26.283358873793727	1.7730744	1.3315684
26.301357306117204	1.7684153	1.3298178
26.319356398951104	1.8017677	1.3422995
26.33735615281224	1.8201573	1.3491321
26.35535656821762	1.8442264	1.3580229
26.373357645684404	1.8582027	1.3631591
26.39135938572991	1.8288951	1.3523664
26.409361788871614	1.8160565	1.3476114
26.427364855627165	1.8406997	1.3567239
26.445368586514352	1.863156	1.3649747
26.46337298205115	1.8805125	1.3713177
26.48137804275568	1.873711	1.3688357
26.499383769146217	1.8118376	1.3460451
26.517390161741215	1.8321438	1.353567
26.53539722105928	1.8257668	1.3512094
26.553404947619182	1.8023487	1.3425158
26.571413341939856	1.7804309	1.3343279
26.589422404540397	1.843763	1.3578523
26.60743213594006	1.8773881	1.3701781
26.62544253665827	1.8892862	1.374513
26.64345360721459	1.8756727	1.369552
26.66146534812879	1.8558805	1.3623071
26.679477759920758	1.8263747	1.3514344
26.69749084311057	1.7997009	1.3415293
26.71550459821847	1.8033158	1.342876
26.733519025764842	1.8131683	1.3465394
26.751534126270258	1.8362603	1.3550868
26.769549900255434	1.8368124	1.3552905
26.787566348241267	1.8622676	1.3646493
26.80558347074881	1.8571357	1.3627677
26.823601268299267	1.8513657	1.360649
26.841619741414036	1.8403975	1.3566124
26.85963889061465	1.8001882	1.3417109
26.877658716422832	1.8047376	1.3434052
26.89567921936045	1.8430238	1.3575801
26.913700399949544	1.7991343	1.3413181
26.93172225871233	1.7684107	1.329816
26.949744796171174	1.7829009	1.3352531
26.967768012848605	1.78601	1.3364168
26.98579190926733	1.8185776	1.3485465
27.003816485950225	1.8144686	1.3470222
27.021841743420318	1.8145661	1.3470583
27.039867682200814	1.7920859	1.3386881
27.057894302815072	1.7682037	1.3297383
27.07592160578664	1.7597847	1.3265687
27.0939495916392	1.7269379	1.3141301
27.111978260896635	1.7595081	1.3264645
27.13000761408296	1.7882515	1.3372552
27.148037651722397	1.7691275	1.3300855
27.166068374339304	1.7282625	1.314634
27.184099782458215	1.7590963	1.3263093
27.20213187660384	1.7831792	1.3353573
27.22016465730105	1.8299485	1.3527559
27.23819812507487	1.8720711	1.3682365
27.256232280450533	1.8682077	1.3668239
27.274267123953383	1.8300785	1.352804
27.292302656108987	1.8418952	1.3571644
27.31033887744306	1.8029784	1.3427503
27.32837578848146	1.7697407	1.3303161
27.34641338975026	1.7955933	1.3399975
27.364451681775673	1.8402869	1.3565717
27.382490665084074	1.8495786	1.3599921
27.400530340202046	1.8472189	1.3591243
27.41857070765629	1.8141468	1.3469026
27.436611767973726	1.7803699	1.334305
27.454653521681404	1.8044957	1.3433152
27.472695969306564	1.8242733	1.3506566
27.490739111376627	1.7878828	1.3371173
27.508782948419153	1.8009036	1.3419775
27.526827480961902	1.821915	1.3497833
27.54487270953279	1.7940643	1.3394269
27.562918634659898	1.789435	1.3376976
27.580965256871508	1.8399271	1.3564391
27.599012576696026	1.8814538	1.371661
27.617060594662068	1.8997171	1.3783022
27.63510931129842	1.8695741	1.3673236
27.65315872713401	1.883079	1.3722533
27.67120884269797	1.9229378	1.3867003
27.68925965851958	1.9634972	1.4012485
27.707311175128307	1.9575998	1.3991425
27.725363393053787	1.909623	1.3818911
27.74341631282583	1.9120312	1.3827622
27.7614699349744	1.9152508	1.3839259
27.77952426002968	2.0962563	1.4478453
27.797579288521973	2.206612	1.485467
27.815635020981784	2.7351644	1.6538333
27.83369145793979	2.8687475	1.6937377
27.85174859992682	2.5661676	1.6019262
27.869806447473923	2.3214068	1.5236163
27.887865001112267	1.9793953	1.4069098
27.905924261373233	1.9224535	1.3865258
27.92398422878836	1.9249948	1.3874419
27.94204490388936	1.8826746	1.3721058
27.96010628720813	1.8501543	1.3602037
27.978168379276728	1.8793957	1.3709105
27.9962311806274	1.9360216	1.3914099
28.014294691792568	1.9084994	1.3814845
28.0323589133048	1.8456264	1.3585383
28.050423845696887	1.8659441	1.3659956
28.068489489501758	1.8887657	1.3743237
28.086555845252523	1.8390104	1.3561012
28.104622913482487	1.8087585	1.344901
28.122690694725115	1.8051195	1.3435473
28.14075918951405	1.8565042	1.362536
28.15882839838312	1.93118	1.3896691
28.176898321866304	1.9672389	1.4025829
28.1949689604978	1.9627082	1.4009669
28.213040314811945	1.9294943	1.3890624
28.23111238534327	1.9623612	1.400843
28.249185172626493	1.9717848	1.4042026
28.267258677196473	1.9461763	1.3950542
28.285332899588294	1.9117742	1.3826692
28.303407840337172	1.9269125	1.3881328
28.321483499978545	1.9396988	1.3927307
28.33955987904799	1.939259	1.3925728
28.357636978081285	1.9440371	1.3942873
28.37571479761439	1.9201881	1.3857085
28.393793338183425	1.8664365	1.3661759
28.41187260032469	1.9398857	1.3927978
28.429952584574686	1.995649	1.4126744
28.448033291470065	1.9645702	1.4016312
28.46611472154769	1.919836	1.3855815
28.484196875344566	1.9087809	1.3815864
28.502279753397914	1.9511739	1.3968443
28.52036335624511	1.9898822	1.4106319
28.538447684423716	2.0115807	1.418302
28.556532738471482	1.9842645	1.4086392
28.574618518926325	1.9947798	1.4123667
28.59270502632635	2.0245745	1.4228754
28.61079226120985	2.0541284	1.4332231
28.628880224115274	2.0929563	1.4467053
28.646968915581287	2.0414727	1.4288012
28.66505833614671	2.0236053	1.4225348
28.68314848635055	2.035612	1.4267488
28.701239366732004	2.0448096	1.4299684
28.71933097783044	2.0815642	1.4427627
28.737423320185403	2.0769234	1.4411535
28.75551639433665	2.1199937	1.4560198
28.773610200824074	2.193908	1.4811846
28.791704740187793	2.2310283	1.4936627
28.80980001296809	2.233626	1.494532
28.827896019705413	2.2150238	1.4882956
28.845992760940433	2.1492722	1.4660397
28.86409023721397	2.1150284	1.4543138
28.88218844906704	2.1694233	1.4728962
28.900287397040845	2.197907	1.4825339
28.918387081676755	2.2271612	1.4923676
28.936487503516343	2.277055	1.5089914
28.954588663101365	2.3081598	1.5192629
28.97269056097374	2.2474048	1.4991347
28.990793197675597	2.2089343	1.4862484
29.00889657374923	2.2710302	1.5069938
29.027000689737125	2.3264925	1.5252844
29.04510554618196	2.3858685	1.5446256
29.06321114362659	2.4339695	1.5601184
29.08131748261405	2.5048032	1.582657
29.099424563687567	2.5377328	1.5930263
29.11753238739057	2.5419512	1.5943497
29.13564095426663	2.5184636	1.5869668
29.15375026485954	2.574078	1.6043934
29.171860319713275	2.5892513	1.609115
29.18997111937199	2.5978057	1.611771
29.20808266438002	2.6397295	1.6247244
29.226194955281898	2.7307687	1.6525037
29.244307992622335	2.7707932	1.66457
29.26242177694624	2.7608695	1.6615864
29.2805363087987	2.848322	1.6876972
29.29865158872498	2.9147966	1.7072775
29.316767617270557	2.967032	1.7225075
29.334884394981064	3.0026262	1.7328087
29.353001922402367	3.002073	1.7326491
29.37112020008047	3.0980434	1.760126
29.389239228561596	3.2034135	1.7898083
29.407359008392152	3.387719	1.8405757
29.42547954011872	3.7446961	1.9351218
29.44360082428809	4.324506	2.0795445
29.46172286144722	5.3093853	2.3042104
29.479845652143283	6.7382092	2.5958061
29.497969196923606	8.648443	2.9408236
29.516093496335728	11.075675	3.3280137
29.5342185509274	13.557755	3.6820858
29.55234436124651	15.735727	3.9668283
29.570470927841175	17.159302	4.142379
29.588598251259686	16.969185	4.119367
29.60672633205055	15.870706	3.9838054
29.624855170762405	13.8467	3.7211154
29.642984767944146	11.3092785	3.362927
29.66111512414481	8.81045	2.9682403
29.67924623991366	6.700075	2.5884504
29.697378115800138	5.14845	2.2690196
29.71551075235387	4.171104	2.0423281
29.733644150124675	3.7095342	1.9260151
29.751778309662576	3.5380766	1.8809776
29.769913231517766	3.469931	1.8627751
29.78804891624066	3.3676815	1.8351244
29.806185364381818	3.3475215	1.8296233
29.82432257649206	3.3481474	1.8297944
29.842460553122333	3.3950047	1.8425539
29.86059929482382	3.3131728	1.8202122
29.878738802147872	3.259846	1.8055043
29.896879075646048	3.268843	1.8079941
29.915020115870114	3.3108552	1.8195755
29.933161923371976	3.3652458	1.8344606
29.951304498703777	3.4570627	1.8593178
29.969447842417857	3.3840563	1.8395805
29.987591955066733	3.2535534	1.8037609
30.005736837203123	3.1687982	1.7801119
30.023882489379943	3.1753223	1.7819434
30.04202891215028	3.160468	1.7777705
30.060176106067455	3.132879	1.769994
30.078324071684946	3.1028736	1.7614975
30.09647280955646	3.0946095	1.7591503
30.114622320235863	3.1681325	1.7799249
30.132772604277257	3.1019619	1.7612387
30.1509236622349	3.0170627	1.7369694
30.16907549466328	3.056421	1.7482623
30.18722810211705	3.0672452	1.7513553
30.205381485151097	3.019375	1.7376349
30.22353564432045	3.0160058	1.7366651
30.241690580180403	3.021154	1.7381467
30.25984629328638	3.0102775	1.7350152
30.278002784194037	2.9219542	1.7093724
30.296160053459246	2.9355204	1.713336
30.314318101638033	2.992602	1.729914
30.332476929286646	2.9879632	1.7285726
30.35063653696153	2.8724604	1.6948334
30.368796925219307	2.837089	1.6843661
30.386958094616844	2.8552742	1.6897557
30.40512004571115	2.8696415	1.6940017
30.423282779059463	2.9021513	1.7035701
30.441446295219233	2.9620538	1.7210618
30.459610594748067	2.9310331	1.712026
30.47777567820382	2.8789146	1.6967365
30.495941546144504	2.8330228	1.6831586
30.51410819912835	2.8117855	1.6768379
30.532275637713795	2.8910117	1.7002976
30.55044386245946	2.9321983	1.7123662
30.56861287392416	2.8880095	1.6994145
30.586782672666956	2.8566122	1.6901516
30.604953259247047	2.7872255	1.6694986
30.623124634223885	2.7998624	1.6732789
30.641296798157075	2.7998888	1.6732868
30.659469751606462	2.801806	1.6738596
30.677643495132074	2.820891	1.6795508
30.695818029294152	2.7632418	1.6623001
30.713993354653116	2.7045841	1.644562
30.73216947176962	2.6862774	1.6389867
30.75034638120448	2.6456835	1.6265557
30.768524083518756	2.6041422	1.6137354
30.786702579273673	2.6754994	1.6356955
30.80488186903069	2.8013806	1.6737325
30.82306195335144	2.957682	1.7197913
30.841242832797782	3.15582	1.7764628
30.85942450793176	3.51184	1.8739904
30.877606979315637	3.861673	1.965114
30.895790247511883	4.1620607	2.040113
30.913974313083134	4.436988	2.106416
30.932159176592283	4.628992	2.1515093
30.95034483860237	4.6803617	2.1634145
30.968531299676698	4.6018515	2.1451926
30.98671856037873	4.3504586	2.0857754
31.00490662127215	3.9642367	1.9910392
31.023095482920848	3.5475295	1.8834887
31.04128514588892	3.139967	1.7719952
31.059475610740662	2.828335	1.6817654
31.07766687804056	2.6557765	1.6296554
31.09585894835335	2.5878825	1.6086897
31.11405182224393	2.5493178	1.5966583
31.132245500277417	2.5562596	1.5988307
31.15043998301914	2.5392363	1.5934981
31.168635271034628	2.5160847	1.586217
31.18683136488964	2.4993346	1.5809284
31.20502826515008	2.4647338	1.5699471
31.223225972382135	2.396101	1.5479344
31.241424487152155	2.4035714	1.5503455
31.259623810026692	2.4549546	1.5668294
31.27782394157253	2.4748633	1.5731698
31.296024882356644	2.4360557	1.5607868
31.314226632946237	2.4547935	1.5667781
31.332429193908684	2.487608	1.5772152
31.350632565811598	2.419926	1.5556111
31.368836749222787	2.3960993	1.5479339
31.387041744710295	2.4797626	1.5747262
31.40524755284232	2.5777676	1.6055428
31.423454174187317	2.6032128	1.6134475
31.441661609313922	2.5673792	1.6023043
31.459869858791002	2.516409	1.5863193
31.478078923187628	2.514518	1.5857232
31.496288803073064	2.52496	1.5890123
31.514499499016807	2.5186887	1.5870377
31.532711011588546	2.4016795	1.5497353
31.550923341358178	2.3641589	1.5375822
31.56913648889584	2.3478765	1.5322782
31.587350454771844	2.3527555	1.5338695
31.605565239556732	2.3765779	1.5416154
31.62378084382127	2.3695295	1.5393276
31.641997268136382	2.3178184	1.5224383
31.660214513073274	2.2840717	1.5113145
31.67843257920331	2.2268598	1.4922667
31.6966514670981	2.2703536	1.5067693
31.71487117732944	2.292077	1.5139607
31.733091710469346	2.2662828	1.5054178
31.751313067090052	2.3093479	1.5196539
31.769535247764008	2.2867186	1.51219
31.787758253063878	2.3351986	1.5281357
31.805982083562526	2.357249	1.5353335
31.824206739833024	2.3524897	1.5337828
31.84243222244869	2.2786636	1.5095243
31.860658531983013	2.2940314	1.514606
31.878885669009737	2.301189	1.516967
31.897113634102784	2.2710345	1.5069952
31.91534242783632	2.196408	1.4820284
31.933572050784694	2.1802456	1.4765655
31.951802503522508	2.1586566	1.4692367
31.970033786624548	2.212778	1.487541
31.988265900665834	2.255585	1.5018605
32.006498846221575	2.3045526	1.5180752
32.02473262386724	2.2766907	1.5088707
32.04296723417845	2.2762432	1.5087224
32.0612026777311	2.2940254	1.5146041
32.07943895510129	2.2578452	1.5026128
32.097676066865304	2.200981	1.4835703
32.115914013599685	2.198049	1.4825819
32.13415279588115	2.1535177	1.4674869
32.152392414286666	2.1326873	1.4603723
32.1706328693934	2.0883875	1.4451255
32.18887416177875	2.186	1.4785128
32.20711629202032	2.204934	1.484902
32.225359260695924	2.122993	1.4570494
32.243603068383614	2.065434	1.4371618
32.26184771566166	2.1245239	1.4575746
32.28009320310852	2.129572	1.4593053
32.2983395313029	2.062117	1.4360074
32.31658670082372	2.0708337	1.4390391
32.33483471225012	2.0838115	1.4435413
32.35308356616143	2.095308	1.4475179
32.371333263137245	2.1196601	1.4559053
32.38958380375734	2.2136602	1.4878374
32.407835188601744	2.1793847	1.4762739
32.42608741825067	2.0725088	1.4396211
32.444340493284585	2.0403745	1.4284167
32.46259441428416	2.0603514	1.4353924
32.48084918183028	2.0564795	1.434043
32.49910479650405	2.0460975	1.4304186
32.51736125888683	1.9753081	1.4054565
32.53561856956014	1.9626594	1.4009495
32.5538767291058	2.0094833	1.4175625
32.572135738105764	2.0273108	1.4238367
32.59039559714228	2.005329	1.4160963
32.608656306797776	2.0698926	1.4387121
32.62691786765491	2.1496892	1.4661819
32.645180280296586	2.1126292	1.4534886
32.663443545305896	2.0641537	1.4367163
32.68170766326619	2.0183005	1.4206691
32.69997263476099	1.9533838	1.3976351
32.7182384603741	1.8969948	1.3773143
32.7365051406895	1.9401842	1.392905
32.75477267629144	2.070241	1.4388332
32.77304106776434	2.1139925	1.4539576
32.79131031569289	2.04774	1.4309926
32.809580420661966	2.0645914	1.4368687
32.827851383256714	2.1262677	1.4581727
32.84612320406245	2.1019282	1.4498029
32.86439588366476	2.1241188	1.4574357
32.88266942264945	2.0574887	1.4343948
32.9009438216025	1.9874467	1.4097683
32.9192190811102	1.9159755	1.3841877
32.937495201758985	1.9961078	1.4128368
32.95577218413556	2.0387292	1.4278407
32.974050028826866	1.9343958	1.3908256
32.992328736420035	1.8794852	1.3709432
33.010608307502444	1.9627266	1.4009734
33.02888874266169	2.0779743	1.4415181
33.047170042485604	2.1263468	1.4581999
33.06545220756225	2.1001642	1.4491943
33.083735238479896	2.0517058	1.4323777
33.10201913582707	2.0522852	1.4325799
33.12030390019248	2.0299747	1.4247718
33.138589532165135	1.9498218	1.3963602
33.15687603233419	1.8384658	1.3559004
33.17516340128909	1.9168894	1.3845178
33.19345163961947	2.007329	1.4168024
33.211740747915215	2.023631	1.4225439
33.23003072676643	2.018074	1.4205893
33.248321576763466	1.9583392	1.3994068
33.266613298496885	1.9540384	1.3978692
33.28490589255747	1.9006156	1.3786281
33.30319935953626	1.9824555	1.407997
33.32149370002451	1.9458588	1.3949405
33.339788914613706	1.817944	1.3483115
33.358085003895575	1.7745422	1.3321195
33.376381968462034	1.9387636	1.3923949
33.39467980890529	2.0238006	1.4226035
33.41297852581774	1.9764019	1.4058456
33.43127811979204	1.9423225	1.3936723
33.44957859142105	1.9026634	1.3793707
33.467879941297866	1.9140369	1.3834872
33.486182170015844	1.9847912	1.4088261
33.50448527816853	1.973063	1.4046576
33.522789266349754	1.9231623	1.3867813
33.541094135153514	1.9485625	1.3959092
33.55939988517411	1.9237701	1.3870004
33.57770651700602	1.9361472	1.391455
33.59601403124398	1.9350398	1.391057
33.61432242848296	1.9583522	1.3994113
33.632631709318154	1.9227246	1.3866235
33.650941874344994	1.8709909	1.3678417
33.66925292415916	1.9228234	1.3866591
33.68756485935654	2.1823032	1.477262
33.70587768053328	2.2343924	1.4947884
33.724191388285746	1.9818165	1.40777
33.74250598321054	1.8152878	1.3473262
33.760821465904506	1.9336336	1.3905516
33.77913783696474	2.074081	1.440167
33.79745509698852	2.0018067	1.4148521
33.815773246573414	1.8716464	1.3680813
33.8340922863172	1.8460976	1.3587117
33.852412216817896	1.9373875	1.3919007
33.87073303867377	1.9652339	1.401868
33.889054752483304	1.8956686	1.3768328
33.907377358845245	1.9200585	1.3856617
33.92570085835853	1.9576663	1.3991662
33.94402525162239	1.9589249	1.399616
33.96235053923627	1.8930434	1.3758792
33.980676721799824	1.8486669	1.3596569
33.999003799912984	1.7867646	1.3366991
34.01733177417592	1.8607461	1.3640916
34.03566064518901	1.9678597	1.4028043
34.0539904135529	1.986659	1.4094889
34.07232107986846	2.0274205	1.4238752
34.090652644736785	1.9534414	1.3976557
34.108985108759235	2.0007508	1.414479
34.12731847253742	2.0217311	1.421876
34.14565273667313	1.979875	1.4070803
34.16398790176847	1.9795741	1.4069734
34.18232396842574	1.9797215	1.4070258
34.20066093724749	1.9429935	1.393913
34.21899880883651	2.0578322	1.4345146
34.23733758379583	2.0659957	1.4373572
34.25567726272874	2.0517335	1.4323874
34.27401784623872	2.0176063	1.4204247
34.29235933492957	2.0768356	1.441123
34.31070172940526	2.1780362	1.4758171
34.32904503027003	2.2414322	1.4971414
34.347389238128386	2.3238282	1.5244107
34.36573435358502	2.2324562	1.4941406
34.38408037724492	2.189933	1.4798422
34.402427309713296	1.9974772	1.4133214
34.42077515159559	1.8733548	1.3687055
34.43912390349752	1.9104499	1.3821902
34.45747356602499	2.0188003	1.4208449
34.47582413978423	2.0195339	1.421103
34.49417562538163	2.0145774	1.4193581
34.51252802342388	1.9204726	1.3858112
34.53088133451789	1.8979994	1.377679
34.54923555927084	1.9599799	1.3999928
34.567590698290104	1.8355098	1.3548099
34.58594675218336	1.7442704	1.3207083
34.6043037215585	1.8249532	1.3509083
34.62266160702365	1.9811924	1.4075483
34.641020409187234	2.0578718	1.4345285
34.65938012865785	2.1312823	1.4598912
34.677740766044394	2.096725	1.4480072
34.69610232195598	1.9936078	1.4119518
34.714464797002016	1.998455	1.4136672
34.73282819179208	2.048263	1.4311755
34.751192506936064	2.128357	1.4588889
34.76955774304408	2.1077604	1.4518129
34.7879239007265	2.009817	1.4176801
34.80629098059391	1.9151409	1.3838861
34.824658983257194	1.8461273	1.3587227
34.843027909327446	1.9966112	1.4130149
34.86139775941603	2.0137415	1.4190636
34.879768534134534	2.161334	1.4701476
34.89814023409483	2.2433705	1.4977885
34.91651285990901	2.1392906	1.4626313
34.93488641218944	2.1291363	1.459156
34.95326089154871	2.2542942	1.5014307
34.97163629859967	2.1614857	1.4701992
34.99001263395542	1.9890561	1.410339
35.00838989822934	2.0835402	1.4434474
35.02676809203499	2.182934	1.4774755
35.04514721598624	1.9598608	1.3999503
35.063527270697215	1.8462579	1.3587707
35.081908256782256	1.9537755	1.3977752
35.10029017485597	1.9710288	1.4039333
35.11867302553321	1.7651799	1.3286008
35.137056809429104	1.5388875	1.240519
35.155441527159006	1.6880934	1.2992665
35.173827179338524	2.0609248	1.4355922
35.19221376658354	2.3796802	1.5426213
35.21060128951017	2.2817173	1.5105355
35.2289897487348	2.2497995	1.4999331
35.24737914487405	2.1904747	1.4800253
35.26576947854479	2.1150658	1.4543266
35.28416075036418	2.1459556	1.464908
35.30255296094958	2.148246	1.4656897
35.32094611091867	1.9549681	1.3982017
35.33934020088932	1.9601569	1.400056
35.35773523147969	2.1472912	1.4653639
35.3761312033082	1.9479933	1.3957053
35.394528116993506	1.8195719	1.3489151
35.41292597315452	2.0540092	1.4331815
35.431324772410434	2.2402363	1.4967419
35.449724515380666	2.1390278	1.4625416
35.46812520268491	1.9643481	1.4015521
35.486526834943106	1.6931447	1.301209
35.504929412775454	1.9400793	1.3928673
35.52333293680242	2.1814857	1.4769853
35.54173740764471	2.1458902	1.4648857
35.560142825923286	2.0768862	1.4411405
35.5785491922594	1.9296392	1.3891145
35.59695650727454	1.6868863	1.2988019
35.61536477159042	2.1225152	1.4568855
