0.008763373481513119	0.3822274	0.6182454
0.026290120649546365	0.19633481	0.44309685
0.043816868432600686	0.16725518	0.40896842
0.06134361724069026	0.15012068	0.3874541
0.07887036748382949	0.14564559	0.38163543
0.0963971195720331	0.16996183	0.41226426
0.11392387391531617	0.13186495	0.36313215
0.1314506309236943	0.1209889	0.3478346
0.1489773910071836	0.15588583	0.3948238
0.16650415457580078	0.1896857	0.43552923
0.18403092203956356	0.13919485	0.37308824
0.20155769380849	0.13224138	0.36365008
0.2190844702925996	0.078067355	0.27940536
0.2366112519019124	0.094513714	0.30743083
0.2541380390464497	0.07134308	0.26710126
0.27166483213623416	0.0726121	0.2694663
0.28919163158128947	0.08940499	0.29900667
0.3067184377916406	0.13307887	0.36479977
0.324245251177314	0.15586543	0.39479795
0.34177207214833777	0.12282936	0.35047022
0.3592989011147415	0.1338015	0.36578888
0.37682573848655654	0.12394386	0.35205662
0.39435258467381573	0.1435809	0.3789207
0.41187944008655414	0.13373798	0.36570203
0.42940630513480854	0.17559484	0.41904038
0.446933180228618	0.13308866	0.36481318
0.4644600657780234	0.14802127	0.38473532
0.48198696219306775	0.16585968	0.40725875
0.49951386988379676	0.18513592	0.43027425
0.5170407892602581	0.19232851	0.43855274
0.5345677207325025	0.16208735	0.40260074
0.5520946647105822	0.14871827	0.38564008
0.5696216216045534	0.13053373	0.3612945
0.5871485918244737	0.17750001	0.4213075
0.6046755757804043	0.19618294	0.44292542
0.6222025738824094	0.20188059	0.44931123
0.6397295865405557	0.21100727	0.45935526
0.6572566141649129	0.1670199	0.40868068
0.6747836571655547	0.1717257	0.414398
0.6923107159525568	0.15157028	0.38932028
0.7098377909359992	0.20298359	0.450537
0.7273648825259653	0.20393652	0.4515933
0.7448919911325411	0.20545901	0.45327586
0.762419117165817	0.19902086	0.44611755
0.7799462610358868	0.20306659	0.45062912
0.7974734231528482	0.2026105	0.45012274
0.8150006039268024	0.21413562	0.4627479
0.8325278037678551	0.15250312	0.3905165
0.8500550230861152	0.15497486	0.39366847
0.8675822622916969	0.16325307	0.40404588
0.8851095217947171	0.22383437	0.47311136
0.9026368020052984	0.22401117	0.4732982
0.9201641033335665	0.18891597	0.43464464
0.9376914261896523	0.17152824	0.4141597
0.9552187709836915	0.19714114	0.4440058
0.9727461381258234	0.20999038	0.45824707
0.990273528026193	0.22551617	0.47488543
1.0078009410949496	0.22127174	0.4703953
1.0253283777422473	0.26315516	0.51298654
1.0428558383782454	0.30877692	0.555677
1.0603833234131086	0.32484066	0.56994796
1.0779108332570058	0.34583277	0.58807546
1.0954383683201119	0.37860286	0.61530715
1.112965929012607	0.3876743	0.62263495
1.1304935157446763	0.47736806	0.69091827
1.1480211289265108	0.5188317	0.7202997
1.1655487689683062	1.2054948	1.0979502
1.1830764362802655	1.5050491	1.2268044
1.200604131272596	1.924304	1.3871928
1.2181318543555117	2.5093384	1.5840892
1.235659605939232	2.5563087	1.5988461
1.253187386433982	3.9123402	1.9779637
1.270715196249994	6.2210855	2.4942105
1.2882430357975057	11.435988	3.3817139
1.3057709054867608	16.261038	4.032498
1.3232988057280106	22.215727	4.713356
1.3408267369315112	27.367525	5.231398
1.358354699507526	31.29023	5.593767
1.3758826938663256	35.68316	5.9735384
1.3934107204181858	37.40243	6.1157527
1.410938779573391	38.18862	6.179694
1.4284668717422309	38.645306	6.216535
1.4459949973350033	38.302273	6.188883
1.4635231567620117	38.205276	6.1810417
1.4810513504335687	37.57159	6.1295667
1.4985795787599925	36.77714	6.064416
1.5161078421516088	36.343937	6.028593
1.5336361410187505	35.384056	5.94845
1.5511644757717598	35.48199	5.956676
1.5686928468209842	35.957737	5.996477
1.58622125457678	36.436035	6.0362267
1.6037496994495108	37.60481	6.132276
1.621278181849548	37.33339	6.1101055
1.6388067021872719	38.282436	6.18728
1.6563352608730693	37.93922	6.159482
1.673863858317336	37.382412	6.1141157
1.6913924949304753	36.617382	6.05123
1.7089211711228998	35.43532	5.9527574
1.7264498873050296	34.587013	5.8810725
1.7439786438872935	33.48204	5.786367
1.7615074412801288	32.424328	5.6942363
1.779036279893981	31.407417	5.6042323
1.796565160139305	30.688122	5.539686
1.814094082426564	30.287012	5.5033636
1.8316230471662298	29.493298	5.4307733
1.849152054768784	28.756668	5.3625245
1.8666811056447168	27.964933	5.288188
1.8842102002045273	27.006176	5.196747
1.901739338858724	26.324532	5.130744
1.9192685220178245	25.71007	5.07051
1.9367977500923557	25.049961	5.0049934
1.9543270234928547	24.766268	4.976572
1.971856342629867	23.99169	4.8981314
1.9893857079139496	23.421375	4.8395634
2.006915119755667	22.904724	4.785888
2.0244445785655945	22.386017	4.731386
2.0419740847543175	22.024632	4.693041
2.0595036387324317	21.669333	4.655033
2.0770332409105414	21.285604	4.6136327
2.094562891699263	21.005451	4.5831704
2.1120925915092217	20.35339	4.511473
2.129622340751053	19.930286	4.464335
2.1471521398354043	188.02722	13.712302
2.1646819891729323	444.41	21.081034
2.182211889174303	440.6951	20.992739
2.1997418402501974	453.09338	21.28599
2.2172718428113023	432.86508	20.80541
2.234801897268317	320.70807	17.908323
2.2523320040319548	17.062077	4.1306267
2.269862163512935	16.975372	4.120118
2.287392376121992	16.833345	4.102846
2.304922642269869	16.477356	4.059231
2.322452962367322	16.08865	4.011066
2.3399833368251164	15.654567	3.9565852
2.357513766054032	15.321021	3.9142077
2.3750442504648586	15.144047	3.8915353
2.3925747904683963	14.989275	3.8715985
2.410105386475459	14.800312	3.8471174
2.4276360388968707	14.3314295	3.7856874
2.445166748143469	14.1185665	3.757468
2.4626975146261025	13.748911	3.7079525
2.4802283387556323	13.535991	3.6791291
2.4977592209429305	13.293401	3.6460116
2.5152901615988825	12.899373	3.5915697
2.5328211611343865	12.721541	3.566727
2.5503522199603523	12.402402	3.5217044
2.5678833384877024	12.296242	3.5065997
2.5854145171273712	12.160986	3.4872606
2.6029457562903064	12.066755	3.4737236
2.620477056387469	11.853345	3.4428687
2.6380084178298326	11.785654	3.433024
2.655539841028383	11.658971	3.4145236
2.673071326394119	11.598195	3.4056122
2.6906028743380523	11.36107	3.3706186
2.708134485271211	11.125491	3.3354897
2.7256661596046325	10.980431	3.3136733
2.743197897749369	10.852408	3.2942994
2.760729700116486	10.684428	3.2687044
2.778261567117063	10.551077	3.2482421
2.795793499162193	10.45218	3.232983
2.8133254966629817	10.510284	3.241957
2.830857560030551	10.307734	3.2105658
2.8483896896760337	10.069337	3.1732218
2.865921886010578	9.844762	3.1376364
2.883454149445347	9.582457	3.0955544
2.9009864803915177	9.569736	3.093499
2.91851887926028	9.404692	3.066707
2.9360513464628384	9.117714	3.0195553
2.953583882410413	8.91939	2.9865348
2.9711164875142373	8.71423	2.9519875
2.9886491621855606	8.8476305	2.9744966
3.0061819068356455	8.769582	2.961348
3.023714721875769	8.652293	2.941478
3.041247607717225	8.475991	2.9113555
3.0587805647713213	8.35788	2.8909998
3.0763135934493806	8.400718	2.898399
3.0938466941627407	8.279608	2.8774307
3.1113798673227544	8.209029	2.8651404
3.1289131133407904	8.042777	2.835979
3.1464464326282315	7.9886107	2.8264132
3.1639798255964786	7.854868	2.8026538
3.1815132926569443	7.84488	2.8008714
3.1990468342210603	7.8028355	2.7933557
3.216580450700272	7.7430973	2.7826421
3.2341141425060416	7.555242	2.74868
3.251647910049847	7.327381	2.7069135
3.2691817537431813	7.29859	2.7015903
3.286715673997555	7.184488	2.6803894
3.3042496712244938	7.2028956	2.6838212
3.32178374583554	7.188253	2.6810918
3.339317898242251	7.2528267	2.6931074
3.3568521288562034	7.2241664	2.6877809
3.3743864380889876	7.1136117	2.6671355
3.3919208263522127	6.9700837	2.6400917
3.4094552940575023	6.852295	2.617689
3.4269898416164972	6.7700133	2.601925
3.444524469440858	6.7276363	2.5937688
3.4620591779422587	6.6486955	2.5785065
3.479593967532391	6.5557833	2.5604265
3.4971288386229658	6.387052	2.5272617
3.5146637916257086	6.3313107	2.5162096
3.5321988269523628	6.2958684	2.509157
3.5497339450146903	6.3680983	2.523509
3.5672691462244708	6.4476676	2.5392258
3.5848044309934988	6.5200696	2.5534427
3.60233979973359	6.59358	2.5677967
3.619875252856575	6.610468	2.571083
3.6374107907743034	6.6141524	2.5717995
3.6549464138986427	6.4970694	2.548935
3.6724821226414788	6.3793106	2.5257297
3.690017917414714	6.4437027	2.538445
3.7075537986302702	6.461632	2.541974
3.7250897667000857	6.58767	2.5666456
3.7426258220361235	6.704071	2.5892222
3.7601619650503553	6.9203496	2.6306558
3.777698196154779	7.452949	2.730009
3.7952345157614067	8.512776	2.9176662
3.8127709242822716	9.289856	3.0479264
3.830307422129425	11.474758	3.3874412
3.847844009714936	30.230284	5.498207
3.8653806874508954	97.80784	9.889785
3.882917455749409	97.08749	9.853298
3.900454315022606	96.87215	9.842365
3.917991265682631	41.31389	6.427588
3.9355283081416506	10.89359	3.3005438
3.9530654428118495	8.607633	2.9338768
3.970602670105433	7.294742	2.7008781
3.9881399904346244	6.454494	2.5405695
4.005677404211669	6.387741	2.527398
4.023214911848827	6.389479	2.527742
4.0407525137583855	6.3813024	2.526124
4.058290210352644	6.3740687	2.5246918
4.075828002043927	6.4225855	2.534282
4.0933658892445814	6.4217215	2.5341115
4.110903872366966	6.394395	2.5287142
4.128441951823468	6.3214526	2.5142498
4.145980128026488	6.266711	2.50334
4.163518401388452	6.307573	2.5114882
4.181056772321807	6.2879477	2.5075781
4.1985952412390155	6.326527	2.5152588
4.216133808552567	6.3497796	2.519877
4.233672474674966	6.4067574	2.5311573
4.251211240018741	6.634625	2.5757766
4.268750104996445	6.905071	2.6277502
4.286289070020643	7.858297	2.8032653
4.303828135503928	9.544887	3.08948
4.3213673018589125	29.771223	5.456301
4.3389065694982305	90.9569	9.537133
4.356445938834537	166.23524	12.893225
4.3739854102805085	171.76521	13.105923
4.391524984248844	172.7168	13.142177
4.409064661152262	136.969	11.703375
4.426604441403504	97.33584	9.865892
4.444144325415337	76.51977	8.747558
4.461684313600543	22.104733	4.701567
4.47922440637193	22.298077	4.722084
4.496764604142329	20.347557	4.5108266
4.5143049073245916	18.592209	4.311868
4.531845316331589	16.595512	4.073759
4.5493858315762195	13.830277	3.718908
4.566926453471405	11.509374	3.392547
4.584467182430081	9.44167	3.07273
4.602008018865218	8.22425	2.8677952
4.619548963189798	7.4115067	2.7224083
4.637090015816834	6.905735	2.6278765
4.654631177159353	6.705455	2.5894892
4.672172447630417	6.467771	2.5431812
4.689713827643102	6.3067923	2.5113328
4.7072553176105085	6.055226	2.4607368
4.724796917945764	5.93006	2.4351714
4.742338629062015	5.8934073	2.427634
4.759880451372434	5.8746514	2.423768
4.777422385290215	5.815866	2.4116106
4.794964431228581	5.7706976	2.4022276
4.812506589600768	5.719279	2.3915014
4.830048860820047	5.6849523	2.3843138
4.847591245299709	5.679756	2.383224
4.8651337434530655	5.636931	2.3742223
4.882676355693457	5.5682807	2.3597205
4.900219082434242	5.5178337	2.349007
4.917761924088813	5.5009136	2.3454027
4.935304881070575	5.5552144	2.3569503
4.952847953792969	5.6167774	2.3699741
4.970391142669449	5.632138	2.3732126
4.9879344481135055	5.5872064	2.3637273
5.005477870538642	5.566064	2.3592508
5.023021410358394	5.555789	2.357072
5.040565067986324	5.468484	2.338479
5.05810884383601	5.399048	2.323585
5.075652738321066	5.395802	2.3228865
5.09319675185512	5.4732265	2.3394928
5.110740884851836	5.481038	2.3411617
5.128285137724894	5.4798074	2.3408988
5.145829510888007	5.394616	2.3226314
5.163374004754908	5.3370395	2.3102033
5.1809186197393595	5.2893677	2.2998626
5.198463356255145	5.258759	2.2931983
5.216008214716077	5.3488746	2.3127635
5.233553195535998	5.312957	2.3049853
5.251098299128764	5.364257	2.3160865
5.268643525908272	5.379821	2.3194442
5.286188876288432	5.4358325	2.3314872
5.3037343506831895	5.4657397	2.337892
5.32127994950651	5.436387	2.3316061
5.3388256731723915	5.3920403	2.3220768
5.356371522094851	5.30762	2.3038273
5.373917496687938	5.3136187	2.3051288
5.391463597365729	5.2988205	2.3019166
5.40900982454232	5.3446517	2.3118503
5.426556178631843	5.316657	2.3057878
5.444102660048449	5.325009	2.307598
5.4616492692063225	5.3077846	2.303863
5.479196006519669	5.2618995	2.293883
5.496742872402727	5.20385	2.281195
5.514289867269756	5.240402	2.2891924
5.531836991535049	5.245138	2.2902267
5.549384245612924	5.281689	2.2981925
5.566931629917724	5.2328577	2.287544
5.584479144863822	5.1400986	2.2671785
5.6020267908656205	5.142008	2.2675996
5.619574568337545	5.1608205	2.271744
5.637122477694054	5.232887	2.2875504
5.654670519349629	5.242452	2.2896402
5.672218693718784	5.2296786	2.286849
5.689767001216059	5.2638226	2.2943022
5.707315442256021	5.200476	2.2804554
5.724864017253266	5.2173443	2.2841506
5.7424127266224225	5.219736	2.2846742
5.75996157077814	5.228461	2.2865827
5.777510550135105	5.258045	2.293043
5.795059665108022	5.290774	2.3001683
5.812608916111639	5.3128815	2.3049688
5.830158303560715	5.4112225	2.3262033
5.847707827870055	5.4290657	2.3300354
5.86525748945448	5.5394287	2.353599
5.8828072887288485	5.631236	2.3730226
5.900357226108044	5.6602216	2.379122
5.917907302006979	5.762684	2.4005592
5.9354575168406	6.394826	2.5287993
5.9530078710238765	7.0498075	2.6551473
5.970558364971812	7.5385313	2.7456386
5.988108999099438	7.8545475	2.8025966
6.005659773821818	8.4892845	2.9136376
6.023210689554039	8.202463	2.8639944
6.040761746711227	8.569601	2.9273882
6.058312945708531	7.806187	2.7939556
6.075864286961132	7.292837	2.7005253
6.093415770884244	6.70661	2.5897124
6.1109673978931065	6.2780704	2.5056078
6.128519168402993	5.6614084	2.3793714
6.146071082829204	5.4738727	2.3396308
6.163623141587075	5.336714	2.3101327
6.181175345091969	5.262832	2.2940865
6.198727693759281	5.2850327	2.29892
6.216280188004435	5.227059	2.286276
6.233832828242885	5.1729045	2.274402
6.251385614890126	5.127854	2.2644765
6.268938548361669	5.1294713	2.2648337
6.286491629073067	5.1226797	2.2633338
6.304044857439898	5.1550617	2.270476
6.321598233877777	5.07805	2.253453
6.339151758802344	5.0274954	2.2422078
6.356705432629277	4.963599	2.2279136
6.37425925577428	4.976993	2.2309175
6.391813228653095	4.986383	2.233021
6.409367351681486	5.084953	2.254984
6.426921625275259	5.135725	2.266214
6.44447604985025	5.1339064	2.2658126
6.46203062582232	5.1138563	2.2613838
6.47958535360737	5.0982447	2.2579293
6.497140233621328	5.0849767	2.2549894
6.514695266280161	5.0280805	2.2423382
6.532250451999859	4.9914412	2.2341533
6.549805791196454	4.996874	2.2353687
6.567361284286002	5.0389223	2.2447543
6.584916931684597	5.1152115	2.2616832
6.602472733808367	5.1847873	2.2770128
6.6200286910734665	5.220423	2.2848246
6.637584803896092	5.1471004	2.2687223
6.655141072692462	5.093946	2.256977
6.672697497878842	5.0729175	2.2523139
6.690254079871514	5.0485697	2.2469022
6.707810819086808	5.0819545	2.2543192
6.725367715941078	5.0448823	2.2460816
6.742924770850719	5.089302	2.255948
6.760481984232151	5.0967307	2.257594
6.778039356501836	5.0778065	2.253399
6.795596888076266	5.096117	2.257458
6.813154579371963	5.022099	2.241004
6.830712430805492	5.0513487	2.2475204
6.84827044279344	5.0558114	2.2485132
6.865828615752445	5.089941	2.2560897
6.883386950099159	5.050553	2.2473435
6.900945446250287	5.0286083	2.242456
6.918504104622553	5.0633535	2.2501898
6.936062925632727	5.1199303	2.2627263
6.953621909697607	5.1067567	2.2598133
6.971181057234028	5.087478	2.255544
6.988740368658859	5.109999	2.2605307
7.006299844389007	5.1683984	2.2734113
7.023859484841407	5.3341064	2.3095684
7.041419290433036	5.4346976	2.3312438
7.058979261580902	5.620348	2.3707273
7.0765393987020495	5.870078	2.4228244
7.094099702213559	6.2117143	2.492331
7.111660172532549	6.4877667	2.5471096
7.129220810076164	6.7658744	2.6011295
7.146781615261595	7.3161163	2.704832
7.16434258850606	7.6099153	2.7586074
7.181903730226821	8.139344	2.8529537
7.1994650408411704	8.252305	2.8726826
7.217026520766437	8.370486	2.8931792
7.234588170419983	8.526079	2.919945
7.252149990219215	8.510467	2.9172704
7.269711980581568	8.372203	2.893476
7.2872741419245175	8.152598	2.8552756
7.304836474665574	7.792775	2.7915542
7.322398979222286	7.4975276	2.7381613
7.339961656012233	7.263797	2.6951432
7.357524505453039	6.8867793	2.6242673
7.375087527962357	6.591913	2.5674722
7.392650723957886	6.2340174	2.4968014
7.410214093857353	5.894985	2.427959
7.427777638078528	5.691139	2.3856108
7.445341357039213	5.4974294	2.3446598
7.4629052511572525	5.33356	2.3094501
7.480469320850524	5.3236423	2.307302
7.498033566536948	5.331524	2.3090093
7.5155979886344735	5.3263073	2.3078794
7.5331625875610975	5.3260236	2.307818
7.550727363734844	5.3310804	2.3089132
7.568292317573788	5.295417	2.3011773
7.585857449496025	5.28739	2.2994325
7.603422759919705	5.2430763	2.2897766
7.620988249263007	5.256846	2.2927814
7.638553917944147	5.271582	2.2959926
7.656119766381391	5.293444	2.3007486
7.673685794993023	5.257092	2.292835
7.691252004197388	5.252444	2.291821
7.70881839441285	5.272197	2.2961264
7.726384966057826	5.300276	2.3022327
7.743951719550762	5.2928076	2.3006103
7.761518655310149	5.331432	2.3089893
7.779085773754511	5.3271933	2.3080714
7.796653075302419	5.319877	2.306486
7.814220560372475	5.355189	2.3141282
7.831788229383323	5.378023	2.3190565
7.8493560827536495	5.4149313	2.3270004
7.866924120902174	5.3943152	2.3225665
7.884492344247663	5.3862596	2.3208315
7.9020607532089135	5.371309	2.3176084
7.919629348204771	5.4025946	2.3243482
7.937198129654115	5.49209	2.3435209
7.954767097975865	5.496178	2.344393
7.972336253588986	5.480082	2.3409574
7.989905596912472	5.4616413	2.3370154
8.007475128365371	5.46253	2.3372056
8.025044848366756	5.469529	2.3387024
8.042614757335754	5.606205	2.3677425
8.060184855691523	5.693013	2.3860035
8.07775514385327	5.771756	2.402448
8.095325622240228	5.8138523	2.4111931
8.112896291271687	5.819574	2.4123793
8.130467151366968	5.8965106	2.4282732
8.148038202945436	5.947986	2.4388494
8.165609446426497	6.0095387	2.451436
8.183180882229594	6.025442	2.4546776
8.200752510774217	6.0432787	2.458308
8.218324332479893	6.034249	2.4564707
8.235896347766193	6.0049734	2.4505048
8.253468557052724	6.0117702	2.4518912
8.27104096075914	5.9999123	2.449472
8.288613559305137	6.125081	2.47489
8.306186353110448	6.1574802	2.481427
8.32375934259485	6.268963	2.5037897
8.341332528178162	6.3074517	2.511464
8.358905910280246	6.3873153	2.527314
8.376479489321003	6.3547487	2.5208626
8.394053265720377	6.389212	2.527689
8.411627239898356	6.3669915	2.52329
8.42920141227497	6.3352914	2.5170004
8.44677578327029	6.2808666	2.5061657
8.464350353304427	6.203356	2.4906538
8.48192512279754	6.218539	2.4937
8.499500092169827	6.232033	2.496404
8.51707526184153	6.221424	2.4942782
8.534650632232934	6.23859	2.497717
8.552226203764365	6.2594647	2.5018923
8.569801976856192	6.3845396	2.5267646
8.587377951928834	6.4419003	2.53809
8.60495412940274	6.4501696	2.5397184
8.622530509698416	6.423321	2.5344272
8.6401070932364	6.4898763	2.5475235
8.657683880437283	6.580537	2.5652556
8.675260871721695	6.7420197	2.59654
8.692838067510303	6.894114	2.6256645
8.710415468223834	7.000413	2.6458294
8.727993074283043	7.149166	2.6737924
8.745570886108737	7.2170744	2.6864612
8.763148904121765	7.331236	2.7076254
8.78072712874302	7.3687997	2.7145534
8.798305560393441	7.6164966	2.7598002
8.815884199494006	7.680452	2.7713628
8.833463046465745	7.827522	2.797771
8.851042101729728	7.9297414	2.8159797
8.86862136570707	8.1874695	2.8613756
8.886200838818924	8.396747	2.8977141
8.903780521486505	8.445925	2.9061873
8.921360414131055	8.608493	2.9340234
8.938940517173874	8.803694	2.9671018
8.956520831036297	8.972891	2.9954784
8.97410135613971	9.217977	3.036112
8.99168209290554	9.392794	3.0647664
9.009263041755265	9.717333	3.1172638
9.026844203110405	9.915676	3.1489167
9.044425577392525	10.091585	3.1767256
9.062007165023239	10.1085005	3.1793869
9.079588966424197	10.4285345	3.229324
9.097170982017108	10.498603	3.2401547
9.11475321222372	11.557905	3.3996918
9.132335657465825	12.483084	3.5331407
9.149918318165264	12.632433	3.5542135
9.167501194743924	13.241502	3.6388874
9.18508428762374	12.942353	3.5975482
9.202667597226693	12.822005	3.580783
9.220251123974803	12.360372	3.515732
9.237834868290143	11.947138	3.456463
9.255418830594836	11.7836	3.432725
9.273003011311046	11.255516	3.3549242
9.290587410860985	11.085486	3.3294873
9.308172029666911	10.462072	3.2345128
9.32575686815113	10.157639	3.187105
9.343341926735997	8.777643	2.9627087
9.360927205843916	8.527896	2.9202561
9.378512705897327	8.323183	2.8849928
9.396098427318728	8.043809	2.836161
9.413684370530664	7.977468	2.8244412
9.431270535955722	7.974185	2.82386
9.448856924016539	8.00631	2.8295424
9.466443535135806	7.921574	2.8145292
9.484030369736251	7.948171	2.81925
9.501617428240658	7.89223	2.8093114
9.519204711071852	7.879942	2.8071234
9.536792218652714	7.847678	2.8013709
9.55437995140617	7.8187613	2.7962048
9.571967909755191	7.831587	2.7984972
9.589556094122802	7.8478127	2.8013947
9.60714450493207	7.821046	2.7966132
9.624733142606116	7.8674536	2.804898
9.642322007568108	7.9203463	2.814311
9.659911100241267	7.985501	2.825863
9.677500421048851	8.074053	2.841488
9.695089970414175	8.0991335	2.8458977
9.712679748760609	8.128575	2.8510656
9.730269756511557	8.186969	2.861288
9.747859994090492	8.275764	2.8767629
9.765450461920915	8.362107	2.8917308
9.78304116042639	8.414853	2.9008367
9.800632090030527	8.350802	2.8897755
9.81822325115699	8.362208	2.8917484
9.835814644229481	8.372977	2.8936098
9.853406269671762	8.369422	2.8929954
9.870998127907646	8.414182	2.9007208
9.888590219360985	8.419847	2.9016972
9.906182544455698	8.422279	2.9021163
9.923775103615734	8.463528	2.9092143
9.941367897265108	8.458378	2.908329
9.958960925827878	8.484865	2.9128792
9.97655418972816	8.467753	2.9099405
9.994147689390106	8.523835	2.9195607
10.011741425237934	8.5283375	2.9203317
10.029335397695904	8.543978	2.9230084
10.04692960718833	8.470333	2.9103837
10.06452405413958	8.32814	2.8858516
10.082118738974064	8.297641	2.8805625
10.099713662116246	8.332202	2.8865554
10.117308823990651	8.410485	2.9000838
10.134904225021844	8.353946	2.8903193
10.152499865634445	8.340392	2.8879738
10.170095746253125	8.317324	2.8839772
10.18769186730261	8.276904	2.876961
10.205288229207675	8.251991	2.872628
10.222884832393145	8.16877	2.858106
10.2404816772839	8.1820965	2.8604364
10.258078764304868	8.170202	2.8583565
10.275676093881035	8.197372	2.8631053
10.293273666437438	8.174666	2.8591373
10.310871482399158	8.202072	2.863926
10.32846954219134	8.24024	2.8705819
10.346067846239173	8.274332	2.876514
10.363666394967908	8.241099	2.8707316
10.38126518880283	8.139795	2.8530326
10.398864228169298	8.216224	2.8663957
10.416463513492713	8.264154	2.8747442
10.434063045198531	8.337604	2.887491
10.451662823712262	8.304848	2.8818133
10.469262849459467	8.311222	2.882919
10.486863122865758	8.280783	2.877635
10.504463644356806	8.267504	2.8753266
10.522064414358338	8.229977	2.8687935
10.539665433296118	8.178923	2.8598816
10.557266701595987	8.09705	2.8455315
10.574868219683818	7.9804635	2.8249714
10.592469987985552	7.8612046	2.803784
10.610072006927185	7.746301	2.7832177
10.627674276934751	7.558161	2.7492108
10.64527679843435	7.4275446	2.7253523
10.662879571852143	7.308638	2.7034492
10.680482597614331	7.250154	2.692611
10.698085876147173	7.1789174	2.6793501
10.715689407876988	7.1004586	2.6646686
10.733293193230146	7.0274463	2.650933
10.750897232633072	6.926837	2.6318884
10.76850152651225	6.792383	2.60622
10.786106075294207	6.69856	2.5881577
10.803710879405534	6.595973	2.5682626
10.821315939272877	6.4878945	2.5471346
10.83892125532294	6.3617053	2.522242
10.856526827982472	6.3190866	2.5137794
10.874132657678285	6.283359	2.5066628
10.891738744837243	6.250522	2.5001044
10.909345089886271	6.1912336	2.488219
10.926951693252343	6.1421504	2.4783363
10.944558555362494	6.1156106	2.472976
10.96216567664381	6.0347886	2.4565806
10.979773057523436	5.9531827	2.4399145
10.997380698428573	5.8658237	2.4219463
11.014988599786477	5.8565516	2.4200313
11.032596762024461	5.815444	2.411523
11.050205185569892	5.7858024	2.4053695
11.067813870850198	5.7022014	2.3879282
11.085422818292859	5.6165	2.3699155
11.10303202832541	5.5491023	2.3556533
11.120641501375454	5.4948697	2.3441138
11.138251237870636	5.467034	2.3381689
11.155861238238671	5.416383	2.3273125
11.173471502907317	5.3463025	2.3122072
11.191082032304402	5.292958	2.300643
11.208692826857805	5.258142	2.2930639
11.226303886995465	5.1813526	2.2762585
11.243915213145371	5.1344175	2.2659254
11.261526805735578	5.084644	2.2549155
11.279138665194196	4.9684	2.2289908
11.296750791949393	4.8782754	2.2086818
11.314363186429393	4.8302164	2.1977754
11.331975849062479	4.7626004	2.1823382
11.34958878027699	4.695815	2.166983
11.36720198050133	4.6364307	2.1532373
11.384815450163948	4.5807953	2.1402793
11.402429189693366	4.524262	2.1270313
11.420043199518153	4.434597	2.1058483
11.437657480066942	63.37439	7.9608035
11.455272031768422	85.097336	9.224822
11.472886855051353	107.54635	10.370456
11.490501950344528	99.17891	9.95886
11.508117318076819	84.531975	9.194127
11.52573295867715	45.90103	6.77503
11.543348872574514	4.202672	2.050042
11.560965060197946	4.156509	2.0387518
11.57858152197655	4.109937	2.027298
11.59619825833949	4.070572	2.0175657
11.613815269715985	4.049938	2.012446
11.631432556535323	38.55813	6.2095194
11.649050119226837	83.09226	9.115496
11.666667958219929	93.47531	9.668263
11.68428607394406	107.75245	10.380387
11.701904466828756	82.56663	9.086618
11.719523137303586	65.41145	8.087735
11.737142085798196	4.621925	2.1498663
11.754761312742286	3.714848	1.9273942
11.772380818565619	3.7124496	1.9267718
11.790000603698015	3.708936	1.9258598
11.80762066856935	3.7297714	1.9312617
11.825241013609572	3.710365	1.9262308
11.842861639248683	3.695285	1.9223124
11.860482545916748	3.6146433	1.9012215
11.878103734043883	3.5547724	1.8854104
11.895725204060282	3.4973872	1.8701303
11.91334695639619	3.462294	1.8607241
11.930968991481919	3.427453	1.8513381
11.948591309747824	3.4106114	1.8467841
11.966213911624347	3.395531	1.8426967
11.98383679754198	3.3437457	1.8285912
12.001459967931268	3.2861292	1.8127683
12.019083423222835	3.3013673	1.8169665
12.036707163847352	3.318424	1.8216542
12.05433119023556	3.321507	1.8225002
12.071955502818259	3.2906692	1.8140202
12.089580102026313	3.274487	1.8095543
12.107204988290643	3.2510707	1.8030726
12.12483016204224	3.2096496	1.7915494
12.142455623712152	3.1518128	1.7753346
12.16008137373149	3.1209197	1.7666125
12.177707412531431	3.0994961	1.7605386
12.19533374054321	3.1221716	1.7669668
12.212960358198126	3.1123042	1.7641724
12.230587265927545	3.0736933	1.7531952
12.248214464162889	3.0297315	1.7406124
12.265841953335649	3.0045204	1.7333553
12.283469733877375	2.984657	1.727616
12.301097806219685	2.9822168	1.7269096
12.31872617079425	3.0194707	1.7376624
12.336354828032825	3.0315762	1.7411422
12.353983778367205	2.9466374	1.7165772
12.371613022229262	2.907889	1.7052534
12.389242560050928	2.8872738	1.699198
12.406872392264201	2.8871386	1.6991582
12.424502519301143	2.8855252	1.6986834
12.442132941593874	2.882148	1.697689
12.459763659574586	2.9047801	1.7043415
12.477394673675532	2.9180803	1.708239
12.49502598432903	2.925576	1.7104316
12.51265759196746	2.9094002	1.7056965
12.530289497023267	2.8665347	1.6930844
12.547921699928967	2.8703425	1.6942085
12.565554201117134	2.867961	1.6935055
12.583187001020404	2.8369117	1.6843134
12.600820100071486	2.7654245	1.6629566
12.618453498703152	2.74461	1.6566864
12.636087197348235	2.7806149	1.6675175
12.65372119643964	2.78617	1.6691824
12.671355496410326	2.7968006	1.6723638
12.68899009769333	2.8020234	1.6739246
12.706625000721749	2.8393564	1.685039
12.724260205928752	2.9288507	1.7113885
12.741895713747551	2.98026	1.7263429
12.759531524611454	3.0225146	1.738538
12.777167638953818	3.0369534	1.7426857
12.794804057208072	3.026582	1.7397075
12.812440779807702	3.0855393	1.7565703
12.830077807186271	3.2868056	1.8129549
12.847715139777405	3.2910025	1.8141121
12.865352778014795	3.4583526	1.8596647
12.882990722332197	3.5390892	1.8812467
12.90062897316344	3.6455429	1.9093305
12.918267530942412	3.7675242	1.9410112
12.935906396103071	3.7012868	1.9238728
12.953545569079449	3.8455439	1.9610058
12.971185050305628	3.653391	1.9113846
12.988824840215775	3.660281	1.9131861
13.006464939244115	3.693012	1.9217211
13.024105347824943	3.5201445	1.8762048
13.041746066392617	3.5631843	1.8876399
13.05938709538157	3.348883	1.8299953
13.077028435226296	3.395631	1.8427238
13.094670086361363	3.3100672	1.819359
13.112312049221401	3.2214324	1.794835
13.129954324241112	3.125296	1.7678508
13.147596911855258	2.9476116	1.716861
13.165239812498685	2.92952	1.711584
13.182883026606293	2.8340077	1.6834512
13.200526554613058	2.8045168	1.6746691
13.218170396954017	2.7727423	1.6651553
13.235814554064284	2.8087895	1.6759443
13.253459026379034	2.7880225	1.6697372
13.271103814333523	2.7464657	1.6572465
13.288748918363058	2.7168875	1.6482984
13.306394338903031	2.7592359	1.6610948
13.32404007638889	2.7255347	1.6509193
13.341686131256164	2.7529166	1.6591915
13.359332503940449	2.7184794	1.6487812
13.376979194877402	2.7284336	1.651797
13.394626204502751	2.7597191	1.6612402
13.412273533252307	2.7668188	1.6633757
13.429921181561937	2.7268412	1.651315
13.447569149867581	2.7004023	1.64329
13.465217438605247	2.7070515	1.645312
13.482866048211022	2.7184331	1.6487671
13.500514979121052	2.718942	1.6489215
13.518164231771568	2.722122	1.6498854
13.535813806598844	2.712584	1.6469924
13.553463704039254	2.7144291	1.6475525
13.571113924529229	2.7070966	1.6453257
13.588764468505275	2.718705	1.6488496
13.606415336403956	2.7163203	1.6481262
13.624066528661917	2.7473068	1.6575001
13.641718045715882	2.8324344	1.6829838
13.659369888002635	2.8948786	1.7014343
13.67702205595903	2.9701412	1.7234098
13.694674550021993	3.02356	1.7388387
13.712327370628532	3.093331	1.7587868
13.729980518215713	3.166479	1.7794603
13.747633993220681	3.2155085	1.7931839
13.765287796080647	3.3070269	1.8185233
13.7829419272329	3.355011	1.8316689
13.800596387114801	3.390994	1.8414652
13.818251176163775	3.3715394	1.8361752
13.835906294817324	3.4066412	1.8457088
13.853561743513023	3.4103956	1.8467257
13.871217522688525	3.4365404	1.8537908
13.888873632781538	3.4837499	1.8664806
13.906530074229858	3.5220363	1.8767089
13.92418684747135	3.5229383	1.8769492
13.941843952943948	3.489363	1.8679837
13.959501391085665	3.4667625	1.8619244
13.977159162334578	3.4141128	1.8477318
13.994817267128846	3.382239	1.8390865
14.012475705906693	3.2823904	1.8117368
14.030134479106424	3.1833456	1.7841933
14.047793587166414	3.1089475	1.7632208
14.065453030525108	3.075817	1.7538007
14.083112809621026	3.0182388	1.7373079
14.100772924892766	3.0127573	1.7357296
14.118433376778997	2.9729438	1.7242227
14.136094165718458	2.9379163	1.714035
14.153755292149969	2.885998	1.6988225
14.171416756512416	2.8089454	1.6759908
14.189078559244768	2.6848004	1.6385361
14.20674070078606	2.587081	1.6084405
14.224403181575408	2.5336082	1.5917312
14.242066002051999	2.5417426	1.5942843
14.259729162655093	2.530574	1.5907779
14.277392663824022	2.4597983	1.5683744
14.295056505998208	2.4277794	1.5581334
14.312720689617128	2.4078631	1.5517291
14.330385215120348	2.408924	1.5520709
14.348050082947497	2.4149098	1.553998
14.3657152935383	2.4394774	1.5618826
14.383380847332528	2.4464734	1.5641207
14.401046744770051	2.454713	1.5667524
14.418712986290798	2.415507	1.5541902
14.436379572334793	2.3843899	1.544147
14.454046503342123	2.3694828	1.5393125
14.471713779752946	2.377117	1.5417901
14.489381402007504	2.4064343	1.5512686
14.507049370546113	2.4209168	1.5559295
14.524717685809168	2.4383276	1.5615145
14.542386348237134	2.4194996	1.555474
14.560055358270553	2.4459262	1.5639458
14.577724716350051	2.4366236	1.5609688
14.595394422916325	2.475994	1.5735292
14.61306447841015	2.4997742	1.5810674
14.63073488327237	2.5377383	1.5930281
14.648405637943917	2.531184	1.5909694
14.6660767428658	2.519395	1.5872602
14.683748198479094	2.56745	1.6023264
14.701420005224954	2.6224499	1.619398
14.719092163544628	2.6960347	1.6419606
14.73676467387942	2.737526	1.6545471
14.754437536670727	2.779413	1.6671572
14.772110752360014	2.7572284	1.6604904
14.78978432138882	2.7677019	1.6636411
14.807458244198777	2.7691107	1.6640645
14.82513252123159	2.7508998	1.6585836
14.842807152929028	2.7423952	1.6560179
14.860482139732962	2.6695135	1.6338645
14.87815748208531	2.6350656	1.6232885
14.8958331804281	2.6296637	1.6216238
14.91350923520342	2.625517	1.6203446
14.931185646853438	2.6576998	1.6302453
14.948862415820408	2.6884525	1.6396501
14.966539542546656	2.7184503	1.6487724
14.98421702747459	2.7015984	1.643654
15.001894871046696	2.6992986	1.6429542
15.019573073705542	2.699133	1.6429038
15.037251635893766	2.6850955	1.6386261
15.054930558054092	2.7275648	1.6515341
15.072609840629323	2.8065627	1.6752799
15.090289484062351	2.9852643	1.7277918
15.107969488796124	3.272264	1.80894
15.125649855273691	3.6782331	1.9178721
15.14333058393817	4.1278048	2.0317
15.161011675232768	4.9778595	2.2311118
15.17869312960076	6.2402463	2.4980485
15.196374947485506	8.084677	2.8433566
15.214057129330447	11.207361	3.3477397
15.231739675579114	16.049711	4.006209
15.249422586675102	21.204533	4.604838
15.267105863062092	24.446035	4.944293
15.284789505183847	24.815493	4.981515
15.302473513484218	22.715677	4.7660966
15.320157888407127	19.154903	4.3766317
15.337842630396578	14.926883	3.8635323
15.355527739896656	11.592447	3.4047682
15.37321321735153	8.980548	2.9967563
15.39089906320545	6.485232	2.5466118
15.408585277902748	4.880564	2.2092
15.42627186188783	3.7586672	1.9387282
15.443958815605198	3.213872	1.7927275
15.461646139499424	2.9229946	1.7096767
15.479333834015168	2.7886322	1.6699198
15.497021899597165	2.7216747	1.6497499
15.514710336690234	2.6738906	1.6352035
15.53239914573928	2.6233013	1.6196609
15.550088327189297	2.5688813	1.602773
15.567777881485336	2.5195246	1.587301
15.58546780907256	2.5163763	1.586309
15.6031581103962	2.5212398	1.5878413
15.620848785901568	2.4995003	1.5809808
15.638539836034063	2.4826229	1.5756341
15.656231261239173	2.482438	1.5755755
15.673923061962451	2.4717195	1.5721703
15.691615238649552	2.5157056	1.5860976
15.709307791746202	2.4820492	1.5754521
15.727000721698221	2.4462953	1.5640637
15.744694028951498	2.3969963	1.5482236
15.76238771395202	2.4020011	1.549839
15.780081777145844	2.4339178	1.5601019
15.797776218979125	2.4551127	1.5668799
15.815471039898094	2.4554958	1.5670022
15.833166240349064	2.421349	1.5560684
15.850861820778437	2.3769827	1.5417466
15.868557781632699	2.3605146	1.5363966
15.886254123358412	2.3745444	1.5409557
15.903950846402232	2.406548	1.5513053
15.921647951210897	2.441349	1.5624816
15.939345438231225	2.4419403	1.562671
15.957043307910133	2.4564083	1.5672933
15.974741560694602	2.442587	1.5628778
15.992440197031714	2.44669	1.5641899
16.01013921736862	2.4424648	1.5628387
16.02783862215259	2.4520319	1.5658965
16.045538411830933	2.4589298	1.5680975
16.06323858685107	2.444731	1.5635636
16.080939147660512	2.4394534	1.561875
16.09864009470684	2.4732084	1.5726438
16.11634142843774	2.4427245	1.5629218
16.134043149300954	2.4442766	1.5634183
16.15174525774433	2.4303296	1.5589514
16.169447754215817	2.4457192	1.5638795
16.18715063916342	2.4841123	1.5761067
16.204853913035244	2.4952202	1.5796266
16.222557576279478	2.5002694	1.581224
16.240261629344403	22.449953	4.738138
16.257966072678386	43.009586	6.5581694
16.275670906729868	38.129093	6.1748757
16.293376131947387	2.543962	1.5949802
16.31108174877957	2.5112891	1.5847048
16.328787757675133	2.5277727	1.589897
16.34649415908287	2.586787	1.6083492
16.364200953451657	2.6505203	1.6280419
16.38190814123048	2.660651	1.6311502
16.39961572286839	2.6668174	1.6330394
16.41732369881455	2.7241669	1.6505051
16.43503206951817	2.763776	1.6624608
16.45274083542859	2.8034832	1.6743605
16.47044999699522	2.8411503	1.6855712
16.488159554667558	2.878809	1.6967053
16.505869508895184	2.9185534	1.7083774
16.523579860127786	2.9333465	1.7127016
16.541290608815117	2.961106	1.7207865
16.559001755407035	2.9934728	1.7301656
16.57671330035348	3.033233	1.7416179
16.59442524410448	3.126272	1.7681267
16.61213758711015	3.213885	1.7927312
16.629850329820705	3.254253	1.8039548
16.647563472686436	3.3466854	1.8293948
16.665277016157724	3.3575034	1.8323492
16.682990960685053	3.3954837	1.8426838
16.70070530671898	3.4358099	1.8535937
16.718420054710155	3.5086079	1.8731278
16.736135205109335	3.6195586	1.9025137
16.753850758367335	3.661664	1.9135475
16.771566714935087	3.6952891	1.9223135
16.789283075263597	3.7444067	1.9350469
16.80699983980398	3.8261383	1.9560517
16.82471700900741	3.917436	1.9792514
16.84243458332518	3.9661186	1.9915116
16.860152563208665	3.9910607	1.997764
16.87787094910932	4.058264	2.0145133
16.89558974147871	4.125855	2.03122
16.913308940768466	4.2212276	2.0545626
16.931028547430333	4.31049	2.0761719
16.94874856191613	4.3584085	2.08768
16.966468984677785	4.366234	2.0895536
16.98418981616729	4.3897715	2.0951781
17.00191105683676	4.4584	2.1114924
17.019632707138374	4.5502157	2.1331234
17.03735476752442	4.5847225	2.1411965
17.05507723844728	4.659079	2.15849
17.072800120359403	4.703591	2.1687763
17.090523413713353	4.737334	2.1765418
17.108247118961785	4.781637	2.1866956
17.125971236557437	4.7448545	2.1782687
17.143695766953133	4.760127	2.1817715
17.161420710601806	4.7165303	2.1717575
17.179146067956477	4.735793	2.1761878
17.19687183947025	4.7286716	2.1745508
17.21459802559634	4.701916	2.1683903
17.232324626788028	4.6636343	2.159545
17.25005164349871	4.657982	2.1582358
17.267779076181863	4.670258	2.161078
17.285506925291074	4.6686063	2.1606958
17.30323519127999	4.6207404	2.1495907
17.320963874602384	4.571432	2.1380908
17.33869297571211	4.54919	2.132883
17.356422495063114	4.571761	2.1381676
17.37415243310944	4.6034536	2.145566
17.391882790305218	4.6090755	2.1468759
17.40961356710468	4.5492606	2.1328995
17.42734476396215	4.4976506	2.1207664
17.445076381332044	4.504033	2.1222708
17.462808419668868	4.58126	2.1403878
17.48054087942723	4.7446785	2.1782284
17.498273761061835	5.0764103	2.253089
17.51600706502747	5.4688225	2.3385513
17.533740791779024	6.191661	2.4883049
17.551474941771485	7.598146	2.7564735
17.56920951545993	8.735662	2.9556155
17.586944513299528	10.927992	3.3057513
17.60467993574556	12.565656	3.544807
17.622415783253373	14.353256	3.7885692
17.64015205627843	15.808686	3.976014
17.657888755276293	16.941895	4.116053
17.675625880702604	17.495028	4.182706
17.69336343301311	17.369144	4.1676307
17.71110141266366	16.608126	4.075307
17.728839820110178	15.531344	3.9409826
17.746578655808705	14.445072	3.8006673
17.764317920215372	12.855831	3.5855029
17.7820576137864	11.339941	3.367483
17.79979773697811	9.350324	3.0578299
17.81753829024692	7.494937	2.7376883
17.835279274049356	5.8958044	2.4281278
17.85302068884201	4.857721	2.2040238
17.870762535081607	4.208489	2.0514603
17.888504813224934	3.9096935	1.9772944
17.90624752372891	3.7533324	1.937352
17.923990667050536	3.7103496	1.9262267
17.941734243646895	3.6224372	1.9032701
17.959478253975185	3.5695746	1.8893318
17.9772226984927	3.4968958	1.8699989
17.994967577656833	3.4309216	1.8522747
18.01271289192506	3.4263713	1.851046
18.030458641754965	3.426969	1.8512075
18.04820482760425	3.4203124	1.8494086
18.06595144993067	3.3934221	1.8421243
18.083698509192125	3.313556	1.8203175
18.101446005846576	3.27668	1.8101602
18.119193940352105	3.233747	1.7982622
18.136942313166887	3.2278395	1.7966189
18.1546911247492	3.2442203	1.8011719
18.1724403755574	3.208103	1.7911178
18.19019006604997	3.1577785	1.7770139
18.207940196685467	3.145225	1.7734783
18.225690767922575	3.174024	1.7815791
18.243441780220046	3.159698	1.7775539
18.261193234036764	3.1108491	1.76376
18.278945129831676	3.0986898	1.7603096
18.29669746806386	3.1287732	1.7688339
18.314450249192483	3.1135528	1.7645262
18.3322034736768	3.075724	1.7537742
18.349957141976184	3.0792923	1.7547913
18.3677112545501	3.0915484	1.7582799
18.385465811858108	3.0931299	1.7587296
18.403220814359884	3.097054	1.7598449
18.420976262515172	3.139862	1.7719656
18.43873215678387	3.184102	1.7844052
18.456488497625923	3.1819644	1.7838062
18.474245285501407	3.2361956	1.7989429
18.492002520870486	3.3092332	1.8191298
18.50976020419343	3.387903	1.8406256
18.527518335930615	3.73259	1.9319912
18.545276916542516	4.3369646	2.0825381
18.563035946489688	4.549295	2.1329076
18.580795426232832	4.9963074	2.2352421
18.598555356232698	4.86019	2.204584
18.616315736950185	5.148015	2.2689238
18.63407656884626	4.7895103	2.188495
18.65183785238201	4.9997754	2.2360177
18.669599588018617	4.784279	2.1872995
18.68736177621737	4.789852	2.1885731
18.705124417439652	4.7532454	2.180194
18.72288751214696	4.557401	2.134807
18.740651060800886	4.726077	2.1739542
18.758415063863115	4.402231	2.0981495
18.77617952179546	4.5411777	2.1310039
18.793944435059814	4.2944827	2.0723133
18.811709804118184	4.3669066	2.0897145
18.829475629432675	4.3276277	2.080295
18.8472419114655	4.0481696	2.0120063
18.86500865067897	4.096698	2.0240302
18.88277584753551	3.8023136	1.9499522
18.90054350249763	3.8869557	1.9715364
18.918311616027957	3.5834208	1.8929925
18.936080188589226	3.47492	1.8641137
18.953849220644265	3.12885	1.7688556
18.971618712656007	2.9508603	1.7178068
18.9893886650875	2.8840034	1.6982354
19.007159078401887	8.034558	2.8345296
19.024929953062408	32.900528	5.735898
19.042701289532435	32.83801	5.730446
19.060473088275405	25.415041	5.041333
19.07824534975489	2.6694157	1.6338347
19.096018074434568	2.663728	1.6320932
19.113791262778197	2.656299	1.6298157
19.13156491524966	2.6279182	1.6210855
19.149339032312945	2.5819726	1.6068518
19.167113614432136	2.5573874	1.5991833
19.184888662071433	2.5414572	1.5941949
19.202664175695123	2.553456	1.5979537
19.220440155767623	2.5581422	1.5994194
19.238216602753447	2.5859754	1.6080968
19.2559935171172	2.583119	1.6072084
19.27377089932361	2.5655484	1.601733
19.291548749837514	2.5752065	1.604745
19.309327069123835	2.5865095	1.6082629
19.32710585764763	2.5878034	1.6086651
19.344885115874032	2.5709367	1.603414
19.362664844268313	2.5434823	1.5948299
19.380445043295822	2.5176857	1.5867217
19.39822571342203	2.4857352	1.5766214
19.41600685511252	2.441399	1.5624977
19.43378846883297	2.4327521	1.5597283
19.451570555049173	2.459398	1.5682468
19.469353114227037	2.4834569	1.5758988
19.48713614683254	2.4754522	1.573357
19.50491965333182	2.4673047	1.5707656
19.52270363419109	2.473966	1.5728846
19.540488089876686	2.5202568	1.5875317
19.55827302085503	2.5397294	1.5936528
19.576058427592674	2.5511413	1.5972292
19.593844310556282	2.4861755	1.5767611
19.611630670212598	2.4661634	1.5704023
19.629417507028506	2.4690726	1.5713283
19.64720482147098	2.5055332	1.5828876
19.6649926140071	2.4688747	1.5712653
19.682780885104084	2.4415386	1.5625423
19.70056963522921	2.4297538	1.5587667
19.718358864849908	2.4776766	1.5740638
19.7361485744337	2.5147622	1.5858002
19.753938764448215	2.5566447	1.5989511
19.771729435361202	2.555933	1.5987285
19.789520587640506	2.5499086	1.5968434
19.807312221754092	2.534608	1.5920452
19.825104338170043	2.5718546	1.6037003
19.842896937356517	2.559222	1.5997568
19.860690019781824	2.5825615	1.607035
19.87848358591436	2.5232382	1.5884703
19.896277636222635	2.5413003	1.5941457
19.914072171175278	2.5292118	1.5903496
19.931867191241015	2.5287814	1.5902143
19.94966269688869	2.524168	1.588763
19.967458688587264	2.5127869	1.5851772
19.985255166805807	2.505447	1.5828604
20.00305213201348	2.4888825	1.5776193
20.020849584679578	2.48968	1.577872
20.038647525273507	2.4601207	1.5684772
20.05644595426477	2.4574034	1.5676107
20.07424487212299	2.473861	1.5728512
20.092044279317903	2.4787078	1.5743912
20.109844176319353	2.4689586	1.571292
20.127644563597304	2.4395912	1.5619191
20.145445441621817	2.404413	1.550617
20.16324681086307	2.3926387	1.5468156
20.181048671791373	2.3907065	1.546191
20.198851024877122	2.3768167	1.5416929
20.216653870590836	2.3472757	1.5320822
20.234457209403146	2.3530805	1.5339754
20.252261041784802	2.3485909	1.5325112
20.270065368206662	2.3572965	1.535349
20.287870189139685	2.353111	1.5339854
20.305675505054968	2.4017365	1.5497537
20.323481316423702	2.3905926	1.5461541
20.341287623717207	2.4109986	1.552739
20.359094427406884	2.4017985	1.5497737
20.376901727964288	2.404262	1.5505683
20.39470952586107	2.3389676	1.5293684
20.41251782156899	2.329193	1.5261694
20.430326615559935	2.3533757	1.5340716
20.448135908305886	2.3784342	1.5422173
20.465945700278965	2.3981001	1.54858
20.483755991951384	2.371365	1.5399237
20.50156678379548	2.346813	1.5319312
20.519378076283708	2.3808753	1.5430086
20.537189869888635	2.383067	1.5437186
20.55500216508294	2.3842623	1.5441056
20.572814962339415	2.3660266	1.5381894
20.59062826213098	2.3651104	1.5378915
20.60844206493066	2.3546333	1.5344814
20.626256371211593	2.3602417	1.5363078
20.644071181447032	2.3656976	1.5380825
20.66188649611036	2.3894134	1.5457728
20.67970231567506	2.3856475	1.5445541
20.697518640614742	2.3755212	1.5412726
20.715335471403122	2.3682873	1.5389241
20.73315280851404	2.3977761	1.5484754
20.750970652421447	2.3742185	1.5408499
20.768789003599412	2.32867	1.525998
20.786607862522136	2.305072	1.5182464
20.8044272296639	2.317778	1.522425
20.82224710549913	2.3318336	1.5270343
20.84006749050237	2.3082933	1.5193069
20.857888385148268	3.8508914	1.9623688
20.8757097899116	45.94036	6.7779317
20.893531705267254	64.83644	8.052108
20.911354131690224	83.89042	9.159171
20.92917706965566	69.14474	8.315331
20.94700051963877	50.205746	7.0856013
20.96482448211493	29.447794	5.4265823
20.982648957559622	4.2053514	2.0506954
21.00047394644843	2.3139703	1.521174
21.01829944925707	2.3136778	1.5210779
21.036125466461375	2.276424	1.5087823
21.053951998537297	2.2725115	1.5074852
21.071779045960906	2.285655	1.5118383
21.089606609208378	2.2996066	1.5164454
21.10743468875603	2.2758315	1.5085859
21.12526328508028	2.2234209	1.491114
21.143092398657675	2.1934035	1.4810144
21.16092202996488	2.184635	1.4780511
21.17875217947867	2.1934814	1.4810407
21.19658284767596	2.2016582	1.4837986
21.21441403503377	2.2133505	1.4877334
21.232245742029225	2.2170906	1.4889898
21.2500779691396	2.2068086	1.4855331
21.26791071684227	2.1957836	1.4818177
21.28574398561475	2.2103176	1.4867136
21.30357777593465	2.2265499	1.4921628
21.321412088279704	2.239226	1.4964044
21.339246923127792	2.2217412	1.4905506
21.357082280956888	2.1747935	1.4747181
21.3749181622451	2.121895	1.4566725
21.392754567470647	2.0854714	1.4441161
21.41059149711187	2.0804014	1.4423597
21.42842895164726	2.113855	1.4539102
21.446266931555378	2.150248	1.4663724
21.464105437314945	2.1525857	1.4671693
21.481944469404798	2.1410568	1.463235
21.49978402830388	2.1117513	1.4531866
21.51762411449127	2.0998876	1.449099
21.53546472844617	2.0972147	1.4481764
21.553305870647876	2.1456854	1.4648159
21.571147541575865	2.1502154	1.4663613
21.58898974170967	2.1344519	1.4609764
21.60683247152899	2.0999908	1.4491345
21.62467573151363	2.1017516	1.4497418
21.642519522143523	2.0754702	1.4406493
21.660363843898722	2.056737	1.4341328
21.6782086972594	2.0316584	1.4253626
21.696054082705864	2.0414174	1.4287817
21.713900000718535	2.082935	1.4432377
21.73174645177795	2.1272526	1.4585104
21.749593436364794	2.1174338	1.4551405
21.767440954959845	2.1041508	1.4505692
21.785289008044032	2.1016905	1.4497209
21.803137596098388	2.0947673	1.4473311
21.820986719604086	2.0449746	1.430026
21.838836379042412	1.9991478	1.4139122
21.85668657489478	2.0373118	1.4273443
21.87453730764273	2.090597	1.4458897
21.892388577767914	2.0852573	1.444042
21.91024038575213	2.0454059	1.4301769
21.928092732077285	2.029006	1.4244318
21.945945617225426	2.0448203	1.4299722
21.963799041678694	2.0402915	1.4283878
21.981653005919398	31.338894	5.5981154
21.999507510429943	78.11815	8.838448
22.01736255569286	73.0792	8.548637
22.035218142190818	4.1871285	2.0462475
22.05307427040661	2.0115578	1.418294
22.07093094082315	1.9991759	1.4139222
22.088788153923474	2.0256948	1.423269
22.106645910190746	2.051164	1.4321885
22.12450421010827	2.0585918	1.4347794
22.142363054159464	2.04728	1.4308319
22.16022244282787	2.0252502	1.4231129
22.178082376597164	2.0136254	1.4190227
22.195942855951145	1.9828447	1.4081352
22.213803881373742	1.9902194	1.4107513
22.231665453349002	1.9815047	1.4076593
22.24952757236111	2.001618	1.4147855
22.26739023889438	1.9902638	1.4107671
22.28525345343323	1.9885788	1.4101697
22.30311721646225	1.9405096	1.3930217
22.320981528466113	1.9161342	1.384245
22.33884638992964	1.9240283	1.3870934
22.356711801337788	1.9389483	1.3924612
22.37457776317561	1.937498	1.3919404
22.392444275928337	1.9430617	1.3939375
22.410311340081282	1.967425	1.4026493
22.428178956119904	1.9912202	1.411106
22.446047124529805	1.9882838	1.4100652
22.46391584579669	1.9832478	1.4082783
22.481785120406414	1.9966668	1.4130346
22.49965494884496	1.9924334	1.4115359
22.51752533159841	1.9857165	1.4091545
22.53539626915302	1.9611665	1.4004165
22.553267761995137	1.9520155	1.3971455
22.571139810611264	1.9477731	1.3956264
22.589012415488025	1.9708034	1.403853
22.60688557711216	1.9542688	1.3979516
22.624759295970566	1.9555945	1.3984257
22.642633572550263	1.9726528	1.4045116
22.660508407338362	1.9774617	1.4062225
22.67838380082217	1.9649602	1.4017704
22.696259753489077	1.967327	1.4026144
22.714136265826614	1.938406	1.3922665
22.73201333832246	1.9595819	1.3998506
22.74989097146439	1.9383022	1.3922292
22.76776916574035	1.9184374	1.3850766
22.785647921638393	1.8878679	1.3739971
22.803527239646712	1.910396	1.3821708
22.82140712025363	1.9162813	1.3842981
22.839287563947593	1.9058024	1.3805081
22.85716857121719	1.8832711	1.3723233
22.875050142551135	1.9020438	1.3791461
22.892932278438277	1.9293875	1.3890239
22.910814979367604	1.9548146	1.3981469
22.928698245828222	1.9680282	1.4028643
22.946582078309387	1.9539568	1.39784
22.96446647730047	1.9171857	1.3846247
22.98235144329098	1.8641008	1.3653208
23.000236976770562	1.8598193	1.3637519
23.018123078229	1.8737901	1.3688645
23.03600974815619	1.9152015	1.383908
23.053896987042194	1.9300077	1.3892472
23.071784795377173	1.9566418	1.3988001
23.08967317365145	1.9278249	1.3884614
23.10756212235546	1.9106176	1.3822509
23.125451641979787	1.8904176	1.3749245
23.143341733015134	1.9145063	1.3836569
23.161232395952357	1.9246668	1.3873236
23.179123631282426	1.9516252	1.3970058
23.197015439496468	1.9633236	1.4011865
23.214907821085717	1.9920844	1.4114122
23.23280077654157	1.9751836	1.4054122
23.250694306355538	1.9408191	1.3931328
23.268588411019277	1.9138047	1.3834033
23.28648309102458	1.9286331	1.3887523
23.304378346863356	1.9302291	1.3893268
23.322274179027676	1.9586946	1.3995337
23.340170588009723	1.9791527	1.4068236
23.358067574301852	2.0056224	1.4161999
23.37596513839651	1.9607052	1.4002519
23.39386328078629	1.9560257	1.3985798
23.411762001963947	1.9428037	1.393845
23.429661302422353	1.9644452	1.4015867
23.4475611826545	1.8903995	1.374918
23.46546164315356	1.8970687	1.3773412
23.48336268441279	1.8976113	1.3775381
23.501264306925638	1.8972826	1.3774189
23.51916651118564	1.9093928	1.3818078
23.537069297686497	1.9300165	1.3892504
23.554972666922037	1.9200852	1.3856714
23.57287661938623	1.9138222	1.3834096
23.59078115557318	1.9417794	1.3934774
23.608686275977128	1.9508901	1.3967427
23.62659198109246	1.9158967	1.3841592
23.6444982714137	1.924003	1.3870844
23.66240514743549	1.9157656	1.3841119
23.68031260965263	1.9383702	1.3922536
23.698220658560068	1.9455302	1.3948226
23.716129294652845	1.9475794	1.395557
23.7340385184262	1.9210274	1.3860114
23.75194833037546	1.9049689	1.3802061
23.769858730996123	1.9187136	1.3851764
23.78776972078382	1.9222608	1.3864561
23.80568130023431	1.9677794	1.4027756
23.823593469843495	1.9971058	1.41319
23.841506230107424	1.998682	1.4137475
23.859419581522275	1.962866	1.4010231
23.87733352458438	1.9182684	1.3850157
23.89524805979019	1.9299421	1.3892236
23.913163187636318	1.9115193	1.3825771
23.931078908619508	1.9361663	1.391462
23.948995223236633	1.9773561	1.4061849
23.966912131984735	2.0137491	1.4190663
23.98482963536096	2.0415006	1.4288108
24.002747733862616	2.000011	1.4142175
24.020666427987155	1.9788469	1.4067149
24.038585718232156	1.9765881	1.4059118
24.056505605095353	2.001808	1.4148526
24.074426089074617	2.0865824	1.4445008
24.092347170667946	2.1005769	1.4493366
24.110268850373515	2.050637	1.4320046
24.128191128689586	2.0381079	1.4276232
24.146114006114626	2.0732713	1.4398859
24.164037483147187	2.0658672	1.4373125
24.181961560286005	2.070555	1.4389423
24.199886238029926	2.0531788	1.4328917
24.21781151687797	2.0389364	1.4279133
24.235737397329274	2.059998	1.4352694
24.253663879883135	2.03348	1.4260014
24.271590965038975	1.9944916	1.4122647
24.289518653296376	2.006935	1.4166633
24.30744694515505	2.026649	1.4236042
24.32537584111486	2.0161343	1.4199064
24.34330534167581	2.0057232	1.4162356
24.361235447338046	2.0586436	1.4347974
24.379166158601876	2.0796742	1.4421076
24.39709747596772	2.094509	1.4472418
24.41502939993615	2.0946815	1.4473015
24.432961931007917	2.0774262	1.4413279
24.450895069683856	2.0774043	1.4413203
24.468828816465	2.0285125	1.4242586
24.4867631718525	1.9974523	1.4133126
24.504698136347656	1.9744453	1.4051496
24.52263371045192	1.9730393	1.4046491
24.540569894666874	1.9747634	1.4052627
24.558506689494266	1.9371543	1.3918169
24.57644409543597	1.9358126	1.3913348
24.594382112994012	1.9760727	1.4057286
24.61232074267057	1.9748687	1.4053003
24.630259984967953	1.9142063	1.3835484
24.64819984038863	1.9086368	1.3815342
24.66614030943522	1.9507318	1.396686
24.684081392610462	1.9889	1.4102837
24.702023090417274	2.036089	1.4269159
24.7199654033587	2.0344272	1.4263334
24.737908331937927	2.0350828	1.4265633
24.755851876658305	2.043429	1.4294856
24.773796038023324	2.0912209	1.4461054
24.79174081653661	2.132416	1.4602795
24.809686212701962	2.1601202	1.4697348
24.827632227023294	2.13033	1.459565
24.8455788600047	2.1026678	1.4500579
24.8635261121504	2.10162	1.4496965
24.88147398396475	2.0941374	1.4471135
24.899422475952303	2.1540792	1.4676782
24.917371588617698	2.1876533	1.4790717
24.935321322465768	2.250594	1.500198
24.953271678001478	2.33413	1.527786
24.97122265572994	2.5248845	1.5889885
24.989174256156414	2.8177238	1.6786077
25.00712647978632	3.2986555	1.8162202
25.02507932712521	3.7862756	1.9458355
25.043032798678798	4.2822533	2.0693605
25.060986894952933	4.965931	2.228437
25.078941616453637	5.770568	2.4022007
25.096896963687055	6.6934443	2.5871692
25.114852937159508	7.831201	2.7984283
25.132809537377444	8.359476	2.891276
25.150766764847468	8.362671	2.8918283
25.168724620076347	7.714444	2.7774887
25.186683103570985	6.6052074	2.5700598
25.204642215838426	5.4499984	2.3345232
25.222601957385894	4.1473875	2.0365136
25.24056232872074	3.1925514	1.7867712
25.25852333035048	2.6675148	1.6332529
25.276484962782778	2.3547919	1.5345331
25.294447226525435	2.199704	1.4831399
25.312410122086423	2.0993364	1.4489087
25.330373649973843	2.005683	1.4162214
25.348337810695988	1.9267763	1.3880837
25.366302604761245	1.9028984	1.3794558
25.384268032678207	1.8714896	1.368024
25.40223409495558	1.8511168	1.3605576
25.420200792102257	1.8758901	1.3696314
25.438168124627246	1.9152975	1.3839427
25.45613609303974	1.9394283	1.3926336
25.474104697849057	1.9124854	1.3829263
25.492073939564698	1.8838209	1.3725235
25.510043818696285	1.9083207	1.3814198
25.528014335753614	1.9182537	1.3850104
25.54598549124664	1.924121	1.3871269
25.56395728568544	1.8988183	1.3779762
25.58192971958028	1.8687437	1.36702
25.59990279344156	1.8273008	1.351777
25.617876507779833	1.8461335	1.358725
25.635850863105826	1.8817098	1.3717543
25.653825859930386	1.8825725	1.3720688
25.671801498764548	1.911287	1.382493
25.68977778011949	1.8887895	1.3743324
25.707754704506524	1.8604625	1.3639877
25.725732272437153	1.7957205	1.340045
25.743710484423012	1.8115044	1.3459214
25.761689340975888	1.8338257	1.3541882
25.77966884260774	1.8670433	1.3663979
25.797648989830662	1.9239808	1.3870764
25.815629783156922	1.9773146	1.4061701
25.83361122309895	1.974529	1.4051794
25.85159331016929	1.9470454	1.3953657
25.869576044880695	1.8989965	1.3780408
25.887559427746034	1.8847817	1.3728735
25.90554345927836	1.8399687	1.3564545
25.92352813999086	1.825376	1.3510648
25.94151347039689	1.856688	1.3626034
25.959499451009965	1.9021349	1.3791791
25.97748608234374	1.8894882	1.3745866
25.995473364912062	1.8974297	1.3774722
26.013461299228904	1.8649566	1.3656342
26.03144988580839	1.8287244	1.3523034
26.04943912516483	1.8270924	1.3516998
26.067429017812675	1.8218045	1.3497424
26.085419564266537	1.7795739	1.3340067
26.103410765041186	1.7843691	1.3358028
26.12140262065155	1.8242681	1.3506547
26.139395131612723	1.8183881	1.3484762
26.157388298439948	1.8206505	1.3493148
26.17538212164861	1.8138576	1.3467953
26.193376601754295	1.8231906	1.3502557
26.211371739272714	1.7853802	1.3361812
26.229367534719746	1.8278903	1.3519949
26.247363988611433	1.8241574	1.3506137
26.26536110146397	1.8379254	1.3557011
26.283358873793727	1.8434935	1.357753
26.301357306117204	1.8614651	1.3643552
26.319356398951104	1.8573346	1.3628407
26.33735615281224	1.8446295	1.3581713
26.35535656821762	1.8875116	1.3738674
26.373357645684404	1.8812369	1.3715819
26.39135938572991	1.8452121	1.3583858
26.409361788871614	1.8273532	1.3517963
26.427364855627165	1.8466102	1.3589003
26.445368586514352	1.8875276	1.3738732
26.46337298205115	1.8910172	1.3751426
26.48137804275568	1.8672035	1.3664565
26.499383769146217	1.813773	1.346764
26.517390161741215	1.8077096	1.3445109
26.53539722105928	1.7902511	1.3380027
26.553404947619182	1.7729415	1.3315185
26.571413341939856	1.7705774	1.3306304
26.589422404540397	1.768647	1.3299049
26.60743213594006	1.8091338	1.3450404
26.62544253665827	1.8590624	1.3634744
26.64345360721459	1.8869294	1.3736554
26.66146534812879	1.8814856	1.3716725
26.679477759920758	1.8425335	1.3573996
26.69749084311057	1.816048	1.3476082
26.71550459821847	1.811056	1.3457549
26.733519025764842	1.7809342	1.3345165
26.751534126270258	1.754213	1.3244671
26.769549900255434	1.787352	1.3369188
26.787566348241267	1.8192066	1.3487797
26.80558347074881	1.8077108	1.3445114
26.823601268299267	1.7880443	1.3371778
26.841619741414036	1.834464	1.3544239
26.85963889061465	1.8518202	1.360816
26.877658716422832	1.8527424	1.3611548
26.89567921936045	1.8785961	1.3706188
26.913700399949544	1.9276185	1.388387
26.93172225871233	1.901349	1.3788941
26.949744796171174	1.8315307	1.3533406
26.967768012848605	1.8492817	1.359883
26.98579190926733	1.8530505	1.3612679
27.003816485950225	1.9209101	1.385969
27.021841743420318	1.9026681	1.3793724
27.039867682200814	1.8619605	1.3645368
27.057894302815072	1.8383237	1.355848
27.07592160578664	1.8402219	1.3565478
27.0939495916392	1.86613	1.3660637
27.111978260896635	1.832734	1.353785
27.13000761408296	1.8207011	1.3493336
27.148037651722397	1.8226423	1.3500527
27.166068374339304	1.8207952	1.3493685
27.184099782458215	1.8051414	1.3435556
27.20213187660384	1.8758552	1.3696187
27.22016465730105	1.88037	1.3712659
27.23819812507487	1.810993	1.3457314
27.256232280450533	1.7771615	1.3331022
27.274267123953383	1.8196889	1.3489585
27.292302656108987	1.8470076	1.3590466
27.31033887744306	1.8195869	1.3489206
27.32837578848146	1.8264103	1.3514475
27.34641338975026	1.8868635	1.3736315
27.364451681775673	1.8822175	1.3719393
27.382490665084074	1.8211801	1.349511
27.400530340202046	1.7867101	1.3366787
27.41857070765629	1.7606801	1.3269062
27.436611767973726	1.7769845	1.3330358
27.454653521681404	1.7774365	1.3332053
27.472695969306564	1.7728235	1.3314742
27.490739111376627	1.8168592	1.3479092
27.508782948419153	1.836362	1.3551244
27.526827480961902	1.7839323	1.3356392
27.54487270953279	1.7649873	1.3285283
27.562918634659898	1.8654736	1.3658234
27.580965256871508	1.9131163	1.3831545
27.599012576696026	1.8661523	1.3660718
27.617060594662068	1.8031435	1.3428118
27.63510931129842	1.7930098	1.3390331
27.65315872713401	1.8301278	1.3528222
27.67120884269797	1.8478271	1.359348
27.68925965851958	1.8779941	1.3703992
27.707311175128307	1.9002601	1.3784993
27.725363393053787	1.8601743	1.3638821
27.74341631282583	1.8226712	1.3500634
27.7614699349744	1.8525217	1.3610737
27.77952426002968	2.0743117	1.440247
27.797579288521973	2.0940895	1.447097
27.815635020981784	2.5063088	1.5831326
27.83369145793979	2.598441	1.611968
27.85174859992682	2.5156481	1.5860795
27.869806447473923	2.3656316	1.538061
27.887865001112267	2.0583272	1.4346871
27.905924261373233	1.889789	1.374696
27.92398422878836	1.842616	1.3574299
27.94204490388936	1.8530736	1.3612765
27.96010628720813	1.939954	1.3928224
27.978168379276728	1.9442428	1.3943611
27.9962311806274	1.8906058	1.374993
28.014294691792568	1.8364301	1.3551495
28.0323589133048	1.8137069	1.3467393
28.050423845696887	1.8328704	1.3538355
28.068489489501758	1.8580295	1.3630955
28.086555845252523	1.8799	1.3710945
28.104622913482487	1.8687707	1.3670299
28.122690694725115	1.8696364	1.3673465
28.14075918951405	1.8720039	1.368212
28.15882839838312	1.90383	1.3797935
28.176898321866304	1.9264407	1.3879628
28.1949689604978	1.8882339	1.3741302
28.213040314811945	1.8820747	1.3718873
28.23111238534327	1.9248971	1.3874066
28.249185172626493	1.9466081	1.395209
28.267258677196473	1.8854969	1.3731339
28.285332899588294	1.8902496	1.3748635
28.303407840337172	1.9088631	1.3816161
28.321483499978545	1.92519	1.3875122
28.33955987904799	1.9368545	1.3917092
28.357636978081285	1.9554746	1.3983829
28.37571479761439	1.9700166	1.4035728
28.393793338183425	1.9679834	1.4028484
28.41187260032469	2.0028796	1.4152313
28.429952584574686	1.9903944	1.4108133
28.448033291470065	1.9432939	1.3940208
28.46611472154769	1.9403589	1.3929677
28.484196875344566	1.9281381	1.3885741
28.502279753397914	1.9628117	1.4010038
28.52036335624511	2.035018	1.4265406
28.538447684423716	2.044254	1.4297742
28.556532738471482	2.0340571	1.4262037
28.574618518926325	2.0216908	1.4218618
28.59270502632635	2.0173352	1.4203292
28.61079226120985	1.991486	1.4112002
28.628880224115274	2.0484498	1.4312407
28.646968915581287	2.0664835	1.4375268
28.66505833614671	2.1146288	1.4541763
28.68314848635055	2.1305327	1.4596344
28.701239366732004	2.1258442	1.4580275
28.71933097783044	2.1279292	1.4587424
28.737423320185403	2.1340048	1.4608233
28.75551639433665	2.1492982	1.4660485
28.773610200824074	2.1594386	1.4695028
28.791704740187793	2.2210217	1.4903092
28.80980001296809	2.2582405	1.5027443
28.827896019705413	2.2313397	1.4937669
28.845992760940433	2.1709235	1.4734054
28.86409023721397	2.1838102	1.477772
28.88218844906704	2.2012992	1.4836776
28.900287397040845	2.2124457	1.4874293
28.918387081676755	2.238572	1.4961858
28.936487503516343	2.2062078	1.4853308
28.954588663101365	2.2149282	1.4882635
28.97269056097374	2.3007734	1.5168301
28.990793197675597	2.3506932	1.533197
29.00889657374923	2.375973	1.5414191
29.027000689737125	2.3757162	1.5413358
29.04510554618196	2.3839557	1.5440063
29.06321114362659	2.3975902	1.5484154
29.08131748261405	2.453396	1.5663321
29.099424563687567	2.4096346	1.5522997
29.11753238739057	2.4062712	1.551216
29.13564095426663	2.4911578	1.5783402
29.15375026485954	2.5826306	1.6070565
29.171860319713275	2.6304731	1.6218734
29.18997111937199	2.657319	1.6301285
29.20808266438002	2.6930504	1.6410517
29.226194955281898	2.6921632	1.6407813
29.244307992622335	2.794182	1.6715807
29.26242177694624	2.9614844	1.7208964
29.2805363087987	3.059878	1.7492508
29.29865158872498	3.0221806	1.738442
29.316767617270557	2.977967	1.7256787
29.334884394981064	2.9853811	1.7278255
29.353001922402367	3.0415733	1.7440107
29.37112020008047	3.1483312	1.7743537
29.389239228561596	3.2837327	1.8121072
29.407359008392152	3.4063215	1.8456223
29.42547954011872	3.7420437	1.9344363
29.44360082428809	4.3459396	2.0846918
29.46172286144722	5.4119906	2.3263686
29.479845652143283	6.9432435	2.6350036
29.497969196923606	8.980326	2.9967191
29.516093496335728	11.530954	3.395726
29.5342185509274	14.462189	3.8029184
29.55234436124651	16.777056	4.0959806
29.570470927841175	18.064816	4.2502723
29.588598251259686	17.75971	4.214227
29.60672633205055	16.527264	4.065374
29.624855170762405	14.401315	3.7949064
29.642984767944146	11.776546	3.4316971
29.66111512414481	9.025149	3.0041885
29.67924623991366	6.7424335	2.5966196
29.697378115800138	5.1391935	2.266979
29.71551075235387	4.2338233	2.0576255
29.733644150124675	3.820298	1.9545583
29.751778309662576	3.6679387	1.9151863
29.769913231517766	3.4932306	1.8690187
29.78804891624066	3.3379018	1.8269925
29.806185364381818	3.3643265	1.83421
29.82432257649206	3.4269426	1.8512003
29.842460553122333	3.3894618	1.8410491
29.86059929482382	3.3923256	1.8418267
29.878738802147872	3.3797626	1.8384131
29.896879075646048	3.2972665	1.8158376
29.915020115870114	3.2705777	1.8084738
29.933161923371976	3.2713552	1.8086888
29.951304498703777	3.3245912	1.8233461
29.969447842417857	3.3442135	1.8287191
29.987591955066733	3.2677314	1.8076868
30.005736837203123	3.2026873	1.7896054
30.023882489379943	3.203582	1.7898554
30.04202891215028	3.203943	1.7899561
30.060176106067455	3.1813505	1.7836341
30.078324071684946	3.1650648	1.7790629
30.09647280955646	3.1757026	1.7820501
30.114622320235863	3.2121093	1.7922359
30.132772604277257	3.2653491	1.8070277
30.1509236622349	3.212624	1.7923795
30.16907549466328	3.1984515	1.7884215
30.18722810211705	3.2124505	1.792331
30.205381485151097	3.1461792	1.7737472
30.22353564432045	3.0920188	1.7584137
30.241690580180403	3.0845335	1.756284
30.25984629328638	3.0751953	1.7536235
30.278002784194037	3.0502074	1.7464843
30.296160053459246	2.964213	1.721689
30.314318101638033	2.9231665	1.709727
30.332476929286646	2.8674486	1.6933542
30.35063653696153	2.9067626	1.704923
30.368796925219307	2.9003234	1.7030336
30.386958094616844	2.8996222	1.7028277
30.40512004571115	2.94294	1.7154999
30.423282779059463	2.9480965	1.7170022
30.441446295219233	2.8830676	1.6979598
30.459610594748067	2.8246188	1.6806602
30.47777567820382	2.8776937	1.6963767
30.495941546144504	2.9310215	1.7120227
30.51410819912835	2.8795836	1.6969336
30.532275637713795	2.798944	1.6730045
30.55044386245946	2.8481967	1.6876601
30.56861287392416	2.8427725	1.6860523
30.586782672666956	2.765025	1.6628364
30.604953259247047	2.7427888	1.6561368
30.623124634223885	2.7225227	1.6500069
30.641296798157075	2.7045047	1.6445378
30.659469751606462	2.7045677	1.644557
30.677643495132074	2.734308	1.6535743
30.695818029294152	2.7101314	1.6462476
30.713993354653116	2.6881955	1.6395718
30.73216947176962	2.681794	1.6376184
30.75034638120448	2.6467667	1.6268886
30.768524083518756	2.6844528	1.63843
30.786702579273673	2.7822957	1.6680214
30.80488186903069	2.8529334	1.6890628
30.82306195335144	2.9768221	1.7253469
30.841242832797782	3.1906786	1.786247
30.85942450793176	3.5154176	1.8749447
30.877606979315637	3.8082414	1.9514716
30.895790247511883	4.120688	2.0299478
30.913974313083134	4.484025	2.1175516
30.932159176592283	4.84599	2.201361
30.95034483860237	4.9087596	2.215572
30.968531299676698	4.715058	2.1714184
30.98671856037873	4.4929876	2.1196668
31.00490662127215	4.0600133	2.0149474
31.023095482920848	3.5268054	1.877979
31.04128514588892	3.084711	1.7563345
31.059475610740662	2.7902224	1.6703959
31.07766687804056	2.5490274	1.5965674
31.09585894835335	2.4888005	1.5775933
31.11405182224393	2.508176	1.5837222
31.132245500277417	2.519191	1.587196
31.15043998301914	2.492556	1.5787832
31.168635271034628	2.5024607	1.5819168
31.18683136488964	2.4638708	1.5696722
31.20502826515008	2.4264748	1.5577146
31.223225972382135	2.4255412	1.5574149
31.241424487152155	2.467795	1.5709217
31.259623810026692	2.4934518	1.5790668
31.27782394157253	2.5018964	1.5817384
31.296024882356644	2.4958625	1.5798299
31.314226632946237	2.5243185	1.5888104
31.332429193908684	2.5313458	1.5910203
31.350632565811598	2.4717894	1.5721925
31.368836749222787	2.4524632	1.5660342
31.387041744710295	2.532399	1.5913513
31.40524755284232	2.5785341	1.6057814
31.423454174187317	2.5567002	1.5989685
31.441661609313922	2.5713718	1.6035497
31.459869858791002	2.5748994	1.6046493
31.478078923187628	2.4789782	1.5744771
31.496288803073064	2.336144	1.528445
31.514499499016807	2.3273861	1.5255773
31.532711011588546	2.3680518	1.5388476
31.550923341358178	2.3527732	1.5338752
31.56913648889584	2.3031383	1.5176094
31.587350454771844	2.3255045	1.5249605
31.605565239556732	2.3963587	1.5480176
31.62378084382127	2.4310725	1.5591897
31.641997268136382	2.3794568	1.5425488
31.660214513073274	2.3359184	1.5283712
31.67843257920331	2.339397	1.5295087
31.6966514670981	2.3411205	1.5300721
31.71487117732944	2.3179615	1.5224853
31.733091710469346	2.321877	1.5237707
31.751313067090052	2.3097565	1.5197883
31.769535247764008	2.2981029	1.5159495
31.787758253063878	2.2682996	1.5060875
31.805982083562526	2.2844386	1.511436
31.824206739833024	2.2949722	1.5149165
31.84243222244869	2.2492542	1.4997513
31.860658531983013	2.22708	1.4923404
31.878885669009737	2.2542744	1.5014241
31.897113634102784	2.212815	1.4875534
31.91534242783632	2.1949482	1.4815358
31.933572050784694	2.2168534	1.4889101
31.951802503522508	2.2447243	1.4982404
31.970033786624548	2.3185768	1.5226873
31.988265900665834	2.3226914	1.5240378
32.006498846221575	2.3109372	1.5201766
32.02473262386724	2.1622534	1.4704603
32.04296723417845	2.1021206	1.4498692
32.0612026777311	2.1396065	1.4627393
32.07943895510129	2.162634	1.4705896
32.097676066865304	2.170878	1.47339
32.115914013599685	2.155941	1.4683123
32.13415279588115	2.1487207	1.4658515
32.152392414286666	2.1830938	1.4775296
32.1706328693934	2.204483	1.4847502
32.18887416177875	2.160632	1.4699088
32.20711629202032	2.088494	1.4451623
32.225359260695924	2.0644355	1.4368143
32.243603068383614	2.0923107	1.4464822
32.26184771566166	2.1450372	1.4645945
32.28009320310852	2.1893222	1.4796358
32.2983395313029	2.2260025	1.4919794
32.31658670082372	2.2464538	1.4988174
32.33483471225012	2.18872	1.4794323
32.35308356616143	2.103037	1.4501852
32.371333263137245	2.1560576	1.468352
32.38958380375734	2.1751802	1.4748492
32.407835188601744	2.1771827	1.4755279
32.42608741825067	2.0793002	1.4419779
32.444340493284585	2.0533915	1.432966
32.46259441428416	2.0433712	1.4294654
32.48084918183028	2.0758245	1.4407722
32.49910479650405	2.0144694	1.41932
32.51736125888683	2.0317006	1.4253774
32.53561856956014	2.067978	1.4380466
32.5538767291058	2.1300983	1.4594857
32.572135738105764	2.156386	1.4684638
32.59039559714228	2.1174777	1.4551555
32.608656306797776	2.0430548	1.4293547
32.62691786765491	1.9921244	1.4114264
32.645180280296586	1.9435363	1.3941077
32.663443545305896	1.9782232	1.4064932
32.68170766326619	1.9674475	1.4026573
32.69997263476099	1.9952434	1.4125309
32.7182384603741	2.013251	1.4188908
32.7365051406895	2.046393	1.4305218
32.75477267629144	2.0360577	1.4269049
32.77304106776434	2.120168	1.4560796
32.79131031569289	2.0954664	1.4475726
32.809580420661966	2.058357	1.4346975
32.827851383256714	2.0535069	1.4330063
32.84612320406245	2.0539834	1.4331725
32.86439588366476	2.082836	1.4432033
32.88266942264945	2.049057	1.4314528
32.9009438216025	2.0092933	1.4174955
32.9192190811102	1.9299015	1.3892089
32.937495201758985	1.8859717	1.3733069
32.95577218413556	1.9440888	1.3943058
32.974050028826866	2.041675	1.428872
32.992328736420035	2.0814896	1.4427369
33.010608307502444	2.0358326	1.4268261
33.02888874266169	1.9646149	1.4016472
33.047170042485604	1.981299	1.4075862
33.06545220756225	1.9925115	1.4115635
33.083735238479896	1.9427011	1.3938081
33.10201913582707	1.9753997	1.4054891
33.12030390019248	1.9783418	1.4065354
33.138589532165135	2.000028	1.4142234
33.15687603233419	2.1570501	1.4686899
33.17516340128909	2.1932926	1.4809769
33.19345163961947	2.0825188	1.4430935
33.211740747915215	2.066058	1.4373789
33.23003072676643	2.0863593	1.4444236
33.248321576763466	2.0615668	1.4358157
33.266613298496885	2.006862	1.4166375
33.28490589255747	1.9572668	1.3990235
33.30319935953626	1.9485475	1.3959038
33.32149370002451	1.9318246	1.3899009
33.339788914613706	1.9663492	1.4022658
33.358085003895575	2.0049486	1.4159621
33.376381968462034	2.0122542	1.4185395
33.39467980890529	1.9609362	1.4003344
33.41297852581774	1.9984256	1.4136568
33.43127811979204	1.9771749	1.4061205
33.44957859142105	1.9499626	1.3964106
33.467879941297866	1.9807787	1.4074014
33.486182170015844	1.9843765	1.408679
33.50448527816853	1.9692432	1.4032973
33.522789266349754	1.9289926	1.3888818
33.541094135153514	1.8278179	1.3519682
33.55939988517411	1.8162096	1.3476682
33.57770651700602	1.8233982	1.3503326
33.59601403124398	1.8744304	1.3690984
33.61432242848296	1.8458271	1.3586122
33.632631709318154	1.8338603	1.354201
33.650941874344994	1.9264055	1.3879502
33.66925292415916	1.9780613	1.4064357
33.68756485935654	1.9623454	1.4008374
33.70587768053328	1.8865098	1.3735027
33.724191388285746	1.989233	1.4104017
33.74250598321054	2.0743577	1.440263
33.760821465904506	2.0090928	1.4174247
33.77913783696474	1.9126624	1.3829904
33.79745509698852	1.988917	1.4102896
33.815773246573414	1.9448898	1.394593
33.8340922863172	1.8448266	1.358244
33.852412216817896	1.8616201	1.364412
33.87073303867377	2.042956	1.4293202
33.889054752483304	2.086755	1.4445605
33.907377358845245	1.9803346	1.4072436
33.92570085835853	1.9309227	1.3895764
33.94402525162239	1.9966418	1.4130257
33.96235053923627	2.04527	1.4301294
33.980676721799824	1.9912394	1.4111128
33.999003799912984	2.0241663	1.422732
34.01733177417592	2.079079	1.4419011
34.03566064518901	2.089035	1.4453495
34.0539904135529	2.032937	1.425811
34.07232107986846	1.9140388	1.3834879
34.090652644736785	1.8752396	1.3693938
34.108985108759235	1.8309293	1.3531183
34.12731847253742	1.9419069	1.3935232
34.14565273667313	2.015349	1.4196298
34.16398790176847	2.0383208	1.4276978
34.18232396842574	1.969859	1.4035167
34.20066093724749	1.8798041	1.3710595
34.21899880883651	1.9040598	1.3798767
34.23733758379583	1.8875865	1.3738947
34.25567726272874	1.8645968	1.3655024
34.27401784623872	1.9096226	1.3818909
34.29235933492957	2.0310757	1.4251581
34.31070172940526	2.1206613	1.456249
34.32904503027003	2.1406736	1.4631041
34.347389238128386	2.1668432	1.4720201
34.36573435358502	2.10937	1.4523671
34.38408037724492	1.9639446	1.4014081
34.402427309713296	1.9934229	1.4118863
34.42077515159559	2.145299	1.4646839
34.43912390349752	2.2016401	1.4837924
34.45747356602499	1.9640821	1.4014572
34.47582413978423	1.8369541	1.3553427
34.49417562538163	1.8907882	1.3750594
34.51252802342388	1.9227353	1.3866273
34.53088133451789	1.8968457	1.3772602
34.54923555927084	1.9809641	1.4074672
34.567590698290104	2.080489	1.44239
34.58594675218336	1.9836634	1.4084259
34.6043037215585	1.8525656	1.3610898
34.62266160702365	1.942868	1.393868
34.641020409187234	2.0715523	1.4392889
34.65938012865785	1.9369088	1.3917288
34.677740766044394	1.913719	1.3833723
34.69610232195598	1.9042537	1.379947
34.714464797002016	1.9228113	1.3866547
34.73282819179208	1.9968723	1.4131073
34.751192506936064	2.010066	1.417768
34.76955774304408	1.995342	1.4125657
34.7879239007265	2.0506065	1.4319938
34.80629098059391	1.9924759	1.4115509
34.824658983257194	2.0550566	1.4335469
34.843027909327446	2.017134	1.4202584
34.86139775941603	1.8483188	1.3595289
34.879768534134534	1.9508249	1.3967193
34.89814023409483	2.0763786	1.4409645
34.91651285990901	1.9548732	1.3981678
34.93488641218944	1.8381525	1.3557849
34.95326089154871	1.788331	1.3372849
34.97163629859967	1.7678832	1.3296177
34.99001263395542	1.708019	1.3069121
35.00838989822934	1.6778162	1.2953054
35.02676809203499	1.8190229	1.3487116
35.04514721598624	2.1199713	1.4560121
35.063527270697215	2.073338	1.439909
35.081908256782256	1.9881766	1.4100271
35.10029017485597	2.026976	1.4237192
35.11867302553321	1.962032	1.4007255
35.137056809429104	1.8597205	1.3637156
35.155441527159006	1.9815625	1.4076798
35.173827179338524	2.1686676	1.4726397
35.19221376658354	2.231342	1.4937677
35.21060128951017	2.1569724	1.4686635
35.2289897487348	1.9506731	1.396665
35.24737914487405	1.7865397	1.336615
35.26576947854479	1.925759	1.3877171
35.28416075036418	1.8929667	1.3758513
35.30255296094958	1.8745475	1.3691411
35.32094611091867	1.9176534	1.3847936
35.33934020088932	2.178136	1.4758509
35.35773523147969	2.2391593	1.4963821
35.3761312033082	1.8261681	1.3513578
35.394528116993506	1.8888372	1.3743497
35.41292597315452	2.080493	1.4423914
35.431324772410434	2.1189969	1.4556775
35.449724515380666	2.0057428	1.4162425
35.46812520268491	1.9131731	1.383175
35.486526834943106	2.1836371	1.4777135
35.504929412775454	2.1045225	1.4506972
35.52333293680242	1.7750361	1.3323048
35.54173740764471	1.5260495	1.2353338
35.560142825923286	1.3845203	1.1766564
35.5785491922594	1.4418427	1.2007675
35.59695650727454	1.3645581	1.168143
35.61536477159042	1.1140177	1.0554703
