0.008763373481513119	0.0	0.0
0.026290120649546365	0.0	0.0
0.043816868432600686	0.0	0.0
0.06134361724069026	0.04474922	0.21154012
0.07887036748382949	0.079673424	0.2822648
0.0963971195720331	0.29003826	0.538552
0.11392387391531617	0.2774136	0.5267007
0.1314506309236943	0.2970419	0.5450155
0.1489773910071836	0.22451563	0.47383082
0.16650415457580078	0.1667021	0.4082917
0.18403092203956356	0.11809868	0.3436549
0.20155769380849	0.1170052	0.34206024
0.2190844702925996	0.12555017	0.3543306
0.2366112519019124	0.15293767	0.39107245
0.2541380390464497	0.17559172	0.41903666
0.27166483213623416	0.10956451	0.3310053
0.28919163158128947	0.10201565	0.31939888
0.3067184377916406	0.082933605	0.28798196
0.324245251177314	0.13601665	0.36880437
0.34177207214833777	0.18547246	0.43066514
0.3592989011147415	0.18584158	0.43109345
0.37682573848655654	0.22274029	0.4719537
0.39435258467381573	0.20238999	0.44987774
0.41187944008655414	0.18370415	0.42860723
0.42940630513480854	0.12740004	0.35693142
0.446933180228618	0.100057155	0.31631812
0.4644600657780234	0.099967025	0.3161756
0.48198696219306775	0.108107984	0.3287978
0.49951386988379676	0.12676454	0.3560401
0.5170407892602581	0.12260524	0.35015032
0.5345677207325025	0.116163716	0.34082797
0.5520946647105822	0.15866016	0.3983217
0.5696216216045534	0.19197853	0.43815354
0.5871485918244737	0.17784978	0.4217224
0.6046755757804043	0.1490377	0.386054
0.6222025738824094	0.16994263	0.41224098
0.6397295865405557	0.20091996	0.44824097
0.6572566141649129	0.21742916	0.466293
0.6747836571655547	0.19637209	0.4431389
0.6923107159525568	0.17741445	0.42120594
0.7098377909359992	0.158696	0.39836666
0.7273648825259653	0.16013162	0.40016448
0.7448919911325411	0.14618509	0.3823416
0.762419117165817	0.12868582	0.35872805
0.7799462610358868	0.130506	0.36125612
0.7974734231528482	0.12324933	0.35106882
0.8150006039268024	0.13909215	0.37295058
0.8325278037678551	0.12806047	0.35785538
0.8500550230861152	0.13385649	0.36586404
0.8675822622916969	0.11749358	0.34277335
0.8851095217947171	0.14328931	0.37853575
0.9026368020052984	0.17488237	0.4181894
0.9201641033335665	0.18178299	0.42636016
0.9376914261896523	0.19843912	0.44546506
0.9552187709836915	0.20895475	0.45711568
0.9727461381258234	0.22527838	0.474635
0.990273528026193	0.22711371	0.4765645
1.0078009410949496	0.2417526	0.49168342
1.0253283777422473	0.2466136	0.49660206
1.0428558383782454	0.26346722	0.5132906
1.0603833234131086	0.27968857	0.5288559
1.0779108332570058	0.30024517	0.54794633
1.0954383683201119	0.30016598	0.54787403
1.112965929012607	0.33825627	0.58159804
1.1304935157446763	0.4813805	0.6938159
1.1480211289265108	0.5162218	0.7184858
1.1655487689683062	1.4133382	1.188839
1.1830764362802655	1.6883944	1.2993823
1.200604131272596	2.058708	1.4348198
1.2181318543555117	2.3181648	1.5225521
1.235659605939232	2.372881	1.5404159
1.253187386433982	4.1300397	2.03225
1.270715196249994	6.7470937	2.5975168
1.2882430357975057	12.241714	3.498816
1.3057709054867608	17.011328	4.1244793
1.3232988057280106	22.954163	4.7910504
1.3408267369315112	27.94888	5.2866697
1.358354699507526	31.770685	5.636549
1.3758826938663256	35.796783	5.9830413
1.3934107204181858	37.56347	6.1289043
1.410938779573391	37.610542	6.1327434
1.4284668717422309	38.46216	6.2017865
1.4459949973350033	38.061306	6.1693845
1.4635231567620117	38.28716	6.1876616
1.4810513504335687	37.312843	6.108424
1.4985795787599925	36.827606	6.0685754
1.5161078421516088	36.08471	6.007055
1.5336361410187505	35.292778	5.9407725
1.5511644757717598	34.770847	5.896681
1.5686928468209842	35.389294	5.94889
1.58622125457678	36.295776	6.0245976
1.6037496994495108	37.903343	6.156569
1.621278181849548	38.145756	6.176225
1.6388067021872719	38.702423	6.221127
1.6563352608730693	37.50465	6.124104
1.673863858317336	36.07304	6.0060835
1.6913924949304753	35.38331	5.948387
1.7089211711228998	34.56874	5.879519
1.7264498873050296	34.219345	5.8497305
1.7439786438872935	33.422523	5.7812214
1.7615074412801288	32.31898	5.6849785
1.779036279893981	31.106022	5.577277
1.796565160139305	30.471102	5.5200634
1.814094082426564	30.054468	5.4821954
1.8316230471662298	29.83566	5.462203
1.849152054768784	28.837305	5.3700376
1.8666811056447168	28.146938	5.305369
1.8842102002045273	27.10695	5.206434
1.901739338858724	26.387764	5.1369023
1.9192685220178245	25.620613	5.061681
1.9367977500923557	24.901146	4.9901047
1.9543270234928547	24.660824	4.9659667
1.971856342629867	24.113873	4.910588
1.9893857079139496	23.671427	4.8653293
2.006915119755667	23.379787	4.835265
2.0244445785655945	22.69827	4.7642703
2.0419740847543175	22.281998	4.7203813
2.0595036387324317	21.814615	4.670612
2.0770332409105414	21.411335	4.6272383
2.094562891699263	20.810888	4.5618954
2.1120925915092217	20.209114	4.495455
2.129622340751053	19.561134	4.422797
2.1471521398354043	187.8026	13.704109
2.1646819891729323	444.4603	21.082228
2.182211889174303	440.76636	20.994436
2.1997418402501974	453.15524	21.287443
2.2172718428113023	433.0784	20.810535
2.234801897268317	321.02484	17.917166
2.2523320040319548	17.486578	4.1816955
2.269862163512935	17.10317	4.135598
2.287392376121992	16.933857	4.115077
2.304922642269869	16.615149	4.0761685
2.322452962367322	16.29725	4.0369854
2.3399833368251164	15.708909	3.9634466
2.357513766054032	15.399223	3.9241843
2.3750442504648586	15.135257	3.8904057
2.3925747904683963	15.038376	3.8779345
2.410105386475459	14.896356	3.8595798
2.4276360388968707	14.4917965	3.8068092
2.445166748143469	14.142209	3.760613
2.4626975146261025	13.841177	3.7203732
2.4802283387556323	13.704851	3.7020063
2.4977592209429305	13.515789	3.6763825
2.5152901615988825	13.2183485	3.6357048
2.5328211611343865	12.927239	3.595447
2.5503522199603523	12.729197	3.5678
2.5678833384877024	12.4217	3.5244431
2.5854145171273712	12.229856	3.497121
2.6029457562903064	11.936572	3.4549344
2.620477056387469	11.878797	3.446563
2.6380084178298326	11.704974	3.4212532
2.655539841028383	11.802465	3.4354715
2.673071326394119	11.539771	3.397024
2.6906028743380523	11.187862	3.3448262
2.708134485271211	10.891354	3.300205
2.7256661596046325	10.812451	3.2882292
2.743197897749369	10.7461815	3.278137
2.760729700116486	10.630342	3.2604206
2.778261567117063	10.469671	3.2356873
2.795793499162193	10.413903	3.227058
2.8133254966629817	10.343164	3.216079
2.830857560030551	10.122362	3.181566
2.8483896896760337	9.964967	3.1567335
2.865921886010578	9.765037	3.1249058
2.883454149445347	9.673228	3.1101813
2.9009864803915177	9.582689	3.095592
2.91851887926028	9.436456	3.0718815
2.9360513464628384	9.282724	3.0467563
2.953583882410413	9.124052	3.0206046
2.9711164875142373	8.947584	2.9912512
2.9886491621855606	8.892219	2.9819822
3.0061819068356455	8.685633	2.9471397
3.023714721875769	8.493883	2.9144268
3.041247607717225	8.3646555	2.8921714
3.0587805647713213	8.324105	2.8851526
3.0763135934493806	8.358515	2.8911097
3.0938466941627407	8.31394	2.8833904
3.1113798673227544	8.237471	2.8700993
3.1289131133407904	8.096734	2.8454762
3.1464464326282315	7.9603724	2.8214133
3.1639798255964786	7.9544163	2.8203576
3.1815132926569443	7.8613734	2.8038142
3.1990468342210603	7.9145513	2.8132813
3.216580450700272	7.801141	2.7930522
3.2341141425060416	7.584605	2.7540162
3.251647910049847	7.2396965	2.6906683
3.2691817537431813	7.2101936	2.6851804
3.286715673997555	7.0822787	2.6612551
3.3042496712244938	7.1083093	2.6661413
3.32178374583554	7.046588	2.654541
3.339317898242251	7.0943346	2.6635191
3.3568521288562034	7.006099	2.6469038
3.3743864380889876	6.994837	2.6447754
3.3919208263522127	6.973691	2.6407747
3.4094552940575023	6.813717	2.6103098
3.4269898416164972	6.74354	2.5968328
3.444524469440858	6.550544	2.559403
3.4620591779422587	6.465619	2.5427582
3.479593967532391	6.508706	2.5512166
3.4971288386229658	6.4483786	2.5393658
3.5146637916257086	6.4486547	2.5394201
3.5321988269523628	6.4114585	2.532086
3.5497339450146903	6.478544	2.5452983
3.5672691462244708	6.3777866	2.525428
3.5848044309934988	6.3137383	2.5127153
3.60233979973359	6.249675	2.499935
3.619875252856575	6.4086976	2.5315406
3.6374107907743034	6.4940343	2.5483396
3.6549464138986427	6.343098	2.5185509
3.6724821226414788	6.2262106	2.4952376
3.690017917414714	6.2415423	2.498308
3.7075537986302702	6.368125	2.5235145
3.7250897667000857	6.4502673	2.5397377
3.7426258220361235	6.621971	2.5733192
3.7601619650503553	6.872711	2.6215856
3.777698196154779	7.4070024	2.721581
3.7952345157614067	8.377196	2.8943386
3.8127709242822716	9.181829	3.0301533
3.830307422129425	11.352126	3.3692915
3.847844009714936	30.222988	5.497544
3.8653806874508954	97.78534	9.888647
3.882917455749409	97.05576	9.851688
3.900454315022606	96.8388	9.840671
3.917991265682631	41.394096	6.4338245
3.9355283081416506	11.019836	3.319614
3.9530654428118495	8.880288	2.9799812
3.970602670105433	7.5529795	2.7482684
3.9881399904346244	6.625107	2.5739284
4.005677404211669	6.4860773	2.5467777
4.023214911848827	6.44648	2.538992
4.0407525137583855	6.476377	2.5448728
4.058290210352644	6.432901	2.5363164
4.075828002043927	6.3258214	2.5151186
4.0933658892445814	6.2576613	2.5015318
4.110903872366966	6.297261	2.5094345
4.128441951823468	6.264961	2.5029902
4.145980128026488	6.243979	2.4987955
4.163518401388452	6.223399	2.4946742
4.181056772321807	6.2582355	2.5016465
4.1985952412390155	6.2382407	2.497647
4.216133808552567	6.2483196	2.4996638
4.233672474674966	6.3144484	2.5128567
4.251211240018741	6.4813433	2.5458481
4.268750104996445	6.7333655	2.594873
4.286289070020643	7.63656	2.7634327
4.303828135503928	9.376447	3.0620985
4.3213673018589125	29.602749	5.4408407
4.3389065694982305	90.78921	9.5283375
4.356445938834537	165.96474	12.8827305
4.3739854102805085	171.5965	13.099484
4.391524984248844	172.35635	13.128456
4.409064661152262	136.47972	11.682453
4.426604441403504	96.88093	9.842811
4.444144325415337	76.0227	8.7191
4.461684313600543	22.094622	4.7004914
4.47922440637193	22.373865	4.730102
4.496764604142329	20.65312	4.5445704
4.5143049073245916	18.837843	4.3402586
4.531845316331589	16.61121	4.075685
4.5493858315762195	13.832389	3.719192
4.566926453471405	11.427755	3.3804963
4.584467182430081	9.4349575	3.0716376
4.602008018865218	8.276239	2.8768454
4.619548963189798	7.6376886	2.7636368
4.637090015816834	7.161961	2.676184
4.654631177159353	6.8993697	2.626665
4.672172447630417	6.5372505	2.5568047
4.689713827643102	6.2564783	2.5012953
4.7072553176105085	6.0113554	2.4518065
4.724796917945764	5.9609456	2.4415047
4.742338629062015	5.9595327	2.4412155
4.759880451372434	5.917984	2.4326906
4.777422385290215	5.7712555	2.4023438
4.794964431228581	5.67171	2.3815353
4.812506589600768	5.6779056	2.3828356
4.830048860820047	5.664374	2.3799944
4.847591245299709	5.660091	2.3790946
4.8651337434530655	5.6181555	2.3702648
4.882676355693457	5.54688	2.3551815
4.900219082434242	5.5533123	2.3565466
4.917761924088813	5.5779595	2.3617704
4.935304881070575	5.6442266	2.3757582
4.952847953792969	5.770192	2.4021225
4.970391142669449	5.773393	2.4027886
4.9879344481135055	5.7237597	2.392438
5.005477870538642	5.611874	2.3689394
5.023021410358394	5.5066023	2.346615
5.040565067986324	5.4538035	2.3353379
5.05810884383601	5.461427	2.3369696
5.075652738321066	5.483835	2.341759
5.09319675185512	5.5036917	2.3459947
5.110740884851836	5.504341	2.3461332
5.128285137724894	5.4664874	2.338052
5.145829510888007	5.3947296	2.3226557
5.163374004754908	5.43515	2.3313408
5.1809186197393595	5.3696637	2.3172536
5.198463356255145	5.3419957	2.3112757
5.216008214716077	5.3700523	2.3173373
5.233553195535998	5.40042	2.3238804
5.251098299128764	5.4386015	2.3320808
5.268643525908272	5.3985043	2.3234682
5.286188876288432	5.38013	2.3195107
5.3037343506831895	5.3553042	2.314153
5.32127994950651	5.3247585	2.3075438
5.3388256731723915	5.2490816	2.2910874
5.356371522094851	5.1985493	2.2800326
5.373917496687938	5.1509094	2.2695615
5.391463597365729	5.0941544	2.2570233
5.40900982454232	5.0811095	2.2541316
5.426556178631843	5.041655	2.245363
5.444102660048449	5.0044947	2.2370727
5.4616492692063225	5.052519	2.2477808
5.479196006519669	5.1560698	2.270698
5.496742872402727	5.19629	2.2795372
5.514289867269756	5.2056036	2.2815793
5.531836991535049	5.1891794	2.277977
5.549384245612924	5.2614546	2.293786
5.566931629917724	5.3117247	2.304718
5.584479144863822	5.3248262	2.3075585
5.6020267908656205	5.2320986	2.287378
5.619574568337545	5.166009	2.2728856
5.637122477694054	5.1794777	2.2758465
5.654670519349629	5.275142	2.2967677
5.672218693718784	5.2858696	2.2991018
5.689767001216059	5.257464	2.292916
5.707315442256021	5.2303514	2.2869961
5.724864017253266	5.2509637	2.2914982
5.7424127266224225	5.3387504	2.3105736
5.75996157077814	5.3469744	2.3123527
5.777510550135105	5.3332825	2.30939
5.795059665108022	5.2173543	2.2841527
5.812608916111639	5.2410784	2.2893403
5.830158303560715	5.387796	2.3211627
5.847707827870055	5.4060946	2.325101
5.86525748945448	5.415644	2.3271537
5.8828072887288485	5.4770584	2.3403115
5.900357226108044	5.5232577	2.3501613
5.917907302006979	5.597198	2.3658397
5.9354575168406	6.22986	2.4959688
5.9530078710238765	6.8913713	2.625142
5.970558364971812	7.4912353	2.7370121
5.988108999099438	7.7940216	2.7917776
6.005659773821818	8.179261	2.8599408
6.023210689554039	7.944625	2.8186212
6.040761746711227	8.353895	2.8903105
6.058312945708531	7.768912	2.7872767
6.075864286961132	7.3566403	2.7123127
6.093415770884244	6.72609	2.5934706
6.1109673978931065	6.219231	2.4938385
6.128519168402993	5.612163	2.3690004
6.146071082829204	5.446808	2.3338397
6.163623141587075	5.3154135	2.3055182
6.181175345091969	5.220702	2.2848856
6.198727693759281	5.2182055	2.2843392
6.216280188004435	5.140871	2.267349
6.233832828242885	5.115968	2.2618506
6.251385614890126	5.1624513	2.2721028
6.268938548361669	5.1380663	2.2667303
6.286491629073067	5.183119	2.2766464
6.304044857439898	5.181341	2.2762558
6.321598233877777	5.156201	2.270727
6.339151758802344	5.0733285	2.252405
6.356705432629277	5.0317435	2.2431548
6.37425925577428	4.996769	2.2353454
6.391813228653095	5.017565	2.2399921
6.409367351681486	5.0515985	2.2475762
6.426921625275259	5.0751553	2.2528105
6.44447604985025	5.0930862	2.2567868
6.46203062582232	5.048449	2.2468753
6.47958535360737	4.9738817	2.23022
6.497140233621328	5.012144	2.238782
6.514695266280161	5.0798044	2.253842
6.532250451999859	5.1424665	2.2677007
6.549805791196454	5.1298156	2.2649095
6.567361284286002	5.106227	2.2596962
6.584916931684597	5.07205	2.2521212
6.602472733808367	5.0772243	2.2532697
6.6200286910734665	5.0621223	2.249916
6.637584803896092	5.0689683	2.251437
6.655141072692462	5.0638547	2.2503011
6.672697497878842	5.0078034	2.2378123
6.690254079871514	4.905709	2.2148836
6.707810819086808	4.9152794	2.217043
6.725367715941078	4.94349	2.223396
6.742924770850719	4.9519806	2.2253046
6.760481984232151	4.9514666	2.2251892
6.778039356501836	5.0117006	2.2386827
6.795596888076266	5.0896907	2.2560344
6.813154579371963	5.1573195	2.2709732
6.830712430805492	5.124727	2.2637858
6.84827044279344	5.088127	2.2556877
6.865828615752445	5.078893	2.25364
6.883386950099159	5.047052	2.2465644
6.900945446250287	5.067163	2.251036
6.918504104622553	5.1285152	2.2646224
6.936062925632727	5.1052084	2.259471
6.953621909697607	5.0893903	2.2559676
6.971181057234028	5.121266	2.2630215
6.988740368658859	5.1319733	2.2653859
7.006299844389007	5.2005243	2.2804658
7.023859484841407	5.234147	2.2878258
7.041419290433036	5.313877	2.3051848
7.058979261580902	5.4273953	2.329677
7.0765393987020495	5.637561	2.3743548
7.094099702213559	6.069721	2.4636805
7.111660172532549	6.4539833	2.5404692
7.129220810076164	6.8188467	2.6112921
7.146781615261595	7.3433433	2.7098603
7.16434258850606	7.5107584	2.7405763
7.181903730226821	8.016243	2.8312972
7.1994650408411704	8.210843	2.8654568
7.217026520766437	8.398882	2.8980825
7.234588170419983	8.709178	2.9511316
7.252149990219215	8.604088	2.9332726
7.269711980581568	8.442704	2.9056332
7.2872741419245175	8.20262	2.8640215
7.304836474665574	7.8038707	2.793541
7.322398979222286	7.556875	2.7489772
7.339961656012233	7.367402	2.7142959
7.357524505453039	6.9956408	2.6449273
7.375087527962357	6.690406	2.586582
7.392650723957886	6.3256893	2.5150924
7.410214093857353	5.99143	2.4477398
7.427777638078528	5.7755036	2.4032278
7.445341357039213	5.620825	2.370828
7.4629052511572525	5.529755	2.3515432
7.480469320850524	5.438486	2.3320563
7.498033566536948	5.3825736	2.3200374
7.5155979886344735	5.3004317	2.3022666
7.5331625875610975	5.1932974	2.2788808
7.550727363734844	5.1578603	2.2710924
7.568292317573788	5.1357093	2.2662103
7.585857449496025	5.160451	2.2716625
7.603422759919705	5.15158	2.269709
7.620988249263007	5.226159	2.2860794
7.638553917944147	5.257204	2.2928593
7.656119766381391	5.2462807	2.290476
7.673685794993023	5.232123	2.2873833
7.691252004197388	5.2551017	2.2924008
7.70881839441285	5.327213	2.3080757
7.726384966057826	5.342271	2.3113353
7.743951719550762	5.3486986	2.3127253
7.761518655310149	5.3228226	2.3071244
7.779085773754511	5.329337	2.3085358
7.796653075302419	5.3428397	2.3114583
7.814220560372475	5.388833	2.321386
7.831788229383323	5.3830495	2.32014
7.8493560827536495	5.322342	2.3070202
7.866924120902174	5.2561316	2.2926254
7.884492344247663	5.1977105	2.2798488
7.9020607532089135	5.210971	2.2827551
7.919629348204771	5.284496	2.298803
7.937198129654115	5.3551993	2.3141303
7.954767097975865	5.383795	2.3203006
7.972336253588986	5.4154835	2.327119
7.989905596912472	5.3892145	2.321468
8.007475128365371	5.444377	2.333319
8.025044848366756	5.4521313	2.33498
8.042614757335754	5.622961	2.3712783
8.060184855691523	5.6718163	2.3815575
8.07775514385327	5.858905	2.4205174
8.095325622240228	5.901228	2.4292443
8.112896291271687	6.00232	2.4499633
8.130467151366968	6.0364485	2.4569185
8.148038202945436	6.0343275	2.456487
8.165609446426497	5.979457	2.4452927
8.183180882229594	6.0002246	2.4495356
8.200752510774217	6.044402	2.4585366
8.218324332479893	6.0803165	2.4658298
8.235896347766193	6.1301746	2.475919
8.253468557052724	6.1331854	2.476527
8.27104096075914	6.086886	2.4671614
8.288613559305137	6.0920367	2.4682052
8.306186353110448	6.1090846	2.4716563
8.32375934259485	6.21283	2.492555
8.341332528178162	6.2605515	2.5021093
8.358905910280246	6.3238187	2.5147204
8.376479489321003	6.304024	2.5107815
8.394053265720377	6.356221	2.5211546
8.411627239898356	6.3445787	2.5188448
8.42920141227497	6.388843	2.527616
8.44677578327029	6.3984723	2.5295203
8.464350353304427	6.3597836	2.521861
8.48192512279754	6.2617836	2.5023556
8.499500092169827	6.185247	2.4870157
8.51707526184153	6.164416	2.482824
8.534650632232934	6.183294	2.486623
8.552226203764365	6.173393	2.4846313
8.569801976856192	6.2251873	2.4950325
8.587377951928834	6.2667356	2.5033448
8.60495412940274	6.3636446	2.5226266
8.622530509698416	6.389397	2.5277257
8.6401070932364	6.5120254	2.551867
8.657683880437283	6.569229	2.5630507
8.675260871721695	6.669296	2.582498
8.692838067510303	6.8418097	2.6156852
8.710415468223834	6.994203	2.6446555
8.727993074283043	7.1684036	2.6773875
8.745570886108737	7.2266617	2.688245
8.763148904121765	7.28758	2.6995518
8.78072712874302	7.24438	2.6915386
8.798305560393441	7.4635468	2.7319493
8.815884199494006	7.6677747	2.7690747
8.833463046465745	7.8628664	2.8040802
8.851042101729728	7.9759526	2.824173
8.86862136570707	8.264867	2.8748682
8.886200838818924	8.497259	2.915006
8.903780521486505	8.615976	2.9352984
8.921360414131055	8.725028	2.953816
8.938940517173874	8.762249	2.9601097
8.956520831036297	8.870638	2.9783616
8.97410135613971	9.08381	3.013936
8.99168209290554	9.277696	3.045931
9.009263041755265	9.609706	3.0999525
9.026844203110405	9.781526	3.127543
9.044425577392525	9.9024	3.146808
9.062007165023239	9.927384	3.1507752
9.079588966424197	10.14569	3.18523
9.097170982017108	10.303008	3.2098298
9.11475321222372	11.233877	3.3516977
9.132335657465825	12.173712	3.4890847
9.149918318165264	12.277333	3.5039027
9.167501194743924	12.95604	3.59945
9.18508428762374	12.6463175	3.5561662
9.202667597226693	12.670968	3.5596304
9.220251123974803	12.297413	3.5067668
9.237834868290143	11.96523	3.4590793
9.255418830594836	11.718899	3.4232876
9.273003011311046	11.267629	3.3567288
9.290587410860985	11.127466	3.3357856
9.308172029666911	10.598099	3.2554722
9.32575686815113	10.285522	3.207105
9.343341926735997	8.971944	2.9953203
9.360927205843916	8.666166	2.9438353
9.378512705897327	8.402895	2.8987746
9.396098427318728	8.165576	2.8575473
9.413684370530664	8.1181	2.849228
9.431270535955722	8.114081	2.8485227
9.448856924016539	8.076245	2.8418736
9.466443535135806	7.928291	2.815722
9.484030369736251	7.8667297	2.804769
9.501617428240658	7.902699	2.811174
9.519204711071852	7.956222	2.8206775
9.536792218652714	7.9811516	2.8250933
9.55437995140617	8.00828	2.8298905
9.571967909755191	8.022765	2.8324487
9.589556094122802	7.9647737	2.8221931
9.60714450493207	7.9540286	2.8202887
9.624733142606116	7.900605	2.8108015
9.642322007568108	7.943292	2.8183846
9.659911100241267	8.003866	2.8291104
9.677500421048851	8.065029	2.8398995
9.695089970414175	8.057245	2.8385286
9.712679748760609	8.13044	2.8513925
9.730269756511557	8.131884	2.8516457
9.747859994090492	8.197882	2.8631942
9.765450461920915	8.225787	2.8680632
9.78304116042639	8.225356	2.867988
9.800632090030527	8.25824	2.8737154
9.81822325115699	8.333519	2.8867836
9.835814644229481	8.384756	2.8956444
9.853406269671762	8.450849	2.9070344
9.870998127907646	8.479811	2.9120114
9.888590219360985	8.386647	2.8959708
9.906182544455698	8.36638	2.8924694
9.923775103615734	8.354066	2.89034
9.941367897265108	8.411317	2.900227
9.958960925827878	8.410337	2.9000583
9.97655418972816	8.453757	2.9075346
9.994147689390106	8.4844055	2.9128003
10.011741425237934	8.464822	2.9094367
10.029335397695904	8.437154	2.9046779
10.04692960718833	8.303941	2.881656
10.06452405413958	8.298963	2.880792
10.082118738974064	8.33708	2.8874002
10.099713662116246	8.327799	2.8857925
10.117308823990651	8.296715	2.8804018
10.134904225021844	8.214202	2.8660429
10.152499865634445	8.211363	2.8655477
10.170095746253125	8.225886	2.8680806
10.18769186730261	8.226396	2.8681693
10.205288229207675	8.208154	2.8649876
10.222884832393145	8.237863	2.8701677
10.2404816772839	8.16585	2.8575952
10.258078764304868	8.135896	2.852349
10.275676093881035	8.123512	2.8501775
10.293273666437438	8.061542	2.8392854
10.310871482399158	8.15622	2.8559098
10.32846954219134	8.187416	2.861366
10.346067846239173	8.22257	2.8675025
10.363666394967908	8.185711	2.8610682
10.38126518880283	8.161384	2.8568134
10.398864228169298	8.218823	2.866849
10.416463513492713	8.280875	2.877651
10.434063045198531	8.271286	2.8759844
10.451662823712262	8.272489	2.8761935
10.469262849459467	8.299003	2.880799
10.486863122865758	8.272238	2.87615
10.504463644356806	8.224035	2.8677578
10.522064414358338	8.096515	2.8454375
10.539665433296118	7.999695	2.8283732
10.557266701595987	7.9057474	2.811716
10.574868219683818	7.8466535	2.8011878
10.592469987985552	7.7113237	2.776927
10.610072006927185	7.6151643	2.7595587
10.627674276934751	7.4982767	2.7382982
10.64527679843435	7.410765	2.7222722
10.662879571852143	7.3298206	2.707364
10.680482597614331	7.2827597	2.698659
10.698085876147173	7.217777	2.686592
10.715689407876988	7.0955114	2.6637402
10.733293193230146	7.0077724	2.6472197
10.750897232633072	6.9143767	2.6295202
10.76850152651225	6.7940593	2.6065416
10.786106075294207	6.6283584	2.57456
10.803710879405534	6.4987106	2.5492568
10.821315939272877	6.4246583	2.5346909
10.83892125532294	6.3544116	2.5207958
10.856526827982472	6.2482333	2.4996467
10.874132657678285	6.1821556	2.4863942
10.891738744837243	6.1980867	2.4895957
10.909345089886271	6.196674	2.489312
10.926951693252343	6.2271705	2.49543
10.944558555362494	6.157525	2.481436
10.96216567664381	6.0639853	2.462516
10.979773057523436	5.9200788	2.4331212
10.997380698428573	5.866377	2.4220605
11.014988599786477	5.838003	2.416196
11.032596762024461	5.796156	2.4075208
11.050205185569892	5.770331	2.4021513
11.067813870850198	5.7071056	2.3889549
11.085422818292859	5.648131	2.3765798
11.10303202832541	5.55373	2.3566353
11.120641501375454	5.443886	2.3332136
11.138251237870636	5.375801	2.3185773
11.155861238238671	5.3475175	2.31247
11.173471502907317	5.262446	2.294002
11.191082032304402	5.1727853	2.274376
11.208692826857805	5.0677853	2.2511742
11.226303886995465	5.038838	2.2447357
11.243915213145371	5.027626	2.2422369
11.261526805735578	5.0066166	2.237547
11.279138665194196	4.94878	2.2245853
11.296750791949393	4.86647	2.2060077
11.314363186429393	4.807331	2.1925626
11.331975849062479	4.754276	2.1804302
11.34958878027699	4.6880975	2.1652014
11.36720198050133	4.670726	2.1611862
11.384815450163948	4.641588	2.1544344
11.402429189693366	4.6499543	2.1563752
11.420043199518153	4.570202	2.137803
11.437657480066942	63.490288	7.968079
11.455272031768422	85.18032	9.229319
11.472886855051353	107.51363	10.368878
11.490501950344528	99.117355	9.95577
11.508117318076819	84.43882	9.18906
11.52573295867715	45.867207	6.7725334
11.543348872574514	4.225848	2.0556867
11.560965060197946	4.2175384	2.0536647
11.57858152197655	4.1845975	2.0456288
11.59619825833949	4.145456	2.0360394
11.613815269715985	4.074914	2.0186417
11.631432556535323	38.570705	6.2105317
11.649050119226837	83.052444	9.113312
11.666667958219929	93.41539	9.665164
11.68428607394406	107.650024	10.375453
11.701904466828756	82.511475	9.083583
11.719523137303586	65.35946	8.084519
11.737142085798196	4.6061196	2.1461873
11.754761312742286	3.7385652	1.933537
11.772380818565619	3.7160466	1.927705
11.790000603698015	3.711986	1.9266515
11.80762066856935	3.6677308	1.915132
11.825241013609572	3.6268067	1.9044176
11.842861639248683	3.5935493	1.8956659
11.860482545916748	3.5302973	1.8789085
11.878103734043883	3.4712563	1.8631308
11.895725204060282	3.4562392	1.8590963
11.91334695639619	3.4386752	1.8543665
11.930968991481919	3.4458604	1.8563029
11.948591309747824	3.4331515	1.8528765
11.966213911624347	3.3637562	1.8340546
11.98383679754198	3.327039	1.8240173
12.001459967931268	3.2881665	1.8133302
12.019083423222835	3.2696097	1.8082062
12.036707163847352	3.2569473	1.8047014
12.05433119023556	3.2121625	1.7922506
12.071955502818259	3.1723735	1.7811158
12.089580102026313	3.1706986	1.7806456
12.107204988290643	3.146721	1.7738999
12.12483016204224	3.1518548	1.7753464
12.142455623712152	3.1558943	1.7764837
12.16008137373149	3.1946905	1.7873697
12.177707412531431	3.1731281	1.7813276
12.19533374054321	3.1382926	1.7715226
12.212960358198126	3.106047	1.762398
12.230587265927545	3.1011562	1.76101
12.248214464162889	3.1099184	1.763496
12.265841953335649	3.097089	1.7598548
12.283469733877375	3.031052	1.7409917
12.301097806219685	2.9699693	1.7233598
12.31872617079425	2.9520874	1.718164
12.336354828032825	2.9665	1.7223531
12.353983778367205	2.98248	1.7269858
12.371613022229262	3.0023205	1.7327206
12.389242560050928	2.9964848	1.7310357
12.406872392264201	2.9500847	1.717581
12.424502519301143	2.9161744	1.7076811
12.442132941593874	2.8549612	1.689663
12.459763659574586	2.8537593	1.6893073
12.477394673675532	2.8473535	1.6874102
12.49502598432903	2.8234544	1.6803138
12.51265759196746	2.812279	1.6769851
12.530289497023267	2.8268101	1.681312
12.547921699928967	2.873717	1.6952041
12.565554201117134	2.8887246	1.6996248
12.583187001020404	2.858644	1.6907525
12.600820100071486	2.8256273	1.6809603
12.618453498703152	2.8152328	1.6778655
12.636087197348235	2.8368337	1.6842903
12.65372119643964	2.8483431	1.6877035
12.671355496410326	2.8588352	1.690809
12.68899009769333	2.8492272	1.6879654
12.706625000721749	2.8843725	1.698344
12.724260205928752	2.9802957	1.7263533
12.741895713747551	3.000122	1.7320861
12.759531524611454	3.0235255	1.7388288
12.777167638953818	2.958766	1.7201064
12.794804057208072	2.9757519	1.7250367
12.812440779807702	3.0460567	1.7452956
12.830077807186271	3.2598891	1.8055164
12.847715139777405	3.2980752	1.8160603
12.865352778014795	3.491009	1.8684242
12.882990722332197	3.5550673	1.8854886
12.90062897316344	3.665164	1.9144619
12.918267530942412	3.69958	1.9234293
12.935906396103071	3.568517	1.8890519
12.953545569079449	3.760806	1.9392798
12.971185050305628	3.64758	1.9098638
12.988824840215775	3.6844733	1.9194982
13.006464939244115	3.6512094	1.9108138
13.024105347824943	3.490235	1.8682171
13.041746066392617	3.5890205	1.894471
13.05938709538157	3.3820171	1.8390261
13.077028435226296	3.362233	1.8336393
13.094670086361363	3.2575967	1.8048813
13.112312049221401	3.1976252	1.7881905
13.129954324241112	3.1276078	1.7685044
13.147596911855258	2.9174943	1.7080674
13.165239812498685	2.9063249	1.7047946
13.182883026606293	2.8636746	1.6922395
13.200526554613058	2.808695	1.6759162
13.218170396954017	2.7486658	1.6579101
13.235814554064284	2.6878488	1.639466
13.253459026379034	2.695247	1.6417208
13.271103814333523	2.7480192	1.6577151
13.288748918363058	2.7497249	1.6582295
13.306394338903031	2.713717	1.6473364
13.32404007638889	2.6584296	1.6304691
13.341686131256164	2.6860933	1.6389306
13.359332503940449	2.6947432	1.6415672
13.376979194877402	2.706238	1.6450647
13.394626204502751	2.7255666	1.650929
13.412273533252307	2.7415073	1.6557498
13.429921181561937	2.7483888	1.6578265
13.447569149867581	2.7621067	1.6619587
13.465217438605247	2.779039	1.667045
13.482866048211022	2.7708147	1.6645764
13.500514979121052	2.756366	1.6602308
13.518164231771568	2.771367	1.6647424
13.535813806598844	2.7480927	1.6577373
13.553463704039254	2.7388134	1.6549361
13.571113924529229	2.7313101	1.6526675
13.588764468505275	2.7565503	1.6602862
13.606415336403956	2.7554128	1.6599436
13.624066528661917	2.7668364	1.663381
13.641718045715882	2.8107798	1.676538
13.659369888002635	2.834931	1.6837254
13.67702205595903	2.8537524	1.6893053
13.694674550021993	2.9228945	1.7096474
13.712327370628532	2.999238	1.7318308
13.729980518215713	3.1090932	1.763262
13.747633993220681	3.2270322	1.7963942
13.765287796080647	3.3025856	1.8173018
13.7829419272329	3.362446	1.8336973
13.800596387114801	3.38118	1.8387985
13.818251176163775	3.3446426	1.8288364
13.835906294817324	3.3634877	1.8339814
13.853561743513023	3.365383	1.834498
13.871217522688525	3.4190817	1.8490759
13.888873632781538	3.472704	1.8635192
13.906530074229858	3.496414	1.8698701
13.92418684747135	3.524804	1.8774462
13.941843952943948	3.4880545	1.8676333
13.959501391085665	3.4827616	1.8662158
13.977159162334578	3.4379966	1.8541836
13.994817267128846	3.3731709	1.8366194
14.012475705906693	3.2863803	1.8128376
14.030134479106424	3.1973636	1.7881173
14.047793587166414	3.17727	1.7824898
14.065453030525108	3.1145055	1.7647961
14.083112809621026	3.029505	1.7405473
14.100772924892766	2.9868586	1.728253
14.118433376778997	2.931793	1.712248
14.136094165718458	2.8749785	1.6955762
14.153755292149969	2.8173535	1.6784974
14.171416756512416	2.7458177	1.6570508
14.189078559244768	2.7153986	1.6478467
14.20674070078606	2.6576457	1.6302288
14.224403181575408	2.5859478	1.6080883
14.242066002051999	2.5206084	1.5876424
14.259729162655093	2.4547472	1.5667633
14.277392663824022	2.44853	1.564778
14.295056505998208	2.4085462	1.5519491
14.312720689617128	2.421221	1.5560273
14.330385215120348	2.424975	1.5572331
14.348050082947497	2.4349022	1.5604173
14.3657152935383	2.4466617	1.5641809
14.383380847332528	2.4796712	1.5746971
14.401046744770051	2.464762	1.5699561
14.418712986290798	2.4080558	1.5517912
14.436379572334793	2.3806827	1.5429461
14.454046503342123	2.359687	1.5361273
14.471713779752946	2.371355	1.5399204
14.489381402007504	2.3763366	1.541537
14.507049370546113	2.4067864	1.5513821
14.524717685809168	2.4456658	1.5638624
14.542386348237134	2.4498959	1.5652143
14.560055358270553	2.4266636	1.5577753
14.577724716350051	2.4466774	1.5641859
14.595394422916325	2.448191	1.5646696
14.61306447841015	2.5122707	1.5850145
14.63073488327237	2.5389931	1.5934218
14.648405637943917	2.555805	1.5986885
14.6660767428658	2.5209188	1.5877402
14.683748198479094	2.512637	1.58513
14.701420005224954	2.5471356	1.5959748
14.719092163544628	2.5990405	1.612154
14.73676467387942	2.678684	1.6366686
14.754437536670727	2.7408311	1.6555456
14.772110752360014	2.776168	1.6661837
14.78978432138882	2.7565727	1.660293
14.807458244198777	2.729879	1.6522346
14.82513252123159	2.6869144	1.639181
14.842807152929028	2.7000687	1.6431886
14.860482139732962	2.674305	1.6353302
14.87815748208531	2.6679997	1.6334013
14.8958331804281	2.6476502	1.6271602
14.91350923520342	2.628145	1.6211555
14.931185646853438	2.665614	1.6326708
14.948862415820408	2.682524	1.6378412
14.966539542546656	2.6925979	1.6409137
14.98421702747459	2.6370726	1.6239066
15.001894871046696	2.6490328	1.6275849
15.019573073705542	2.6724677	1.6347684
15.037251635893766	2.7205791	1.6494179
15.054930558054092	2.7369034	1.6543589
15.072609840629323	2.7855268	1.6689898
15.090289484062351	2.9229188	1.7096546
15.107969488796124	3.1691759	1.7802179
15.125649855273691	3.5187356	1.8758293
15.14333058393817	3.9693956	1.9923342
15.161011675232768	4.93153	2.2207048
15.17869312960076	6.3488126	2.519685
15.196374947485506	8.306861	2.8821626
15.214057129330447	11.435813	3.3816879
15.231739675579114	16.133415	4.016642
15.249422586675102	21.067356	4.589919
15.267105863062092	24.101719	4.90935
15.284789505183847	24.23307	4.9227095
15.302473513484218	22.060135	4.6968217
15.320157888407127	18.53269	4.304961
15.337842630396578	14.4849825	3.8059142
15.355527739896656	11.308459	3.3628054
15.37321321735153	8.768737	2.9612052
15.39089906320545	6.459084	2.541473
15.408585277902748	4.8914247	2.2116566
15.42627186188783	3.809958	1.9519113
15.443958815605198	3.2373087	1.7992523
15.461646139499424	2.9246767	1.7101686
15.479333834015168	2.78563	1.6690207
15.497021899597165	2.713618	1.6473063
15.514710336690234	2.6626923	1.6317759
15.53239914573928	2.6207829	1.6188833
15.550088327189297	2.5983145	1.6119288
15.567777881485336	2.564129	1.6012899
15.58546780907256	2.5410445	1.5940654
15.6031581103962	2.5210536	1.5877826
15.620848785901568	2.4683015	1.571083
15.638539836034063	2.471395	1.5720671
15.656231261239173	2.4800446	1.5748158
15.673923061962451	2.4714768	1.5720931
15.691615238649552	2.4754064	1.5733424
15.709307791746202	2.4142883	1.553798
15.727000721698221	2.418702	1.5552176
15.744694028951498	2.3954725	1.5477314
15.76238771395202	2.397278	1.5483146
15.780081777145844	2.4106994	1.5526427
15.797776218979125	2.4032178	1.5502316
15.815471039898094	2.3614826	1.5367116
15.833166240349064	2.3504767	1.5331265
15.850861820778437	2.3551471	1.5346489
15.868557781632699	2.3668182	1.5384467
15.886254123358412	2.3405344	1.5298805
15.903950846402232	2.3560328	1.5349374
15.921647951210897	2.380364	1.5428429
15.939345438231225	2.3999107	1.5491645
15.957043307910133	2.3904457	1.5461066
15.974741560694602	2.3886762	1.5455343
15.992440197031714	2.3786583	1.54229
16.01013921736862	2.3887022	1.5455427
16.02783862215259	2.388843	1.5455883
16.045538411830933	2.4090357	1.5521069
16.06323858685107	2.3936799	1.5471522
16.080939147660512	2.3956468	1.5477877
16.09864009470684	2.3956997	1.5478048
16.11634142843774	2.4255722	1.5574249
16.134043149300954	2.4623544	1.5691891
16.15174525774433	2.4410362	1.5623816
16.169447754215817	2.4508069	1.5655053
16.18715063916342	2.4349558	1.5604345
16.204853913035244	2.4692183	1.5713747
16.222557576279478	2.4380245	1.5614175
16.240261629344403	22.402075	4.7330832
16.257966072678386	42.940933	6.552933
16.275670906729868	38.072773	6.170314
16.293376131947387	2.5192554	1.5872163
16.31108174877957	2.5563927	1.5988723
16.328787757675133	2.5856667	1.6080009
16.34649415908287	2.6119874	1.6161644
16.364200953451657	2.6199706	1.6186323
16.38190814123048	2.622656	1.6194617
16.39961572286839	2.679553	1.636934
16.41732369881455	2.7202857	1.6493288
16.43503206951817	2.745344	1.6569079
16.45274083542859	2.7384834	1.6548364
16.47044999699522	2.7744877	1.6656793
16.488159554667558	2.8415189	1.6856805
16.505869508895184	2.9035714	1.7039869
16.523579860127786	2.9625058	1.7211932
16.541290608815117	2.9640298	1.7216358
16.559001755407035	2.991509	1.7295979
16.57671330035348	3.0324774	1.741401
16.59442524410448	3.0914657	1.7582564
16.61213758711015	3.176478	1.7822677
16.629850329820705	3.2251735	1.7958767
16.647563472686436	3.318531	1.8216835
16.665277016157724	3.3941925	1.8423334
16.682990960685053	3.4799533	1.8654633
16.70070530671898	3.5325694	1.879513
16.718420054710155	3.5699792	1.8894389
16.736135205109335	3.5961442	1.8963503
16.753850758367335	3.6088986	1.8997102
16.771566714935087	3.6483996	1.9100784
16.789283075263597	3.707034	1.9253659
16.80699983980398	3.78483	1.945464
16.82471700900741	3.8716521	1.9676514
16.84243458332518	3.9418662	1.9854133
16.860152563208665	4.043233	2.0107791
16.87787094910932	4.068905	2.0171525
16.89558974147871	4.111311	2.0276368
16.913308940768466	4.197836	2.0488622
16.931028547430333	4.3097954	2.0760047
16.94874856191613	4.376268	2.091953
16.966468984677785	4.4508877	2.1097126
16.98418981616729	4.477538	2.1160195
17.00191105683676	4.5234256	2.1268346
17.019632707138374	4.590423	2.1425273
17.03735476752442	4.545739	2.1320739
17.05507723844728	4.528145	2.1279438
17.072800120359403	4.518969	2.1257868
17.090523413713353	4.575097	2.1389477
17.108247118961785	4.6224384	2.1499858
17.125971236557437	4.643741	2.1549342
17.143695766953133	4.678473	2.1629777
17.161420710601806	4.6598344	2.158665
17.179146067956477	4.694776	2.1667433
17.19687183947025	4.7335153	2.1756644
17.21459802559634	4.76326	2.1824894
17.232324626788028	4.719244	2.172382
17.25005164349871	4.6882563	2.1652381
17.267779076181863	4.716694	2.1717951
17.285506925291074	4.6591763	2.1585126
17.30323519127999	4.6185846	2.1490893
17.320963874602384	4.600758	2.1449378
17.33869297571211	4.6018467	2.1451914
17.356422495063114	4.5742364	2.1387465
17.37415243310944	4.550956	2.133297
17.391882790305218	4.5292163	2.1281955
17.40961356710468	4.501001	2.1215563
17.42734476396215	4.4953856	2.1202323
17.445076381332044	4.513413	2.1244795
17.462808419668868	4.529986	2.1283762
17.48054087942723	4.6333876	2.1525304
17.498273761061835	4.8970885	2.2129366
17.51600706502747	5.395545	2.3228312
17.533740791779024	6.1389146	2.4776833
17.551474941771485	7.654543	2.7666845
17.56920951545993	8.770677	2.9615328
17.586944513299528	10.952403	3.3094416
17.60467993574556	12.527829	3.5394673
17.622415783253373	14.178662	3.7654564
17.64015205627843	15.503782	3.9374843
17.657888755276293	16.586823	4.0726924
17.675625880702604	17.086412	4.1335716
17.69336343301311	16.911901	4.112408
17.71110141266366	16.17355	4.021635
17.728839820110178	15.265784	3.9071453
17.746578655808705	14.37625	3.7916026
17.764317920215372	12.952162	3.5989113
17.7820576137864	11.427117	3.3804018
17.79979773697811	9.380638	3.0627828
17.81753829024692	7.530653	2.7442036
17.835279274049356	5.8643565	2.4216433
17.85302068884201	4.8655124	2.2057908
17.870762535081607	4.2094846	2.0517027
17.888504813224934	3.9160135	1.978892
17.90624752372891	3.7330017	1.9320978
17.923990667050536	3.6097486	1.8999338
17.941734243646895	3.5062268	1.8724921
17.959478253975185	3.4646478	1.8613564
17.9772226984927	3.4505277	1.8575596
17.994967577656833	3.4204042	1.8494334
18.01271289192506	3.4279854	1.8514819
18.030458641754965	3.4297702	1.8519639
18.04820482760425	3.3690863	1.835507
18.06595144993067	3.3273442	1.824101
18.083698509192125	3.2757907	1.8099146
18.101446005846576	3.277094	1.8102745
18.119193940352105	3.2948992	1.8151858
18.136942313166887	3.3062522	1.8183103
18.1546911247492	3.2693572	1.8081363
18.1724403755574	3.1870613	1.7852342
18.19019006604997	3.1520493	1.7754011
18.207940196685467	3.1237085	1.7674016
18.225690767922575	3.1597512	1.7775689
18.243441780220046	3.1505556	1.7749804
18.261193234036764	3.0894988	1.757697
18.278945129831676	3.0905764	1.7580035
18.29669746806386	3.1107564	1.7637336
18.314450249192483	3.1428459	1.7728074
18.3322034736768	3.129403	1.7690119
18.349957141976184	3.0835931	1.7560163
18.3677112545501	3.085045	1.7564297
18.385465811858108	3.0862846	1.7567824
18.403220814359884	3.1055744	1.762264
18.420976262515172	3.1023502	1.761349
18.43873215678387	3.1486425	1.7744415
18.456488497625923	3.2040002	1.7899722
18.474245285501407	3.2407854	1.8002181
18.492002520870486	3.2920609	1.8144038
18.50976020419343	3.3759294	1.8373703
18.527518335930615	3.7643409	1.9401909
18.545276916542516	4.3669868	2.0897336
18.563035946489688	4.5576644	2.1348686
18.580795426232832	5.001613	2.2364287
18.598555356232698	4.860553	2.2046661
18.616315736950185	5.183989	2.2768376
18.63407656884626	4.8095436	2.193067
18.65183785238201	5.0179653	2.2400815
18.669599588018617	4.7304854	2.174968
18.68736177621737	4.753237	2.180192
18.705124417439652	4.788893	2.188354
18.72288751214696	4.6279583	2.151269
18.740651060800886	4.7920036	2.1890645
18.758415063863115	4.4579186	2.1113784
18.77617952179546	4.5865765	2.1416295
18.793944435059814	4.2895126	2.0711138
18.811709804118184	4.309046	2.075824
18.829475629432675	4.24455	2.0602307
18.8472419114655	3.995957	1.998989
18.86500865067897	4.094951	2.0235987
18.88277584753551	3.7766273	1.9433546
18.90054350249763	3.846283	1.9611943
18.918311616027957	3.5214322	1.8765479
18.936080188589226	3.4135091	1.8475684
18.953849220644265	3.0611384	1.7496109
18.971618712656007	2.8859549	1.6988099
18.9893886650875	2.828098	1.681695
19.007159078401887	8.020954	2.832129
19.024929953062408	32.90375	5.7361794
19.042701289532435	32.87406	5.7335906
19.060473088275405	25.428133	5.0426316
19.07824534975489	2.6939695	1.6413317
19.096018074434568	2.6528878	1.6287688
19.113791262778197	2.648438	1.6274022
19.13156491524966	2.6057987	1.6142486
19.149339032312945	2.6064146	1.6144394
19.167113614432136	2.595514	1.6110599
19.184888662071433	2.6170437	1.617728
19.202664175695123	2.587868	1.6086851
19.220440155767623	2.555484	1.5985881
19.238216602753447	2.5348303	1.592115
19.2559935171172	2.5140214	1.5855666
19.27377089932361	2.519693	1.5873541
19.291548749837514	2.5212438	1.5878425
19.309327069123835	2.5198462	1.5874023
19.32710585764763	2.5171015	1.5865376
19.344885115874032	2.4999437	1.5811211
19.362664844268313	2.477268	1.573934
19.380445043295822	2.4668176	1.5706106
19.39822571342203	2.4856904	1.5766072
19.41600685511252	2.499193	1.5808836
19.43378846883297	2.5101948	1.5843594
19.451570555049173	2.487449	1.5771649
19.469353114227037	2.47037	1.5717411
19.48713614683254	2.4864361	1.5768437
19.50491965333182	2.4958205	1.5798166
19.52270363419109	2.522769	1.5883226
19.540488089876686	2.5628476	1.6008897
19.55827302085503	2.5878658	1.6086845
19.576058427592674	2.555113	1.5984721
19.593844310556282	2.5108235	1.5845578
19.611630670212598	2.486183	1.5767634
19.629417507028506	2.4814444	1.57526
19.64720482147098	2.48682	1.5769655
19.6649926140071	2.4926488	1.5788125
19.682780885104084	2.5063999	1.5831614
19.70056963522921	2.493046	1.5789382
19.718358864849908	2.4853163	1.5764886
19.7361485744337	2.4860084	1.5767081
19.753938764448215	2.522075	1.5881042
19.771729435361202	2.5617185	1.600537
19.789520587640506	2.5515893	1.5973694
19.807312221754092	2.555087	1.598464
19.825104338170043	2.5498025	1.5968101
19.842896937356517	2.576488	1.6051443
19.860690019781824	2.5713248	1.603535
19.87848358591436	2.587152	1.6084626
19.896277636222635	2.548765	1.5964851
19.914072171175278	2.5636106	1.6011279
19.931867191241015	2.5248818	1.5889877
19.94966269688869	2.505559	1.5828958
19.967458688587264	2.4480844	1.5646355
19.985255166805807	2.4784122	1.5742973
20.00305213201348	2.4908602	1.5782459
20.020849584679578	2.4775708	1.5740302
20.038647525273507	2.4499736	1.5652392
20.05644595426477	2.4325943	1.5596776
20.07424487212299	2.4348445	1.5603988
20.092044279317903	2.4359496	1.5607529
20.109844176319353	2.449503	1.5650887
20.127644563597304	2.4852905	1.5764804
20.145445441621817	2.5151372	1.5859184
20.16324681086307	2.4976988	1.580411
20.181048671791373	2.4809122	1.5750911
20.198851024877122	2.4494808	1.5650817
20.216653870590836	2.4602437	1.5685164
20.234457209403146	2.4413667	1.5624874
20.252261041784802	2.3960006	1.547902
20.270065368206662	2.3917568	1.5465306
20.287870189139685	2.3695173	1.5393237
20.305675505054968	2.355263	1.5346866
20.323481316423702	2.3640823	1.5375572
20.341287623717207	2.4298892	1.5588102
20.359094427406884	2.4263377	1.5576706
20.376901727964288	2.3960931	1.5479319
20.39470952586107	2.316139	1.5218867
20.41251782156899	2.2961726	1.5153127
20.430326615559935	2.3202505	1.5232369
20.448135908305886	2.329729	1.526345
20.465945700278965	2.3223429	1.5239235
20.483755991951384	2.3170946	1.5222006
20.50156678379548	2.343908	1.5309827
20.519378076283708	2.3493218	1.5327498
20.537189869888635	2.356969	1.5352423
20.55500216508294	2.340015	1.5297108
20.572814962339415	2.333398	1.5275464
20.59062826213098	2.3305411	1.526611
20.60844206493066	2.3311465	1.5268092
20.626256371211593	2.3488925	1.5326097
20.644071181447032	2.350659	1.5331858
20.66188649611036	2.3484914	1.5324788
20.67970231567506	2.3217576	1.5237315
20.697518640614742	2.3147967	1.5214456
20.715335471403122	2.3080633	1.5192312
20.73315280851404	2.3136697	1.5210751
20.750970652421447	2.3159764	1.5218332
20.768789003599412	2.3163257	1.521948
20.786607862522136	2.3068023	1.5188161
20.8044272296639	2.3129005	1.5208223
20.82224710549913	2.285989	1.5119487
20.84006749050237	2.2647355	1.5049038
20.857888385148268	3.8212283	1.9547962
20.8757097899116	45.93665	6.777658
20.893531705267254	64.800575	8.04988
20.911354131690224	83.8077	9.1546545
20.92917706965566	69.066246	8.310611
20.94700051963877	50.119102	7.0794845
20.96482448211493	29.390398	5.4212914
20.982648957559622	4.1476893	2.0365877
21.00047394644843	2.2601714	1.5033866
21.01829944925707	2.2259054	1.4919468
21.036125466461375	2.2017117	1.4838166
21.053951998537297	2.2234268	1.4911159
21.071779045960906	2.251934	1.5006446
21.089606609208378	2.2359953	1.4953245
21.10743468875603	2.1941583	1.4812691
21.12526328508028	2.2182827	1.48939
21.143092398657675	2.2387552	1.496247
21.16092202996488	2.2195807	1.4898257
21.17875217947867	2.205952	1.4852448
21.19658284767596	2.1860766	1.4785386
21.21441403503377	2.1864598	1.4786682
21.232245742029225	2.2266824	1.4922073
21.2500779691396	2.2295785	1.4931773
21.26791071684227	2.2252162	1.4917158
21.28574398561475	2.2150238	1.4882956
21.30357777593465	2.2397394	1.496576
21.321412088279704	2.2173038	1.4890614
21.339246923127792	2.206446	1.485411
21.357082280956888	2.1764338	1.4752741
21.3749181622451	2.1471248	1.465307
21.392754567470647	2.1386812	1.4624231
21.41059149711187	2.1415021	1.4633873
21.42842895164726	2.1502028	1.466357
21.446266931555378	2.1573215	1.4687823
21.464105437314945	2.1718934	1.4737345
21.481944469404798	2.1821146	1.4771982
21.49978402830388	2.1671262	1.4721162
21.51762411449127	2.172256	1.4738575
21.53546472844617	2.1992977	1.4830029
21.553305870647876	2.1965451	1.4820746
21.571147541575865	2.170874	1.4733887
21.58898974170967	2.1365407	1.461691
21.60683247152899	2.115516	1.4544814
21.62467573151363	2.096703	1.4479997
21.642519522143523	2.0696511	1.4386282
21.660363843898722	2.0662978	1.4374622
21.6782086972594	2.0568695	1.4341791
21.696054082705864	2.0318081	1.425415
21.713900000718535	2.0270581	1.4237479
21.73174645177795	2.0220451	1.4219863
21.749593436364794	2.0521698	1.4325396
21.767440954959845	2.04669	1.4306257
21.785289008044032	2.049329	1.4315478
21.803137596098388	2.068423	1.4382013
21.820986719604086	2.0685916	1.43826
21.838836379042412	2.0626595	1.4361962
21.85668657489478	2.0509887	1.4321274
21.87453730764273	2.0399964	1.4282844
21.892388577767914	2.0108206	1.4180341
21.91024038575213	1.9845877	1.408754
21.928092732077285	1.9778936	1.406376
21.945945617225426	1.9868926	1.4095718
21.963799041678694	1.9881622	1.410022
21.981653005919398	31.336063	5.5978622
21.999507510429943	78.13219	8.839241
22.01736255569286	73.10004	8.549856
22.035218142190818	4.1584883	2.0392373
22.05307427040661	1.9871762	1.4096724
22.07093094082315	2.006743	1.4165956
22.088788153923474	2.0273492	1.4238502
22.106645910190746	2.0132656	1.418896
22.12450421010827	2.0058668	1.4162862
22.142363054159464	1.9708368	1.403865
22.16022244282787	1.9472326	1.3954327
22.178082376597164	1.9609352	1.400334
22.195942855951145	1.9844218	1.4086951
22.213803881373742	1.9633458	1.4011945
22.231665453349002	1.9189167	1.3852497
22.24952757236111	1.9236965	1.3869739
22.26739023889438	1.9469463	1.3953302
22.28525345343323	1.9708201	1.403859
22.30311721646225	1.9620152	1.4007195
22.320981528466113	1.9583349	1.3994052
22.33884638992964	1.9614918	1.4005327
22.356711801337788	1.9624891	1.4008887
22.37457776317561	1.9707042	1.4038178
22.392444275928337	1.9811856	1.4075459
22.410311340081282	1.9993327	1.4139776
22.428178956119904	2.0275607	1.4239244
22.446047124529805	2.0363057	1.4269918
22.46391584579669	2.0122685	1.4185445
22.481785120406414	1.9672828	1.4025986
22.49965494884496	1.930425	1.3893974
22.51752533159841	1.92212	1.3864055
22.53539626915302	1.9367492	1.3916714
22.553267761995137	1.9342035	1.3907565
22.571139810611264	1.9922119	1.4114574
22.589012415488025	1.9989848	1.4138546
22.60688557711216	1.9593219	1.3997577
22.624759295970566	1.9151716	1.3838973
22.642633572550263	1.9160225	1.3842046
22.660508407338362	1.9371443	1.3918133
22.67838380082217	1.9532744	1.3975959
22.696259753489077	1.9324745	1.3901347
22.714136265826614	1.9390264	1.3924893
22.73201333832246	1.9428025	1.3938445
22.74989097146439	1.9481277	1.3957535
22.76776916574035	1.9062017	1.3806527
22.785647921638393	1.9134939	1.383291
22.803527239646712	1.8958715	1.3769065
22.82140712025363	1.8867145	1.3735772
22.839287563947593	1.8411883	1.3569039
22.85716857121719	1.8214079	1.3495954
22.875050142551135	1.7967108	1.3404144
22.892932278438277	1.85056	1.3603529
22.910814979367604	1.9358324	1.3913419
22.928698245828222	1.9683717	1.4029868
22.946582078309387	1.9795063	1.4069493
22.96446647730047	1.9592258	1.3997234
22.98235144329098	1.9414067	1.3933437
23.000236976770562	1.9122552	1.3828431
23.018123078229	1.9446989	1.3945246
23.03600974815619	1.9557004	1.3984636
23.053896987042194	1.9139223	1.3834459
23.071784795377173	1.8903785	1.3749104
23.08967317365145	1.9364018	1.3915466
23.10756212235546	2.0010226	1.4145751
23.125451641979787	1.9764193	1.4058518
23.143341733015134	1.972858	1.4045846
23.161232395952357	1.9853405	1.4090211
23.179123631282426	1.9855849	1.4091078
23.197015439496468	1.9464902	1.3951668
23.214907821085717	1.9299666	1.3892324
23.23280077654157	1.9295623	1.3890868
23.250694306355538	1.9574699	1.3990961
23.268588411019277	1.9617941	1.4006406
23.28648309102458	1.9816843	1.4077231
23.304378346863356	1.960472	1.4001685
23.322274179027676	1.9506978	1.3966738
23.340170588009723	1.9455214	1.3948195
23.358067574301852	1.9691687	1.4032707
23.37596513839651	1.9375312	1.3919523
23.39386328078629	1.9491129	1.3961064
23.411762001963947	1.9479096	1.3956753
23.429661302422353	1.9598303	1.3999394
23.4475611826545	1.9138567	1.3834221
23.46546164315356	1.9286226	1.3887485
23.48336268441279	1.9245466	1.3872803
23.501264306925638	1.8928577	1.3758117
23.51916651118564	1.8729397	1.3685539
23.537069297686497	1.8778816	1.3703582
23.554972666922037	1.9260839	1.3878343
23.57287661938623	1.9639175	1.4013984
23.59078115557318	1.9662848	1.4022428
23.608686275977128	1.9375161	1.3919469
23.62659198109246	1.9245967	1.3872983
23.6444982714137	1.8943944	1.37637
23.66240514743549	1.8961165	1.3769954
23.68031260965263	1.9048634	1.3801678
23.698220658560068	1.9489996	1.3960658
23.716129294652845	1.9486805	1.3959515
23.7340385184262	1.9426434	1.3937874
23.75194833037546	1.9512056	1.3968556
23.769858730996123	1.9084928	1.3814821
23.78776972078382	1.9256362	1.3876729
23.80568130023431	1.9325993	1.3901796
23.823593469843495	1.935198	1.3911139
23.841506230107424	1.883967	1.3725768
23.859419581522275	1.8650151	1.3656555
23.87733352458438	1.8973093	1.3774285
23.89524805979019	1.9459825	1.3949847
23.913163187636318	1.9266969	1.3880551
23.931078908619508	1.896387	1.3770937
23.948995223236633	1.9337887	1.3906074
23.966912131984735	2.0038831	1.4155858
23.98482963536096	2.0378706	1.4275401
24.002747733862616	2.0054479	1.4161384
24.020666427987155	2.0266707	1.4236119
24.038585718232156	2.066702	1.4376029
24.056505605095353	2.0617085	1.435865
24.074426089074617	2.0822985	1.4430171
24.092347170667946	2.114218	1.454035
24.110268850373515	2.0978706	1.4484028
24.128191128689586	2.0494227	1.4315805
24.146114006114626	2.011199	1.4181675
24.164037483147187	1.9832546	1.4082807
24.181961560286005	2.0248432	1.4229698
24.199886238029926	2.0380497	1.4276028
24.21781151687797	2.0556955	1.4337697
24.235737397329274	2.0185397	1.4207532
24.253663879883135	2.0002725	1.4143099
24.271590965038975	1.9842119	1.4086206
24.289518653296376	1.9685628	1.4030548
24.30744694515505	2.0076911	1.4169302
24.32537584111486	2.000857	1.4145166
24.34330534167581	2.0193393	1.4210346
24.361235447338046	2.0417924	1.428913
24.379166158601876	2.0923674	1.4465017
24.39709747596772	2.0814724	1.4427309
24.41502939993615	2.060823	1.4355567
24.432961931007917	2.0298038	1.4247118
24.450895069683856	2.035121	1.4265766
24.468828816465	2.0279305	1.4240543
24.4867631718525	2.0245767	1.4228762
24.504698136347656	2.0104437	1.4179012
24.52263371045192	1.9539981	1.3978548
24.540569894666874	1.9470664	1.3953732
24.558506689494266	1.9786168	1.4066331
24.57644409543597	1.9803654	1.4072546
24.594382112994012	1.9733405	1.4047564
24.61232074267057	1.9901589	1.4107299
24.630259984967953	1.9960687	1.412823
24.64819984038863	1.9763608	1.405831
24.66614030943522	1.9608916	1.4003184
24.684081392610462	1.9497063	1.3963188
24.702023090417274	1.9380186	1.3921274
24.7199654033587	1.953891	1.3978165
24.737908331937927	2.0543108	1.4332867
24.755851876658305	2.127445	1.4585763
24.773796038023324	2.1402557	1.4629613
24.79174081653661	2.1013215	1.4495935
24.809686212701962	2.0766547	1.4410603
24.827632227023294	2.1168947	1.4549552
24.8455788600047	2.1584973	1.4691825
24.8635261121504	2.1152718	1.4543974
24.88147398396475	2.101672	1.4497144
24.899422475952303	2.1388044	1.4624652
24.917371588617698	2.1666467	1.4719534
24.935321322465768	2.2097569	1.486525
24.953271678001478	2.2749496	1.5082936
24.97122265572994	2.5048194	1.5826621
24.989174256156414	2.8512866	1.6885754
25.00712647978632	3.2700756	1.8083351
25.02507932712521	3.757299	1.9383754
25.043032798678798	4.2517014	2.0619655
25.060986894952933	4.933044	2.2210457
25.078941616453637	5.684933	2.3843098
25.096896963687055	6.6957703	2.5876186
25.114852937159508	7.8149323	2.79552
25.132809537377444	8.241797	2.8708532
25.150766764847468	8.217331	2.8665888
25.168724620076347	7.7345147	2.7810996
25.186683103570985	6.8306494	2.6135511
25.204642215838426	5.6958723	2.3866026
25.222601957385894	4.310556	2.0761878
25.24056232872074	3.240132	1.8000367
25.25852333035048	2.6036417	1.6135805
25.276484962782778	2.2818425	1.5105768
25.294447226525435	2.1149843	1.4542985
25.312410122086423	2.0160534	1.419878
25.330373649973843	1.9578687	1.3992386
25.348337810695988	1.9450043	1.3946341
25.366302604761245	1.9838266	1.4084839
25.384268032678207	1.996305	1.4129065
25.40223409495558	1.9528279	1.3974361
25.420200792102257	1.8895698	1.3746163
25.438168124627246	1.8673828	1.3665222
25.45613609303974	1.8917053	1.3753928
25.474104697849057	1.905377	1.3803539
25.492073939564698	1.9041282	1.3799015
25.510043818696285	1.8809776	1.3714874
25.528014335753614	1.8679559	1.3667319
25.54598549124664	1.9051087	1.3802568
25.56395728568544	1.9024074	1.3792778
25.58192971958028	1.8690417	1.367129
25.59990279344156	1.8343602	1.3543856
25.617876507779833	1.8616884	1.364437
25.635850863105826	1.8837528	1.3724988
25.653825859930386	1.8657322	1.365918
25.671801498764548	1.834272	1.354353
25.68977778011949	1.8029901	1.3427546
25.707754704506524	1.7874768	1.3369656
25.725732272437153	1.8143291	1.3469703
25.743710484423012	1.9192524	1.3853709
25.761689340975888	1.9745914	1.4052016
25.77966884260774	1.905314	1.3803312
25.797648989830662	1.8404422	1.356629
25.815629783156922	1.8403492	1.3565947
25.83361122309895	1.8789575	1.3707507
25.85159331016929	1.8495971	1.359999
25.869576044880695	1.8227581	1.3500956
25.887559427746034	1.8198086	1.3490028
25.90554345927836	1.8128924	1.346437
25.92352813999086	1.792767	1.3389425
25.94151347039689	1.7933699	1.3391676
25.959499451009965	1.8475336	1.35924
25.97748608234374	1.8895736	1.3746176
25.995473364912062	1.866756	1.3662928
26.013461299228904	1.8826861	1.3721101
26.03144988580839	1.9059826	1.3805733
26.04943912516483	1.8643295	1.3654045
26.067429017812675	1.8171868	1.3480307
26.085419564266537	1.8477427	1.359317
26.103410765041186	1.8588084	1.3633813
26.12140262065155	1.8652799	1.3657525
26.139395131612723	1.8447008	1.3581977
26.157388298439948	1.8151795	1.347286
26.17538212164861	1.7948189	1.3397084
26.193376601754295	1.804876	1.3434567
26.211371739272714	1.8142802	1.3469522
26.229367534719746	1.8644252	1.3654395
26.247363988611433	1.8509877	1.3605101
26.26536110146397	1.8465686	1.358885
26.283358873793727	1.8650523	1.3656693
26.301357306117204	1.8699658	1.3674669
26.319356398951104	1.8297366	1.3526776
26.33735615281224	1.8138745	1.3468015
26.35535656821762	1.7800387	1.334181
26.373357645684404	1.7857	1.3363008
26.39135938572991	1.809358	1.3451238
26.409361788871614	1.8039427	1.3431094
26.427364855627165	1.8014554	1.3421831
26.445368586514352	1.8011197	1.3420581
26.46337298205115	1.8078213	1.3445524
26.48137804275568	1.8383279	1.3558495
26.499383769146217	1.8924313	1.3756567
26.517390161741215	1.8938972	1.3761894
26.53539722105928	1.8727533	1.3684858
26.553404947619182	1.8319302	1.3534881
26.571413341939856	1.8065858	1.344093
26.589422404540397	1.7923228	1.3387766
26.60743213594006	1.8061714	1.3439388
26.62544253665827	1.8126165	1.3463345
26.64345360721459	1.8080342	1.3446317
26.66146534812879	1.8026022	1.3426102
26.679477759920758	1.8180695	1.348358
26.69749084311057	1.8509951	1.3605129
26.71550459821847	1.8666648	1.3662595
26.733519025764842	1.8314904	1.3533257
26.751534126270258	1.8121136	1.3461477
26.769549900255434	1.7837567	1.3355736
26.787566348241267	1.7906966	1.3381691
26.80558347074881	1.8180202	1.3483398
26.823601268299267	1.8149993	1.3472191
26.841619741414036	1.7995332	1.3414668
26.85963889061465	1.783184	1.3353591
26.877658716422832	1.7950271	1.3397862
26.89567921936045	1.8115697	1.3459456
26.913700399949544	1.8616793	1.3644336
26.93172225871233	1.8361093	1.3550311
26.949744796171174	1.8248514	1.3508706
26.967768012848605	1.8229462	1.3501652
26.98579190926733	1.8249711	1.350915
27.003816485950225	1.8223292	1.3499367
27.021841743420318	1.7952129	1.3398556
27.039867682200814	1.7652036	1.3286097
27.057894302815072	1.7774308	1.3332032
27.07592160578664	1.8235652	1.3503945
27.0939495916392	1.8082016	1.3446939
27.111978260896635	1.8507972	1.36044
27.13000761408296	1.8713471	1.3679719
27.148037651722397	1.89876	1.377955
27.166068374339304	1.8553925	1.3621279
27.184099782458215	1.8816338	1.3717265
27.20213187660384	1.8595916	1.3636684
27.22016465730105	1.814809	1.3471484
27.23819812507487	1.7756379	1.3325306
27.256232280450533	1.8373162	1.3554764
27.274267123953383	1.852046	1.360899
27.292302656108987	1.8453245	1.3584272
27.31033887744306	1.8110167	1.3457402
27.32837578848146	1.7801377	1.334218
27.34641338975026	1.7483984	1.3222702
27.364451681775673	1.7674471	1.3294537
27.382490665084074	1.8695719	1.3673229
27.400530340202046	1.909612	1.3818871
27.41857070765629	1.8243191	1.3506736
27.436611767973726	1.8025827	1.342603
27.454653521681404	1.8234236	1.350342
27.472695969306564	1.8467869	1.3589654
27.490739111376627	1.8874747	1.3738539
27.508782948419153	1.892557	1.3757024
27.526827480961902	1.84922	1.3598603
27.54487270953279	1.8429099	1.3575382
27.562918634659898	1.8426589	1.3574457
27.580965256871508	1.8514887	1.3606942
27.599012576696026	1.8470963	1.3590792
27.617060594662068	1.8297446	1.3526806
27.63510931129842	1.8156314	1.3474537
27.65315872713401	1.814932	1.3471941
27.67120884269797	1.7962797	1.3402536
27.68925965851958	1.7902421	1.3379992
27.707311175128307	1.8558846	1.3623085
27.725363393053787	1.9092419	1.3817532
27.74341631282583	1.8812451	1.3715849
27.7614699349744	1.8366352	1.3552252
27.77952426002968	1.9760119	1.4057069
27.797579288521973	2.1197126	1.4559233
27.815635020981784	2.6155713	1.6172727
27.83369145793979	2.7267609	1.6512907
27.85174859992682	2.5080605	1.5836858
27.869806447473923	2.3142495	1.5212657
27.887865001112267	2.012964	1.4187896
27.905924261373233	1.9281346	1.3885728
27.92398422878836	1.9461508	1.395045
27.94204490388936	1.9049044	1.3801827
27.96010628720813	1.8666292	1.3662465
27.978168379276728	1.8692093	1.3671902
27.9962311806274	1.8578902	1.3630445
28.014294691792568	1.8680542	1.3667678
28.0323589133048	1.8807261	1.3713957
28.050423845696887	1.8947997	1.3765173
28.068489489501758	1.8569065	1.3626835
28.086555845252523	1.8143771	1.3469882
28.104622913482487	1.836549	1.3551934
28.122690694725115	1.8928123	1.3757951
28.14075918951405	1.9404787	1.3930106
28.15882839838312	1.957339	1.3990493
28.176898321866304	1.9494227	1.3962173
28.1949689604978	2.0234125	1.422467
28.213040314811945	2.0178173	1.420499
28.23111238534327	1.9293383	1.3890063
28.249185172626493	1.9038943	1.3798168
28.267258677196473	1.9477563	1.3956203
28.285332899588294	1.9566169	1.3987912
28.303407840337172	1.9505404	1.3966175
28.321483499978545	1.9408164	1.3931319
28.33955987904799	1.934167	1.3907434
28.357636978081285	1.913418	1.3832636
28.37571479761439	1.9563392	1.398692
28.393793338183425	1.9933044	1.4118444
28.41187260032469	2.0092301	1.4174732
28.429952584574686	1.982427	1.4079869
28.448033291470065	1.9573313	1.3990465
28.46611472154769	1.9265792	1.3880126
28.484196875344566	1.9239612	1.3870692
28.502279753397914	1.9489039	1.3960315
28.52036335624511	1.9620572	1.4007345
28.538447684423716	1.9884549	1.4101259
28.556532738471482	1.9918786	1.4113393
28.574618518926325	2.0003483	1.4143367
28.59270502632635	2.0076833	1.4169275
28.61079226120985	2.0122874	1.4185512
28.628880224115274	2.021523	1.4218028
28.646968915581287	2.0099456	1.4177256
28.66505833614671	2.0205827	1.421472
28.68314848635055	2.008802	1.4173222
28.701239366732004	2.013993	1.4191523
28.71933097783044	2.049873	1.4317378
28.737423320185403	2.1332443	1.460563
28.75551639433665	2.1565053	1.4685044
28.773610200824074	2.1557307	1.4682407
28.791704740187793	2.1430492	1.4639157
28.80980001296809	2.1450598	1.4646022
28.827896019705413	2.1520977	1.467003
28.845992760940433	2.1794372	1.4762917
28.86409023721397	2.1907084	1.4801042
28.88218844906704	2.180239	1.4765632
28.900287397040845	2.1777248	1.4757116
28.918387081676755	2.1655433	1.4715785
28.936487503516343	2.2111406	1.4869905
28.954588663101365	2.291101	1.5136384
28.97269056097374	2.2825482	1.5108105
28.990793197675597	2.2966506	1.5154704
29.00889657374923	2.346328	1.5317729
29.027000689737125	2.3655343	1.5380293
29.04510554618196	2.3921003	1.5466416
29.06321114362659	2.3930764	1.5469571
29.08131748261405	2.4482105	1.5646758
29.099424563687567	2.4765637	1.5737102
29.11753238739057	2.5185485	1.5869936
29.13564095426663	2.505003	1.5827202
29.15375026485954	2.5285022	1.5901265
29.171860319713275	2.5385737	1.5932902
29.18997111937199	2.6084483	1.6150692
29.20808266438002	2.654848	1.6293705
29.226194955281898	2.6806023	1.6372545
29.244307992622335	2.7547522	1.6597446
29.26242177694624	2.8479402	1.6875842
29.2805363087987	2.8875623	1.6992829
29.29865158872498	2.9397507	1.7145702
29.316767617270557	2.9813244	1.7266512
29.334884394981064	3.0139072	1.7360609
29.353001922402367	3.0141196	1.736122
29.37112020008047	3.0268528	1.7397853
29.389239228561596	3.0745916	1.7534513
29.407359008392152	3.3083174	1.818878
29.42547954011872	3.649805	1.9104463
29.44360082428809	4.2557783	2.0629537
29.46172286144722	5.4170046	2.327446
29.479845652143283	7.057019	2.656505
29.497969196923606	8.989547	2.9982574
29.516093496335728	11.347822	3.3686528
29.5342185509274	14.076144	3.751819
29.55234436124651	16.314459	4.039116
29.570470927841175	17.494965	4.1826982
29.588598251259686	17.31393	4.161001
29.60672633205055	16.272877	4.0339656
29.624855170762405	14.17023	3.7643366
29.642984767944146	11.34121	3.3676713
29.66111512414481	8.745268	2.9572399
29.67924623991366	6.5971026	2.5684826
29.697378115800138	5.125041	2.2638555
29.71551075235387	4.1825347	2.0451245
29.733644150124675	3.7904372	1.9469045
29.751778309662576	3.6042554	1.8984877
29.769913231517766	3.5062287	1.8724927
29.78804891624066	3.381347	1.838844
29.806185364381818	3.3322735	1.8254516
29.82432257649206	3.3065228	1.8183846
29.842460553122333	3.3558936	1.8319098
29.86059929482382	3.3303108	1.824914
29.878738802147872	3.2804103	1.8111902
29.896879075646048	3.2368677	1.7991297
29.915020115870114	3.2163815	1.7934273
29.933161923371976	3.228117	1.7966962
29.951304498703777	3.216907	1.7935739
29.969447842417857	3.2172785	1.7936773
29.987591955066733	3.1908314	1.7862898
30.005736837203123	3.1467457	1.773907
30.023882489379943	3.1986654	1.7884814
30.04202891215028	3.2549818	1.8041568
30.060176106067455	3.2746735	1.8096058
30.078324071684946	3.2450323	1.8013973
30.09647280955646	3.1544728	1.7760836
30.114622320235863	3.151457	1.7752343
30.132772604277257	3.1736932	1.7814863
30.1509236622349	3.1739538	1.7815593
30.16907549466328	3.1707847	1.7806697
30.18722810211705	3.1129832	1.7643648
30.205381485151097	3.0221565	1.738435
30.22353564432045	3.0186706	1.7374321
30.241690580180403	3.0499601	1.7464135
30.25984629328638	3.122523	1.7670662
30.278002784194037	3.144152	1.7731757
30.296160053459246	3.1281435	1.7686559
30.314318101638033	3.0638385	1.7503824
30.332476929286646	2.9867904	1.7282333
30.35063653696153	2.9573836	1.7197045
30.368796925219307	2.9297047	1.711638
30.386958094616844	2.8661873	1.6929818
30.40512004571115	2.8909698	1.7002852
30.423282779059463	2.887653	1.6993096
30.441446295219233	2.8484962	1.6877489
30.459610594748067	2.9010067	1.7032342
30.47777567820382	2.9017463	1.7034513
30.495941546144504	2.7928808	1.6711915
30.51410819912835	2.7770743	1.6664556
30.532275637713795	2.8239064	1.6804483
30.55044386245946	2.8554966	1.6898215
30.56861287392416	2.897048	1.7020717
30.586782672666956	2.9232128	1.7097405
30.604953259247047	2.8198001	1.679226
30.623124634223885	2.732365	1.6529866
30.641296798157075	2.7140307	1.6474316
30.659469751606462	2.7658432	1.6630825
30.677643495132074	2.769223	1.6640983
30.695818029294152	2.7291162	1.6520036
30.713993354653116	2.6860893	1.6389294
30.73216947176962	2.7735915	1.6654103
30.75034638120448	2.818232	1.6787591
30.768524083518756	2.7707274	1.6645502
30.786702579273673	2.7212977	1.6496357
30.80488186903069	2.7741833	1.665588
30.82306195335144	2.9205754	1.7089691
30.841242832797782	3.1095316	1.7633864
30.85942450793176	3.358206	1.8325409
30.877606979315637	3.586196	1.8937254
30.895790247511883	3.9155867	1.9787842
30.913974313083134	4.3913355	2.0955513
30.932159176592283	4.8031964	2.1916196
30.95034483860237	4.9675527	2.2288008
30.968531299676698	4.7483287	2.179066
30.98671856037873	4.398861	2.097346
31.00490662127215	3.979671	1.9949113
31.023095482920848	3.5252838	1.877574
31.04128514588892	3.0475905	1.7457349
31.059475610740662	2.7204087	1.6493661
31.07766687804056	2.5606174	1.6001929
31.09585894835335	2.48526	1.5764707
31.11405182224393	2.4777844	1.574098
31.132245500277417	2.4338539	1.5600814
31.15043998301914	2.432745	1.5597259
31.168635271034628	2.4541197	1.566563
31.18683136488964	2.4820507	1.5754526
31.20502826515008	2.438514	1.5615742
31.223225972382135	2.400602	1.5493877
31.241424487152155	2.429356	1.5586392
31.259623810026692	2.4818134	1.5753772
31.27782394157253	2.4542718	1.5666115
31.296024882356644	2.4602175	1.568508
31.314226632946237	2.5040846	1.58243
31.332429193908684	2.5507128	1.5970951
31.350632565811598	2.5042646	1.5824869
31.368836749222787	2.43631	1.5608684
31.387041744710295	2.4209378	1.5559363
31.40524755284232	2.5057778	1.5829649
31.423454174187317	2.5642354	1.601323
31.441661609313922	2.5742493	1.6044468
31.459869858791002	2.5137448	1.5854794
31.478078923187628	2.3755918	1.5412955
31.496288803073064	2.326152	1.5251728
31.514499499016807	2.3355339	1.5282453
31.532711011588546	2.35834	1.5356888
31.550923341358178	2.3342645	1.52783
31.56913648889584	2.3139145	1.5211557
31.587350454771844	2.2942176	1.5146675
31.605565239556732	2.3389277	1.5293553
31.62378084382127	2.310573	1.520057
31.641997268136382	2.2331567	1.494375
31.660214513073274	2.2480028	1.4993341
31.67843257920331	2.3200865	1.523183
31.6966514670981	2.305434	1.5183656
31.71487117732944	2.2472339	1.4990777
31.733091710469346	2.2450504	1.4983492
31.751313067090052	2.2720373	1.5073279
31.769535247764008	2.2504878	1.5001626
31.787758253063878	2.26486	1.5049452
31.805982083562526	2.2685835	1.5061817
31.824206739833024	2.2766895	1.5088702
31.84243222244869	2.272901	1.5076144
31.860658531983013	2.2396827	1.496557
31.878885669009737	2.2705202	1.5068245
31.897113634102784	2.2224193	1.4907781
31.91534242783632	2.231051	1.4936703
31.933572050784694	2.2489073	1.4996357
31.951802503522508	2.226696	1.4922118
31.970033786624548	2.2564616	1.5021523
31.988265900665834	2.249567	1.4998556
32.006498846221575	2.2179334	1.4892728
32.02473262386724	2.238636	1.4962072
32.04296723417845	2.256559	1.5021847
32.0612026777311	2.2367055	1.495562
32.07943895510129	2.2428818	1.4976254
32.097676066865304	2.2610798	1.5036887
32.115914013599685	2.2106624	1.4868296
32.13415279588115	2.1503072	1.4663925
32.152392414286666	2.154601	1.4678559
32.1706328693934	2.1183972	1.4554715
32.18887416177875	2.1336503	1.460702
32.20711629202032	2.1206713	1.4562525
32.225359260695924	2.1178489	1.455283
32.243603068383614	2.1267567	1.4583404
32.26184771566166	2.1723502	1.4738895
32.28009320310852	2.1405652	1.463067
32.2983395313029	2.1326218	1.4603499
32.31658670082372	2.1480722	1.4656303
32.33483471225012	2.1900237	1.4798728
32.35308356616143	2.1159117	1.4546174
32.371333263137245	2.0733776	1.4399228
32.38958380375734	2.1249318	1.4577146
32.407835188601744	2.1785312	1.4759848
32.42608741825067	2.134582	1.461021
32.444340493284585	2.1400316	1.4628847
32.46259441428416	2.18609	1.4785432
32.48084918183028	2.2333891	1.4944528
32.49910479650405	2.1855319	1.4783545
32.51736125888683	2.040467	1.4284492
32.53561856956014	1.9590548	1.3996624
32.5538767291058	1.9603705	1.4001323
32.572135738105764	1.9632127	1.4011469
32.59039559714228	1.9502698	1.3965206
32.608656306797776	1.981575	1.4076843
32.62691786765491	2.1422956	1.4636583
32.645180280296586	2.1857471	1.4784273
32.663443545305896	2.0708058	1.4390295
32.68170766326619	2.0160854	1.4198892
32.69997263476099	1.9445204	1.3944606
32.7182384603741	1.8698869	1.3674381
32.7365051406895	1.8381255	1.3557749
32.75477267629144	1.8204839	1.349253
32.77304106776434	1.8721486	1.3682648
32.79131031569289	1.9322013	1.3900365
32.809580420661966	2.0505664	1.4319799
32.827851383256714	2.1018033	1.4497597
32.84612320406245	2.0447714	1.429955
32.86439588366476	2.0177238	1.4204661
32.88266942264945	2.0286744	1.4243155
32.9009438216025	2.0145056	1.4193329
32.9192190811102	1.9834526	1.4083511
32.937495201758985	1.9907565	1.4109417
32.95577218413556	1.9072219	1.3810221
32.974050028826866	1.9838079	1.4084772
32.992328736420035	2.1367562	1.4617647
33.010608307502444	2.0711648	1.4391543
33.02888874266169	1.9424638	1.393723
33.047170042485604	1.9348277	1.3909808
33.06545220756225	1.9868944	1.4095724
33.083735238479896	1.9834428	1.4083475
33.10201913582707	1.9681087	1.402893
33.12030390019248	2.013538	1.4189918
33.138589532165135	2.0285153	1.4242595
33.15687603233419	1.972188	1.4043461
33.17516340128909	1.9408101	1.3931296
33.19345163961947	1.9712831	1.4040239
33.211740747915215	1.9615701	1.4005606
33.23003072676643	1.9371554	1.3918173
33.248321576763466	1.8917066	1.3753933
33.266613298496885	2.0179167	1.4205339
33.28490589255747	2.0064318	1.4164858
33.30319935953626	1.9373924	1.3919024
33.32149370002451	1.9303102	1.389356
33.339788914613706	2.025547	1.4232172
33.358085003895575	2.0112188	1.4181745
33.376381968462034	1.9861764	1.4093177
33.39467980890529	1.9460945	1.3950249
33.41297852581774	2.0056415	1.4162067
33.43127811979204	2.0259438	1.4233565
33.44957859142105	1.9459685	1.3949797
33.467879941297866	2.0082445	1.4171255
33.486182170015844	2.091802	1.4463063
33.50448527816853	2.0101185	1.4177865
33.522789266349754	1.8638042	1.3652122
33.541094135153514	1.824051	1.3505744
33.55939988517411	1.937917	1.3920909
33.57770651700602	1.959318	1.3997564
33.59601403124398	2.0037878	1.4155521
33.61432242848296	1.9120698	1.3827761
33.632631709318154	1.876532	1.3698657
33.650941874344994	1.9472069	1.3954235
33.66925292415916	2.0023844	1.4150563
33.68756485935654	1.9847171	1.4087999
33.70587768053328	1.9408242	1.3931346
33.724191388285746	1.9403094	1.3929499
33.74250598321054	1.9248312	1.3873829
33.760821465904506	2.006891	1.4166478
33.77913783696474	2.0004842	1.4143847
33.79745509698852	2.050622	1.4319993
33.815773246573414	2.0676146	1.4379202
33.8340922863172	2.0336285	1.4260534
33.852412216817896	2.0016277	1.414789
33.87073303867377	2.0171618	1.4202682
33.889054752483304	1.9444675	1.3944416
33.907377358845245	1.9094728	1.3818368
33.92570085835853	1.975553	1.4055437
33.94402525162239	2.051871	1.4324354
33.96235053923627	2.0671263	1.4377505
33.980676721799824	2.0701559	1.4388037
33.999003799912984	2.0592408	1.4350055
34.01733177417592	2.0464413	1.4305388
34.03566064518901	2.007661	1.4169196
34.0539904135529	1.9598415	1.3999434
34.07232107986846	1.978044	1.4064295
34.090652644736785	1.9714296	1.4040761
34.108985108759235	1.9953046	1.4125525
34.12731847253742	1.9058784	1.3805356
34.14565273667313	1.8903599	1.3749036
34.16398790176847	1.8168377	1.3479012
34.18232396842574	1.7878417	1.3371019
34.20066093724749	1.8388848	1.3560549
34.21899880883651	1.967869	1.4028076
34.23733758379583	2.0010026	1.414568
34.25567726272874	2.0096548	1.4176229
34.27401784623872	2.1253765	1.4578671
34.29235933492957	2.037533	1.4274218
34.31070172940526	1.9495909	1.3962775
34.32904503027003	1.9799085	1.4070922
34.347389238128386	2.020609	1.4214813
34.36573435358502	2.0123186	1.4185622
34.38408037724492	1.9693414	1.4033322
34.402427309713296	1.8514222	1.3606697
34.42077515159559	1.8435436	1.3577715
34.43912390349752	1.830021	1.3527827
34.45747356602499	1.7737958	1.3318393
34.47582413978423	1.840972	1.3568242
34.49417562538163	2.0831025	1.4432957
34.51252802342388	2.1810708	1.4768449
34.53088133451789	2.1188753	1.4556357
34.54923555927084	1.9096189	1.3818896
34.567590698290104	1.6918889	1.3007263
34.58594675218336	1.8090961	1.3450264
34.6043037215585	1.9196241	1.385505
34.62266160702365	1.9717586	1.4041932
34.641020409187234	1.908162	1.3813623
34.65938012865785	1.7857405	1.336316
34.677740766044394	1.7946883	1.3396598
34.69610232195598	1.8597602	1.3637302
34.714464797002016	1.8695109	1.3673006
34.73282819179208	1.9497339	1.3963287
34.751192506936064	2.0547378	1.4334357
34.76955774304408	2.0584202	1.4347196
34.7879239007265	1.8867432	1.3735877
34.80629098059391	1.794174	1.3394678
34.824658983257194	1.7740699	1.3319422
34.843027909327446	1.7635305	1.3279798
34.86139775941603	1.8393307	1.3562193
34.879768534134534	1.917944	1.3848985
34.89814023409483	1.9809622	1.4074665
34.91651285990901	1.983433	1.408344
34.93488641218944	1.8040123	1.3431352
34.95326089154871	1.7311263	1.3157227
34.97163629859967	1.9617673	1.4006311
34.99001263395542	2.0620482	1.4359833
35.00838989822934	1.9047897	1.3801411
35.02676809203499	1.884221	1.3726693
35.04514721598624	1.9856867	1.4091439
35.063527270697215	1.9243996	1.3872273
35.081908256782256	1.9044971	1.3800352
35.10029017485597	2.0424132	1.4291302
35.11867302553321	2.1670394	1.4720868
35.137056809429104	2.163976	1.4710459
35.155441527159006	1.925574	1.3876505
35.173827179338524	1.9158593	1.3841457
35.19221376658354	1.9578791	1.3992423
35.21060128951017	1.9348743	1.3909976
35.2289897487348	1.9728495	1.4045815
35.24737914487405	2.170383	1.473222
35.26576947854479	2.268193	1.5060521
35.28416075036418	2.2231565	1.4910253
35.30255296094958	2.0398693	1.42824
35.32094611091867	2.0774536	1.4413375
35.33934020088932	2.3743317	1.5408866
35.35773523147969	2.4138424	1.5536546
35.3761312033082	2.1828094	1.4774333
35.394528116993506	2.043799	1.4296149
35.41292597315452	1.956921	1.3988999
35.431324772410434	2.0779705	1.4415168
35.449724515380666	2.5623267	1.600727
35.46812520268491	2.596088	1.611238
35.486526834943106	2.363245	1.537285
35.504929412775454	2.3654332	1.5379965
35.52333293680242	2.0537183	1.43308
35.54173740764471	1.560509	1.2492033
35.560142825923286	1.7486124	1.3223511
35.5785491922594	1.4927611	1.221786
35.59695650727454	1.0282576	1.0140303
35.61536477159042	1.3578206	1.1652557
