0.008763373481513119	0.0	0.0
0.026290120649546365	0.14626539	0.3824466
0.043816868432600686	0.13022341	0.36086482
0.06134361724069026	0.17052317	0.4129445
0.07887036748382949	0.10747109	0.32782784
0.0963971195720331	0.08953499	0.299224
0.11392387391531617	0.09922105	0.31499374
0.1314506309236943	0.0806165	0.28393045
0.1489773910071836	0.106308445	0.32604975
0.16650415457580078	0.16379894	0.4047208
0.18403092203956356	0.16624452	0.40773094
0.20155769380849	0.14655529	0.3828254
0.2190844702925996	0.08066879	0.2840225
0.2366112519019124	0.066706404	0.25827584
0.2541380390464497	0.08547495	0.292361
0.27166483213623416	0.09818109	0.3133386
0.28919163158128947	0.11697013	0.34200895
0.3067184377916406	0.120042644	0.3464717
0.324245251177314	0.109613396	0.33107913
0.34177207214833777	0.12372166	0.3517409
0.3592989011147415	0.13019508	0.36082557
0.37682573848655654	0.19325732	0.43961042
0.39435258467381573	0.18641834	0.4317619
0.41187944008655414	0.22174594	0.47089908
0.42940630513480854	0.1712773	0.41385663
0.446933180228618	0.16022426	0.40028024
0.4644600657780234	0.12571357	0.3545611
0.48198696219306775	0.1222482	0.3496401
0.49951386988379676	0.15549815	0.39433253
0.5170407892602581	0.16044602	0.40055713
0.5345677207325025	0.11225796	0.33504918
0.5520946647105822	0.11572057	0.34017727
0.5696216216045534	0.15036787	0.38777298
0.5871485918244737	0.21717297	0.4660182
0.6046755757804043	0.27393398	0.523387
0.6222025738824094	0.25056055	0.5005602
0.6397295865405557	0.1986765	0.44573143
0.6572566141649129	0.17458966	0.4178393
0.6747836571655547	0.15509827	0.39382517
0.6923107159525568	0.1709843	0.41350248
0.7098377909359992	0.15358096	0.39189407
0.7273648825259653	0.16547489	0.40678605
0.7448919911325411	0.18154031	0.4260755
0.762419117165817	0.22690289	0.47634324
0.7799462610358868	0.22146249	0.470598
0.7974734231528482	0.20335354	0.45094737
0.8150006039268024	0.22640927	0.47582483
0.8325278037678551	0.24051604	0.49042434
0.8500550230861152	0.28723702	0.535945
0.8675822622916969	0.28090012	0.5300001
0.8851095217947171	0.23093988	0.48056203
0.9026368020052984	0.2150396	0.46372363
0.9201641033335665	0.1694325	0.4116218
0.9376914261896523	0.18358187	0.42846456
0.9552187709836915	0.17982292	0.42405534
0.9727461381258234	0.20730759	0.45531043
0.990273528026193	0.2233433	0.47259212
1.0078009410949496	0.22768605	0.4771646
1.0253283777422473	0.27103242	0.52060777
1.0428558383782454	0.27065036	0.52024066
1.0603833234131086	0.2699796	0.5195956
1.0779108332570058	0.26562053	0.51538384
1.0954383683201119	0.28374144	0.53267384
1.112965929012607	0.4033938	0.6351329
1.1304935157446763	0.5707539	0.75548255
1.1480211289265108	0.5987039	0.7737596
1.1655487689683062	1.4875278	1.2196425
1.1830764362802655	1.7570595	1.3255411
1.200604131272596	2.1937068	1.4811168
1.2181318543555117	2.4156973	1.5542514
1.235659605939232	2.4252002	1.5573055
1.253187386433982	4.0607347	2.0151265
1.270715196249994	6.5304418	2.5554729
1.2882430357975057	11.890191	3.4482157
1.3057709054867608	16.501526	4.062207
1.3232988057280106	22.49511	4.742901
1.3408267369315112	27.736256	5.266522
1.358354699507526	31.739798	5.6338086
1.3758826938663256	35.774853	5.9812083
1.3934107204181858	37.734043	6.142804
1.410938779573391	37.884983	6.155078
1.4284668717422309	38.7053	6.2213583
1.4459949973350033	38.34445	6.19229
1.4635231567620117	38.72731	6.223127
1.4810513504335687	38.138145	6.175609
1.4985795787599925	37.14172	6.094401
1.5161078421516088	36.50536	6.0419664
1.5336361410187505	35.20816	5.9336467
1.5511644757717598	35.506252	5.958712
1.5686928468209842	36.04358	6.0036306
1.58622125457678	36.744827	6.0617514
1.6037496994495108	37.970898	6.162053
1.621278181849548	38.22619	6.182733
1.6388067021872719	39.154022	6.2573175
1.6563352608730693	38.178177	6.178849
1.673863858317336	37.084694	6.0897202
1.6913924949304753	36.563244	6.046755
1.7089211711228998	35.811367	5.98426
1.7264498873050296	34.605206	5.882619
1.7439786438872935	33.573875	5.7942967
1.7615074412801288	32.280777	5.6816173
1.779036279893981	31.721169	5.632155
1.796565160139305	30.892698	5.5581203
1.814094082426564	30.307112	5.5051894
1.8316230471662298	29.665682	5.446621
1.849152054768784	29.036814	5.3885818
1.8666811056447168	28.037561	5.2950506
1.8842102002045273	27.154457	5.210994
1.901739338858724	26.517374	5.1495023
1.9192685220178245	26.4577	5.143705
1.9367977500923557	25.852968	5.0845814
1.9543270234928547	25.500046	5.049757
1.971856342629867	24.592499	4.9590826
1.9893857079139496	23.923935	4.89121
2.006915119755667	23.062449	4.8023376
2.0244445785655945	22.3604	4.728678
2.0419740847543175	22.028364	4.6934385
2.0595036387324317	21.797548	4.6687846
2.0770332409105414	21.506926	4.637556
2.094562891699263	21.30601	4.6158433
2.1120925915092217	20.711208	4.5509567
2.129622340751053	20.1681	4.490891
2.1471521398354043	188.20688	13.718851
2.1646819891729323	444.4487	21.081951
2.182211889174303	440.66135	20.991936
2.1997418402501974	453.13202	21.286898
2.2172718428113023	433.13214	20.811827
2.234801897268317	321.05383	17.917974
2.2523320040319548	17.454271	4.1778307
2.269862163512935	17.074186	4.1320925
2.287392376121992	16.566807	4.0702343
2.304922642269869	16.324556	4.0403657
2.322452962367322	16.090933	4.0113506
2.3399833368251164	15.708092	3.9633436
2.357513766054032	15.240534	3.9039125
2.3750442504648586	14.949821	3.8665
2.3925747904683963	14.863811	3.8553612
2.410105386475459	14.673766	3.8306353
2.4276360388968707	14.485614	3.8059971
2.445166748143469	14.394941	3.7940667
2.4626975146261025	14.311022	3.7829912
2.4802283387556323	14.144283	3.7608886
2.4977592209429305	13.82034	3.7175717
2.5152901615988825	13.396973	3.6601875
2.5328211611343865	13.251186	3.640218
2.5503522199603523	12.927959	3.5955472
2.5678833384877024	12.654147	3.5572667
2.5854145171273712	12.341771	3.5130856
2.6029457562903064	12.086045	3.476499
2.620477056387469	11.964671	3.4589987
2.6380084178298326	11.760612	3.4293747
2.655539841028383	11.527924	3.3952796
2.673071326394119	11.382952	3.373863
2.6906028743380523	11.0925865	3.3305535
2.708134485271211	11.0490055	3.3240044
2.7256661596046325	11.054486	3.3248289
2.743197897749369	10.858021	3.295151
2.760729700116486	10.641453	3.262124
2.778261567117063	10.272653	3.205098
2.795793499162193	10.098513	3.1778157
2.8133254966629817	10.046172	3.1695697
2.830857560030551	10.107701	3.1792612
2.8483896896760337	10.051568	3.170421
2.865921886010578	9.839762	3.1368394
2.883454149445347	9.60955	3.0999274
2.9009864803915177	9.354144	3.0584545
2.91851887926028	9.304966	3.0504043
2.9360513464628384	9.298626	3.0493648
2.953583882410413	9.31839	3.0526037
2.9711164875142373	9.231401	3.0383222
2.9886491621855606	9.008888	3.001481
3.0061819068356455	8.886928	2.981095
3.023714721875769	8.7173815	2.9525213
3.041247607717225	8.540559	2.9224234
3.0587805647713213	8.469848	2.9103003
3.0763135934493806	8.373379	2.8936791
3.0938466941627407	8.229452	2.8687022
3.1113798673227544	8.102054	2.8464108
3.1289131133407904	7.984685	2.8257184
3.1464464326282315	7.999319	2.8283067
3.1639798255964786	7.9641604	2.8220844
3.1815132926569443	7.927169	2.815523
3.1990468342210603	7.9143267	2.8132412
3.216580450700272	7.6772623	2.7707872
3.2341141425060416	7.4938645	2.7374923
3.251647910049847	7.337495	2.708781
3.2691817537431813	7.302991	2.7024047
3.286715673997555	7.2799335	2.6981351
3.3042496712244938	7.1127563	2.666975
3.32178374583554	6.9812274	2.6422012
3.339317898242251	6.9812922	2.6422136
3.3568521288562034	7.030049	2.651424
3.3743864380889876	6.980841	2.6421282
3.3919208263522127	6.937306	2.6338766
3.4094552940575023	6.7442684	2.596973
3.4269898416164972	6.6109014	2.5711672
3.444524469440858	6.457916	2.541243
3.4620591779422587	6.3599544	2.521895
3.479593967532391	6.446001	2.5388975
3.4971288386229658	6.4629045	2.5422244
3.5146637916257086	6.4988403	2.5492823
3.5321988269523628	6.500793	2.5496652
3.5497339450146903	6.4831443	2.546202
3.5672691462244708	6.44976	2.5396378
3.5848044309934988	6.3558893	2.5210888
3.60233979973359	6.4448667	2.538674
3.619875252856575	6.437306	2.5371847
3.6374107907743034	6.475414	2.5446835
3.6549464138986427	6.351228	2.5201643
3.6724821226414788	6.2435803	2.4987156
3.690017917414714	6.2160144	2.4931936
3.7075537986302702	6.387419	2.5273345
3.7250897667000857	6.4915414	2.5478504
3.7426258220361235	6.7345233	2.595096
3.7601619650503553	6.896057	2.6260345
3.777698196154779	7.4258943	2.7250495
3.7952345157614067	8.516846	2.9183636
3.8127709242822716	9.309826	3.0512006
3.830307422129425	11.492002	3.3899856
3.847844009714936	30.344038	5.508542
3.8653806874508954	97.88338	9.893602
3.882917455749409	97.183716	9.85818
3.900454315022606	96.96993	9.847331
3.917991265682631	41.51317	6.4430714
3.9355283081416506	11.199786	3.3466082
3.9530654428118495	9.036602	3.0060942
3.970602670105433	7.7352457	2.781231
3.9881399904346244	6.807153	2.6090522
4.005677404211669	6.622616	2.5734444
4.023214911848827	6.5577083	2.5608022
4.0407525137583855	6.5086446	2.5512044
4.058290210352644	6.5674167	2.5626972
4.075828002043927	6.531481	2.5556762
4.0933658892445814	6.503396	2.5501757
4.110903872366966	6.398902	2.5296052
4.128441951823468	6.2479343	2.4995868
4.145980128026488	6.2564454	2.5012887
4.163518401388452	6.201595	2.4903002
4.181056772321807	6.2326427	2.496526
4.1985952412390155	6.1976438	2.4895067
4.216133808552567	6.1684036	2.483627
4.233672474674966	6.2367167	2.4973419
4.251211240018741	6.405412	2.5308917
4.268750104996445	6.7557273	2.5991783
4.286289070020643	7.736791	2.7815087
4.303828135503928	9.485476	3.07985
4.3213673018589125	29.770582	5.4562426
4.3389065694982305	91.02687	9.5408
4.356445938834537	166.27068	12.894599
4.3739854102805085	171.82697	13.108278
4.391524984248844	172.69995	13.141536
4.409064661152262	136.82455	11.697203
4.426604441403504	97.18805	9.8584
4.444144325415337	76.29243	8.734553
4.461684313600543	22.216362	4.7134237
4.47922440637193	22.591955	4.7530994
4.496764604142329	20.900291	4.571684
4.5143049073245916	18.920527	4.349773
4.531845316331589	16.758635	4.093731
4.5493858315762195	13.812475	3.7165139
4.566926453471405	11.446726	3.383301
4.584467182430081	9.4552145	3.0749333
4.602008018865218	8.29058	2.8793366
4.619548963189798	7.6259117	2.7615054
4.637090015816834	7.1124463	2.666917
4.654631177159353	6.973006	2.640645
4.672172447630417	6.726534	2.5935562
4.689713827643102	6.4809546	2.5457718
4.7072553176105085	6.2526608	2.5005322
4.724796917945764	6.065989	2.4629228
4.742338629062015	5.9564486	2.4405837
4.759880451372434	5.9517584	2.4396226
4.777422385290215	5.9040446	2.4298239
4.794964431228581	5.8500166	2.4186807
4.812506589600768	5.725773	2.3928587
4.830048860820047	5.5803227	2.3622706
4.847591245299709	5.535776	2.352823
4.8651337434530655	5.569612	2.3600025
4.882676355693457	5.651435	2.3772748
4.900219082434242	5.669568	2.3810854
4.917761924088813	5.6280885	2.3723593
4.935304881070575	5.617519	2.3701305
4.952847953792969	5.6447177	2.3758614
4.970391142669449	5.6763897	2.3825176
4.9879344481135055	5.6510005	2.3771832
5.005477870538642	5.608123	2.3681476
5.023021410358394	5.499404	2.3450809
5.040565067986324	5.4557114	2.3357465
5.05810884383601	5.4824743	2.3414683
5.075652738321066	5.540875	2.3539064
5.09319675185512	5.531961	2.3520122
5.110740884851836	5.4198837	2.3280644
5.128285137724894	5.368506	2.3170037
5.145829510888007	5.323828	2.3073423
5.163374004754908	5.3980885	2.3233786
5.1809186197393595	5.3391795	2.3106666
5.198463356255145	5.328462	2.3083463
5.216008214716077	5.2733383	2.296375
5.233553195535998	5.212137	2.2830105
5.251098299128764	5.2249503	2.285815
5.268643525908272	5.2469363	2.2906191
5.286188876288432	5.312591	2.304906
5.3037343506831895	5.3480277	2.3125803
5.32127994950651	5.4119067	2.3263505
5.3388256731723915	5.4404583	2.332479
5.356371522094851	5.3541465	2.3139029
5.373917496687938	5.2687683	2.2953799
5.391463597365729	5.2232256	2.2854378
5.40900982454232	5.1851892	2.277101
5.426556178631843	5.196297	2.2795389
5.444102660048449	5.1860166	2.2772827
5.4616492692063225	5.1647887	2.272617
5.479196006519669	5.155715	2.2706199
5.496742872402727	5.179464	2.2758436
5.514289867269756	5.2116838	2.2829113
5.531836991535049	5.2165656	2.2839801
5.549384245612924	5.265286	2.294621
5.566931629917724	5.350661	2.3131495
5.584479144863822	5.305012	2.3032613
5.6020267908656205	5.259973	2.2934632
5.619574568337545	5.1839304	2.2768247
5.637122477694054	5.141921	2.2675805
5.654670519349629	5.092225	2.2565958
5.672218693718784	5.081848	2.2542956
5.689767001216059	5.1377993	2.2666714
5.707315442256021	5.157726	2.2710626
5.724864017253266	5.2159467	2.2838447
5.7424127266224225	5.2242975	2.2856722
5.75996157077814	5.2757125	2.296892
5.777510550135105	5.2512608	2.291563
5.795059665108022	5.2198052	2.2846894
5.812608916111639	5.2853894	2.2989974
5.830158303560715	5.3575497	2.3146381
5.847707827870055	5.33777	2.3103614
5.86525748945448	5.3388023	2.3105848
5.8828072887288485	5.536321	2.352939
5.900357226108044	5.646164	2.3761659
5.917907302006979	5.739834	2.395795
5.9354575168406	6.334081	2.51676
5.9530078710238765	6.9812055	2.6421971
5.970558364971812	7.570364	2.7514296
5.988108999099438	7.8689194	2.8051593
6.005659773821818	8.391581	2.8968225
6.023210689554039	8.151874	2.8551486
6.040761746711227	8.546063	2.923365
6.058312945708531	7.890659	2.8090317
6.075864286961132	7.370833	2.714928
6.093415770884244	6.763924	2.6007545
6.1109673978931065	6.2253613	2.4950674
6.128519168402993	5.7118607	2.38995
6.146071082829204	5.6104245	2.3686335
6.163623141587075	5.4874415	2.3425288
6.181175345091969	5.445459	2.3335507
6.198727693759281	5.3412566	2.311116
6.216280188004435	5.3437543	2.3116562
6.233832828242885	5.315979	2.3056407
6.251385614890126	5.3012524	2.302445
6.268938548361669	5.205199	2.2814906
6.286491629073067	5.1300454	2.2649603
6.304044857439898	5.1346784	2.2659829
6.321598233877777	5.1516123	2.2697163
6.339151758802344	5.140445	2.267255
6.356705432629277	5.137976	2.2667105
6.37425925577428	5.078509	2.2535548
6.391813228653095	5.0650215	2.2505603
6.409367351681486	5.0037065	2.2368965
6.426921625275259	4.9790483	2.231378
6.44447604985025	4.947608	2.2243218
6.46203062582232	4.9943757	2.2348099
6.47958535360737	5.0188136	2.2402709
6.497140233621328	5.0297546	2.2427115
6.514695266280161	5.1164527	2.2619576
6.532250451999859	5.1847944	2.2770143
6.549805791196454	5.221052	2.2849622
6.567361284286002	5.1305604	2.265074
6.584916931684597	5.0468845	2.2465272
6.602472733808367	5.0058446	2.2373745
6.6200286910734665	5.0543633	2.248191
6.637584803896092	5.1081877	2.26013
6.655141072692462	5.1376715	2.2666433
6.672697497878842	5.1323357	2.265466
6.690254079871514	5.1058993	2.2596238
6.707810819086808	5.111704	2.2609076
6.725367715941078	5.1745334	2.27476
6.742924770850719	5.18486	2.2770288
6.760481984232151	5.124132	2.2636547
6.778039356501836	5.081838	2.2542932
6.795596888076266	5.115595	2.261768
6.813154579371963	5.109271	2.2603698
6.830712430805492	5.1388993	2.2669141
6.84827044279344	5.153572	2.270148
6.865828615752445	5.088006	2.2556608
6.883386950099159	5.099805	2.2582748
6.900945446250287	5.067866	2.251192
6.918504104622553	5.1335945	2.2657437
6.936062925632727	5.1385136	2.266829
6.953621909697607	5.139631	2.2670753
6.971181057234028	5.1793213	2.2758121
6.988740368658859	5.227024	2.2862687
7.006299844389007	5.297846	2.301705
7.023859484841407	5.3123145	2.3048458
7.041419290433036	5.3964877	2.323034
7.058979261580902	5.535505	2.3527653
7.0765393987020495	5.7493343	2.3977768
7.094099702213559	6.1157713	2.4730086
7.111660172532549	6.4422836	2.5381653
7.129220810076164	6.8359237	2.61456
7.146781615261595	7.4630747	2.7318628
7.16434258850606	7.7840614	2.789993
7.181903730226821	8.306515	2.8821025
7.1994650408411704	8.433422	2.9040356
7.217026520766437	8.527792	2.9202383
7.234588170419983	8.675507	2.9454212
7.252149990219215	8.641799	2.9396937
7.269711980581568	8.508397	2.9169157
7.2872741419245175	8.2904825	2.87932
7.304836474665574	7.802279	2.793256
7.322398979222286	7.5722313	2.7517688
7.339961656012233	7.3461237	2.7103734
7.357524505453039	7.0251145	2.6504931
7.375087527962357	6.6503105	2.5788195
7.392650723957886	6.317308	2.5134256
7.410214093857353	5.946618	2.4385688
7.427777638078528	5.818782	2.4122152
7.445341357039213	5.586256	2.363526
7.4629052511572525	5.3868217	2.3209527
7.480469320850524	5.246758	2.2905803
7.498033566536948	5.1516695	2.269729
7.5155979886344735	5.1359787	2.2662697
7.5331625875610975	5.1546297	2.270381
7.550727363734844	5.2354465	2.2881098
7.568292317573788	5.2547936	2.2923336
7.585857449496025	5.221057	2.2849631
7.603422759919705	5.2055893	2.2815762
7.620988249263007	5.2358036	2.2881877
7.638553917944147	5.3355646	2.309884
7.656119766381391	5.346811	2.3123171
7.673685794993023	5.3345323	2.3096607
7.691252004197388	5.324231	2.3074296
7.70881839441285	5.3071012	2.3037148
7.726384966057826	5.295085	2.3011053
7.743951719550762	5.276475	2.2970579
7.761518655310149	5.3215837	2.306856
7.779085773754511	5.3737445	2.3181338
7.796653075302419	5.3588877	2.314927
7.814220560372475	5.377751	2.3189979
7.831788229383323	5.382715	2.320068
7.8493560827536495	5.3800874	2.3195016
7.866924120902174	5.4037795	2.324603
7.884492344247663	5.4652863	2.3377953
7.9020607532089135	5.507451	2.3467958
7.919629348204771	5.4814277	2.341245
7.937198129654115	5.4827337	2.341524
7.954767097975865	5.387054	2.3210027
7.972336253588986	5.362987	2.3158123
7.989905596912472	5.372421	2.3178482
8.007475128365371	5.414232	2.3268502
8.025044848366756	5.5053887	2.3463564
8.042614757335754	5.619275	2.370501
8.060184855691523	5.7052517	2.388567
8.07775514385327	5.8572683	2.4201794
8.095325622240228	5.911929	2.4314458
8.112896291271687	5.861624	2.4210792
8.130467151366968	5.904835	2.4299867
8.148038202945436	5.949819	2.4392252
8.165609446426497	6.049082	2.4594882
8.183180882229594	6.2030997	2.4906023
8.200752510774217	6.2169075	2.4933727
8.218324332479893	6.2325435	2.4965062
8.235896347766193	6.1748385	2.4849222
8.253468557052724	6.1372886	2.4773552
8.27104096075914	6.1426096	2.4784288
8.288613559305137	6.178968	2.485753
8.306186353110448	6.231456	2.4962883
8.32375934259485	6.2705026	2.5040972
8.341332528178162	6.2144947	2.492889
8.358905910280246	6.2117786	2.492344
8.376479489321003	6.225999	2.4951952
8.394053265720377	6.3188705	2.5137365
8.411627239898356	6.3603926	2.521982
8.42920141227497	6.3510184	2.5201228
8.44677578327029	6.352554	2.5204272
8.464350353304427	6.3704414	2.5239732
8.48192512279754	6.3526006	2.5204365
8.499500092169827	6.2919006	2.508366
8.51707526184153	6.2150106	2.4929924
8.534650632232934	6.241716	2.4983425
8.552226203764365	6.307405	2.5114548
8.569801976856192	6.353775	2.5206695
8.587377951928834	6.375489	2.5249732
8.60495412940274	6.3409934	2.518133
8.622530509698416	6.4007535	2.5299711
8.6401070932364	6.5210533	2.5536354
8.657683880437283	6.677708	2.5841262
8.675260871721695	6.8793335	2.6228483
8.692838067510303	7.057911	2.656673
8.710415468223834	7.1427255	2.6725879
8.727993074283043	7.192038	2.6817975
8.745570886108737	7.1741295	2.6784565
8.763148904121765	7.2949	2.7009072
8.78072712874302	7.3266225	2.7067735
8.798305560393441	7.621486	2.760704
8.815884199494006	7.7486434	2.7836385
8.833463046465745	7.959322	2.821227
8.851042101729728	8.047925	2.8368864
8.86862136570707	8.365034	2.892237
8.886200838818924	8.53406	2.9213114
8.903780521486505	8.559208	2.9256124
8.921360414131055	8.64868	2.9408638
8.938940517173874	8.81979	2.969813
8.956520831036297	9.015466	3.0025766
8.97410135613971	9.261822	3.0433242
8.99168209290554	9.420705	3.0693166
9.009263041755265	9.638441	3.104584
9.026844203110405	9.876815	3.14274
9.044425577392525	9.9560175	3.1553156
9.062007165023239	10.062328	3.1721172
9.079588966424197	10.340599	3.2156801
9.097170982017108	10.441686	3.2313597
9.11475321222372	11.368264	3.3716857
9.132335657465825	12.220285	3.4957526
9.149918318165264	12.377063	3.518105
9.167501194743924	13.118394	3.6219323
9.18508428762374	12.833882	3.5824409
9.202667597226693	12.735215	3.5686433
9.220251123974803	12.273141	3.5033042
9.237834868290143	11.9738035	3.4603183
9.255418830594836	11.944901	3.4561396
9.273003011311046	11.45511	3.3845398
9.290587410860985	11.215392	3.348939
9.308172029666911	10.55094	3.248221
9.32575686815113	10.244044	3.2006319
9.343341926735997	8.937155	2.9895074
9.360927205843916	8.695231	2.948768
9.378512705897327	8.583971	2.9298415
9.396098427318728	8.398566	2.898028
9.413684370530664	8.247341	2.8718185
9.431270535955722	8.002191	2.8288143
9.448856924016539	7.863403	2.8041759
9.466443535135806	7.7922087	2.791453
9.484030369736251	7.7977834	2.7924511
9.501617428240658	7.855769	2.8028145
9.519204711071852	7.8582344	2.8032544
9.536792218652714	7.874807	2.8062086
9.55437995140617	7.8090844	2.794474
9.571967909755191	7.840748	2.8001335
9.589556094122802	7.8696337	2.8052866
9.60714450493207	7.964333	2.822115
9.624733142606116	8.034228	2.8344715
9.642322007568108	8.04874	2.8370302
9.659911100241267	8.121197	2.8497713
9.677500421048851	8.159062	2.8564072
9.695089970414175	8.248043	2.8719406
9.712679748760609	8.200687	2.8636842
9.730269756511557	8.244932	2.871399
9.747859994090492	8.243082	2.8710768
9.765450461920915	8.242939	2.8710518
9.78304116042639	8.278385	2.8772182
9.800632090030527	8.310951	2.882872
9.81822325115699	8.314476	2.8834834
9.835814644229481	8.304988	2.8818376
9.853406269671762	8.299894	2.8809538
9.870998127907646	8.223445	2.867655
9.888590219360985	8.203511	2.8641772
9.906182544455698	8.298585	2.8807266
9.923775103615734	8.454765	2.907708
9.941367897265108	8.556731	2.925189
9.958960925827878	8.523783	2.9195518
9.97655418972816	8.3765745	2.8942313
9.994147689390106	8.432082	2.9038048
10.011741425237934	8.390631	2.8966587
10.029335397695904	8.4373865	2.904718
10.04692960718833	8.391374	2.8967867
10.06452405413958	8.345318	2.8888264
10.082118738974064	8.365478	2.8923135
10.099713662116246	8.416983	2.9012036
10.117308823990651	8.472514	2.9107583
10.134904225021844	8.46457	2.9093933
10.152499865634445	8.379803	2.894789
10.170095746253125	8.330153	2.8862004
10.18769186730261	8.22637	2.8681648
10.205288229207675	8.2295265	2.868715
10.222884832393145	8.194629	2.862626
10.2404816772839	8.20337	2.8641527
10.258078764304868	8.20782	2.8649292
10.275676093881035	8.177824	2.8596895
10.293273666437438	8.215597	2.8662863
10.310871482399158	8.275166	2.8766587
10.32846954219134	8.294054	2.87994
10.346067846239173	8.278463	2.8772318
10.363666394967908	8.204275	2.8643105
10.38126518880283	8.200127	2.8635864
10.398864228169298	8.250188	2.872314
10.416463513492713	8.362114	2.891732
10.434063045198531	8.333382	2.8867598
10.451662823712262	8.263086	2.8745584
10.469262849459467	8.239487	2.8704505
10.486863122865758	8.213395	2.8659022
10.504463644356806	8.216011	2.8663585
10.522064414358338	8.135423	2.8522663
10.539665433296118	8.093608	2.8449266
10.557266701595987	8.038659	2.835253
10.574868219683818	7.9315724	2.8163047
10.592469987985552	7.8387628	2.799779
10.610072006927185	7.68549	2.7722716
10.627674276934751	7.531829	2.7444177
10.64527679843435	7.4038267	2.7209973
10.662879571852143	7.3185263	2.7052774
10.680482597614331	7.197021	2.6827264
10.698085876147173	7.080673	2.6609535
10.715689407876988	6.965593	2.639241
10.733293193230146	6.8762846	2.622267
10.750897232633072	6.7756157	2.6030014
10.76850152651225	6.7217703	2.5926378
10.786106075294207	6.6173024	2.5724118
10.803710879405534	6.543467	2.55802
10.821315939272877	6.510144	2.5514984
10.83892125532294	6.5046635	2.550424
10.856526827982472	6.5025477	2.5500093
10.874132657678285	6.4062376	2.5310547
10.891738744837243	6.293627	2.5087101
10.909345089886271	6.1854215	2.4870508
10.926951693252343	6.1947145	2.4889183
10.944558555362494	6.1420774	2.4783216
10.96216567664381	6.1189303	2.473647
10.979773057523436	6.007663	2.4510534
10.997380698428573	5.8576655	2.4202614
11.014988599786477	5.798879	2.4080863
11.032596762024461	5.7074995	2.3890374
11.050205185569892	5.688291	2.3850138
11.067813870850198	5.719792	2.3916087
11.085422818292859	5.6604075	2.3791611
11.10303202832541	5.558922	2.3577366
11.120641501375454	5.4962354	2.3444052
11.138251237870636	5.46274	2.3372505
11.155861238238671	5.480742	2.3410985
11.173471502907317	5.3894753	2.3215244
11.191082032304402	5.2891026	2.299805
11.208692826857805	5.129274	2.26479
11.226303886995465	5.03828	2.2446113
11.243915213145371	5.022171	2.2410202
11.261526805735578	4.9731436	2.2300546
11.279138665194196	4.9692183	2.2291744
11.296750791949393	4.937627	2.2220771
11.314363186429393	4.890336	2.2114105
11.331975849062479	4.7732253	2.1847713
11.34958878027699	4.6949687	2.1667876
11.36720198050133	4.7222385	2.1730711
11.384815450163948	4.683046	2.1640346
11.402429189693366	4.59359	2.1432662
11.420043199518153	4.482994	2.1173081
11.437657480066942	63.407513	7.9628835
11.455272031768422	85.17705	9.229141
11.472886855051353	107.56497	10.371353
11.490501950344528	99.171715	9.9585
11.508117318076819	84.43541	9.188874
11.52573295867715	45.83806	6.770381
11.543348872574514	4.169763	2.0419998
11.560965060197946	4.139721	2.0346303
11.57858152197655	4.187966	2.046452
11.59619825833949	4.1637464	2.040526
11.613815269715985	4.145589	2.036072
11.631432556535323	38.59086	6.212154
11.649050119226837	83.086555	9.115183
11.666667958219929	93.50501	9.669799
11.68428607394406	107.80255	10.382801
11.701904466828756	82.63225	9.090228
11.719523137303586	65.451744	8.090225
11.737142085798196	4.662188	2.15921
11.754761312742286	3.7464936	1.9355861
11.772380818565619	3.6897347	1.9208682
11.790000603698015	3.6707714	1.9159257
11.80762066856935	3.6653726	1.9145163
11.825241013609572	3.6313403	1.9056076
11.842861639248683	3.604253	1.8984871
11.860482545916748	3.5302603	1.8788987
11.878103734043883	3.508682	1.8731476
11.895725204060282	3.479203	1.8652622
11.91334695639619	3.475445	1.8642546
11.930968991481919	3.462501	1.8607796
11.948591309747824	3.4402316	1.8547862
11.966213911624347	3.3998303	1.8438629
11.98383679754198	3.3746953	1.8370343
12.001459967931268	3.3572977	1.832293
12.019083423222835	3.3259928	1.8237305
12.036707163847352	3.2886968	1.8134764
12.05433119023556	3.2293127	1.7970289
12.071955502818259	3.1771052	1.7824436
12.089580102026313	3.1207411	1.766562
12.107204988290643	3.1252687	1.767843
12.12483016204224	3.1377156	1.7713598
12.142455623712152	3.1206636	1.76654
12.16008137373149	3.1158934	1.7651893
12.177707412531431	3.0901883	1.7578931
12.19533374054321	3.108098	1.7629799
12.212960358198126	3.0933878	1.758803
12.230587265927545	3.0982008	1.7601707
12.248214464162889	3.1128585	1.7643294
12.265841953335649	3.1068509	1.7626262
12.283469733877375	3.1145663	1.7648134
12.301097806219685	3.0994885	1.7605364
12.31872617079425	3.065251	1.7507858
12.336354828032825	3.0583737	1.7488207
12.353983778367205	3.0237653	1.7388977
12.371613022229262	2.9677985	1.7227299
12.389242560050928	2.9288442	1.7113867
12.406872392264201	2.9374459	1.7138978
12.424502519301143	2.992588	1.7299098
12.442132941593874	2.9962614	1.7309712
12.459763659574586	2.9640384	1.7216383
12.477394673675532	2.9084108	1.7054063
12.49502598432903	2.9080513	1.7053009
12.51265759196746	2.9267635	1.7107786
12.530289497023267	2.917684	1.708123
12.547921699928967	2.8342378	1.6835195
12.565554201117134	2.7845376	1.6686934
12.583187001020404	2.7597828	1.6612594
12.600820100071486	2.782312	1.6680263
12.618453498703152	2.7954202	1.671951
12.636087197348235	2.8369877	1.684336
12.65372119643964	2.8577068	1.6904753
12.671355496410326	2.8441262	1.6864537
12.68899009769333	2.8218722	1.679843
12.706625000721749	2.8122244	1.6769688
12.724260205928752	2.9107213	1.7060837
12.741895713747551	2.9810042	1.7265584
12.759531524611454	2.9994764	1.7318996
12.777167638953818	2.9966192	1.7310746
12.794804057208072	3.032518	1.7414126
12.812440779807702	3.1195235	1.7662174
12.830077807186271	3.3065765	1.8183994
12.847715139777405	3.3415494	1.8279905
12.865352778014795	3.5401907	1.8815395
12.882990722332197	3.5871813	1.8939855
12.90062897316344	3.6865265	1.920033
12.918267530942412	3.794117	1.9478493
12.935906396103071	3.7141786	1.9272205
12.953545569079449	3.909164	1.9771606
12.971185050305628	3.7011485	1.923837
12.988824840215775	3.702323	1.9241421
13.006464939244115	3.6591945	1.9129021
13.024105347824943	3.4324863	1.852697
13.041746066392617	3.5028267	1.871584
13.05938709538157	3.3303683	1.8249297
13.077028435226296	3.3789978	1.8382051
13.094670086361363	3.308473	1.8189209
13.112312049221401	3.174221	1.7816343
13.129954324241112	3.0723057	1.7527994
13.147596911855258	2.8722513	1.6947718
13.165239812498685	2.8782883	1.6965519
13.182883026606293	2.8111703	1.6766545
13.200526554613058	2.738777	1.6549251
13.218170396954017	2.6889842	1.6398122
13.235814554064284	2.6698577	1.6339699
13.253459026379034	2.7099812	1.6462021
13.271103814333523	2.7118325	1.6467643
13.288748918363058	2.7493558	1.6581181
13.306394338903031	2.7536223	1.6594042
13.32404007638889	2.7637618	1.6624565
13.341686131256164	2.7738779	1.6654962
13.359332503940449	2.743745	1.6564254
13.376979194877402	2.7270687	1.6513839
13.394626204502751	2.7386572	1.6548889
13.412273533252307	2.7779243	1.6667106
13.429921181561937	2.7959218	1.672101
13.447569149867581	2.8337057	1.6833614
13.465217438605247	2.805788	1.6750487
13.482866048211022	2.75501	1.6598222
13.500514979121052	2.7267146	1.6512767
13.518164231771568	2.73662	1.6542733
13.535813806598844	2.7585497	1.6608882
13.553463704039254	2.7469473	1.6573917
13.571113924529229	2.7128634	1.6470772
13.588764468505275	2.718545	1.6488011
13.606415336403956	2.7509162	1.6585886
13.624066528661917	2.7554107	1.659943
13.641718045715882	2.7850633	1.6688509
13.659369888002635	2.8421867	1.6858786
13.67702205595903	2.9232225	1.7097434
13.694674550021993	3.0147502	1.7363036
13.712327370628532	3.0627964	1.7500846
13.729980518215713	3.1283016	1.7687006
13.747633993220681	3.164663	1.77895
13.765287796080647	3.2479496	1.8022069
13.7829419272329	3.313443	1.8202865
13.800596387114801	3.3801458	1.8385173
13.818251176163775	3.3700924	1.8357811
13.835906294817324	3.4010139	1.8441838
13.853561743513023	3.405818	1.8454858
13.871217522688525	3.4874556	1.867473
13.888873632781538	3.5407083	1.881677
13.906530074229858	3.5473063	1.8834294
13.92418684747135	3.5429292	1.882267
13.941843952943948	3.5086837	1.8731481
13.959501391085665	3.5100112	1.8735024
13.977159162334578	3.461086	1.8603995
13.994817267128846	3.3886826	1.8408375
14.012475705906693	3.2668278	1.8074368
14.030134479106424	3.1802857	1.7833356
14.047793587166414	3.1177118	1.7657043
14.065453030525108	3.0582469	1.7487844
14.083112809621026	2.9928577	1.7299877
14.100772924892766	2.9711573	1.7237046
14.118433376778997	2.9863946	1.7281188
14.136094165718458	2.9435318	1.7156724
14.153755292149969	2.8406978	1.685437
14.171416756512416	2.712049	1.64683
14.189078559244768	2.598025	1.611839
14.20674070078606	2.5321589	1.5912758
14.224403181575408	2.4806936	1.5750217
14.242066002051999	2.4749527	1.5731982
14.259729162655093	2.4709668	1.5719309
14.277392663824022	2.4749663	1.5732026
14.295056505998208	2.4799578	1.5747882
14.312720689617128	2.4598413	1.5683881
14.330385215120348	2.4742067	1.5729611
14.348050082947497	2.4511154	1.5656039
14.3657152935383	2.4340613	1.5601479
14.383380847332528	2.4497938	1.5651817
14.401046744770051	2.4581246	1.5678408
14.418712986290798	2.4152875	1.5541195
14.436379572334793	2.3812811	1.54314
14.454046503342123	2.374501	1.5409416
14.471713779752946	2.3884497	1.5454609
14.489381402007504	2.4191852	1.555373
14.507049370546113	2.4421086	1.5627247
14.524717685809168	2.4584963	1.5679593
14.542386348237134	2.4589262	1.5680964
14.560055358270553	2.4801702	1.5748557
14.577724716350051	2.531702	1.5911323
14.595394422916325	2.5438383	1.5949415
14.61306447841015	2.5381935	1.5931709
14.63073488327237	2.485911	1.5766772
14.648405637943917	2.4884381	1.5774784
14.6660767428658	2.5020697	1.5817932
14.683748198479094	2.5507433	1.5971047
14.701420005224954	2.6428833	1.6256948
14.719092163544628	2.702215	1.6438415
14.73676467387942	2.7790914	1.6670607
14.754437536670727	2.7643993	1.6626483
14.772110752360014	2.7389715	1.6549839
14.78978432138882	2.7001724	1.6432202
14.807458244198777	2.729824	1.6522179
14.82513252123159	2.7410953	1.6556253
14.842807152929028	2.7700777	1.664355
14.860482139732962	2.7288256	1.6519157
14.87815748208531	2.676542	1.6360141
14.8958331804281	2.6655009	1.6326362
14.91350923520342	2.6842546	1.6383696
14.931185646853438	2.752947	1.6592008
14.948862415820408	2.741349	1.655702
14.966539542546656	2.7309625	1.6525624
14.98421702747459	2.6855447	1.6387632
15.001894871046696	2.657245	1.6301059
15.019573073705542	2.6302001	1.6217892
15.037251635893766	2.6496322	1.6277691
15.054930558054092	2.7108145	1.6464552
15.072609840629323	2.7892249	1.6700972
15.090289484062351	2.8784614	1.696603
15.107969488796124	3.140502	1.7721461
15.125649855273691	3.5578728	1.8862324
15.14333058393817	4.0939517	2.0233517
15.161011675232768	5.1003194	2.2583888
15.17869312960076	6.4559703	2.5408602
15.196374947485506	8.312048	2.8830624
15.214057129330447	11.400651	3.376485
15.231739675579114	16.032	4.003998
15.249422586675102	21.100946	4.5935764
15.267105863062092	24.232744	4.9226766
15.284789505183847	24.56137	4.955943
15.302473513484218	22.41361	4.7343016
15.320157888407127	18.771273	4.3325825
15.337842630396578	14.51168	3.8094199
15.355527739896656	11.297819	3.361223
15.37321321735153	8.806928	2.9676468
15.39089906320545	6.471989	2.5440104
15.408585277902748	4.8939176	2.21222
15.42627186188783	3.7893047	1.9466137
15.443958815605198	3.2414365	1.800399
15.461646139499424	2.926253	1.7106295
15.479333834015168	2.7486389	1.657902
15.497021899597165	2.667045	1.6331091
15.514710336690234	2.6279397	1.6210921
15.53239914573928	2.590383	1.6094667
15.550088327189297	2.5808623	1.6065062
15.567777881485336	2.5264192	1.5894713
15.58546780907256	2.4814754	1.5752699
15.6031581103962	2.478477	1.5743179
15.620848785901568	2.5137336	1.5854758
15.638539836034063	2.5115926	1.5848005
15.656231261239173	2.5104575	1.5844424
15.673923061962451	2.52479	1.5889587
15.691615238649552	2.523648	1.5885994
15.709307791746202	2.472844	1.5725279
15.727000721698221	2.431326	1.559271
15.744694028951498	2.4271808	1.5579412
15.76238771395202	2.4652123	1.5700995
15.780081777145844	2.4867744	1.576951
15.797776218979125	2.4543762	1.5666449
15.815471039898094	2.419973	1.5556262
15.833166240349064	2.3611526	1.5366043
15.850861820778437	2.3686383	1.5390381
15.868557781632699	2.403549	1.5503384
15.886254123358412	2.40847	1.5519246
15.903950846402232	2.4038005	1.5504194
15.921647951210897	2.3934317	1.5470719
15.939345438231225	2.3885002	1.5454774
15.957043307910133	2.3973005	1.5483218
15.974741560694602	2.3824096	1.5435057
15.992440197031714	2.4032452	1.5502404
16.01013921736862	2.4282691	1.5582905
16.02783862215259	2.4665785	1.5705345
16.045538411830933	2.4805498	1.5749761
16.06323858685107	2.473949	1.5728792
16.080939147660512	2.47628	1.5736201
16.09864009470684	2.444609	1.5635245
16.11634142843774	2.428442	1.5583459
16.134043149300954	2.4409394	1.5623506
16.15174525774433	2.406889	1.5514152
16.169447754215817	2.3911822	1.5463448
16.18715063916342	2.3865993	1.5448623
16.204853913035244	2.4517477	1.5658058
16.222557576279478	2.4988546	1.5807766
16.240261629344403	22.51411	4.7449036
16.257966072678386	43.042572	6.5606837
16.275670906729868	38.128674	6.174842
16.293376131947387	2.5490758	1.5965825
16.31108174877957	2.542256	1.5944453
16.328787757675133	2.5386324	1.5933087
16.34649415908287	2.5763743	1.6051089
16.364200953451657	2.628885	1.6213837
16.38190814123048	2.6976542	1.6424537
16.39961572286839	2.7189193	1.6489146
16.41732369881455	2.7286372	1.6518587
16.43503206951817	2.7148948	1.6476938
16.45274083542859	2.7614973	1.6617754
16.47044999699522	2.8114212	1.6767293
16.488159554667558	2.8796854	1.6969635
16.505869508895184	2.9237778	1.7099057
16.523579860127786	2.9414983	1.7150797
16.541290608815117	2.9871817	1.7283465
16.559001755407035	3.0434859	1.7445589
16.57671330035348	3.119391	1.7661798
16.59442524410448	3.1687338	1.7800938
16.61213758711015	3.233541	1.7982049
16.629850329820705	3.3016298	1.8170388
16.647563472686436	3.3871589	1.8404236
16.665277016157724	3.4275973	1.8513771
16.682990960685053	3.4565067	1.8591683
16.70070530671898	3.484434	1.8666638
16.718420054710155	3.556413	1.8858454
16.736135205109335	3.6365538	1.906975
16.753850758367335	3.6668792	1.9149097
16.771566714935087	3.661797	1.9135822
16.789283075263597	3.70633	1.9251832
16.80699983980398	3.8337407	1.9579941
16.82471700900741	3.9395027	1.9848181
16.84243458332518	3.9997938	1.9999484
16.860152563208665	4.0077558	2.001938
16.87787094910932	4.0745215	2.0185444
16.89558974147871	4.159112	2.03939
16.913308940768466	4.2309766	2.0569339
16.931028547430333	4.2828827	2.0695126
16.94874856191613	4.3798776	2.0928156
16.966468984677785	4.4639587	2.1128082
16.98418981616729	4.504591	2.1224022
17.00191105683676	4.518872	2.125764
17.019632707138374	4.508138	2.1232376
17.03735476752442	4.5438375	2.1316278
17.05507723844728	4.6024437	2.1453307
17.072800120359403	4.6622095	2.159215
17.090523413713353	4.6986694	2.1676414
17.108247118961785	4.6791873	2.163143
17.125971236557437	4.689495	2.1655242
17.143695766953133	4.706863	2.1695306
17.161420710601806	4.71427	2.171237
17.179146067956477	4.6749487	2.162163
17.19687183947025	4.6409893	2.1542954
17.21459802559634	4.67149	2.1613631
17.232324626788028	4.6573052	2.1580791
17.25005164349871	4.6684165	2.160652
17.267779076181863	4.6998487	2.1679134
17.285506925291074	4.706647	2.1694808
17.30323519127999	4.6699967	2.1610174
17.320963874602384	4.627046	2.151057
17.33869297571211	4.6202583	2.1494787
17.356422495063114	4.6582923	2.1583078
17.37415243310944	4.615339	2.148334
17.391882790305218	4.584163	2.1410658
17.40961356710468	4.5893626	2.1422799
17.42734476396215	4.6593146	2.1585445
17.445076381332044	4.623719	2.1502836
17.462808419668868	4.636592	2.1532748
17.48054087942723	4.762019	2.1822052
17.498273761061835	5.1128573	2.2611628
17.51600706502747	5.577441	2.3616607
17.533740791779024	6.2376485	2.4975286
17.551474941771485	7.6695085	2.7693877
17.56920951545993	8.80688	2.9676387
17.586944513299528	11.0826235	3.3290575
17.60467993574556	12.813937	3.5796561
17.622415783253373	14.379919	3.7920864
17.64015205627843	15.659785	3.9572446
17.657888755276293	16.615196	4.0761743
17.675625880702604	17.234303	4.1514215
17.69336343301311	17.026857	4.1263614
17.71110141266366	16.281149	4.034991
17.728839820110178	15.263589	3.9068644
17.746578655808705	14.287168	3.779837
17.764317920215372	12.875343	3.588223
17.7820576137864	11.466799	3.3862662
17.79979773697811	9.5526705	3.0907395
17.81753829024692	7.691683	2.7733884
17.835279274049356	5.949474	2.4391544
17.85302068884201	4.981919	2.2320213
17.870762535081607	4.3507824	2.0858529
17.888504813224934	4.0274296	2.0068457
17.90624752372891	3.7813926	1.9445803
17.923990667050536	3.6071448	1.8992485
17.941734243646895	3.5220761	1.8767195
17.959478253975185	3.4855368	1.8669592
17.9772226984927	3.4603035	1.8601891
17.994967577656833	3.45106	1.8577029
18.01271289192506	3.4242258	1.8504664
18.030458641754965	3.4020476	1.8444641
18.04820482760425	3.3533804	1.8312237
18.06595144993067	3.3112915	1.8196955
18.083698509192125	3.284356	1.8122792
18.101446005846576	3.3279889	1.8242776
18.119193940352105	3.3204954	1.8222226
18.136942313166887	3.3291426	1.8245938
18.1546911247492	3.253749	1.8038151
18.1724403755574	3.1995535	1.7887295
18.19019006604997	3.185852	1.7848955
18.207940196685467	3.1991618	1.7886201
18.225690767922575	3.2005305	1.7890027
18.243441780220046	3.1886055	1.7856667
18.261193234036764	3.155935	1.7764952
18.278945129831676	3.098741	1.7603241
18.29669746806386	3.0734031	1.7531124
18.314450249192483	3.070482	1.752279
18.3322034736768	3.0656188	1.7508909
18.349957141976184	3.0549078	1.7478294
18.3677112545501	3.0860405	1.756713
18.385465811858108	3.0747263	1.7534897
18.403220814359884	3.0514755	1.7468473
18.420976262515172	3.0383966	1.7430997
18.43873215678387	3.073306	1.7530848
18.456488497625923	3.1546566	1.7761353
18.474245285501407	3.2559133	1.804415
18.492002520870486	3.2920146	1.814391
18.50976020419343	3.3844597	1.8396901
18.527518335930615	3.7330558	1.9321117
18.545276916542516	4.329701	2.0807934
18.563035946489688	4.495381	2.1202314
18.580795426232832	5.0031595	2.2367744
18.598555356232698	4.907542	2.2152972
18.616315736950185	5.145255	2.2683156
18.63407656884626	4.801583	2.1912515
18.65183785238201	5.034011	2.2436602
18.669599588018617	4.798725	2.1905992
18.68736177621737	4.7686105	2.1837149
18.705124417439652	4.718969	2.1723187
18.72288751214696	4.536046	2.1297996
18.740651060800886	4.6748753	2.162146
18.758415063863115	4.391447	2.095578
18.77617952179546	4.551543	2.1334345
18.793944435059814	4.295608	2.0725849
18.811709804118184	4.292736	2.0718918
18.829475629432675	4.27276	2.0670655
18.8472419114655	4.093434	2.0232236
18.86500865067897	4.1972966	2.0487304
18.88277584753551	3.8434548	1.9604731
18.90054350249763	3.8590357	1.9644428
18.918311616027957	3.5321717	1.8794073
18.936080188589226	3.4218383	1.8498211
18.953849220644265	3.1195984	1.7662385
18.971618712656007	2.9658217	1.7221562
18.9893886650875	2.9186149	1.7083954
19.007159078401887	8.046756	2.8366804
19.024929953062408	32.94714	5.7399597
19.042701289532435	32.887608	5.7347717
19.060473088275405	25.445742	5.0443773
19.07824534975489	2.7059443	1.6449754
19.096018074434568	2.6952324	1.6417162
19.113791262778197	2.6937103	1.6412526
19.13156491524966	2.7019606	1.6437641
19.149339032312945	2.6803215	1.6371688
19.167113614432136	2.6571336	1.6300716
19.184888662071433	2.5820127	1.6068642
19.202664175695123	2.5557303	1.5986651
19.220440155767623	2.5461175	1.5956558
19.238216602753447	2.5566125	1.5989411
19.2559935171172	2.5416636	1.5942596
19.27377089932361	2.5327597	1.5914646
19.291548749837514	2.5746708	1.604578
19.309327069123835	2.6190822	1.6183579
19.32710585764763	2.6353405	1.6233732
19.344885115874032	2.5545995	1.5983114
19.362664844268313	2.5351698	1.5922216
19.380445043295822	2.5394237	1.5935569
19.39822571342203	2.5888987	1.6090055
19.41600685511252	2.5872054	1.6084793
19.43378846883297	2.5713558	1.6035447
19.451570555049173	2.5593169	1.5997865
19.469353114227037	2.5418763	1.5943263
19.48713614683254	2.5440533	1.5950089
19.50491965333182	2.5397184	1.5936494
19.52270363419109	2.5216827	1.5879807
19.540488089876686	2.4884315	1.5774763
19.55827302085503	2.5251548	1.5890735
19.576058427592674	2.5269752	1.5896462
19.593844310556282	2.4984417	1.5806459
19.611630670212598	2.4619555	1.569062
19.629417507028506	2.4902039	1.578038
19.64720482147098	2.5425158	1.5945268
19.6649926140071	2.5447128	1.5952156
19.682780885104084	2.509653	1.5841885
19.70056963522921	2.4714794	1.572094
19.718358864849908	2.4605598	1.5686172
19.7361485744337	2.4830244	1.5757616
19.753938764448215	2.4888268	1.5776016
19.771729435361202	2.4927118	1.5788324
19.789520587640506	2.5132167	1.5853128
19.807312221754092	2.551097	1.5972154
19.825104338170043	2.553485	1.5979627
19.842896937356517	2.5398088	1.5936778
19.860690019781824	2.5207527	1.5876878
19.87848358591436	2.5646527	1.6014533
19.896277636222635	2.596673	1.6114196
19.914072171175278	2.597718	1.6117438
19.931867191241015	2.5773053	1.6053988
19.94966269688869	2.5556374	1.5986362
19.967458688587264	2.5276377	1.5898546
19.985255166805807	2.4858704	1.5766643
20.00305213201348	2.471938	1.5722398
20.020849584679578	2.4510617	1.5655867
20.038647525273507	2.515071	1.5858976
20.05644595426477	2.5381644	1.5931617
20.07424487212299	2.5365362	1.5926507
20.092044279317903	2.5071347	1.5833935
20.109844176319353	2.4729357	1.5725571
20.127644563597304	2.4869196	1.576997
20.145445441621817	2.489144	1.5777022
20.16324681086307	2.4620948	1.5691063
20.181048671791373	2.4425962	1.5628808
20.198851024877122	2.416566	1.5545307
20.216653870590836	2.4087553	1.5520165
20.234457209403146	2.3777113	1.5419829
20.252261041784802	2.3971193	1.5482633
20.270065368206662	2.4143872	1.5538299
20.287870189139685	2.407432	1.5515902
20.305675505054968	2.3986223	1.5487486
20.323481316423702	2.401369	1.5496352
20.341287623717207	2.391595	1.5464783
20.359094427406884	2.3977766	1.5484756
20.376901727964288	2.3738384	1.5407265
20.39470952586107	2.4046173	1.5506829
20.41251782156899	2.414217	1.5537751
20.430326615559935	2.40187	1.5497968
20.448135908305886	2.3841932	1.5440832
20.465945700278965	2.3780868	1.5421047
20.483755991951384	2.3727102	1.5403605
20.50156678379548	2.3873115	1.5450927
20.519378076283708	2.3742645	1.5408648
20.537189869888635	2.3553014	1.5346991
20.55500216508294	2.3420403	1.5303726
20.572814962339415	2.3535604	1.5341318
20.59062826213098	2.335821	1.5283393
20.60844206493066	2.3635528	1.5373851
20.626256371211593	2.3547583	1.5345222
20.644071181447032	2.3559797	1.5349201
20.66188649611036	2.3205101	1.5233221
20.67970231567506	2.3286147	1.5259799
20.697518640614742	2.328415	1.5259144
20.715335471403122	2.337776	1.5289787
20.73315280851404	2.3664968	1.5383422
20.750970652421447	2.370481	1.5396366
20.768789003599412	2.355801	1.5348619
20.786607862522136	2.3218405	1.5237586
20.8044272296639	2.3302267	1.526508
20.82224710549913	2.3189764	1.5228186
20.84006749050237	2.2994738	1.5164015
20.857888385148268	3.852416	1.9627572
20.8757097899116	45.961105	6.779462
20.893531705267254	64.82334	8.051294
20.911354131690224	83.84036	9.156438
20.92917706965566	69.10292	8.312817
20.94700051963877	50.154106	7.0819564
20.96482448211493	29.421766	5.4241834
20.982648957559622	4.1693654	2.0419023
21.00047394644843	2.27837	1.5094271
21.01829944925707	2.282343	1.5107425
21.036125466461375	2.2537837	1.5012608
21.053951998537297	2.239135	1.496374
21.071779045960906	2.2437823	1.497926
21.089606609208378	2.2251296	1.4916868
21.10743468875603	2.213611	1.4878209
21.12526328508028	2.1916554	1.480424
21.143092398657675	2.2253187	1.4917502
21.16092202996488	2.2554245	1.5018071
21.17875217947867	2.2421021	1.4973651
21.19658284767596	2.2314098	1.4937904
21.21441403503377	2.2050319	1.4849349
21.232245742029225	2.1784668	1.475963
21.2500779691396	2.1634514	1.4708676
21.26791071684227	2.1934774	1.4810393
21.28574398561475	2.2434218	1.4978057
21.30357777593465	2.235929	1.4953023
21.321412088279704	2.2149284	1.4882636
21.339246923127792	2.1706889	1.4733257
21.357082280956888	2.1516411	1.4668473
21.3749181622451	2.1324391	1.4602873
21.392754567470647	2.1364985	1.4616766
21.41059149711187	2.1525264	1.467149
21.42842895164726	2.147544	1.46545
21.446266931555378	2.1303926	1.4595864
21.464105437314945	2.1217506	1.456623
21.481944469404798	2.1645021	1.4712247
21.49978402830388	2.1901615	1.4799194
21.51762411449127	2.1761148	1.4751661
21.53546472844617	2.1287732	1.4590316
21.553305870647876	2.0933805	1.446852
21.571147541575865	2.1263692	1.4582075
21.58898974170967	2.1365552	1.461696
21.60683247152899	2.1308694	1.4597498
21.62467573151363	2.096199	1.4478257
21.642519522143523	2.1050956	1.4508947
21.660363843898722	2.0830524	1.4432783
21.6782086972594	2.0611954	1.4356863
21.696054082705864	2.0435982	1.4295447
21.713900000718535	2.0332093	1.4259065
21.73174645177795	2.0405977	1.4284949
21.749593436364794	2.0516934	1.4323734
21.767440954959845	2.0292792	1.4245278
21.785289008044032	2.0302627	1.4248729
21.803137596098388	2.0428064	1.4292678
21.820986719604086	2.0638871	1.4366235
21.838836379042412	2.0342886	1.4262849
21.85668657489478	2.020845	1.4215642
21.87453730764273	2.0003178	1.414326
21.892388577767914	2.0122848	1.4185503
21.91024038575213	2.0307484	1.4250433
21.928092732077285	2.030337	1.424899
21.945945617225426	2.017228	1.4202914
21.963799041678694	2.008589	1.4172469
21.981653005919398	31.372429	5.6011095
21.999507510429943	78.15372	8.840459
22.01736255569286	73.07535	8.548412
22.035218142190818	4.1520243	2.0376515
22.05307427040661	2.01814	1.4206126
22.07093094082315	2.0466938	1.4306271
22.088788153923474	2.0625293	1.4361509
22.106645910190746	2.0850892	1.4439838
22.12450421010827	2.0687737	1.4383233
22.142363054159464	2.0538619	1.4331301
22.16022244282787	2.0227978	1.422251
22.178082376597164	1.9945234	1.4122759
22.195942855951145	1.9845695	1.4087476
22.213803881373742	1.9874293	1.4097621
22.231665453349002	1.9736122	1.4048531
22.24952757236111	1.9573882	1.3990669
22.26739023889438	1.9520539	1.3971592
22.28525345343323	1.9709696	1.4039122
22.30311721646225	1.985377	1.409034
22.320981528466113	2.0030146	1.4152789
22.33884638992964	2.0186758	1.4208012
22.356711801337788	2.0107706	1.4180164
22.37457776317561	2.00797	1.4170287
22.392444275928337	1.9792961	1.4068745
22.410311340081282	1.9425226	1.3937441
22.428178956119904	1.9783351	1.406533
22.446047124529805	2.0059552	1.4163175
22.46391584579669	1.9979161	1.4134766
22.481785120406414	1.968717	1.4031098
22.49965494884496	1.9645	1.4016062
22.51752533159841	1.9554316	1.3983675
22.53539626915302	1.9275439	1.3883601
22.553267761995137	1.9239926	1.3870807
22.571139810611264	1.9352987	1.3911501
22.589012415488025	1.967602	1.4027123
22.60688557711216	1.9813807	1.4076153
22.624759295970566	1.9778103	1.4063464
22.642633572550263	1.9709667	1.4039112
22.660508407338362	1.9875407	1.4098016
22.67838380082217	1.9770224	1.4060663
22.696259753489077	1.9640132	1.4014325
22.714136265826614	1.954841	1.3981563
22.73201333832246	1.9503391	1.3965454
22.74989097146439	1.9662659	1.402236
22.76776916574035	1.9728247	1.4045727
22.785647921638393	1.9735534	1.4048321
22.803527239646712	1.9206861	1.3858882
22.82140712025363	1.8891364	1.3744586
22.839287563947593	1.8686163	1.3669734
22.85716857121719	1.8760691	1.3696967
22.875050142551135	1.903135	1.3795415
22.892932278438277	1.9242	1.3871554
22.910814979367604	1.9222717	1.3864602
22.928698245828222	1.9325373	1.3901573
22.946582078309387	1.9391702	1.3925409
22.96446647730047	1.9980633	1.4135287
22.98235144329098	1.9908984	1.410992
23.000236976770562	2.007212	1.416761
23.018123078229	1.9324042	1.3901094
23.03600974815619	1.9165138	1.3843821
23.053896987042194	1.9335666	1.3905275
23.071784795377173	1.9495425	1.3962601
23.08967317365145	1.9213696	1.3861347
23.10756212235546	1.9224315	1.3865178
23.125451641979787	1.9553363	1.3983334
23.143341733015134	1.998109	1.4135448
23.161232395952357	1.9866666	1.4094915
23.179123631282426	1.9520807	1.3971689
23.197015439496468	1.8979086	1.377646
23.214907821085717	1.867321	1.3664995
23.23280077654157	1.882358	1.3719906
23.250694306355538	1.9374688	1.3919299
23.268588411019277	1.9555042	1.3983934
23.28648309102458	1.9876299	1.4098333
23.304378346863356	2.0087438	1.4173015
23.322274179027676	1.9598567	1.3999488
23.340170588009723	1.8916882	1.3753866
23.358067574301852	1.901108	1.3788067
23.37596513839651	1.9516041	1.3969983
23.39386328078629	1.9562324	1.3986537
23.411762001963947	1.9340255	1.3906925
23.429661302422353	1.921722	1.3862619
23.4475611826545	1.9035717	1.3796998
23.46546164315356	1.904901	1.3801816
23.48336268441279	1.9363861	1.3915409
23.501264306925638	1.966261	1.4022343
23.51916651118564	1.9479934	1.3957053
23.537069297686497	1.9113523	1.3825166
23.554972666922037	1.9324054	1.3901098
23.57287661938623	1.9334527	1.3904865
23.59078115557318	1.9406002	1.3930542
23.608686275977128	1.9504132	1.396572
23.62659198109246	1.9732665	1.4047301
23.6444982714137	1.9498574	1.3963729
23.66240514743549	1.927205	1.3882381
23.68031260965263	1.9229332	1.3866987
23.698220658560068	1.93716	1.391819
23.716129294652845	1.916356	1.3843251
23.7340385184262	1.8997812	1.3783255
23.75194833037546	1.9395634	1.3926821
23.769858730996123	1.9740337	1.4050031
23.78776972078382	1.9844729	1.4087132
23.80568130023431	1.9465039	1.3951716
23.823593469843495	1.913947	1.3834547
23.841506230107424	1.9428382	1.3938574
23.859419581522275	1.9604149	1.4001482
23.87733352458438	1.9187939	1.3852054
23.89524805979019	1.8939314	1.3762017
23.913163187636318	1.8883655	1.3741782
23.931078908619508	1.9335552	1.3905233
23.948995223236633	1.9562985	1.3986773
23.966912131984735	2.006207	1.4164064
23.98482963536096	2.0297322	1.4246867
24.002747733862616	2.0832584	1.4433497
24.020666427987155	2.086472	1.4444625
24.038585718232156	2.1293938	1.4592443
24.056505605095353	2.1215575	1.4565567
24.074426089074617	2.086142	1.4443483
24.092347170667946	2.076047	1.4408494
24.110268850373515	2.069572	1.4386007
24.128191128689586	2.0806785	1.4424556
24.146114006114626	2.0109367	1.418075
24.164037483147187	1.9774916	1.4062331
24.181961560286005	1.9862627	1.4093484
24.199886238029926	2.0568466	1.4341711
24.21781151687797	2.0819178	1.4428853
24.235737397329274	2.0646517	1.4368896
24.253663879883135	2.0757365	1.4407417
24.271590965038975	2.099919	1.4491098
24.289518653296376	2.1014643	1.4496428
24.30744694515505	2.0845366	1.4437925
24.32537584111486	2.0701175	1.4387903
24.34330534167581	2.0273945	1.423866
24.361235447338046	1.9887557	1.4102325
24.379166158601876	1.9764851	1.4058752
24.39709747596772	2.0397937	1.4282135
24.41502939993615	2.046293	1.430487
24.432961931007917	2.0226085	1.4221845
24.450895069683856	2.0315518	1.4253252
24.468828816465	2.039377	1.4280676
24.4867631718525	2.0333638	1.4259607
24.504698136347656	1.9988595	1.4138103
24.52263371045192	1.9882178	1.4100418
24.540569894666874	2.0287514	1.4243424
24.558506689494266	2.059135	1.4349686
24.57644409543597	2.0219584	1.4219558
24.594382112994012	1.9766513	1.4059343
24.61232074267057	1.9655087	1.401966
24.630259984967953	1.9933594	1.4118638
24.64819984038863	1.9921751	1.4114443
24.66614030943522	1.9943482	1.4122139
24.684081392610462	2.030925	1.4251052
24.702023090417274	2.0595806	1.4351239
24.7199654033587	1.9825903	1.4080448
24.737908331937927	1.9560932	1.398604
24.755851876658305	1.9570189	1.3989348
24.773796038023324	2.0312355	1.4252142
24.79174081653661	2.105426	1.4510087
24.809686212701962	2.1319723	1.4601275
24.827632227023294	2.1430614	1.4639199
24.8455788600047	2.1313899	1.459928
24.8635261121504	2.1448057	1.4645154
24.88147398396475	2.1437726	1.4641627
24.899422475952303	2.0803185	1.442331
24.917371588617698	2.0912018	1.4460988
24.935321322465768	2.1434639	1.4640573
24.953271678001478	2.2729166	1.5076195
24.97122265572994	2.4367535	1.5610104
24.989174256156414	2.7846522	1.6687278
25.00712647978632	3.2867713	1.8129455
25.02507932712521	3.865063	1.9659764
25.043032798678798	4.3693986	2.0903106
25.060986894952933	5.0144463	2.239296
25.078941616453637	5.7159314	2.3908014
25.096896963687055	6.658902	2.5804849
25.114852937159508	7.856915	2.8030188
25.132809537377444	8.329204	2.886036
25.150766764847468	8.442252	2.9055555
25.168724620076347	7.8096056	2.794567
25.186683103570985	6.814531	2.6104655
25.204642215838426	5.6082845	2.3681817
25.222601957385894	4.2323627	2.0572708
25.24056232872074	3.1746724	1.781761
25.25852333035048	2.6420865	1.6254497
25.276484962782778	2.3071687	1.5189368
25.294447226525435	2.1150897	1.4543347
25.312410122086423	1.9865167	1.4094385
25.330373649973843	1.9355366	1.3912356
25.348337810695988	1.9751475	1.4053994
25.366302604761245	2.014675	1.4193925
25.384268032678207	2.0398357	1.4282281
25.40223409495558	1.985375	1.4090334
25.420200792102257	1.9562478	1.3986593
25.438168124627246	1.8858109	1.3732483
25.45613609303974	1.8567581	1.3626292
25.474104697849057	1.8523371	1.3610059
25.492073939564698	1.886474	1.3734897
25.510043818696285	1.8647778	1.3655686
25.528014335753614	1.8678905	1.3667079
25.54598549124664	1.877994	1.3703992
25.56395728568544	1.8605015	1.364002
25.58192971958028	1.8211256	1.3494909
25.59990279344156	1.7832032	1.3353664
25.617876507779833	1.8067611	1.3441582
25.635850863105826	1.8654882	1.3658288
25.653825859930386	1.9292669	1.3889805
25.671801498764548	1.9380121	1.392125
25.68977778011949	1.8907611	1.3750495
25.707754704506524	1.8718485	1.3681551
25.725732272437153	1.8647187	1.3655471
25.743710484423012	1.85587	1.3623033
25.761689340975888	1.8704044	1.3676273
25.77966884260774	1.914325	1.3835913
25.797648989830662	1.9428796	1.3938721
25.815629783156922	1.9602321	1.400083
25.83361122309895	1.9547203	1.3981131
25.85159331016929	1.9555186	1.3983986
25.869576044880695	1.965364	1.4019144
25.887559427746034	1.9189638	1.3852667
25.90554345927836	1.8284075	1.3521862
25.92352813999086	1.7774539	1.3332119
25.94151347039689	1.804816	1.3434345
25.959499451009965	1.8343074	1.3543661
25.97748608234374	1.8287572	1.3523154
25.995473364912062	1.8351222	1.3546668
26.013461299228904	1.8741461	1.3689946
26.03144988580839	1.9267079	1.388059
26.04943912516483	1.8735776	1.3687869
26.067429017812675	1.8317938	1.3534378
26.085419564266537	1.8373052	1.3554723
26.103410765041186	1.8882903	1.3741508
26.12140262065155	1.8315226	1.3533375
26.139395131612723	1.8025453	1.342589
26.157388298439948	1.8482504	1.3595037
26.17538212164861	1.8490443	1.3597957
26.193376601754295	1.8074924	1.3444301
26.211371739272714	1.8303099	1.3528894
26.229367534719746	1.8618437	1.364494
26.247363988611433	1.8642949	1.3653919
26.26536110146397	1.8034415	1.3429228
26.283358873793727	1.801454	1.3421825
26.301357306117204	1.8212203	1.3495259
26.319356398951104	1.855266	1.3620815
26.33735615281224	1.8049288	1.3434764
26.35535656821762	1.7406675	1.3193436
26.373357645684404	1.7596445	1.3265159
26.39135938572991	1.8085895	1.344838
26.409361788871614	1.8360482	1.3550086
26.427364855627165	1.8083522	1.3447499
26.445368586514352	1.782129	1.334964
26.46337298205115	1.7460154	1.3213688
26.48137804275568	1.7615972	1.3272517
26.499383769146217	1.8115445	1.3459363
26.517390161741215	1.8173698	1.3480986
26.53539722105928	1.7983814	1.3410374
26.553404947619182	1.8317908	1.3534367
26.571413341939856	1.8172146	1.348041
26.589422404540397	1.797469	1.3406972
26.60743213594006	1.8147131	1.3471129
26.62544253665827	1.8155141	1.3474101
26.64345360721459	1.7981868	1.3409649
26.66146534812879	1.7654481	1.3287016
26.679477759920758	1.7596766	1.3265281
26.69749084311057	1.7991803	1.3413353
26.71550459821847	1.8540409	1.3616316
26.733519025764842	1.8706877	1.3677309
26.751534126270258	1.8433136	1.3576869
26.769549900255434	1.8264109	1.3514477
26.787566348241267	1.8387702	1.3560126
26.80558347074881	1.8807467	1.3714032
26.823601268299267	1.8572456	1.362808
26.841619741414036	1.8394107	1.3562487
26.85963889061465	1.8352815	1.3547256
26.877658716422832	1.8081813	1.3446863
26.89567921936045	1.8628786	1.364873
26.913700399949544	1.9084405	1.3814632
26.93172225871233	1.904157	1.379912
26.949744796171174	1.8642578	1.3653783
26.967768012848605	1.8055304	1.3437003
26.98579190926733	1.7817794	1.3348331
27.003816485950225	1.7950783	1.3398054
27.021841743420318	1.8315814	1.3533593
27.039867682200814	1.8496379	1.360014
27.057894302815072	1.8539394	1.3615944
27.07592160578664	1.8042208	1.3432128
27.0939495916392	1.785302	1.336152
27.111978260896635	1.7930249	1.3390388
27.13000761408296	1.7963645	1.3402853
27.148037651722397	1.8257664	1.3512093
27.166068374339304	1.8145744	1.3470614
27.184099782458215	1.802477	1.3425636
27.20213187660384	1.8361472	1.3550451
27.22016465730105	1.8412739	1.3569355
27.23819812507487	1.7951123	1.339818
27.256232280450533	1.7709416	1.3307673
27.274267123953383	1.7850131	1.3360438
27.292302656108987	1.8168374	1.3479011
27.31033887744306	1.7999235	1.3416123
27.32837578848146	1.850079	1.3601761
27.34641338975026	1.8281851	1.352104
27.364451681775673	1.803922	1.3431016
27.382490665084074	1.8038069	1.3430588
27.400530340202046	1.8389525	1.3560798
27.41857070765629	1.8434042	1.3577203
27.436611767973726	1.8068527	1.3441923
27.454653521681404	1.7930986	1.3390663
27.472695969306564	1.8181957	1.3484049
27.490739111376627	1.831249	1.3532364
27.508782948419153	1.8167593	1.3478721
27.526827480961902	1.7734568	1.331712
27.54487270953279	1.8144287	1.3470073
27.562918634659898	1.8222775	1.3499177
27.580965256871508	1.8497301	1.3600478
27.599012576696026	1.8682921	1.3668548
27.617060594662068	1.8549527	1.3619665
27.63510931129842	1.8312792	1.3532476
27.65315872713401	1.8500922	1.360181
27.67120884269797	1.8930439	1.3758793
27.68925965851958	1.9031122	1.3795333
27.707311175128307	1.8923233	1.3756174
27.725363393053787	1.8829756	1.3722156
27.74341631282583	1.8925084	1.3756847
27.7614699349744	1.8845106	1.3727748
27.77952426002968	2.1152837	1.4544015
27.797579288521973	2.2068172	1.485536
27.815635020981784	2.5733356	1.604162
27.83369145793979	2.5813065	1.6066445
27.85174859992682	2.4055355	1.5509789
27.869806447473923	2.2949443	1.5149074
27.887865001112267	2.0459464	1.4303658
27.905924261373233	1.9872077	1.4096836
27.92398422878836	1.957745	1.3991944
27.94204490388936	1.9574841	1.3991011
27.96010628720813	1.8942505	1.3763177
27.978168379276728	1.9151952	1.3839058
27.9962311806274	1.947808	1.395639
28.014294691792568	1.9412458	1.393286
28.0323589133048	1.8920891	1.3755323
28.050423845696887	1.8465058	1.3588619
28.068489489501758	1.8540438	1.3616328
28.086555845252523	1.8552498	1.3620756
28.104622913482487	1.8877145	1.3739412
28.122690694725115	1.9081396	1.3813542
28.14075918951405	1.9224914	1.3865393
28.15882839838312	1.9388604	1.3924297
28.176898321866304	1.9440074	1.3942766
28.1949689604978	1.9414049	1.3933431
28.213040314811945	1.945834	1.3949316
28.23111238534327	1.9604659	1.4001664
28.249185172626493	1.9814698	1.4076469
28.267258677196473	1.9836862	1.4084339
28.285332899588294	1.9829584	1.4081756
28.303407840337172	1.9349704	1.3910321
28.321483499978545	1.9166943	1.3844473
28.33955987904799	1.931835	1.3899047
28.357636978081285	1.929165	1.3889438
28.37571479761439	1.9293648	1.3890158
28.393793338183425	1.9117533	1.3826617
28.41187260032469	1.8998295	1.378343
28.429952584574686	1.8950738	1.3766168
28.448033291470065	1.914349	1.3836
28.46611472154769	1.941282	1.393299
28.484196875344566	1.9736153	1.4048542
28.502279753397914	1.9550081	1.398216
28.52036335624511	1.9113551	1.3825177
28.538447684423716	1.9266472	1.3880372
28.556532738471482	1.9756899	1.4055923
28.574618518926325	2.0029082	1.4152414
28.59270502632635	2.0198205	1.4212039
28.61079226120985	2.033051	1.425851
28.628880224115274	2.0545523	1.433371
28.646968915581287	2.031661	1.4253634
28.66505833614671	2.0452561	1.4301245
28.68314848635055	2.0472655	1.4308269
28.701239366732004	2.052308	1.4325879
28.71933097783044	2.085343	1.4440717
28.737423320185403	2.107456	1.451708
28.75551639433665	2.126719	1.4583274
28.773610200824074	2.1480372	1.4656184
28.791704740187793	2.1656673	1.4716207
28.80980001296809	2.1671917	1.4721385
28.827896019705413	2.1794927	1.4763105
28.845992760940433	2.1500568	1.4663072
28.86409023721397	2.2183473	1.4894117
28.88218844906704	2.2526839	1.5008943
28.900287397040845	2.2529316	1.5009769
28.918387081676755	2.2178264	1.4892368
28.936487503516343	2.2978675	1.5158719
28.954588663101365	2.306784	1.51881
28.97269056097374	2.2531812	1.50106
28.990793197675597	2.222962	1.49096
29.00889657374923	2.2972074	1.5156541
29.027000689737125	2.3907027	1.5461898
29.04510554618196	2.4133935	1.5535101
29.06321114362659	2.3983595	1.5486637
29.08131748261405	2.4609213	1.5687324
29.099424563687567	2.4796665	1.5746957
29.11753238739057	2.4333966	1.5599349
29.13564095426663	2.4542027	1.5665895
29.15375026485954	2.602825	1.6133273
29.171860319713275	2.7042456	1.644459
29.18997111937199	2.7296572	1.6521674
29.20808266438002	2.8157783	1.6780281
29.226194955281898	2.8557966	1.6899102
29.244307992622335	2.8318417	1.6828077
29.26242177694624	2.8576667	1.6904634
29.2805363087987	2.899921	1.7029154
29.29865158872498	2.9100661	1.7058916
29.316767617270557	2.885754	1.6987507
29.334884394981064	2.9573286	1.7196885
29.353001922402367	3.0550277	1.7478638
29.37112020008047	3.1451716	1.7734631
29.389239228561596	3.184019	1.784382
29.407359008392152	3.3751214	1.8371503
29.42547954011872	3.7036822	1.9244953
29.44360082428809	4.3547964	2.0868149
29.46172286144722	5.393568	2.3224056
29.479845652143283	6.998038	2.6453805
29.497969196923606	9.088593	3.0147293
29.516093496335728	11.583682	3.4034808
29.5342185509274	14.3749	3.7914245
29.55234436124651	16.632778	4.0783305
29.570470927841175	17.958382	4.237733
29.588598251259686	17.69933	4.207057
29.60672633205055	16.342999	4.0426474
29.624855170762405	14.145422	3.76104
29.642984767944146	11.567074	3.40104
29.66111512414481	8.964377	2.994057
29.67924623991366	6.600992	2.5692396
29.697378115800138	5.0321593	2.2432475
29.71551075235387	4.2117114	2.0522454
29.733644150124675	3.8465137	1.9612532
29.751778309662576	3.5424006	1.8821266
29.769913231517766	3.3630552	1.8338635
29.78804891624066	3.330456	1.8249537
29.806185364381818	3.3562896	1.8320179
29.82432257649206	3.3990679	1.8436561
29.842460553122333	3.39951	1.843776
29.86059929482382	3.3288102	1.8245027
29.878738802147872	3.2718344	1.8088213
29.896879075646048	3.292886	1.8146311
29.915020115870114	3.3509247	1.8305532
29.933161923371976	3.3380702	1.8270386
29.951304498703777	3.279285	1.8108796
29.969447842417857	3.2465205	1.8018104
29.987591955066733	3.2148888	1.7930111
30.005736837203123	3.1731625	1.7813373
30.023882489379943	3.1949139	1.7874322
30.04202891215028	3.22281	1.7952187
30.060176106067455	3.2684076	1.8078737
30.078324071684946	3.2319725	1.7977687
30.09647280955646	3.2131922	1.7925379
30.114622320235863	3.1729612	1.7812808
30.132772604277257	3.1269317	1.7683132
30.1509236622349	3.0794785	1.7548443
30.16907549466328	3.1151798	1.7649872
30.18722810211705	3.1730304	1.7813002
30.205381485151097	3.1352	1.7706496
30.22353564432045	3.0970507	1.759844
30.241690580180403	3.1011019	1.7609946
30.25984629328638	3.089866	1.7578014
30.278002784194037	3.018771	1.7374611
30.296160053459246	2.970207	1.7234288
30.314318101638033	2.9981163	1.731507
30.332476929286646	3.0062444	1.7338525
30.35063653696153	2.946491	1.7165346
30.368796925219307	2.9293034	1.7115208
30.386958094616844	2.9541335	1.7187593
30.40512004571115	2.9549897	1.7190083
30.423282779059463	2.8595996	1.691035
30.441446295219233	2.8249283	1.6807523
30.459610594748067	2.857079	1.6902896
30.47777567820382	2.8762639	1.6959552
30.495941546144504	2.8421586	1.6858703
30.51410819912835	2.7614403	1.6617582
30.532275637713795	2.7809377	1.6676143
30.55044386245946	2.8396842	1.6851363
30.56861287392416	2.8131173	1.677235
30.586782672666956	2.7691107	1.6640645
30.604953259247047	2.8039253	1.6744926
30.623124634223885	2.824654	1.6806707
30.641296798157075	2.7760167	1.6661383
30.659469751606462	2.755526	1.6599777
30.677643495132074	2.796817	1.6723686
30.695818029294152	2.7996826	1.6732252
30.713993354653116	2.7515285	1.6587732
30.73216947176962	2.7353928	1.6539023
30.75034638120448	2.6916242	1.640617
30.768524083518756	2.6828501	1.6379408
30.786702579273673	2.7141893	1.6474797
30.80488186903069	2.724659	1.6506541
30.82306195335144	2.8736134	1.6951735
30.841242832797782	3.0669641	1.7512751
30.85942450793176	3.3838987	1.8395376
30.877606979315637	3.7448633	1.9351649
30.895790247511883	4.154725	2.0383143
30.913974313083134	4.557032	2.1347206
30.932159176592283	4.8342524	2.1986933
30.95034483860237	4.795966	2.1899695
30.968531299676698	4.598744	2.1444683
30.98671856037873	4.333468	2.0816984
31.00490662127215	3.9726756	1.9931571
31.023095482920848	3.611683	1.9004428
31.04128514588892	3.2553751	1.8042659
31.059475610740662	2.8658392	1.692879
31.07766687804056	2.6388707	1.6244601
31.09585894835335	2.6009564	1.6127481
31.11405182224393	2.610232	1.6156213
31.132245500277417	2.5928223	1.6102242
31.15043998301914	2.5142074	1.5856252
31.168635271034628	2.4944942	1.5793967
31.18683136488964	2.4795313	1.5746528
31.20502826515008	2.4640148	1.569718
31.223225972382135	2.4848342	1.5763357
31.241424487152155	2.4806788	1.5750171
31.259623810026692	2.4453692	1.5637677
31.27782394157253	2.372862	1.5404097
31.296024882356644	2.3708174	1.5397459
31.314226632946237	2.4415317	1.5625402
31.332429193908684	2.4585977	1.5679916
31.350632565811598	2.466114	1.5703866
31.368836749222787	2.4022303	1.5499129
31.387041744710295	2.4101987	1.5524814
31.40524755284232	2.529067	1.590304
31.423454174187317	2.6354647	1.6234114
31.441661609313922	2.5873568	1.6085262
31.459869858791002	2.5299196	1.5905721
31.478078923187628	2.5616467	1.6005145
31.496288803073064	2.5095856	1.5841671
31.514499499016807	2.4045277	1.5506539
31.532711011588546	2.4004881	1.5493509
31.550923341358178	2.413929	1.5536824
31.56913648889584	2.4211397	1.5560012
31.587350454771844	2.4291632	1.5585773
31.605565239556732	2.3923168	1.5467116
31.62378084382127	2.3206608	1.5233716
31.641997268136382	2.2357433	1.4952402
31.660214513073274	2.2432983	1.4977645
31.67843257920331	2.3547487	1.5345191
31.6966514670981	2.3964345	1.5480422
31.71487117732944	2.3605235	1.5363995
31.733091710469346	2.3769238	1.5417275
31.751313067090052	2.3412066	1.5301002
31.769535247764008	2.299618	1.5164491
31.787758253063878	2.3208053	1.5234189
31.805982083562526	2.355959	1.5349133
31.824206739833024	2.3060427	1.518566
31.84243222244869	2.3118525	1.5204777
31.860658531983013	2.2873755	1.5124072
31.878885669009737	2.3357315	1.5283101
31.897113634102784	2.3238351	1.524413
31.91534242783632	2.2977393	1.5158296
31.933572050784694	2.285775	1.5118779
31.951802503522508	2.2824745	1.510786
31.970033786624548	2.2666988	1.505556
31.988265900665834	2.2522733	1.5007576
32.006498846221575	2.1979854	1.4825604
32.02473262386724	2.2272568	1.4923997
32.04296723417845	2.2619858	1.5039899
32.0612026777311	2.1908958	1.4801675
32.07943895510129	2.1506984	1.4665259
32.097676066865304	2.1672122	1.4721454
32.115914013599685	2.148827	1.4658878
32.13415279588115	2.0993052	1.448898
32.152392414286666	2.096125	1.4478
32.1706328693934	2.1226377	1.4569275
32.18887416177875	2.2127342	1.4875262
32.20711629202032	2.2203538	1.4900851
32.225359260695924	2.1523347	1.4670837
32.243603068383614	2.113147	1.4536668
32.26184771566166	2.1151052	1.4543401
32.28009320310852	2.1107357	1.4528371
32.2983395313029	2.0302317	1.424862
32.31658670082372	2.0352023	1.4266051
32.33483471225012	2.0982966	1.4485499
32.35308356616143	2.1061494	1.4512578
32.371333263137245	2.0700285	1.4387593
32.38958380375734	2.099107	1.4488295
32.407835188601744	2.0658703	1.4373136
32.42608741825067	2.0116036	1.4183102
32.444340493284585	2.0367467	1.4271463
32.46259441428416	2.0880113	1.4449953
32.48084918183028	2.0477269	1.4309881
32.49910479650405	1.9843711	1.4086771
32.51736125888683	1.94449	1.3944497
32.53561856956014	1.968452	1.4030154
32.5538767291058	1.9997934	1.4141405
32.572135738105764	2.1027687	1.4500927
32.59039559714228	2.12143	1.4565129
32.608656306797776	2.0531747	1.4328903
32.62691786765491	2.0015173	1.4147499
32.645180280296586	2.0799522	1.442204
32.663443545305896	2.1745515	1.4746361
32.68170766326619	2.0579023	1.4345391
32.69997263476099	1.9870307	1.4096208
32.7182384603741	1.989913	1.4106427
32.7365051406895	2.101502	1.4496558
32.75477267629144	2.0669544	1.4376906
32.77304106776434	1.9706293	1.4037911
32.79131031569289	1.9802231	1.407204
32.809580420661966	1.9763331	1.4058212
32.827851383256714	2.0816844	1.4428043
32.84612320406245	2.0843768	1.4437371
32.86439588366476	2.0245616	1.4228709
32.88266942264945	1.8948357	1.3765303
32.9009438216025	1.9939382	1.4120687
32.9192190811102	2.0743341	1.4402549
32.937495201758985	2.0244896	1.4228456
32.95577218413556	1.9637331	1.4013326
32.974050028826866	1.9779336	1.4063903
32.992328736420035	2.0331914	1.4259002
33.010608307502444	2.078574	1.441726
33.02888874266169	1.9997096	1.4141109
33.047170042485604	2.0190685	1.4209393
33.06545220756225	2.0246458	1.4229004
33.083735238479896	2.0714047	1.4392376
33.10201913582707	2.1166196	1.4548607
33.12030390019248	2.0880399	1.4450052
33.138589532165135	2.0461016	1.43042
33.15687603233419	1.957939	1.3992637
33.17516340128909	1.9058676	1.3805317
33.19345163961947	1.8904223	1.3749263
33.211740747915215	1.8449315	1.3582826
33.23003072676643	1.8624426	1.3647134
33.248321576763466	1.8781266	1.3704476
33.266613298496885	1.9090106	1.3816695
33.28490589255747	1.9483063	1.3958174
33.30319935953626	1.9792727	1.4068663
33.32149370002451	1.9071164	1.3809838
33.339788914613706	1.9802661	1.4072193
33.358085003895575	2.071393	1.4392334
33.376381968462034	2.0009484	1.4145489
33.39467980890529	1.9746255	1.4052137
33.41297852581774	2.0178814	1.4205215
33.43127811979204	1.9886317	1.4101886
33.44957859142105	1.9242305	1.3871664
33.467879941297866	1.9231085	1.3867619
33.486182170015844	1.9694202	1.4033604
33.50448527816853	1.9375359	1.391954
33.522789266349754	1.9354234	1.3911949
33.541094135153514	1.9754236	1.4054977
33.55939988517411	2.1892674	1.4796174
33.57770651700602	2.186471	1.478672
33.59601403124398	1.9564296	1.3987243
33.61432242848296	1.8527715	1.3611655
33.632631709318154	1.9698862	1.4035263
33.650941874344994	1.9778899	1.4063747
33.66925292415916	1.8934414	1.3760238
33.68756485935654	1.934529	1.3908734
33.70587768053328	2.059326	1.4350351
33.724191388285746	2.1137583	1.453877
33.74250598321054	2.0481613	1.4311398
33.760821465904506	2.0077946	1.4169667
33.77913783696474	1.928556	1.3887246
33.79745509698852	1.9489082	1.396033
33.815773246573414	2.0665166	1.4375384
33.8340922863172	2.046384	1.4305189
33.852412216817896	1.9027928	1.3794175
33.87073303867377	1.8304666	1.3529474
33.889054752483304	1.9550542	1.3982325
33.907377358845245	2.036009	1.4268879
33.92570085835853	1.9576806	1.3991714
33.94402525162239	1.9367846	1.391684
33.96235053923627	1.9800392	1.4071387
33.980676721799824	2.0478423	1.4310284
33.999003799912984	2.0530326	1.4328407
34.01733177417592	2.0448275	1.4299747
34.03566064518901	2.0425787	1.4291881
34.0539904135529	1.9664823	1.4023132
34.07232107986846	1.8588048	1.36338
34.090652644736785	1.9616787	1.4005995
34.108985108759235	2.0155578	1.4197034
34.12731847253742	1.9955395	1.4126357
34.14565273667313	1.9372836	1.3918633
34.16398790176847	1.9053773	1.380354
34.18232396842574	2.0018451	1.4148657
34.20066093724749	1.9689788	1.403203
34.21899880883651	1.9652448	1.4018719
34.23733758379583	1.9258807	1.387761
34.25567726272874	1.829549	1.3526082
34.27401784623872	1.792974	1.3390198
34.29235933492957	1.8195153	1.3488941
34.31070172940526	1.9103593	1.3821574
34.32904503027003	1.998047	1.413523
34.347389238128386	2.082653	1.44314
34.36573435358502	2.0862017	1.444369
34.38408037724492	2.188935	1.479505
34.402427309713296	2.1492586	1.466035
34.42077515159559	1.9572572	1.3990201
34.43912390349752	1.8941072	1.3762656
34.45747356602499	2.035069	1.4265585
34.47582413978423	2.1018722	1.4497834
34.49417562538163	2.0492144	1.4315077
34.51252802342388	2.0807734	1.4424886
34.53088133451789	2.178891	1.4761066
34.54923555927084	2.1306915	1.4596889
34.567590698290104	2.0638385	1.4366065
34.58594675218336	2.0746458	1.440363
34.6043037215585	2.0661855	1.4374232
34.62266160702365	2.0564198	1.4340223
34.641020409187234	2.1160862	1.4546773
34.65938012865785	1.9956027	1.4126581
34.677740766044394	1.9997655	1.4141307
34.69610232195598	2.1519065	1.4669378
34.714464797002016	2.136191	1.4615713
34.73282819179208	2.1123257	1.4533842
34.751192506936064	2.2800698	1.50999
34.76955774304408	2.2434382	1.4978112
34.7879239007265	1.9059241	1.380552
34.80629098059391	1.8713967	1.36799
34.824658983257194	2.1156845	1.4545393
34.843027909327446	2.2511094	1.5003698
34.86139775941603	2.0722802	1.4395417
34.879768534134534	1.8217648	1.3497276
34.89814023409483	1.7885094	1.3373517
34.91651285990901	1.8605539	1.3640212
34.93488641218944	1.7721096	1.3312061
34.95326089154871	1.924798	1.387371
34.97163629859967	2.1252353	1.4578186
34.99001263395542	2.1551065	1.4680281
35.00838989822934	2.115873	1.4546041
35.02676809203499	2.0922577	1.4464638
35.04514721598624	2.0364242	1.4270333
35.063527270697215	2.0366147	1.4271001
35.081908256782256	2.1697638	1.4730119
35.10029017485597	2.1359575	1.4614916
35.11867302553321	1.950129	1.3964702
35.137056809429104	1.9862627	1.4093484
35.155441527159006	1.8284767	1.3522117
35.173827179338524	1.6263818	1.2752967
35.19221376658354	1.788388	1.3373063
35.21060128951017	2.0596776	1.4351577
35.2289897487348	1.9895204	1.4105036
35.24737914487405	1.8586818	1.3633348
35.26576947854479	2.05223	1.4325606
35.28416075036418	2.124651	1.4576182
35.30255296094958	2.0452077	1.4301076
35.32094611091867	2.2442093	1.4980686
35.33934020088932	2.353379	1.5340726
35.35773523147969	2.1363866	1.4616383
35.3761312033082	2.107471	1.4517131
35.394528116993506	1.934655	1.3909187
35.41292597315452	1.3805057	1.1749492
35.431324772410434	1.5297215	1.2368191
35.449724515380666	2.2811236	1.5103389
35.46812520268491	2.464806	1.5699701
35.486526834943106	2.0210447	1.4216346
35.504929412775454	2.1208963	1.4563297
35.52333293680242	2.2967956	1.5155183
35.54173740764471	2.108894	1.4522032
35.560142825923286	1.7985945	1.3411169
35.5785491922594	1.1505396	1.0726321
35.59695650727454	1.5168612	1.2316092
35.61536477159042	2.396952	1.5482093
