0.008763373481513119	0.3822274	0.6182454
0.026290120649546365	0.19633481	0.44309685
0.043816868432600686	0.13175425	0.36297968
0.06134361724069026	0.015320444	0.12377578
0.07887036748382949	0.00063309097	0.0251613
0.0963971195720331	0.055701267	0.23601116
0.11392387391531617	0.045650017	0.21365865
0.1314506309236943	0.05098545	0.22579959
0.1489773910071836	0.11509036	0.3392497
0.16650415457580078	0.096163005	0.3101016
0.18403092203956356	0.11801134	0.3435278
0.20155769380849	0.1147917	0.33880922
0.2190844702925996	0.1471698	0.38362715
0.2366112519019124	0.14255695	0.37756714
0.2541380390464497	0.13931409	0.373248
0.27166483213623416	0.1558166	0.3947361
0.28919163158128947	0.15255164	0.3905786
0.3067184377916406	0.13108982	0.3620633
0.324245251177314	0.0892921	0.29881784
0.34177207214833777	0.099976026	0.31618986
0.3592989011147415	0.08418731	0.2901505
0.37682573848655654	0.14501038	0.38080227
0.39435258467381573	0.19701804	0.44386715
0.41187944008655414	0.19147462	0.4375781
0.42940630513480854	0.169743	0.41199878
0.446933180228618	0.16135098	0.40168518
0.4644600657780234	0.15539873	0.39420646
0.48198696219306775	0.13463312	0.36692387
0.49951386988379676	0.11265329	0.33563864
0.5170407892602581	0.09851231	0.3138667
0.5345677207325025	0.11679076	0.34174663
0.5520946647105822	0.14946449	0.38660637
0.5696216216045534	0.16047172	0.40058923
0.5871485918244737	0.16038407	0.4004798
0.6046755757804043	0.13769698	0.37107545
0.6222025738824094	0.12120801	0.34814942
0.6397295865405557	0.13262072	0.36417127
0.6572566141649129	0.1303708	0.36106896
0.6747836571655547	0.1738771	0.41698575
0.6923107159525568	0.21211885	0.46056363
0.7098377909359992	0.20858052	0.45670617
0.7273648825259653	0.18464875	0.42970777
0.7448919911325411	0.18082538	0.4252357
0.762419117165817	0.17433785	0.41753784
0.7799462610358868	0.1884103	0.43406254
0.7974734231528482	0.18636599	0.43170127
0.8150006039268024	0.1765446	0.42017213
0.8325278037678551	0.18107432	0.4255283
0.8500550230861152	0.18344116	0.42830032
0.8675822622916969	0.20211966	0.4495772
0.8851095217947171	0.21665218	0.4654591
0.9026368020052984	0.2502376	0.5002376
0.9201641033335665	0.2768108	0.5261281
0.9376914261896523	0.27782342	0.5270896
0.9552187709836915	0.2663889	0.5161288
0.9727461381258234	0.23508328	0.48485386
0.990273528026193	0.25358677	0.503574
1.0078009410949496	0.26025185	0.5101488
1.0253283777422473	0.25824696	0.50818
1.0428558383782454	0.26793444	0.51762384
1.0603833234131086	0.291306	0.5397277
1.0779108332570058	0.33929336	0.58248895
1.0954383683201119	0.35904908	0.59920704
1.112965929012607	0.4003553	0.6327364
1.1304935157446763	0.5266908	0.72573465
1.1480211289265108	0.5419745	0.7361892
1.1655487689683062	1.3888772	1.1785064
1.1830764362802655	1.6313714	1.2772515
1.200604131272596	2.00729	1.4167886
1.2181318543555117	2.362312	1.5369815
1.235659605939232	2.3134983	1.5210189
1.253187386433982	3.7863348	1.9458506
1.270715196249994	6.074982	2.464748
1.2882430357975057	11.739362	3.4262753
1.3057709054867608	16.927542	4.1143093
1.3232988057280106	22.703691	4.764839
1.3408267369315112	27.617151	5.2552023
1.358354699507526	31.25075	5.590237
1.3758826938663256	35.051933	5.9204674
1.3934107204181858	37.000156	6.0827756
1.410938779573391	37.383904	6.114238
1.4284668717422309	38.086487	6.171425
1.4459949973350033	37.887173	6.155256
1.4635231567620117	38.05243	6.168665
1.4810513504335687	37.276653	6.105461
1.4985795787599925	36.830257	6.068794
1.5161078421516088	36.11766	6.009797
1.5336361410187505	35.40432	5.950153
1.5511644757717598	35.296814	5.941112
1.5686928468209842	35.858078	5.9881616
1.58622125457678	36.357468	6.0297155
1.6037496994495108	37.45919	6.1203914
1.621278181849548	37.336956	6.1103973
1.6388067021872719	38.103626	6.1728134
1.6563352608730693	37.613182	6.132959
1.673863858317336	36.71664	6.059426
1.6913924949304753	36.019093	6.0015907
1.7089211711228998	34.833195	5.901965
1.7264498873050296	34.007954	5.831634
1.7439786438872935	33.23553	5.7650266
1.7615074412801288	32.30169	5.6834574
1.779036279893981	31.229385	5.588326
1.796565160139305	30.147804	5.4907017
1.814094082426564	29.706812	5.4503956
1.8316230471662298	29.216124	5.4051943
1.849152054768784	28.206003	5.3109326
1.8666811056447168	27.62515	5.2559633
1.8842102002045273	26.834686	5.1802206
1.901739338858724	26.484928	5.146351
1.9192685220178245	25.838995	5.083207
1.9367977500923557	24.944258	4.9944224
1.9543270234928547	24.452597	4.944957
1.971856342629867	23.917734	4.890576
1.9893857079139496	23.40321	4.8376865
2.006915119755667	22.848461	4.7800064
2.0244445785655945	22.323044	4.7247267
2.0419740847543175	22.037477	4.6944094
2.0595036387324317	21.630733	4.650885
2.0770332409105414	21.19222	4.603501
2.094562891699263	20.74191	4.554329
2.1120925915092217	20.252434	4.5002704
2.129622340751053	19.80463	4.450239
2.1471521398354043	187.77945	13.703264
2.1646819891729323	444.131	21.074415
2.182211889174303	440.30307	20.9834
2.1997418402501974	452.81525	21.279455
2.2172718428113023	432.76624	20.803034
2.234801897268317	320.81683	17.91136
2.2523320040319548	17.212177	4.148756
2.269862163512935	16.854277	4.1053963
2.287392376121992	16.493416	4.0612087
2.304922642269869	16.097548	4.012175
2.322452962367322	15.984959	3.9981194
2.3399833368251164	15.749106	3.9685144
2.357513766054032	15.428648	3.9279318
2.3750442504648586	14.987324	3.8713465
2.3925747904683963	14.800831	3.847185
2.410105386475459	14.481646	3.8054757
2.4276360388968707	14.217365	3.7705922
2.445166748143469	13.915699	3.7303753
2.4626975146261025	13.694166	3.700563
2.4802283387556323	13.508751	3.6754253
2.4977592209429305	13.294402	3.646149
2.5152901615988825	13.081067	3.6167758
2.5328211611343865	12.952191	3.5989153
2.5503522199603523	12.64368	3.5557952
2.5678833384877024	12.352434	3.514603
2.5854145171273712	12.281244	3.5044606
2.6029457562903064	12.177198	3.4895842
2.620477056387469	12.129942	3.4828067
2.6380084178298326	11.897257	3.44924
2.655539841028383	11.537587	3.3967023
2.673071326394119	11.353221	3.3694541
2.6906028743380523	11.158612	3.340451
2.708134485271211	11.272529	3.3574586
2.7256661596046325	11.125892	3.3355496
2.743197897749369	10.921568	3.3047795
2.760729700116486	10.670716	3.2666063
2.778261567117063	10.238728	3.1998012
2.795793499162193	10.009664	3.1638052
2.8133254966629817	9.837045	3.1364064
2.830857560030551	9.82643	3.1347136
2.8483896896760337	9.840665	3.1369834
2.865921886010578	9.827939	3.1349545
2.883454149445347	9.633058	3.1037169
2.9009864803915177	9.484572	3.0797033
2.91851887926028	9.226104	3.0374503
2.9360513464628384	9.145582	3.0241663
2.953583882410413	9.083908	3.0139523
2.9711164875142373	8.984147	2.9973567
2.9886491621855606	8.852844	2.975373
3.0061819068356455	8.72756	2.9542444
3.023714721875769	8.601012	2.9327483
3.041247607717225	8.460607	2.9087121
3.0587805647713213	8.445683	2.9061456
3.0763135934493806	8.332679	2.886638
3.0938466941627407	8.243912	2.8712213
3.1113798673227544	7.992115	2.8270328
3.1289131133407904	7.879825	2.8071027
3.1464464326282315	7.841299	2.800232
3.1639798255964786	7.717416	2.7780237
3.1815132926569443	7.6409955	2.764235
3.1990468342210603	7.551719	2.7480392
3.216580450700272	7.5018816	2.7389562
3.2341141425060416	7.440594	2.7277453
3.251647910049847	7.2731977	2.6968868
3.2691817537431813	7.1012015	2.664808
3.286715673997555	6.987788	2.6434424
3.3042496712244938	7.0123277	2.64808
3.32178374583554	6.982284	2.6424012
3.339317898242251	6.964989	2.6391265
3.3568521288562034	6.840495	2.615434
3.3743864380889876	6.7871103	2.6052084
3.3919208263522127	6.65922	2.5805464
3.4094552940575023	6.560877	2.561421
3.4269898416164972	6.542517	2.5578344
3.444524469440858	6.5147	2.552391
3.4620591779422587	6.5618863	2.5616179
3.479593967532391	6.471064	2.5438287
3.4971288386229658	6.5004325	2.5495946
3.5146637916257086	6.3602223	2.521948
3.5321988269523628	6.263961	2.5027907
3.5497339450146903	6.2414036	2.49828
3.5672691462244708	6.2464767	2.4992952
3.5848044309934988	6.2688546	2.503768
3.60233979973359	6.2257214	2.4951396
3.619875252856575	6.278027	2.5055993
3.6374107907743034	6.328272	2.5156057
3.6549464138986427	6.3557444	2.5210602
3.6724821226414788	6.3092704	2.511826
3.690017917414714	6.238347	2.4976683
3.7075537986302702	6.227882	2.4955726
3.7250897667000857	6.311586	2.512287
3.7426258220361235	6.4711366	2.5438428
3.7601619650503553	6.822254	2.6119444
3.777698196154779	7.3614173	2.7131932
3.7952345157614067	8.4682455	2.9100251
3.8127709242822716	9.25586	3.0423446
3.830307422129425	11.507669	3.3922956
3.847844009714936	30.397398	5.5133834
3.8653806874508954	97.84035	9.891428
3.882917455749409	97.06996	9.852409
3.900454315022606	96.8455	9.841011
3.917991265682631	41.47823	6.4403596
3.9355283081416506	11.102697	3.332071
3.9530654428118495	8.859704	2.9765255
3.970602670105433	7.638994	2.763873
3.9881399904346244	6.823785	2.6122375
4.005677404211669	6.7466035	2.5974224
4.023214911848827	6.6800756	2.5845842
4.0407525137583855	6.6414733	2.5771055
4.058290210352644	6.6371236	2.5762615
4.075828002043927	6.4525285	2.5401828
4.0933658892445814	6.331571	2.5162613
4.110903872366966	6.274068	2.504809
4.128441951823468	6.2250447	2.495004
4.145980128026488	6.319981	2.5139573
4.163518401388452	6.217704	2.4935324
4.181056772321807	6.1720643	2.484364
4.1985952412390155	6.0854836	2.4668772
4.216133808552567	6.044828	2.4586232
4.233672474674966	6.0657725	2.462879
4.251211240018741	6.2919927	2.5083845
4.268750104996445	6.6358128	2.5760071
4.286289070020643	7.6912317	2.773307
4.303828135503928	9.375957	3.0620184
4.3213673018589125	29.61396	5.441871
4.3389065694982305	90.846596	9.531348
4.356445938834537	165.98474	12.883507
4.3739854102805085	171.60437	13.099785
4.391524984248844	172.48592	13.133389
4.409064661152262	136.63689	11.689178
4.426604441403504	96.91732	9.84466
4.444144325415337	75.9933	8.717414
4.461684313600543	21.980822	4.6883707
4.47922440637193	22.532	4.7467885
4.496764604142329	20.751665	4.5553994
4.5143049073245916	18.925694	4.350367
4.531845316331589	16.633648	4.078437
4.5493858315762195	13.776876	3.7117214
4.566926453471405	11.389925	3.3748963
4.584467182430081	9.250092	3.0413964
4.602008018865218	8.04681	2.83669
4.619548963189798	7.3582454	2.7126086
4.637090015816834	6.8905563	2.624987
4.654631177159353	6.640089	2.576837
4.672172447630417	6.392318	2.5283034
4.689713827643102	6.2967405	2.5093307
4.7072553176105085	6.1016803	2.4701579
4.724796917945764	5.9035635	2.429725
4.742338629062015	5.8367586	2.4159384
4.759880451372434	5.8341794	2.4154046
4.777422385290215	5.8380613	2.416208
4.794964431228581	5.844275	2.4174936
4.812506589600768	5.7391114	2.3956442
4.830048860820047	5.663616	2.3798354
4.847591245299709	5.5280533	2.3511813
4.8651337434530655	5.5134363	2.3480709
4.882676355693457	5.4957314	2.3442976
4.900219082434242	5.48642	2.342311
4.917761924088813	5.4761453	2.3401165
4.935304881070575	5.4482956	2.3341584
4.952847953792969	5.483092	2.3416002
4.970391142669449	5.4852424	2.3420594
4.9879344481135055	5.539102	2.3535297
5.005477870538642	5.536942	2.3530707
5.023021410358394	5.4794655	2.3408258
5.040565067986324	5.4478498	2.3340628
5.05810884383601	5.3967686	2.3230946
5.075652738321066	5.473451	2.3395407
5.09319675185512	5.5050793	2.3462906
5.110740884851836	5.4949718	2.3441355
5.128285137724894	5.4850793	2.3420246
5.145829510888007	5.3898625	2.3216078
5.163374004754908	5.322145	2.3069775
5.1809186197393595	5.308154	2.3039432
5.198463356255145	5.3080773	2.3039265
5.216008214716077	5.305519	2.3033712
5.233553195535998	5.270848	2.2958326
5.251098299128764	5.3499947	2.3130054
5.268643525908272	5.403649	2.324575
5.286188876288432	5.361545	2.315501
5.3037343506831895	5.2879844	2.2995617
5.32127994950651	5.181407	2.2762704
5.3388256731723915	5.164252	2.272499
5.356371522094851	5.207957	2.2820947
5.373917496687938	5.20465	2.2813702
5.391463597365729	5.1797633	2.2759094
5.40900982454232	5.149208	2.2691867
5.426556178631843	5.2167773	2.2840266
5.444102660048449	5.2849946	2.2989116
5.4616492692063225	5.2757215	2.2968938
5.479196006519669	5.2353487	2.2880883
5.496742872402727	5.1502075	2.2694068
5.514289867269756	5.093419	2.2568605
5.531836991535049	5.0899534	2.2560925
5.549384245612924	5.183659	2.276765
5.566931629917724	5.237646	2.2885904
5.584479144863822	5.1501145	2.2693863
5.6020267908656205	5.143646	2.2679608
5.619574568337545	5.0684032	2.2513115
5.637122477694054	5.1282997	2.264575
5.654670519349629	5.196388	2.2795587
5.672218693718784	5.2980347	2.301746
5.689767001216059	5.3159394	2.305632
5.707315442256021	5.2722244	2.2961326
5.724864017253266	5.265287	2.2946212
5.7424127266224225	5.24888	2.2910435
5.75996157077814	5.2607937	2.293642
5.777510550135105	5.2690697	2.2954454
5.795059665108022	5.19952	2.2802455
5.812608916111639	5.2352138	2.288059
5.830158303560715	5.272256	2.2961392
5.847707827870055	5.3620543	2.3156111
5.86525748945448	5.380817	2.3196588
5.8828072887288485	5.494316	2.3439958
5.900357226108044	5.644335	2.3757808
5.917907302006979	5.7735248	2.402816
5.9354575168406	6.3423734	2.5184069
5.9530078710238765	6.903189	2.627392
5.970558364971812	7.3977947	2.7198887
5.988108999099438	7.662492	2.7681205
6.005659773821818	8.048319	2.836956
6.023210689554039	7.79773	2.7924416
6.040761746711227	8.279992	2.8774974
6.058312945708531	7.682326	2.7717009
6.075864286961132	7.2469935	2.692024
6.093415770884244	6.5454044	2.5583987
6.1109673978931065	6.001649	2.4498262
6.128519168402993	5.454312	2.3354468
6.146071082829204	5.3613095	2.3154502
6.163623141587075	5.28622	2.2991781
6.181175345091969	5.229352	2.2867777
6.198727693759281	5.2013507	2.280647
6.216280188004435	5.2114735	2.2828653
6.233832828242885	5.220352	2.284809
6.251385614890126	5.2977686	2.3016882
6.268938548361669	5.2582994	2.2930982
6.286491629073067	5.172445	2.274301
6.304044857439898	5.131436	2.2652674
6.321598233877777	5.069862	2.2516353
6.339151758802344	5.028601	2.2424543
6.356705432629277	4.9967604	2.2353435
6.37425925577428	4.9416265	2.222977
6.391813228653095	4.952854	2.2255008
6.409367351681486	4.974393	2.2303348
6.426921625275259	4.9941306	2.234755
6.44447604985025	4.9670506	2.228688
6.46203062582232	4.9684687	2.2290063
6.47958535360737	4.9552336	2.2260354
6.497140233621328	4.99208	2.2342963
6.514695266280161	5.0182595	2.240147
6.532250451999859	5.043228	2.2457132
6.549805791196454	4.9976344	2.235539
6.567361284286002	5.0059805	2.2374048
6.584916931684597	4.9643354	2.2280788
6.602472733808367	4.99727	2.2354574
6.6200286910734665	5.058066	2.2490144
6.637584803896092	5.104408	2.2592936
6.655141072692462	5.0986023	2.2580085
6.672697497878842	5.047248	2.246608
6.690254079871514	4.963416	2.2278726
6.707810819086808	4.973775	2.2301962
6.725367715941078	4.9877667	2.233331
6.742924770850719	5.0196333	2.2404537
6.760481984232151	5.040713	2.2451532
6.778039356501836	5.013447	2.2390728
6.795596888076266	5.0545692	2.248237
6.813154579371963	5.0373693	2.2444084
6.830712430805492	5.0342455	2.2437124
6.84827044279344	4.928019	2.2199142
6.865828615752445	4.885514	2.2103198
6.883386950099159	4.959838	2.2270694
6.900945446250287	5.029096	2.2425647
6.918504104622553	5.109988	2.2605283
6.936062925632727	5.1017423	2.2587037
6.953621909697607	5.1014347	2.2586355
6.971181057234028	5.1772537	2.275358
6.988740368658859	5.2580085	2.2930348
7.006299844389007	5.3161826	2.3056848
7.023859484841407	5.3653584	2.3163242
7.041419290433036	5.4014482	2.3241017
7.058979261580902	5.5199585	2.3494592
7.0765393987020495	5.7210975	2.3918815
7.094099702213559	6.121889	2.474245
7.111660172532549	6.537541	2.5568616
7.129220810076164	6.916554	2.6299343
7.146781615261595	7.49901	2.738432
7.16434258850606	7.6467996	2.7652848
7.181903730226821	8.00255	2.828878
7.1994650408411704	8.045099	2.8363883
7.217026520766437	8.24253	2.8709807
7.234588170419983	8.503924	2.916149
7.252149990219215	8.602563	2.9330125
7.269711980581568	8.423124	2.902262
7.2872741419245175	8.258579	2.8737743
7.304836474665574	7.8507204	2.8019137
7.322398979222286	7.5136805	2.7411094
7.339961656012233	7.1848283	2.680453
7.357524505453039	6.8066087	2.6089478
7.375087527962357	6.5447254	2.5582662
7.392650723957886	6.229883	2.4959733
7.410214093857353	5.9310474	2.4353743
7.427777638078528	5.7718687	2.4024713
7.445341357039213	5.614708	2.3695376
7.4629052511572525	5.445677	2.3335974
7.480469320850524	5.3378043	2.3103688
7.498033566536948	5.211951	2.2829697
7.5155979886344735	5.194937	2.2792406
7.5331625875610975	5.170887	2.2739584
7.550727363734844	5.1806016	2.2760935
7.568292317573788	5.180539	2.2760797
7.585857449496025	5.19023	2.2782075
7.603422759919705	5.195842	2.279439
7.620988249263007	5.2384114	2.2887576
7.638553917944147	5.1988378	2.280096
7.656119766381391	5.229774	2.28687
7.673685794993023	5.1998267	2.2803128
7.691252004197388	5.1363635	2.2663546
7.70881839441285	5.1071095	2.2598915
7.726384966057826	5.1752815	2.2749245
7.743951719550762	5.2671194	2.2950206
7.761518655310149	5.319835	2.3064768
7.779085773754511	5.348122	2.3126006
7.796653075302419	5.3679442	2.3168824
7.814220560372475	5.3571467	2.314551
7.831788229383323	5.349283	2.3128517
7.8493560827536495	5.344216	2.311756
7.866924120902174	5.3074813	2.3037972
7.884492344247663	5.336716	2.3101335
7.9020607532089135	5.294473	2.3009722
7.919629348204771	5.317841	2.3060446
7.937198129654115	5.315098	2.3054495
7.954767097975865	5.3654823	2.3163512
7.972336253588986	5.3567657	2.3144689
7.989905596912472	5.381863	2.3198843
8.007475128365371	5.419136	2.3279037
8.025044848366756	5.4872136	2.3424802
8.042614757335754	5.675022	2.3822305
8.060184855691523	5.7460585	2.3970938
8.07775514385327	5.8430424	2.4172385
8.095325622240228	5.768287	2.4017258
8.112896291271687	5.7518983	2.3983116
8.130467151366968	5.779002	2.4039555
8.148038202945436	5.8958035	2.4281275
8.165609446426497	5.9388857	2.4369829
8.183180882229594	6.024773	2.4545414
8.200752510774217	6.0331516	2.4562476
8.218324332479893	6.068477	2.463428
8.235896347766193	6.059805	2.461667
8.253468557052724	6.0280337	2.4552054
8.27104096075914	5.977868	2.444968
8.288613559305137	6.006987	2.4509156
8.306186353110448	6.0541587	2.46052
8.32375934259485	6.173441	2.484641
8.341332528178162	6.1633725	2.482614
8.358905910280246	6.214692	2.4929285
8.376479489321003	6.1940093	2.4887767
8.394053265720377	6.274397	2.5048747
8.411627239898356	6.335539	2.5170496
8.42920141227497	6.3662744	2.5231478
8.44677578327029	6.3888497	2.5276175
8.464350353304427	6.3543396	2.5207815
8.48192512279754	6.2403216	2.4980636
8.499500092169827	6.148493	2.4796154
8.51707526184153	6.0507097	2.459819
8.534650632232934	6.091323	2.4680605
8.552226203764365	6.195443	2.4890647
8.569801976856192	6.216206	2.493232
8.587377951928834	6.208999	2.4917862
8.60495412940274	6.1947846	2.4889324
8.622530509698416	6.237091	2.497417
8.6401070932364	6.4079576	2.5313945
8.657683880437283	6.5060897	2.5507038
8.675260871721695	6.6757503	2.5837474
8.692838067510303	6.9293995	2.6323752
8.710415468223834	7.0995693	2.6645017
8.727993074283043	7.2344165	2.689687
8.745570886108737	7.1233554	2.6689615
8.763148904121765	7.1883063	2.6811018
8.78072712874302	7.1921463	2.6818178
8.798305560393441	7.4690075	2.7329485
8.815884199494006	7.6253133	2.761397
8.833463046465745	7.7899117	2.7910414
8.851042101729728	7.8856535	2.8081405
8.86862136570707	8.130795	2.8514547
8.886200838818924	8.343623	2.888533
8.903780521486505	8.382972	2.8953362
8.921360414131055	8.449039	2.9067233
8.938940517173874	8.561777	2.9260514
8.956520831036297	8.696196	2.9489312
8.97410135613971	9.039124	3.0065136
8.99168209290554	9.165509	3.0274591
9.009263041755265	9.312176	3.0515857
9.026844203110405	9.467961	3.0770051
9.044425577392525	9.670386	3.1097245
9.062007165023239	9.842436	3.1372657
9.079588966424197	10.124944	3.1819718
9.097170982017108	10.219775	3.1968384
9.11475321222372	11.337895	3.3671792
9.132335657465825	12.314055	3.5091388
9.149918318165264	12.414515	3.5234237
9.167501194743924	12.769353	3.5734231
9.18508428762374	12.474173	3.5318794
9.202667597226693	12.614944	3.5517523
9.220251123974803	12.29322	3.5061688
9.237834868290143	11.932086	3.4542851
9.255418830594836	11.653853	3.413774
9.273003011311046	11.259793	3.3555615
9.290587410860985	11.061777	3.325925
9.308172029666911	10.447285	3.232226
9.32575686815113	10.20632	3.1947331
9.343341926735997	8.909042	2.984802
9.360927205843916	8.625237	2.9368753
9.378512705897327	8.33031	2.8862276
9.396098427318728	8.15386	2.8554964
9.413684370530664	8.031529	2.8339953
9.431270535955722	7.9088216	2.8122628
9.448856924016539	7.775297	2.7884219
9.466443535135806	7.6286936	2.762009
9.484030369736251	7.6462445	2.7651844
9.501617428240658	7.7243915	2.779279
9.519204711071852	7.811721	2.7949455
9.536792218652714	7.8535457	2.8024178
9.55437995140617	7.8467817	2.8012109
9.571967909755191	7.8537846	2.8024604
9.589556094122802	7.9481163	2.8192403
9.60714450493207	7.948277	2.819269
9.624733142606116	7.959454	2.8212504
9.642322007568108	7.99208	2.8270268
9.659911100241267	8.02293	2.8324778
9.677500421048851	8.094998	2.845171
9.695089970414175	8.112043	2.8481648
9.712679748760609	8.079942	2.8425238
9.730269756511557	8.006109	2.8295069
9.747859994090492	8.009615	2.8301263
9.765450461920915	8.042407	2.835914
9.78304116042639	8.121121	2.8497581
9.800632090030527	8.168562	2.8580697
9.81822325115699	8.15582	2.8558397
9.835814644229481	8.180598	2.8601744
9.853406269671762	8.209769	2.8652694
9.870998127907646	8.252018	2.8726325
9.888590219360985	8.233276	2.8693686
9.906182544455698	8.236884	2.8699973
9.923775103615734	8.20855	2.8650568
9.941367897265108	8.241515	2.8708038
9.958960925827878	8.255792	2.8732893
9.97655418972816	8.19835	2.863276
9.994147689390106	8.139647	2.8530066
10.011741425237934	8.085239	2.8434556
10.029335397695904	8.0660715	2.8400831
10.04692960718833	8.131132	2.851514
10.06452405413958	8.251684	2.8725746
10.082118738974064	8.305719	2.8819644
10.099713662116246	8.266127	2.8750873
10.117308823990651	8.136487	2.8524528
10.134904225021844	8.14598	2.8541162
10.152499865634445	8.181681	2.8603637
10.170095746253125	8.226136	2.8681242
10.18769186730261	8.263241	2.8745854
10.205288229207675	8.310048	2.8827155
10.222884832393145	8.323797	2.8850992
10.2404816772839	8.2707	2.8758826
10.258078764304868	8.151973	2.855166
10.275676093881035	8.124968	2.8504329
10.293273666437438	8.132727	2.8517935
10.310871482399158	8.206534	2.8647048
10.32846954219134	8.19586	2.8628411
10.346067846239173	8.234494	2.8695807
10.363666394967908	8.22975	2.868754
10.38126518880283	8.257601	2.873604
10.398864228169298	8.337949	2.8875506
10.416463513492713	8.371329	2.8933249
10.434063045198531	8.284766	2.878327
10.451662823712262	8.195009	2.8626926
10.469262849459467	8.134208	2.8520532
10.486863122865758	8.1276	2.8508945
10.504463644356806	8.185325	2.8610005
10.522064414358338	8.154022	2.8555248
10.539665433296118	8.068493	2.8405092
10.557266701595987	7.923021	2.8147862
10.574868219683818	7.779783	2.7892263
10.592469987985552	7.6358166	2.763298
10.610072006927185	7.5391703	2.745755
10.627674276934751	7.4869404	2.7362275
10.64527679843435	7.368164	2.7144363
10.662879571852143	7.2451096	2.6916742
10.680482597614331	7.098223	2.6642492
10.698085876147173	7.0063705	2.646955
10.715689407876988	6.9011807	2.6270099
10.733293193230146	6.874448	2.6219168
10.750897232633072	6.7545295	2.5989478
10.76850152651225	6.671858	2.582994
10.786106075294207	6.5421247	2.5577579
10.803710879405534	6.5217276	2.5537674
10.821315939272877	6.4922323	2.547986
10.83892125532294	6.391305	2.528103
10.856526827982472	6.2946715	2.5089183
10.874132657678285	6.2644	2.5028784
10.891738744837243	6.272237	2.5044434
10.909345089886271	6.217738	2.4935393
10.926951693252343	6.2001996	2.49002
10.944558555362494	6.1283646	2.4755533
10.96216567664381	6.0771227	2.465182
10.979773057523436	6.0229254	2.454165
10.997380698428573	5.89898	2.4287815
11.014988599786477	5.821483	2.412775
11.032596762024461	5.7273316	2.3931844
11.050205185569892	5.6660123	2.3803387
11.067813870850198	5.5869813	2.3636796
11.085422818292859	5.5101967	2.3473809
11.10303202832541	5.450064	2.3345373
11.120641501375454	5.3149066	2.305408
11.138251237870636	5.250594	2.2914176
11.155861238238671	5.1843834	2.2769241
11.173471502907317	5.1635346	2.2723413
11.191082032304402	5.120084	2.2627602
11.208692826857805	5.0964565	2.2575333
11.226303886995465	5.0299616	2.2427576
11.243915213145371	4.9837613	2.232434
11.261526805735578	4.8653502	2.2057538
11.279138665194196	4.8140936	2.1941042
11.296750791949393	4.782341	2.1868565
11.314363186429393	4.7761445	2.185439
11.331975849062479	4.8152843	2.1943755
11.34958878027699	4.785441	2.187565
11.36720198050133	4.7370324	2.1764724
11.384815450163948	4.6315136	2.152095
11.402429189693366	4.505125	2.122528
11.420043199518153	4.4073052	2.0993583
11.437657480066942	63.36772	7.9603844
11.455272031768422	85.080925	9.223932
11.472886855051353	107.483116	10.367407
11.490501950344528	99.11377	9.95559
11.508117318076819	84.48426	9.191532
11.52573295867715	45.83419	6.7700953
11.543348872574514	4.1129336	2.0280368
11.560965060197946	4.1141953	2.028348
11.57858152197655	4.1035895	2.0257318
11.59619825833949	4.0630345	2.015697
11.613815269715985	4.017052	2.0042584
11.631432556535323	38.50673	6.205379
11.649050119226837	83.05552	9.11348
11.666667958219929	93.4649	9.667725
11.68428607394406	107.75439	10.380481
11.701904466828756	82.55255	9.085843
11.719523137303586	65.32382	8.082315
11.737142085798196	4.5433946	2.131524
11.754761312742286	3.664419	1.9142672
11.772380818565619	3.6599834	1.9131083
11.790000603698015	3.6733742	1.9166049
11.80762066856935	3.6786647	1.9179845
11.825241013609572	3.6361873	1.906879
11.842861639248683	3.6045206	1.8985575
11.860482545916748	3.5085826	1.8731211
11.878103734043883	3.4957275	1.8696865
11.895725204060282	3.4423666	1.8553616
11.91334695639619	3.401215	1.8442384
11.930968991481919	3.3594398	1.8328775
11.948591309747824	3.3528848	1.8310884
11.966213911624347	3.3709342	1.8360105
11.98383679754198	3.3889194	1.8409017
12.001459967931268	3.3844845	1.8396969
12.019083423222835	3.326114	1.8237637
12.036707163847352	3.2880106	1.8132873
12.05433119023556	3.2187004	1.7940737
12.071955502818259	3.1681015	1.7799162
12.089580102026313	3.1470113	1.7739818
12.107204988290643	3.144093	1.773159
12.12483016204224	3.1539273	1.77593
12.142455623712152	3.1624682	1.778333
12.16008137373149	3.1373177	1.7712475
12.177707412531431	3.105606	1.762273
12.19533374054321	3.114797	1.7648787
12.212960358198126	3.1207948	1.7665771
12.230587265927545	3.1021223	1.7612842
12.248214464162889	3.0744584	1.7534133
12.265841953335649	3.05544	1.7479817
12.283469733877375	3.000929	1.732319
12.301097806219685	2.9811065	1.7265881
12.31872617079425	2.9890356	1.7288828
12.336354828032825	3.0083592	1.7344623
12.353983778367205	3.0226045	1.7385639
12.371613022229262	2.975563	1.724982
12.389242560050928	2.960867	1.720717
12.406872392264201	2.9450078	1.7161025
12.424502519301143	2.9262748	1.7106358
12.442132941593874	2.8828292	1.6978897
12.459763659574586	2.8737211	1.6952053
12.477394673675532	2.8667765	1.6931558
12.49502598432903	2.8449454	1.6866966
12.51265759196746	2.8054574	1.67495
12.530289497023267	2.7797947	1.6672716
12.547921699928967	2.7885993	1.66991
12.565554201117134	2.8224685	1.6800205
12.583187001020404	2.8456435	1.6869035
12.600820100071486	2.8286748	1.6818664
12.618453498703152	2.7939017	1.6714969
12.636087197348235	2.78595	1.6691165
12.65372119643964	2.8339794	1.6834427
12.671355496410326	2.8473673	1.6874144
12.68899009769333	2.8568711	1.6902281
12.706625000721749	2.8342025	1.683509
12.724260205928752	2.8819306	1.697625
12.741895713747551	2.9053307	1.704503
12.759531524611454	2.9811695	1.7266064
12.777167638953818	2.9718153	1.7238954
12.794804057208072	3.0180764	1.7372612
12.812440779807702	3.0623531	1.749958
12.830077807186271	3.2430196	1.8008386
12.847715139777405	3.2458012	1.8016107
12.865352778014795	3.423858	1.850367
12.882990722332197	3.4993498	1.870655
12.90062897316344	3.5631027	1.8876183
12.918267530942412	3.6683445	1.9152923
12.935906396103071	3.6089916	1.8997346
12.953545569079449	3.79302	1.9475677
12.971185050305628	3.5984094	1.8969474
12.988824840215775	3.5965765	1.8964642
13.006464939244115	3.5843623	1.8932412
13.024105347824943	3.4565647	1.8591839
13.041746066392617	3.548581	1.8837677
13.05938709538157	3.3723862	1.8364058
13.077028435226296	3.3749177	1.8370949
13.094670086361363	3.301348	1.8169612
13.112312049221401	3.2078288	1.7910413
13.129954324241112	3.1238737	1.7674483
13.147596911855258	2.9220245	1.709393
13.165239812498685	2.8945727	1.7013444
13.182883026606293	2.8099127	1.6762794
13.200526554613058	2.7420888	1.6559254
13.218170396954017	2.7147968	1.6476641
13.235814554064284	2.690904	1.6403974
13.253459026379034	2.6958728	1.6419113
13.271103814333523	2.69765	1.6424525
13.288748918363058	2.7196105	1.6491241
13.306394338903031	2.7259715	1.6510516
13.32404007638889	2.6780357	1.6364706
13.341686131256164	2.6827352	1.6379057
13.359332503940449	2.6607864	1.6311917
13.376979194877402	2.6660767	1.6328125
13.394626204502751	2.685447	1.6387334
13.412273533252307	2.73244	1.6530094
13.429921181561937	2.7461996	1.6571661
13.447569149867581	2.7305946	1.6524512
13.465217438605247	2.7054756	1.644833
13.482866048211022	2.7321742	1.652929
13.500514979121052	2.7498384	1.6582637
13.518164231771568	2.7016146	1.6436589
13.535813806598844	2.6782577	1.6365384
13.553463704039254	2.6683934	1.6335218
13.571113924529229	2.6708126	1.6342621
13.588764468505275	2.6748226	1.6354885
13.606415336403956	2.7167423	1.6482543
13.624066528661917	2.771726	1.6648501
13.641718045715882	2.8294418	1.6820945
13.659369888002635	2.8532515	1.689157
13.67702205595903	2.8980205	1.7023573
13.694674550021993	2.9326146	1.7124878
13.712327370628532	3.0115266	1.735375
13.729980518215713	3.1164384	1.7653437
13.747633993220681	3.1877494	1.785427
13.765287796080647	3.2125392	1.7923558
13.7829419272329	3.2634754	1.8065091
13.800596387114801	3.2824416	1.811751
13.818251176163775	3.3301318	1.8248649
13.835906294817324	3.3952312	1.8426154
13.853561743513023	3.4473956	1.8567164
13.871217522688525	3.5268655	1.877995
13.888873632781538	3.5370367	1.8807011
13.906530074229858	3.5449672	1.8828083
13.92418684747135	3.531762	1.8792982
13.941843952943948	3.526388	1.8778679
13.959501391085665	3.474028	1.8638744
13.977159162334578	3.4086592	1.8462554
13.994817267128846	3.3694246	1.8355992
14.012475705906693	3.236597	1.7990545
14.030134479106424	3.1315718	1.7696247
14.047793587166414	3.0638218	1.7503777
14.065453030525108	3.0539644	1.7475595
14.083112809621026	3.007903	1.7343308
14.100772924892766	2.936252	1.7135496
14.118433376778997	2.9310324	1.7120259
14.136094165718458	2.91598	1.7076241
14.153755292149969	2.8681233	1.6935534
14.171416756512416	2.7559402	1.6601025
14.189078559244768	2.6735258	1.635092
14.20674070078606	2.6236446	1.6197668
14.224403181575408	2.5306344	1.5907968
14.242066002051999	2.4963617	1.5799879
14.259729162655093	2.4533548	1.5663189
14.277392663824022	2.4236338	1.5568024
14.295056505998208	2.3943903	1.5473818
14.312720689617128	2.4147403	1.5539435
14.330385215120348	2.4008462	1.5494665
14.348050082947497	2.4105809	1.5526046
14.3657152935383	2.3884678	1.5454669
14.383380847332528	2.3836238	1.5438989
14.401046744770051	2.398789	1.5488024
14.418712986290798	2.3903024	1.5460603
14.436379572334793	2.4196737	1.5555301
14.454046503342123	2.3731914	1.5405166
14.471713779752946	2.361465	1.5367059
14.489381402007504	2.3459356	1.5316447
14.507049370546113	2.3532228	1.5340217
14.524717685809168	2.3772218	1.5418242
14.542386348237134	2.3619382	1.5368599
14.560055358270553	2.3538172	1.5342155
14.577724716350051	2.4024212	1.5499746
14.595394422916325	2.4052517	1.5508873
14.61306447841015	2.434232	1.5602026
14.63073488327237	2.4286804	1.5584224
14.648405637943917	2.4936368	1.5791253
14.6660767428658	2.5088067	1.5839213
14.683748198479094	2.5446947	1.59521
14.701420005224954	2.5876296	1.6086111
14.719092163544628	2.647566	1.6271343
14.73676467387942	2.6652367	1.6325552
14.754437536670727	2.6281357	1.6211525
14.772110752360014	2.6171546	1.6177622
14.78978432138882	2.6039846	1.6136867
14.807458244198777	2.6242356	1.6199492
14.82513252123159	2.622336	1.6193628
14.842807152929028	2.659865	1.6309092
14.860482139732962	2.6692777	1.6337924
14.87815748208531	2.6586874	1.6305481
14.8958331804281	2.6721683	1.6346768
14.91350923520342	2.634209	1.6230246
14.931185646853438	2.6382656	1.6242739
14.948862415820408	2.6059341	1.6142906
14.966539542546656	2.6543128	1.6292062
14.98421702747459	2.649642	1.6277721
15.001894871046696	2.666159	1.6328377
15.019573073705542	2.6387293	1.6244166
15.037251635893766	2.606285	1.6143993
15.054930558054092	2.6202886	1.6187305
15.072609840629323	2.6758265	1.6357954
15.090289484062351	2.8109577	1.676591
15.107969488796124	3.147727	1.7741835
15.125649855273691	3.5565932	1.8858932
15.14333058393817	4.105681	2.026248
15.161011675232768	5.0826225	2.2544672
15.17869312960076	6.419949	2.5337617
15.196374947485506	8.218761	2.8668382
15.214057129330447	11.3741665	3.3725607
15.231739675579114	16.144753	4.0180535
15.249422586675102	21.177727	4.6019263
15.267105863062092	24.170607	4.9163613
15.284789505183847	24.392103	4.938836
15.302473513484218	22.221952	4.7140164
15.320157888407127	18.65036	4.3186064
15.337842630396578	14.506777	3.8087764
15.355527739896656	11.294116	3.360672
15.37321321735153	8.814854	2.968982
15.39089906320545	6.438664	2.5374522
15.408585277902748	4.8606277	2.204683
15.42627186188783	3.754049	1.9375368
15.443958815605198	3.1988747	1.7885398
15.461646139499424	2.9185557	1.7083781
15.479333834015168	2.770561	1.6645002
15.497021899597165	2.7278683	1.651626
15.514710336690234	2.6977322	1.6424775
15.53239914573928	2.628825	1.6213652
15.550088327189297	2.5196512	1.587341
15.567777881485336	2.4536679	1.5664188
15.58546780907256	2.4726837	1.5724769
15.6031581103962	2.4986725	1.580719
15.620848785901568	2.4817603	1.5753604
15.638539836034063	2.457785	1.5677325
15.656231261239173	2.4643145	1.5698135
15.673923061962451	2.4799254	1.5747778
15.691615238649552	2.4489043	1.5648975
15.709307791746202	2.394863	1.5475345
15.727000721698221	2.393491	1.5470911
15.744694028951498	2.39071	1.5461922
15.76238771395202	2.3889093	1.5456097
15.780081777145844	2.3339882	1.5277395
15.797776218979125	2.3220031	1.523812
15.815471039898094	2.3464775	1.5318216
15.833166240349064	2.370569	1.5396652
15.850861820778437	2.3719704	1.5401202
15.868557781632699	2.3768997	1.5417197
15.886254123358412	2.359503	1.5360674
15.903950846402232	2.333134	1.52746
15.921647951210897	2.3035512	1.5177454
15.939345438231225	2.3156807	1.5217361
15.957043307910133	2.3625326	1.5370532
15.974741560694602	2.3610964	1.5365859
15.992440197031714	2.3559127	1.5348983
16.01013921736862	2.3578131	1.5355172
16.02783862215259	2.3755689	1.541288
16.045538411830933	2.4113789	1.5528615
16.06323858685107	2.4345775	1.5603132
16.080939147660512	2.4356077	1.5606433
16.09864009470684	2.437068	1.5611111
16.11634142843774	2.4091396	1.5521404
16.134043149300954	2.4348154	1.5603895
16.15174525774433	2.4409034	1.5623391
16.169447754215817	2.4173992	1.5547987
16.18715063916342	2.354797	1.5345347
16.204853913035244	2.3551438	1.5346478
16.222557576279478	2.406997	1.55145
16.240261629344403	22.405355	4.7334294
16.257966072678386	42.937916	6.552703
16.275670906729868	38.04381	6.1679664
16.293376131947387	2.4834576	1.575899
16.31108174877957	2.5188231	1.5870801
16.328787757675133	2.561268	1.6003963
16.34649415908287	2.5650182	1.6015674
16.364200953451657	2.5859613	1.6080924
16.38190814123048	2.6192234	1.6184015
16.39961572286839	2.642803	1.62567
16.41732369881455	2.6679792	1.633395
16.43503206951817	2.6809747	1.6373682
16.45274083542859	2.7201807	1.649297
16.47044999699522	2.745525	1.6569625
16.488159554667558	2.8186822	1.6788931
16.505869508895184	2.872666	1.6948941
16.523579860127786	2.948549	1.717134
16.541290608815117	2.9709976	1.7236582
16.559001755407035	3.019444	1.7376547
16.57671330035348	3.0615702	1.7497343
16.59442524410448	3.14946	1.7746718
16.61213758711015	3.228358	1.7967632
16.629850329820705	3.273833	1.8093736
16.647563472686436	3.3320844	1.8253998
16.665277016157724	3.3852463	1.8399038
16.682990960685053	3.4285471	1.8516337
16.70070530671898	3.4701777	1.8628412
16.718420054710155	3.4598126	1.8600571
16.736135205109335	3.4988434	1.8705195
16.753850758367335	3.5612607	1.8871303
16.771566714935087	3.6672072	1.9149953
16.789283075263597	3.7617357	1.9395194
16.80699983980398	3.8132894	1.9527645
16.82471700900741	3.8870094	1.97155
16.84243458332518	3.9658058	1.9914331
16.860152563208665	4.037081	2.0092487
16.87787094910932	4.0518103	2.0129108
16.89558974147871	4.0735526	2.0183043
16.913308940768466	4.156091	2.0386493
16.931028547430333	4.2135763	2.0526998
16.94874856191613	4.2830124	2.069544
16.966468984677785	4.332555	2.081479
16.98418981616729	4.3801823	2.0928886
17.00191105683676	4.426625	2.1039546
17.019632707138374	4.47675	2.115833
17.03735476752442	4.529837	2.1283414
17.05507723844728	4.550141	2.133106
17.072800120359403	4.5931234	2.1431572
17.090523413713353	4.5953197	2.1436696
17.108247118961785	4.6111417	2.147357
17.125971236557437	4.594934	2.1435797
17.143695766953133	4.6263776	2.1509016
17.161420710601806	4.6889944	2.1654086
17.179146067956477	4.6941557	2.1666
17.19687183947025	4.6722865	2.1615472
17.21459802559634	4.623465	2.1502244
17.232324626788028	4.608782	2.1468074
17.25005164349871	4.5569453	2.1347003
17.267779076181863	4.561523	2.1357722
17.285506925291074	4.60205	2.1452389
17.30323519127999	4.6309266	2.1519587
17.320963874602384	4.6160364	2.1484964
17.33869297571211	4.5718412	2.1381865
17.356422495063114	4.591665	2.142817
17.37415243310944	4.5514007	2.1334012
17.391882790305218	4.5326824	2.1290097
17.40961356710468	4.510829	2.1238713
17.42734476396215	4.5256	2.1273458
17.445076381332044	4.554244	2.1340675
17.462808419668868	4.6762776	2.1624703
17.48054087942723	4.7971783	2.190246
17.498273761061835	5.001846	2.2364807
17.51600706502747	5.395241	2.3227658
17.533740791779024	6.1429415	2.4784958
17.551474941771485	7.6283927	2.7619545
17.56920951545993	8.7425785	2.9567852
17.586944513299528	10.914895	3.3037698
17.60467993574556	12.51642	3.5378554
17.622415783253373	14.136096	3.7598
17.64015205627843	15.407041	3.9251804
17.657888755276293	16.47918	4.0594554
17.675625880702604	16.962494	4.118555
17.69336343301311	16.85292	4.105231
17.71110141266366	16.074661	4.0093217
17.728839820110178	15.121903	3.8886893
17.746578655808705	14.187096	3.766576
17.764317920215372	12.7903595	3.5763612
17.7820576137864	11.450665	3.3838832
17.79979773697811	9.51602	3.0848048
17.81753829024692	7.663894	2.768374
17.835279274049356	5.9627624	2.441877
17.85302068884201	4.9005556	2.2137198
17.870762535081607	4.213093	2.052582
17.888504813224934	3.8609724	1.9649358
17.90624752372891	3.7266526	1.930454
17.923990667050536	3.61947	1.9024905
17.941734243646895	3.5187683	1.875838
17.959478253975185	3.4533067	1.8583075
17.9772226984927	3.4398832	1.8546922
17.994967577656833	3.4308143	1.8522457
18.01271289192506	3.3897846	1.8411368
18.030458641754965	3.3845146	1.839705
18.04820482760425	3.4062495	1.8456028
18.06595144993067	3.4024835	1.8445822
18.083698509192125	3.3863266	1.8401974
18.101446005846576	3.288984	1.8135556
18.119193940352105	3.2169127	1.7935754
18.136942313166887	3.1645758	1.7789254
18.1546911247492	3.186161	1.7849821
18.1724403755574	3.201143	1.7891738
18.19019006604997	3.2133136	1.7925718
18.207940196685467	3.1992824	1.7886539
18.225690767922575	3.1574585	1.7769239
18.243441780220046	3.0754683	1.7537013
18.261193234036764	3.0321043	1.7412938
18.278945129831676	3.0077405	1.7342838
18.29669746806386	3.0330439	1.7415637
18.314450249192483	3.0448031	1.7449365
18.3322034736768	3.0580707	1.748734
18.349957141976184	3.0829692	1.7558386
18.3677112545501	3.0980756	1.7601352
18.385465811858108	3.1079085	1.7629261
18.403220814359884	3.075161	1.7536137
18.420976262515172	3.0579505	1.7486997
18.43873215678387	3.0714502	1.7525554
18.456488497625923	3.086632	1.7568814
18.474245285501407	3.2028737	1.7896575
18.492002520870486	3.2697978	1.8082582
18.50976020419343	3.3388135	1.827242
18.527518335930615	3.6349626	1.9065578
18.545276916542516	4.212455	2.0524266
18.563035946489688	4.39562	2.0965734
18.580795426232832	4.847606	2.201728
18.598555356232698	4.770366	2.1841168
18.616315736950185	5.0741973	2.2525978
18.63407656884626	4.7217607	2.1729612
18.65183785238201	4.867707	2.206288
18.669599588018617	4.651901	2.1568265
18.68736177621737	4.713301	2.1710138
18.705124417439652	4.7238693	2.1734464
18.72288751214696	4.5160584	2.125102
18.740651060800886	4.650703	2.1565487
18.758415063863115	4.3397646	2.0832102
18.77617952179546	4.460065	2.1118865
18.793944435059814	4.171405	2.0424018
18.811709804118184	4.1515555	2.0375366
18.829475629432675	4.1094503	2.0271778
18.8472419114655	3.913091	1.9781535
18.86500865067897	4.037595	2.0093768
18.88277584753551	3.781804	1.944686
18.90054350249763	3.8283973	1.956629
18.918311616027957	3.467102	1.8620156
18.936080188589226	3.3365452	1.8266213
18.953849220644265	3.054689	1.7477669
18.971618712656007	2.9292374	1.7115015
18.9893886650875	2.913821	1.7069918
19.007159078401887	8.04542	2.8364449
19.024929953062408	32.88517	5.734559
19.042701289532435	32.785088	5.7258263
19.060473088275405	25.337236	5.033611
19.07824534975489	2.614416	1.6169156
19.096018074434568	2.6080375	1.614942
19.113791262778197	2.6373627	1.6239959
19.13156491524966	2.6294048	1.621544
19.149339032312945	2.6130185	1.6164833
19.167113614432136	2.571704	1.6036533
19.184888662071433	2.5202653	1.5875343
19.202664175695123	2.5250452	1.5890391
19.220440155767623	2.5426028	1.5945541
19.238216602753447	2.5861583	1.6081537
19.2559935171172	2.5519288	1.5974758
19.27377089932361	2.512906	1.5852149
19.291548749837514	2.4587498	1.5680401
19.309327069123835	2.5041063	1.5824368
19.32710585764763	2.5415409	1.5942211
19.344885115874032	2.5630686	1.6009587
19.362664844268313	2.5478628	1.5962026
19.380445043295822	2.5614145	1.6004419
19.39822571342203	2.5564933	1.5989038
19.41600685511252	2.5440364	1.5950036
19.43378846883297	2.5041296	1.5824442
19.451570555049173	2.4749937	1.5732113
19.469353114227037	2.4960122	1.5798773
19.48713614683254	2.5221095	1.5881151
19.50491965333182	2.5791264	1.6059659
19.52270363419109	2.606103	1.6143429
19.540488089876686	2.5719054	1.6037161
19.55827302085503	2.5108228	1.5845577
19.576058427592674	2.4585238	1.567968
19.593844310556282	2.4663563	1.5704637
19.611630670212598	2.4675908	1.5708567
19.629417507028506	2.5112822	1.5847026
19.64720482147098	2.511709	1.5848372
19.6649926140071	2.5346158	1.5920477
19.682780885104084	2.5453012	1.5954
19.70056963522921	2.5297105	1.5905064
19.718358864849908	2.5297768	1.5905272
19.7361485744337	2.4851573	1.5764382
19.753938764448215	2.4645598	1.5698917
19.771729435361202	2.440467	1.5621994
19.789520587640506	2.469184	1.5713637
19.807312221754092	2.5212336	1.5878392
19.825104338170043	2.5596886	1.5999026
19.842896937356517	2.5475333	1.5960994
19.860690019781824	2.4952853	1.5796472
19.87848358591436	2.477984	1.5741613
19.896277636222635	2.4847	1.5762931
19.914072171175278	2.501069	1.5814768
19.931867191241015	2.5012147	1.581523
19.94966269688869	2.4945815	1.5794244
19.967458688587264	2.4383965	1.5615366
19.985255166805807	2.4453597	1.5637646
20.00305213201348	2.4267333	1.5577976
20.020849584679578	2.4302566	1.558928
20.038647525273507	2.452361	1.5660017
20.05644595426477	2.4454825	1.5638039
20.07424487212299	2.433928	1.5601051
20.092044279317903	2.4535096	1.5663682
20.109844176319353	2.4585521	1.5679771
20.127644563597304	2.424378	1.5570414
20.145445441621817	2.3868487	1.544943
20.16324681086307	2.3819783	1.5433658
20.181048671791373	2.4450529	1.5636665
20.198851024877122	2.4548364	1.5667918
20.216653870590836	2.4177365	1.5549072
20.234457209403146	2.3928928	1.5468978
20.252261041784802	2.3481665	1.5323728
20.270065368206662	2.3302352	1.5265108
20.287870189139685	2.3516123	1.5334967
20.305675505054968	2.400414	1.5493269
20.323481316423702	2.4068313	1.5513966
20.341287623717207	2.3868773	1.5449522
20.359094427406884	2.3338377	1.5276903
20.376901727964288	2.3292503	1.5261881
20.39470952586107	2.3170557	1.5221878
20.41251782156899	2.3458965	1.531632
20.430326615559935	2.3460658	1.5316873
20.448135908305886	2.3674245	1.5386437
20.465945700278965	2.3628576	1.537159
20.483755991951384	2.4017599	1.5497612
20.50156678379548	2.3781638	1.5421296
20.519378076283708	2.361207	1.5366219
20.537189869888635	2.3436751	1.5309067
20.55500216508294	2.3164725	1.5219963
20.572814962339415	2.342333	1.5304682
20.59062826213098	2.373505	1.5406184
20.60844206493066	2.3934875	1.54709
20.626256371211593	2.3706596	1.5396947
20.644071181447032	2.3484025	1.5324498
20.66188649611036	2.3231025	1.5241727
20.67970231567506	2.310553	1.5200504
20.697518640614742	2.3127196	1.5207628
20.715335471403122	2.3130631	1.5208758
20.73315280851404	2.317071	1.5221928
20.750970652421447	2.3019226	1.5172088
20.768789003599412	2.3033667	1.5176846
20.786607862522136	2.2845833	1.5114838
20.8044272296639	2.264583	1.5048531
20.82224710549913	2.2519538	1.5006511
20.84006749050237	2.2324965	1.4941541
20.857888385148268	3.785247	1.9455712
20.8757097899116	45.938488	6.777794
20.893531705267254	64.83576	8.052066
20.911354131690224	83.837105	9.1562605
20.92917706965566	69.06935	8.310798
20.94700051963877	50.09973	7.0781164
20.96482448211493	29.378756	5.4202175
20.982648957559622	4.1280603	2.0317628
21.00047394644843	2.2600093	1.5033327
21.01829944925707	2.292425	1.5140756
21.036125466461375	2.2902782	1.5133665
21.053951998537297	2.2670605	1.5056762
21.071779045960906	2.2362223	1.4954004
21.089606609208378	2.234982	1.4949856
21.10743468875603	2.2194314	1.4897757
21.12526328508028	2.2207894	1.4902314
21.143092398657675	2.259625	1.503205
21.16092202996488	2.2670648	1.5056776
21.17875217947867	2.2125444	1.4874624
21.19658284767596	2.1723542	1.4738909
21.21441403503377	2.1332037	1.4605491
21.232245742029225	2.1448545	1.4645321
21.2500779691396	2.1672812	1.4721688
21.26791071684227	2.2111511	1.486994
21.28574398561475	2.2291112	1.4930208
21.30357777593465	2.2142076	1.4880214
21.321412088279704	2.1960483	1.481907
21.339246923127792	2.1786067	1.4760104
21.357082280956888	2.1519208	1.4669427
21.3749181622451	2.1283054	1.4588712
21.392754567470647	2.1419537	1.4635415
21.41059149711187	2.176616	1.4753358
21.42842895164726	2.1580856	1.4690424
21.446266931555378	2.1381264	1.4622333
21.464105437314945	2.122621	1.4569218
21.481944469404798	2.0941389	1.447114
21.49978402830388	2.0641	1.4366976
21.51762411449127	2.078397	1.4416647
21.53546472844617	2.1091921	1.4523058
21.553305870647876	2.127105	1.4584599
21.571147541575865	2.0824018	1.4430529
21.58898974170967	2.0560937	1.4339086
21.60683247152899	2.0476143	1.4309487
21.62467573151363	2.0536137	1.4330435
21.642519522143523	2.0484715	1.4312482
21.660363843898722	2.0405684	1.4284847
21.6782086972594	2.01113	1.4181432
21.696054082705864	1.9750581	1.4053676
21.713900000718535	1.9743156	1.4051034
21.73174645177795	2.000242	1.4142991
21.749593436364794	2.0139008	1.4191197
21.767440954959845	2.0352585	1.4266249
21.785289008044032	2.073858	1.4400896
21.803137596098388	2.0751004	1.4405209
21.820986719604086	2.0540261	1.4331874
21.838836379042412	2.03216	1.4255385
21.85668657489478	2.0440228	1.4296932
21.87453730764273	2.056954	1.4342085
21.892388577767914	2.0711882	1.4391624
21.91024038575213	2.0326955	1.4257263
21.928092732077285	2.0043392	1.4157469
21.945945617225426	1.9989233	1.4138328
21.963799041678694	2.0048716	1.4159349
21.981653005919398	31.3091	5.5954533
21.999507510429943	78.0858	8.836617
22.01736255569286	73.04573	8.5466795
22.035218142190818	4.192549	2.0475717
22.05307427040661	2.0351841	1.4265988
22.07093094082315	2.0125976	1.4186605
22.088788153923474	2.0164232	1.4200082
22.106645910190746	2.0090616	1.4174137
22.12450421010827	1.9656526	1.4020174
22.142363054159464	1.9676844	1.4027418
22.16022244282787	1.9679999	1.4028542
22.178082376597164	1.9667759	1.4024179
22.195942855951145	1.9439245	1.3942469
22.213803881373742	1.945309	1.3947433
22.231665453349002	1.9647214	1.4016852
22.24952757236111	1.9719237	1.404252
22.26739023889438	1.960794	1.4002836
22.28525345343323	1.9604445	1.4001588
22.30311721646225	1.9946543	1.4123223
22.320981528466113	1.9805322	1.4073138
22.33884638992964	1.953898	1.397819
22.356711801337788	1.9516145	1.397002
22.37457776317561	1.9642844	1.4015293
22.392444275928337	1.9579738	1.3992761
22.410311340081282	1.9124266	1.3829051
22.428178956119904	1.9102618	1.3821222
22.446047124529805	1.9379249	1.3920937
22.46391584579669	1.941446	1.3933578
22.481785120406414	1.9170307	1.3845688
22.49965494884496	1.9039925	1.3798524
22.51752533159841	1.8866715	1.3735616
22.53539626915302	1.8836508	1.3724616
22.553267761995137	1.9070454	1.3809581
22.571139810611264	1.9356663	1.3912822
22.589012415488025	1.9419761	1.393548
22.60688557711216	1.9676021	1.4027125
22.624759295970566	1.9453753	1.3947672
22.642633572550263	1.9491565	1.396122
22.660508407338362	1.9354008	1.3911868
22.67838380082217	1.9604377	1.4001563
22.696259753489077	1.9326131	1.3901845
22.714136265826614	1.9151368	1.3838847
22.73201333832246	1.8855149	1.3731405
22.74989097146439	1.8937324	1.3761295
22.76776916574035	1.8631086	1.3649573
22.785647921638393	1.8828992	1.3721877
22.803527239646712	1.9029644	1.3794798
22.82140712025363	1.8924938	1.3756794
22.839287563947593	1.9055884	1.3804305
22.85716857121719	1.9043626	1.3799864
22.875050142551135	1.9254003	1.3875879
22.892932278438277	1.9268085	1.3880953
22.910814979367604	1.9344767	1.3908547
22.928698245828222	1.9511186	1.3968245
22.946582078309387	1.9396392	1.3927093
22.96446647730047	1.9051648	1.380277
22.98235144329098	1.8757614	1.3695844
23.000236976770562	1.8655419	1.3658484
23.018123078229	1.9096574	1.3819035
23.03600974815619	1.9315553	1.389804
23.053896987042194	1.960146	1.4000521
23.071784795377173	1.9400609	1.3928607
23.08967317365145	1.9272395	1.3882506
23.10756212235546	1.9023447	1.3792552
23.125451641979787	1.8931081	1.3759027
23.143341733015134	1.914883	1.383793
23.161232395952357	1.9669836	1.4024919
23.179123631282426	1.9475986	1.3955638
23.197015439496468	1.8807049	1.371388
23.214907821085717	1.8670619	1.3664048
23.23280077654157	1.8922981	1.3756083
23.250694306355538	1.9459729	1.3949814
23.268588411019277	1.9528601	1.3974477
23.28648309102458	1.9318354	1.3899049
23.304378346863356	1.8882554	1.374138
23.322274179027676	1.8833188	1.3723407
23.340170588009723	1.8944689	1.3763971
23.358067574301852	1.905124	1.3802623
23.37596513839651	1.9262376	1.3878896
23.39386328078629	1.9461067	1.3950293
23.411762001963947	1.9208157	1.385935
23.429661302422353	1.8963192	1.377069
23.4475611826545	1.9044367	1.3800133
23.46546164315356	1.9609061	1.4003236
23.48336268441279	2.0172434	1.4202969
23.501264306925638	2.0431669	1.4293939
23.51916651118564	2.0074894	1.416859
23.537069297686497	1.9174012	1.3847026
23.554972666922037	1.9042919	1.3799608
23.57287661938623	1.925476	1.3876152
23.59078115557318	1.9681103	1.4028935
23.608686275977128	1.9540507	1.3978736
23.62659198109246	1.934255	1.390775
23.6444982714137	1.9225503	1.3865606
23.66240514743549	1.9065695	1.3807858
23.68031260965263	1.9149024	1.3838
23.698220658560068	1.9157865	1.3841194
23.716129294652845	1.9045424	1.3800516
23.7340385184262	1.9181674	1.3849792
23.75194833037546	1.9215965	1.3862166
23.769858730996123	1.9288104	1.3888161
23.78776972078382	1.9429785	1.3939077
23.80568130023431	1.9408494	1.3931438
23.823593469843495	1.9141345	1.3835225
23.841506230107424	1.8914009	1.3752822
23.859419581522275	1.8689204	1.3670846
23.87733352458438	1.8816372	1.3717278
23.89524805979019	1.8887391	1.3743141
23.913163187636318	1.9017444	1.3790375
23.931078908619508	1.924985	1.3874383
23.948995223236633	1.9528413	1.397441
23.966912131984735	1.9697807	1.4034888
23.98482963536096	2.0076785	1.4169257
24.002747733862616	2.0224757	1.4221377
24.020666427987155	2.0501344	1.4318291
24.038585718232156	1.9828118	1.4081235
24.056505605095353	1.9693573	1.403338
24.074426089074617	1.9790382	1.406783
24.092347170667946	2.0029023	1.4152393
24.110268850373515	2.00099	1.4145635
24.128191128689586	2.0574236	1.4343722
24.146114006114626	2.0729032	1.4397581
24.164037483147187	2.0773456	1.4412999
24.181961560286005	2.0550287	1.4335371
24.199886238029926	2.0327902	1.4257596
24.21781151687797	2.02383	1.4226137
24.235737397329274	2.0088525	1.4173399
24.253663879883135	2.0098913	1.4177064
24.271590965038975	2.0186436	1.4207898
24.289518653296376	2.076946	1.4411614
24.30744694515505	2.0412457	1.4287217
24.32537584111486	2.0093434	1.4175131
24.34330534167581	2.0045335	1.4158155
24.361235447338046	2.0407426	1.4285456
24.379166158601876	2.0240986	1.4227082
24.39709747596772	2.0006652	1.4144487
24.41502939993615	1.9872686	1.4097052
24.432961931007917	1.9731708	1.404696
24.450895069683856	1.9843261	1.4086611
24.468828816465	1.9876723	1.4098483
24.4867631718525	2.0136764	1.4190407
24.504698136347656	2.0102537	1.4178342
24.52263371045192	1.9978275	1.4134452
24.540569894666874	1.9895977	1.410531
24.558506689494266	1.988055	1.409984
24.57644409543597	1.982543	1.408028
24.594382112994012	1.947133	1.3953971
24.61232074267057	1.8948698	1.3765427
24.630259984967953	1.8971083	1.3773556
24.64819984038863	1.8971329	1.3773645
24.66614030943522	1.9054321	1.380374
24.684081392610462	1.9088013	1.3815937
24.702023090417274	1.9119573	1.3827354
24.7199654033587	1.9311247	1.3896492
24.737908331937927	1.9611981	1.4004278
24.755851876658305	2.006893	1.4166485
24.773796038023324	2.0004988	1.4143898
24.79174081653661	2.0229802	1.4223151
24.809686212701962	2.0464263	1.4305335
24.827632227023294	2.0734494	1.4399477
24.8455788600047	2.0965652	1.447952
24.8635261121504	2.113132	1.4536616
24.88147398396475	2.078289	1.4416273
24.899422475952303	2.0775607	1.4413745
24.917371588617698	2.0711622	1.4391533
24.935321322465768	2.158304	1.4691167
24.953271678001478	2.2521977	1.5007324
24.97122265572994	2.4658184	1.5702925
24.989174256156414	2.7524092	1.6590387
25.00712647978632	3.1967015	1.7879322
25.02507932712521	3.7549691	1.9377743
25.043032798678798	4.2605896	2.0641196
25.060986894952933	4.9182525	2.2177134
25.078941616453637	5.638518	2.3745563
25.096896963687055	6.5349255	2.55635
25.114852937159508	7.66695	2.768926
25.132809537377444	8.243947	2.8712275
25.150766764847468	8.330953	2.886339
25.168724620076347	7.7357817	2.7813272
25.186683103570985	6.674799	2.5835633
25.204642215838426	5.5521517	2.3563004
25.222601957385894	4.2441773	2.0601401
25.24056232872074	3.1548202	1.7761813
25.25852333035048	2.5528374	1.5977601
25.276484962782778	2.2226436	1.4908533
25.294447226525435	2.0713878	1.4392316
25.312410122086423	1.9785413	1.4066063
25.330373649973843	1.891112	1.375177
25.348337810695988	1.9092349	1.3817507
25.366302604761245	1.9513941	1.3969231
25.384268032678207	1.9328169	1.3902578
25.40223409495558	1.8868152	1.373614
25.420200792102257	1.8761905	1.3697411
25.438168124627246	1.924069	1.3871082
25.45613609303974	1.9348673	1.390995
25.474104697849057	1.926803	1.3880934
25.492073939564698	1.9101745	1.3820906
25.510043818696285	1.8519294	1.3608562
25.528014335753614	1.8215266	1.3496394
25.54598549124664	1.8266985	1.3515542
25.56395728568544	1.8571948	1.3627894
25.58192971958028	1.9015874	1.3789805
25.59990279344156	1.8806993	1.3713859
25.617876507779833	1.8531322	1.361298
25.635850863105826	1.8391719	1.3561608
25.653825859930386	1.8736712	1.3688211
25.671801498764548	1.889648	1.3746446
25.68977778011949	1.8595239	1.3636436
25.707754704506524	1.7908626	1.3382311
25.725732272437153	1.8354499	1.3547878
25.743710484423012	1.8777604	1.370314
25.761689340975888	1.8904209	1.3749257
25.77966884260774	1.8652384	1.3657373
25.797648989830662	1.866122	1.3660607
25.815629783156922	1.8543476	1.3617443
25.83361122309895	1.8703637	1.3676124
25.85159331016929	1.8664473	1.3661798
25.869576044880695	1.863742	1.3651893
25.887559427746034	1.8664999	1.366199
25.90554345927836	1.8542023	1.361691
25.92352813999086	1.8494718	1.3599529
25.94151347039689	1.8107257	1.3456321
25.959499451009965	1.832162	1.3535738
25.97748608234374	1.8984886	1.3778565
25.995473364912062	1.9016395	1.3789995
26.013461299228904	1.853718	1.3615131
26.03144988580839	1.8208025	1.3493711
26.04943912516483	1.8103594	1.3454959
26.067429017812675	1.7931823	1.3390975
26.085419564266537	1.824871	1.3508779
26.103410765041186	1.8232366	1.3502728
26.12140262065155	1.7884399	1.3373257
26.139395131612723	1.842229	1.3572874
26.157388298439948	1.867002	1.3663828
26.17538212164861	1.8265396	1.3514954
26.193376601754295	1.7771434	1.3330954
26.211371739272714	1.795699	1.340037
26.229367534719746	1.8201369	1.3491246
26.247363988611433	1.815357	1.3473518
26.26536110146397	1.7934808	1.339209
26.283358873793727	1.7992446	1.3413593
26.301357306117204	1.7946932	1.3396616
26.319356398951104	1.8017329	1.3422865
26.33735615281224	1.837906	1.3556939
26.35535656821762	1.8348409	1.354563
26.373357645684404	1.7870965	1.3368233
26.39135938572991	1.7833092	1.3354061
26.409361788871614	1.8237151	1.3504499
26.427364855627165	1.8746108	1.3691642
26.445368586514352	1.8530567	1.3612702
26.46337298205115	1.8160152	1.347596
26.48137804275568	1.7717552	1.3310729
26.499383769146217	1.7882059	1.3372382
26.517390161741215	1.7563229	1.3252633
26.53539722105928	1.7403983	1.3192415
26.553404947619182	1.7462242	1.3214477
26.571413341939856	1.7907051	1.3381723
26.589422404540397	1.7937307	1.3393023
26.60743213594006	1.791325	1.3384039
26.62544253665827	1.8158786	1.3475454
26.64345360721459	1.8135818	1.3466929
26.66146534812879	1.8123081	1.3462199
26.679477759920758	1.8875941	1.3738974
26.69749084311057	1.910673	1.3822709
26.71550459821847	1.826544	1.3514969
26.733519025764842	1.7484456	1.322288
26.751534126270258	1.7570777	1.325548
26.769549900255434	1.8127364	1.346379
26.787566348241267	1.8421959	1.3572751
26.80558347074881	1.8569695	1.3627067
26.823601268299267	1.8633602	1.3650495
26.841619741414036	1.7860458	1.3364302
26.85963889061465	1.7678047	1.3295882
26.877658716422832	1.7676784	1.3295406
26.89567921936045	1.8084064	1.34477
26.913700399949544	1.8117349	1.346007
26.93172225871233	1.8191456	1.348757
26.949744796171174	1.7904295	1.3380693
26.967768012848605	1.7645309	1.3283565
26.98579190926733	1.7748364	1.3322299
27.003816485950225	1.7911419	1.3383355
27.021841743420318	1.8478588	1.3593597
27.039867682200814	1.8437309	1.3578405
27.057894302815072	1.8511732	1.3605783
27.07592160578664	1.8093258	1.3451118
27.0939495916392	1.7693675	1.3301758
27.111978260896635	1.7954184	1.3399322
27.13000761408296	1.7999948	1.3416388
27.148037651722397	1.8059365	1.3438513
27.166068374339304	1.7683984	1.3298115
27.184099782458215	1.7297913	1.3152153
27.20213187660384	1.7596592	1.3265214
27.22016465730105	1.8392248	1.3561802
27.23819812507487	1.8632959	1.365026
27.256232280450533	1.8448591	1.3582559
27.274267123953383	1.8237325	1.3504564
27.292302656108987	1.8047365	1.3434048
27.31033887744306	1.8026364	1.342623
27.32837578848146	1.8284686	1.3522087
27.34641338975026	1.8527807	1.3611689
27.364451681775673	1.8403057	1.3565787
27.382490665084074	1.762428	1.3275647
27.400530340202046	1.7077234	1.3067989
27.41857070765629	1.7182319	1.3108134
27.436611767973726	1.7671889	1.3293566
27.454653521681404	1.8098966	1.3453239
27.472695969306564	1.8285851	1.3522519
27.490739111376627	1.8176972	1.34822
27.508782948419153	1.7927591	1.3389395
27.526827480961902	1.8025599	1.3425945
27.54487270953279	1.8384671	1.3559009
27.562918634659898	1.8473872	1.3591862
27.580965256871508	1.8291558	1.3524629
27.599012576696026	1.7941697	1.3394662
27.617060594662068	1.8189476	1.3486836
27.63510931129842	1.853901	1.3615804
27.65315872713401	1.8958468	1.3768976
27.67120884269797	1.8627108	1.3648117
27.68925965851958	1.8201925	1.349145
27.707311175128307	1.8221112	1.349856
27.725363393053787	1.8666085	1.3662388
27.74341631282583	1.8894343	1.3745669
27.7614699349744	1.9368405	1.3917042
27.77952426002968	2.1197424	1.4559336
27.797579288521973	2.1785274	1.4759835
27.815635020981784	2.573796	1.6043055
27.83369145793979	2.611458	1.6160007
27.85174859992682	2.461528	1.5689257
27.869806447473923	2.312903	1.5208231
27.887865001112267	1.9917638	1.4112986
27.905924261373233	1.8766472	1.3699077
27.92398422878836	1.8467454	1.3589501
27.94204490388936	1.8354125	1.354774
27.96010628720813	1.8320897	1.3535471
27.978168379276728	1.8390379	1.3561113
27.9962311806274	1.8709319	1.3678201
28.014294691792568	1.8575801	1.3629307
28.0323589133048	1.7971555	1.3405803
28.050423845696887	1.8004094	1.3417934
28.068489489501758	1.7974921	1.3407059
28.086555845252523	1.7983773	1.3410358
28.104622913482487	1.8413271	1.356955
28.122690694725115	1.8819839	1.3718542
28.14075918951405	1.8817298	1.3717616
28.15882839838312	1.8776852	1.3702866
28.176898321866304	1.8795006	1.3709488
28.1949689604978	1.9223117	1.3864745
28.213040314811945	1.9508202	1.3967177
28.23111238534327	1.9649919	1.4017817
28.249185172626493	1.9469951	1.3953477
28.267258677196473	1.955029	1.3982235
28.285332899588294	1.9238414	1.3870261
28.303407840337172	1.8921586	1.3755575
28.321483499978545	1.9071414	1.3809929
28.33955987904799	1.9486283	1.3959328
28.357636978081285	1.9988933	1.4138222
28.37571479761439	1.9861201	1.4092977
28.393793338183425	1.9707632	1.4038388
28.41187260032469	1.9669274	1.4024719
28.429952584574686	1.9931369	1.411785
28.448033291470065	1.965712	1.4020385
28.46611472154769	1.9672731	1.4025952
28.484196875344566	1.9661851	1.4022073
28.502279753397914	1.9033284	1.3796117
28.52036335624511	1.8451403	1.3583595
28.538447684423716	1.8503515	1.3602762
28.556532738471482	1.9133207	1.3832283
28.574618518926325	1.9509809	1.3967751
28.59270502632635	1.9883	1.4100709
28.61079226120985	2.0129342	1.4187791
28.628880224115274	1.9706627	1.403803
28.646968915581287	1.9366952	1.391652
28.66505833614671	1.925341	1.3875666
28.68314848635055	1.9925982	1.4115942
28.701239366732004	2.0152469	1.4195939
28.71933097783044	2.0052783	1.4160786
28.737423320185403	2.054557	1.4333726
28.75551639433665	2.1021569	1.4498817
28.773610200824074	2.131993	1.4601346
28.791704740187793	2.1180515	1.4553527
28.80980001296809	2.136683	1.4617397
28.827896019705413	2.143948	1.4642227
28.845992760940433	2.1773517	1.4755852
28.86409023721397	2.2001119	1.4832774
28.88218844906704	2.1868148	1.4787883
28.900287397040845	2.173677	1.4743395
28.918387081676755	2.1939898	1.4812123
28.936487503516343	2.2157388	1.4885358
28.954588663101365	2.260331	1.5034397
28.97269056097374	2.3460188	1.5316719
28.990793197675597	2.3880076	1.545318
29.00889657374923	2.3431098	1.530722
29.027000689737125	2.3598154	1.536169
29.04510554618196	2.4113054	1.5528378
29.06321114362659	2.4735515	1.5727528
29.08131748261405	2.474003	1.5728964
29.099424563687567	2.451454	1.565712
29.11753238739057	2.4754555	1.573358
29.13564095426663	2.531122	1.59095
29.15375026485954	2.572176	1.6038005
29.171860319713275	2.5943544	1.6107
29.18997111937199	2.636952	1.6238694
29.20808266438002	2.7063012	1.6450839
29.226194955281898	2.7333903	1.6532968
29.244307992622335	2.735118	1.6538192
29.26242177694624	2.8096726	1.6762078
29.2805363087987	2.9006631	1.7031333
29.29865158872498	2.9789913	1.7259755
29.316767617270557	2.999089	1.7317878
29.334884394981064	3.02762	1.7400057
29.353001922402367	3.0237386	1.73889
29.37112020008047	3.0259514	1.7395262
29.389239228561596	3.1411865	1.7723392
29.407359008392152	3.3845468	1.8397138
29.42547954011872	3.7760928	1.9432172
29.44360082428809	4.363706	2.0889485
29.46172286144722	5.2808237	2.2980044
29.479845652143283	6.771038	2.6021218
29.497969196923606	8.870272	2.9783
29.516093496335728	11.44534	3.3830962
29.5342185509274	14.230901	3.7723866
29.55234436124651	16.559015	4.069277
29.570470927841175	17.719488	4.209452
29.588598251259686	17.474977	4.1803083
29.60672633205055	16.19623	4.024454
29.624855170762405	14.135492	3.7597196
29.642984767944146	11.556474	3.3994813
29.66111512414481	8.924511	2.987392
29.67924623991366	6.6045303	2.5699282
29.697378115800138	5.0826287	2.2544687
29.71551075235387	4.2032294	2.0501778
29.733644150124675	3.743927	1.934923
29.751778309662576	3.5444338	1.8826667
29.769913231517766	3.5058177	1.8723829
29.78804891624066	3.4445376	1.8559465
29.806185364381818	3.3796604	1.8383852
29.82432257649206	3.3893335	1.8410143
29.842460553122333	3.4148743	1.8479378
29.86059929482382	3.3493445	1.8301214
29.878738802147872	3.3464072	1.8293188
29.896879075646048	3.3885875	1.8408116
29.915020115870114	3.3760786	1.8374108
29.933161923371976	3.3744812	1.836976
29.951304498703777	3.3405433	1.8277153
29.969447842417857	3.2746608	1.8096024
29.987591955066733	3.269221	1.8080988
30.005736837203123	3.245197	1.8014431
30.023882489379943	3.1570597	1.7768116
30.04202891215028	3.086617	1.7568771
30.060176106067455	3.1018665	1.7612116
30.078324071684946	3.1725323	1.7811604
30.09647280955646	3.17105	1.7807442
30.114622320235863	3.127763	1.7685483
30.132772604277257	3.108385	1.7630613
30.1509236622349	3.0945573	1.7591354
30.16907549466328	3.0406814	1.743755
30.18722810211705	3.009037	1.7346576
30.205381485151097	3.0009003	1.7323107
30.22353564432045	3.1095998	1.7634058
30.241690580180403	3.0937128	1.7588953
30.25984629328638	3.0337367	1.7417625
30.278002784194037	2.984595	1.7275981
30.296160053459246	2.9758897	1.7250767
30.314318101638033	2.9577646	1.7198153
30.332476929286646	2.9990504	1.7317766
30.35063653696153	3.0228615	1.7386378
30.368796925219307	2.9888792	1.7288375
30.386958094616844	2.9194615	1.7086432
30.40512004571115	2.8690836	1.6938369
30.423282779059463	2.883566	1.6981065
30.441446295219233	2.8961952	1.7018211
30.459610594748067	2.8884132	1.6995332
30.47777567820382	2.8398528	1.6851863
30.495941546144504	2.8214037	1.6797035
30.51410819912835	2.8595142	1.6910099
30.532275637713795	2.8569918	1.6902639
30.55044386245946	2.81767	1.6785917
30.56861287392416	2.7969885	1.6724199
30.586782672666956	2.8146794	1.6777006
30.604953259247047	2.8065522	1.6752768
30.623124634223885	2.807019	1.6754161
30.641296798157075	2.82124	1.6796547
30.659469751606462	2.7878308	1.6696799
30.677643495132074	2.768685	1.6639366
30.695818029294152	2.820091	1.6793127
30.713993354653116	2.8132079	1.6772621
30.73216947176962	2.7768242	1.6663805
30.75034638120448	2.7347536	1.653709
30.768524083518756	2.7009654	1.6434615
30.786702579273673	2.73953	1.6551526
30.80488186903069	2.8722613	1.6947747
30.82306195335144	2.9559398	1.7192847
30.841242832797782	3.1132517	1.7644409
30.85942450793176	3.3832784	1.839369
30.877606979315637	3.7302818	1.9313937
30.895790247511883	4.07697	2.0191507
30.913974313083134	4.4484696	2.1091394
30.932159176592283	4.7051535	2.1691365
30.95034483860237	4.822224	2.1959562
30.968531299676698	4.6800694	2.1633468
30.98671856037873	4.3340697	2.081843
31.00490662127215	3.945719	1.9863834
31.023095482920848	3.530215	1.8788867
31.04128514588892	3.0555654	1.7480175
31.059475610740662	2.7462416	1.6571788
31.07766687804056	2.572179	1.6038015
31.09585894835335	2.453517	1.5663706
31.11405182224393	2.40229	1.5499322
31.132245500277417	2.458632	1.5680026
31.15043998301914	2.5223107	1.5881784
31.168635271034628	2.4259467	1.5575451
31.18683136488964	2.2964125	1.5153918
31.20502826515008	2.245873	1.4986237
31.223225972382135	2.3296397	1.5263157
31.241424487152155	2.3716786	1.5400255
31.259623810026692	2.3857498	1.5445873
31.27782394157253	2.371877	1.54009
31.296024882356644	2.377114	1.5417893
31.314226632946237	2.4311578	1.5592171
31.332429193908684	2.5078967	1.583634
31.350632565811598	2.5266626	1.5895479
31.368836749222787	2.5200639	1.5874709
31.387041744710295	2.493526	1.5790902
31.40524755284232	2.5504138	1.5970016
31.423454174187317	2.6177661	1.6179513
31.441661609313922	2.6335742	1.6228291
31.459869858791002	2.5088558	1.5839368
31.478078923187628	2.3956711	1.5477955
31.496288803073064	2.3921053	1.5466433
31.514499499016807	2.4469934	1.5642868
31.532711011588546	2.3948708	1.547537
31.550923341358178	2.3109436	1.5201788
31.56913648889584	2.2832735	1.5110505
31.587350454771844	2.2882268	1.5126886
31.605565239556732	2.2929335	1.5142435
31.62378084382127	2.29178	1.5138626
31.641997268136382	2.2743096	1.5080814
31.660214513073274	2.2791035	1.50967
31.67843257920331	2.2958274	1.5151988
31.6966514670981	2.294783	1.5148542
31.71487117732944	2.3328903	1.5273802
31.733091710469346	2.3701844	1.5395403
31.751313067090052	2.2683585	1.5061071
31.769535247764008	2.2382958	1.4960935
31.787758253063878	2.2300534	1.4933363
31.805982083562526	2.2680862	1.5060166
31.824206739833024	2.2942758	1.5146867
31.84243222244869	2.3177137	1.522404
31.860658531983013	2.272703	1.5075487
31.878885669009737	2.2327995	1.4942555
31.897113634102784	2.2259736	1.4919697
31.91534242783632	2.2244835	1.4914702
31.933572050784694	2.139995	1.4628723
31.951802503522508	2.0749168	1.4404571
31.970033786624548	2.0771313	1.4412256
31.988265900665834	2.1701214	1.4731332
32.006498846221575	2.2481785	1.4993927
32.02473262386724	2.2829413	1.5109406
32.04296723417845	2.2478933	1.4992976
32.0612026777311	2.1645155	1.4712292
32.07943895510129	2.0840964	1.44364
32.097676066865304	2.0621934	1.436034
32.115914013599685	2.0805435	1.4424089
32.13415279588115	2.0778728	1.4414828
32.152392414286666	2.1244032	1.4575332
32.1706328693934	2.136011	1.4615098
32.18887416177875	2.15949	1.4695203
32.20711629202032	2.1441972	1.4643078
32.225359260695924	2.1472542	1.4653512
32.243603068383614	2.087076	1.4446715
32.26184771566166	2.047623	1.4309517
32.28009320310852	2.0675354	1.4378927
32.2983395313029	2.1599934	1.4696916
32.31658670082372	2.1818593	1.4771118
32.33483471225012	2.1541934	1.467717
32.35308356616143	2.095142	1.4474605
32.371333263137245	2.157557	1.4688625
32.38958380375734	2.1888871	1.4794888
32.407835188601744	2.13141	1.4599348
32.42608741825067	2.048127	1.4311279
32.444340493284585	2.0325005	1.4256579
32.46259441428416	2.0312178	1.425208
32.48084918183028	2.060049	1.4352871
32.49910479650405	2.087036	1.4446577
32.51736125888683	1.9857594	1.4091698
32.53561856956014	1.9255966	1.3876587
32.5538767291058	2.0237947	1.4226013
32.572135738105764	2.129874	1.4594088
32.59039559714228	2.1608498	1.469983
32.608656306797776	2.1620948	1.4704063
32.62691786765491	2.1754596	1.474944
32.645180280296586	2.1350236	1.461172
32.663443545305896	2.1273966	1.4585598
32.68170766326619	2.1657133	1.4716363
32.69997263476099	2.1102312	1.4526634
32.7182384603741	1.9376799	1.3920057
32.7365051406895	1.954375	1.3979896
32.75477267629144	2.0914447	1.4461828
32.77304106776434	2.1428032	1.4638317
32.79131031569289	2.0236557	1.4225525
32.809580420661966	1.8961316	1.3770009
32.827851383256714	1.8636297	1.3651482
32.84612320406245	1.8817484	1.3717684
32.86439588366476	1.9474876	1.3955241
32.88266942264945	1.9621807	1.4007787
32.9009438216025	1.9925505	1.4115773
32.9192190811102	2.0074613	1.4168491
32.937495201758985	1.9892739	1.4104162
32.95577218413556	1.9733411	1.4047565
32.974050028826866	1.9983721	1.4136379
32.992328736420035	1.9288695	1.3888375
33.010608307502444	1.7890967	1.3375711
33.02888874266169	1.7416376	1.3197112
33.047170042485604	1.8520112	1.3608862
33.06545220756225	1.9908326	1.4109687
33.083735238479896	2.0757077	1.4407316
33.10201913582707	2.016556	1.4200549
33.12030390019248	2.0168622	1.4201627
33.138589532165135	2.0025349	1.4151095
33.15687603233419	2.0464268	1.4305338
33.17516340128909	1.9831986	1.4082608
33.19345163961947	1.8836197	1.3724502
33.211740747915215	1.8884494	1.3742087
33.23003072676643	1.9554579	1.398377
33.248321576763466	2.113975	1.4539515
33.266613298496885	2.111046	1.4529439
33.28490589255747	1.9409387	1.3931757
33.30319935953626	1.8381633	1.3557888
33.32149370002451	1.9008629	1.3787179
33.339788914613706	1.88004	1.3711455
33.358085003895575	1.8018287	1.3423221
33.376381968462034	1.879912	1.3710989
33.39467980890529	1.976153	1.4057571
33.41297852581774	1.9930063	1.4117388
33.43127811979204	1.9774655	1.4062239
33.44957859142105	2.0168784	1.4201684
33.467879941297866	1.9478266	1.3956456
33.486182170015844	1.9524184	1.3972896
33.50448527816853	1.9933478	1.4118596
33.522789266349754	1.9112906	1.3824943
33.541094135153514	1.8123348	1.3462298
33.55939988517411	1.8052609	1.3436
33.57770651700602	1.9766525	1.4059347
33.59601403124398	2.0417957	1.4289142
33.61432242848296	1.9222299	1.386445
33.632631709318154	1.820324	1.3491938
33.650941874344994	1.9619671	1.4007024
33.66925292415916	2.061744	1.4358774
33.68756485935654	2.0001378	1.4142623
33.70587768053328	1.8994856	1.3782183
33.724191388285746	1.8278108	1.3519655
33.74250598321054	1.8735394	1.368773
33.760821465904506	1.8681878	1.3668166
33.77913783696474	1.9363477	1.3915272
33.79745509698852	1.9376054	1.391979
33.815773246573414	1.975859	1.4056525
33.8340922863172	1.9456655	1.3948711
33.852412216817896	1.944226	1.394355
33.87073303867377	1.9167892	1.3844815
33.889054752483304	1.9381143	1.3921617
33.907377358845245	1.8810407	1.3715104
33.92570085835853	1.8176309	1.3481954
33.94402525162239	1.8268945	1.3516266
33.96235053923627	1.8898281	1.3747102
33.980676721799824	2.012984	1.4187967
33.999003799912984	2.0158937	1.4198217
34.01733177417592	2.0177429	1.4204727
34.03566064518901	1.9931486	1.4117892
34.0539904135529	1.9553459	1.3983368
34.07232107986846	1.9182336	1.3850031
34.090652644736785	1.8887441	1.3743159
34.108985108759235	1.7756507	1.3325355
34.12731847253742	1.7994444	1.3414338
34.14565273667313	1.9071591	1.3809993
34.16398790176847	1.8754857	1.3694837
34.18232396842574	1.8218287	1.3497514
34.20066093724749	1.8352343	1.3547082
34.21899880883651	1.9185579	1.3851202
34.23733758379583	1.988086	1.4099951
34.25567726272874	2.0040033	1.4156282
34.27401784623872	1.9927354	1.4116428
34.29235933492957	1.9054787	1.3803908
34.31070172940526	1.8043796	1.343272
34.32904503027003	1.7188091	1.3110336
34.347389238128386	1.771044	1.3308058
34.36573435358502	1.9192612	1.3853741
34.38408037724492	1.9794487	1.4069288
34.402427309713296	1.9285258	1.3887137
34.42077515159559	1.9770355	1.406071
34.43912390349752	1.9898645	1.4106256
34.45747356602499	1.9365491	1.3915994
34.47582413978423	1.9345884	1.3908949
34.49417562538163	1.932483	1.3901378
34.51252802342388	1.8475053	1.3592297
34.53088133451789	1.8056931	1.3437608
34.54923555927084	1.9678779	1.4028107
34.567590698290104	2.0407481	1.4285475
34.58594675218336	1.9974104	1.4132977
34.6043037215585	1.9458231	1.3949276
34.62266160702365	1.7947409	1.3396794
34.641020409187234	1.800119	1.3416852
34.65938012865785	1.8153726	1.3473576
34.677740766044394	1.9570918	1.398961
34.69610232195598	2.1184204	1.4554794
34.714464797002016	2.162689	1.4706084
34.73282819179208	2.1438305	1.4641825
34.751192506936064	2.187426	1.478995
34.76955774304408	2.1556354	1.4682082
34.7879239007265	1.9632183	1.4011489
34.80629098059391	1.9062327	1.3806639
34.824658983257194	1.8284584	1.352205
34.843027909327446	1.7058095	1.3060664
34.86139775941603	1.763621	1.3280139
34.879768534134534	2.0434356	1.4294878
34.89814023409483	2.0980685	1.4484711
34.91651285990901	1.9743892	1.4051296
34.93488641218944	1.765693	1.3287938
34.95326089154871	1.7686716	1.3299141
34.97163629859967	1.9875906	1.4098194
34.99001263395542	2.2013605	1.4836982
35.00838989822934	2.0816936	1.4428076
35.02676809203499	2.1264691	1.4582418
35.04514721598624	2.2110982	1.4869761
35.063527270697215	2.1270044	1.4584253
35.081908256782256	1.9725163	1.4044629
35.10029017485597	1.9143995	1.3836182
35.11867302553321	1.7464467	1.321532
35.137056809429104	1.7970937	1.3405572
35.155441527159006	2.0987215	1.4486965
35.173827179338524	2.2164664	1.4887801
35.19221376658354	2.040411	1.4284296
35.21060128951017	2.119874	1.4559788
35.2289897487348	2.1095362	1.4524243
35.24737914487405	1.9876626	1.4098449
35.26576947854479	2.01221	1.4185238
35.28416075036418	2.1408286	1.463157
35.30255296094958	2.273071	1.5076708
35.32094611091867	1.9776971	1.4063061
35.33934020088932	1.5866923	1.2596397
35.35773523147969	1.6888479	1.2995569
35.3761312033082	1.9838305	1.4084852
35.394528116993506	2.0035162	1.4154562
35.41292597315452	1.8457847	1.3585966
35.431324772410434	2.0112593	1.4181887
35.449724515380666	2.0613115	1.4357268
35.46812520268491	2.0154936	1.4196808
35.486526834943106	2.1304748	1.4596146
35.504929412775454	2.35259	1.5338155
35.52333293680242	1.9496545	1.3963003
35.54173740764471	2.064309	1.4367703
35.560142825923286	2.3569913	1.5352496
35.5785491922594	2.148519	1.4657828
35.59695650727454	1.5748731	1.2549394
35.61536477159042	2.1756063	1.4749936
