0.008763373481513119	0.9483193	0.9738169
0.026290120649546365	0.38522455	0.6206646
0.043816868432600686	0.22262515	0.4718317
0.06134361724069026	0.015320444	0.12377578
0.07887036748382949	0.026025042	0.16132279
0.0963971195720331	0.052981555	0.23017722
0.11392387391531617	0.13609314	0.36890805
0.1314506309236943	0.23553427	0.48531872
0.1489773910071836	0.28251812	0.53152436
0.16650415457580078	0.21087292	0.45920902
0.18403092203956356	0.16847074	0.41045186
0.20155769380849	0.123615265	0.35158962
0.2190844702925996	0.09721907	0.31179973
0.2366112519019124	0.09142703	0.30236903
0.2541380390464497	0.101305164	0.31828472
0.27166483213623416	0.12156779	0.34866574
0.28919163158128947	0.20704958	0.455027
0.3067184377916406	0.2328254	0.48251984
0.324245251177314	0.23285599	0.48255154
0.34177207214833777	0.21097529	0.45932046
0.3592989011147415	0.16440615	0.40547028
0.37682573848655654	0.15022828	0.38759294
0.39435258467381573	0.14102744	0.3755362
0.41187944008655414	0.13682458	0.36989805
0.42940630513480854	0.15512933	0.3938646
0.446933180228618	0.14100808	0.37551042
0.4644600657780234	0.1800113	0.4242774
0.48198696219306775	0.18338694	0.42823702
0.49951386988379676	0.17311318	0.41606873
0.5170407892602581	0.14212996	0.37700126
0.5345677207325025	0.14857036	0.38544825
0.5520946647105822	0.15260966	0.39065287
0.5696216216045534	0.19226646	0.438482
0.5871485918244737	0.18721941	0.4326886
0.6046755757804043	0.24738874	0.49738187
0.6222025738824094	0.24839397	0.4983914
0.6397295865405557	0.26920184	0.51884663
0.6572566141649129	0.22415937	0.4734547
0.6747836571655547	0.18538833	0.43056744
0.6923107159525568	0.16814417	0.41005385
0.7098377909359992	0.13357462	0.3654786
0.7273648825259653	0.12305806	0.3507963
0.7448919911325411	0.1493815	0.38649905
0.762419117165817	0.17380947	0.41690463
0.7799462610358868	0.16353494	0.40439454
0.7974734231528482	0.16240297	0.40299252
0.8150006039268024	0.17229033	0.4150787
0.8325278037678551	0.20527682	0.45307484
0.8500550230861152	0.19638546	0.44315398
0.8675822622916969	0.18304728	0.42784026
0.8851095217947171	0.18074982	0.42514682
0.9026368020052984	0.18350454	0.4283743
0.9201641033335665	0.1873398	0.43282768
0.9376914261896523	0.18728572	0.43276522
0.9552187709836915	0.24823198	0.49822885
0.9727461381258234	0.26241755	0.51226705
0.990273528026193	0.28840262	0.5370313
1.0078009410949496	0.29489148	0.5430391
1.0253283777422473	0.27003235	0.51964635
1.0428558383782454	0.25738722	0.50733346
1.0603833234131086	0.25084147	0.5008408
1.0779108332570058	0.31044072	0.55717206
1.0954383683201119	0.31451714	0.56081825
1.112965929012607	0.35633323	0.5969365
1.1304935157446763	0.46481252	0.6817716
1.1480211289265108	0.52155226	0.72218573
1.1655487689683062	1.3615773	1.1668664
1.1830764362802655	1.6467015	1.2832386
1.200604131272596	2.0711029	1.4391327
1.2181318543555117	2.5014584	1.5816
1.235659605939232	2.5940676	1.610611
1.253187386433982	4.0333757	2.0083265
1.270715196249994	6.2777033	2.5055346
1.2882430357975057	11.660491	3.414746
1.3057709054867608	16.474266	4.0588503
1.3232988057280106	22.561907	4.7499375
1.3408267369315112	27.593273	5.25293
1.358354699507526	31.251095	5.5902677
1.3758826938663256	35.31184	5.9423766
1.3934107204181858	36.97019	6.0803113
1.410938779573391	37.408047	6.116212
1.4284668717422309	38.287262	6.18767
1.4459949973350033	37.793045	6.147605
1.4635231567620117	37.818058	6.1496387
1.4810513504335687	36.99348	6.0822268
1.4985795787599925	36.584057	6.0484757
1.5161078421516088	36.041916	6.003492
1.5336361410187505	34.751736	5.89506
1.5511644757717598	34.500866	5.873744
1.5686928468209842	35.17638	5.930968
1.58622125457678	36.19301	6.0160627
1.6037496994495108	37.479603	6.122059
1.621278181849548	37.028652	6.0851173
1.6388067021872719	38.04191	6.1678123
1.6563352608730693	37.33683	6.110387
1.673863858317336	36.580128	6.0481505
1.6913924949304753	35.603836	5.966895
1.7089211711228998	34.66191	5.887437
1.7264498873050296	34.149063	5.84372
1.7439786438872935	33.657505	5.801509
1.7615074412801288	32.64348	5.713447
1.779036279893981	31.600742	5.621454
1.796565160139305	30.42792	5.516151
1.814094082426564	29.576906	5.4384656
1.8316230471662298	29.065128	5.3912086
1.849152054768784	28.227938	5.312997
1.8666811056447168	27.626226	5.256066
1.8842102002045273	26.790567	5.1759605
1.901739338858724	26.383272	5.136465
1.9192685220178245	26.322674	5.130563
1.9367977500923557	25.740612	5.0735207
1.9543270234928547	24.826643	4.982634
1.971856342629867	23.739128	4.8722816
1.9893857079139496	23.11566	4.8078747
2.006915119755667	22.797827	4.774707
2.0244445785655945	22.50428	4.7438674
2.0419740847543175	22.141891	4.7055173
2.0595036387324317	21.771791	4.666025
2.0770332409105414	21.267769	4.611699
2.094562891699263	20.8325	4.5642633
2.1120925915092217	20.183943	4.4926543
2.129622340751053	19.63843	4.4315267
2.1471521398354043	187.8939	13.707439
2.1646819891729323	444.3544	21.079716
2.182211889174303	440.70956	20.993084
2.1997418402501974	452.835	21.27992
2.2172718428113023	432.5661	20.798223
2.234801897268317	320.61398	17.905697
2.2523320040319548	17.188372	4.145886
2.269862163512935	16.947092	4.1166844
2.287392376121992	16.712143	4.088049
2.304922642269869	16.297638	4.037033
2.322452962367322	16.0966	4.012057
2.3399833368251164	15.749006	3.9685018
2.357513766054032	15.525225	3.9402063
2.3750442504648586	15.358403	3.91898
2.3925747904683963	15.092205	3.8848686
2.410105386475459	14.797897	3.8468034
2.4276360388968707	14.426464	3.7982185
2.445166748143469	14.1616	3.7631903
2.4626975146261025	13.9250765	3.731632
2.4802283387556323	13.776982	3.7117357
2.4977592209429305	13.584697	3.6857424
2.5152901615988825	13.119941	3.622146
2.5328211611343865	12.944302	3.597819
2.5503522199603523	12.706354	3.5645974
2.5678833384877024	12.570206	3.5454485
2.5854145171273712	12.28242	3.5046284
2.6029457562903064	12.021706	3.4672332
2.620477056387469	11.829446	3.4393961
2.6380084178298326	11.765751	3.430124
2.655539841028383	11.686035	3.4184844
2.673071326394119	11.595093	3.4051569
2.6906028743380523	11.260959	3.3557353
2.708134485271211	10.958734	3.3103979
2.7256661596046325	10.779979	3.2832878
2.743197897749369	10.655132	3.26422
2.760729700116486	10.458435	3.2339504
2.778261567117063	10.273277	3.2051954
2.795793499162193	10.163017	3.1879487
2.8133254966629817	10.117005	3.1807241
2.830857560030551	10.008882	3.1636817
2.8483896896760337	9.824559	3.1344154
2.865921886010578	9.727885	3.1189559
2.883454149445347	9.663415	3.1086035
2.9009864803915177	9.54309	3.0891893
2.91851887926028	9.35104	3.057947
2.9360513464628384	9.24306	3.04024
2.953583882410413	9.279095	3.0461607
2.9711164875142373	9.159043	3.026391
2.9886491621855606	9.127379	3.0211554
3.0061819068356455	8.878183	2.979628
3.023714721875769	8.844918	2.9740407
3.041247607717225	8.524539	2.9196813
3.0587805647713213	8.338258	2.8876042
3.0763135934493806	8.144743	2.8538997
3.0938466941627407	8.064836	2.8398654
3.1113798673227544	8.111409	2.8480537
3.1289131133407904	8.020329	2.8320186
3.1464464326282315	7.903829	2.811375
3.1639798255964786	7.687061	2.7725549
3.1815132926569443	7.5675464	2.7509174
3.1990468342210603	7.5647855	2.7504156
3.216580450700272	7.515392	2.7414215
3.2341141425060416	7.480858	2.7351158
3.251647910049847	7.3242617	2.7063372
3.2691817537431813	7.3315015	2.7076745
3.286715673997555	7.2949567	2.7009177
3.3042496712244938	7.2791657	2.6979928
3.32178374583554	7.18745	2.680942
3.339317898242251	7.172739	2.678197
3.3568521288562034	7.1977143	2.6828556
3.3743864380889876	7.184659	2.6804214
3.3919208263522127	7.0557637	2.6562688
3.4094552940575023	6.8121157	2.610003
3.4269898416164972	6.6781054	2.584203
3.444524469440858	6.6437593	2.577549
3.4620591779422587	6.592966	2.5676773
3.479593967532391	6.51061	2.5515897
3.4971288386229658	6.6179786	2.5725431
3.5146637916257086	6.6583705	2.5803819
3.5321988269523628	6.6097646	2.5709462
3.5497339450146903	6.4883175	2.5472176
3.5672691462244708	6.3460217	2.5191312
3.5848044309934988	6.2321954	2.4964366
3.60233979973359	6.2398787	2.4979749
3.619875252856575	6.2444916	2.498898
3.6374107907743034	6.2596693	2.501933
3.6549464138986427	6.3011103	2.5102012
3.6724821226414788	6.229799	2.4959564
3.690017917414714	6.2647867	2.5029557
3.7075537986302702	6.2789474	2.5057828
3.7250897667000857	6.324268	2.5148096
3.7426258220361235	6.475032	2.5446084
3.7601619650503553	6.7941136	2.6065521
3.777698196154779	7.3256454	2.706593
3.7952345157614067	8.394926	2.8974
3.8127709242822716	9.249763	3.0413423
3.830307422129425	11.613343	3.4078355
3.847844009714936	30.573265	5.5293097
3.8653806874508954	97.94192	9.896561
3.882917455749409	97.15035	9.856488
3.900454315022606	96.87247	9.8423815
3.917991265682631	41.36132	6.431277
3.9355283081416506	10.95667	3.310086
3.9530654428118495	8.660943	2.942948
3.970602670105433	7.4078307	2.721733
3.9881399904346244	6.484051	2.54638
4.005677404211669	6.4310966	2.5359607
4.023214911848827	6.4607024	2.5417912
4.0407525137583855	6.503388	2.550174
4.058290210352644	6.5226207	2.5539422
4.075828002043927	6.3562613	2.5211627
4.0933658892445814	6.2348433	2.4969668
4.110903872366966	6.1326947	2.4764278
4.128441951823468	6.1515846	2.480239
4.145980128026488	6.1697955	2.4839072
4.163518401388452	6.215372	2.4930649
4.181056772321807	6.219577	2.493908
4.1985952412390155	6.240289	2.4980571
4.216133808552567	6.1754208	2.4850395
4.233672474674966	6.1730547	2.4845634
4.251211240018741	6.393903	2.5286167
4.268750104996445	6.6237106	2.573657
4.286289070020643	7.6523166	2.766282
4.303828135503928	9.31996	3.052861
4.3213673018589125	29.656826	5.445808
4.3389065694982305	90.74203	9.525861
4.356445938834537	166.0061	12.8843355
4.3739854102805085	171.51682	13.096443
4.391524984248844	172.49562	13.133759
4.409064661152262	136.6859	11.691275
4.426604441403504	96.80014	9.838706
4.444144325415337	75.91193	8.712745
4.461684313600543	21.763071	4.6650906
4.47922440637193	22.117556	4.7029305
4.496764604142329	20.394232	4.5159974
4.5143049073245916	18.588243	4.3114085
4.531845316331589	16.6175	4.076457
4.5493858315762195	13.816572	3.717065
4.566926453471405	11.426169	3.3802617
4.584467182430081	9.258131	3.0427177
4.602008018865218	8.080628	2.8426447
4.619548963189798	7.4596286	2.7312322
4.637090015816834	6.971645	2.6403873
4.654631177159353	6.7566996	2.5993652
4.672172447630417	6.4112015	2.532035
4.689713827643102	6.1699677	2.483942
4.7072553176105085	5.953798	2.4400406
4.724796917945764	5.850701	2.4188223
4.742338629062015	5.832484	2.4150536
4.759880451372434	5.7715244	2.4023998
4.777422385290215	5.721954	2.3920605
4.794964431228581	5.6895313	2.385274
4.812506589600768	5.7064333	2.3888142
4.830048860820047	5.754233	2.3987982
4.847591245299709	5.770858	2.402261
4.8651337434530655	5.7186513	2.39137
4.882676355693457	5.575239	2.3611944
4.900219082434242	5.5723085	2.3605738
4.917761924088813	5.4805193	2.3410509
4.935304881070575	5.495027	2.3441474
4.952847953792969	5.477472	2.3404
4.970391142669449	5.4319777	2.3306603
4.9879344481135055	5.5075	2.3468063
5.005477870538642	5.5629816	2.3585973
5.023021410358394	5.515177	2.3484414
5.040565067986324	5.3848844	2.3205354
5.05810884383601	5.3627973	2.3157713
5.075652738321066	5.3586817	2.3148828
5.09319675185512	5.4189124	2.3278558
5.110740884851836	5.380541	2.3195994
5.128285137724894	5.397473	2.3232462
5.145829510888007	5.4176965	2.3275945
5.163374004754908	5.5010595	2.3454337
5.1809186197393595	5.5081496	2.3469448
5.198463356255145	5.4904757	2.3431764
5.216008214716077	5.408655	2.3256516
5.233553195535998	5.2695756	2.2955556
5.251098299128764	5.2270055	2.2862644
5.268643525908272	5.173077	2.27444
5.286188876288432	5.191823	2.2785573
5.3037343506831895	5.197111	2.2797174
5.32127994950651	5.22502	2.2858303
5.3388256731723915	5.2260165	2.2860482
5.356371522094851	5.275539	2.296854
5.373917496687938	5.2718515	2.2960513
5.391463597365729	5.211733	2.282922
5.40900982454232	5.0884595	2.2557614
5.426556178631843	5.109145	2.260342
5.444102660048449	5.134912	2.2660344
5.4616492692063225	5.254669	2.2923064
5.479196006519669	5.3182626	2.306136
5.496742872402727	5.348672	2.3127196
5.514289867269756	5.261498	2.2937956
5.531836991535049	5.243256	2.2898157
5.549384245612924	5.1626186	2.2721395
5.566931629917724	5.0621715	2.249927
5.584479144863822	4.983044	2.2322733
5.6020267908656205	4.998984	2.2358408
5.619574568337545	5.1188087	2.2624784
5.637122477694054	5.223812	2.285566
5.654670519349629	5.2441244	2.2900054
5.672218693718784	5.2775407	2.2972898
5.689767001216059	5.2110443	2.282771
5.707315442256021	5.1722283	2.2742534
5.724864017253266	5.197635	2.2798324
5.7424127266224225	5.2166996	2.2840095
5.75996157077814	5.282956	2.298468
5.777510550135105	5.226691	2.2861958
5.795059665108022	5.1889486	2.2779264
5.812608916111639	5.1991506	2.2801645
5.830158303560715	5.3888874	2.3213978
5.847707827870055	5.38579	2.3207304
5.86525748945448	5.4492874	2.3343709
5.8828072887288485	5.504354	2.3461359
5.900357226108044	5.5893097	2.364172
5.917907302006979	5.712662	2.3901176
5.9354575168406	6.2513256	2.5002651
5.9530078710238765	6.909343	2.628563
5.970558364971812	7.456981	2.7307475
5.988108999099438	7.791751	2.7913709
6.005659773821818	8.29586	2.8802536
6.023210689554039	8.020316	2.8320162
6.040761746711227	8.482254	2.912431
6.058312945708531	7.8713355	2.8055902
6.075864286961132	7.4707637	2.7332697
6.093415770884244	6.8007445	2.6078236
6.1109673978931065	6.219913	2.4939754
6.128519168402993	5.56801	2.359663
6.146071082829204	5.3450947	2.3119462
6.163623141587075	5.2310295	2.2871444
6.181175345091969	5.1931562	2.2788498
6.198727693759281	5.2020526	2.2808008
6.216280188004435	5.2291155	2.286726
6.233832828242885	5.1489673	2.2691336
6.251385614890126	5.153218	2.27007
6.268938548361669	5.143765	2.267987
6.286491629073067	5.0954328	2.2573066
6.304044857439898	5.070068	2.251681
6.321598233877777	4.992276	2.2343402
6.339151758802344	5.0064235	2.2375038
6.356705432629277	5.0530086	2.2478898
6.37425925577428	5.067658	2.2511458
6.391813228653095	5.0150876	2.239439
6.409367351681486	5.0047283	2.237125
6.426921625275259	4.9842467	2.2325428
6.44447604985025	5.011422	2.2386205
6.46203062582232	4.9290676	2.2201505
6.47958535360737	4.908739	2.2155674
6.497140233621328	4.8691463	2.2066143
6.514695266280161	4.920455	2.2182097
6.532250451999859	4.9407735	2.222785
6.549805791196454	5.0418863	2.2454145
6.567361284286002	5.1106467	2.260674
6.584916931684597	5.163515	2.272337
6.602472733808367	5.219263	2.2845707
6.6200286910734665	5.258629	2.29317
6.637584803896092	5.2571	2.2928367
6.655141072692462	5.1683984	2.2734113
6.672697497878842	5.0814915	2.2542164
6.690254079871514	5.0515146	2.2475574
6.707810819086808	5.046048	2.246341
6.725367715941078	4.9826245	2.2321794
6.742924770850719	4.9062595	2.2150078
6.760481984232151	4.9388156	2.2223446
6.778039356501836	4.983259	2.2323215
6.795596888076266	5.0164833	2.2397506
6.813154579371963	5.0354824	2.243988
6.830712430805492	5.02689	2.2420726
6.84827044279344	5.12349	2.2635126
6.865828615752445	5.0941143	2.2570145
6.883386950099159	5.046122	2.2463574
6.900945446250287	5.011912	2.23873
6.918504104622553	5.0405617	2.2451196
6.936062925632727	5.127479	2.2643938
6.953621909697607	5.117106	2.2621021
6.971181057234028	5.1324677	2.265495
6.988740368658859	5.1622553	2.2720597
7.006299844389007	5.2487574	2.2910166
7.023859484841407	5.308142	2.3039405
7.041419290433036	5.4254284	2.3292549
7.058979261580902	5.4876604	2.3425756
7.0765393987020495	5.710659	2.3896985
7.094099702213559	6.090716	2.4679375
7.111660172532549	6.472348	2.544081
7.129220810076164	6.8071246	2.6090467
7.146781615261595	7.3048344	2.7027457
7.16434258850606	7.45544	2.7304652
7.181903730226821	7.959937	2.821336
7.1994650408411704	8.075096	2.8416715
7.217026520766437	8.20004	2.8635712
7.234588170419983	8.377569	2.894403
7.252149990219215	8.447115	2.906392
7.269711980581568	8.362784	2.8918478
7.2872741419245175	8.163458	2.8571765
7.304836474665574	7.756062	2.7849708
7.322398979222286	7.416026	2.7232382
7.339961656012233	7.2058005	2.6843622
7.357524505453039	6.9043083	2.627605
7.375087527962357	6.621304	2.5731895
7.392650723957886	6.3439894	2.5187278
7.410214093857353	6.020157	2.453601
7.427777638078528	5.877764	2.42441
7.445341357039213	5.668304	2.38082
7.4629052511572525	5.5153713	2.3484828
7.480469320850524	5.351636	2.3133602
7.498033566536948	5.269256	2.295486
7.5155979886344735	5.1756477	2.275005
7.5331625875610975	5.1811357	2.2762108
7.550727363734844	5.1610303	2.27179
7.568292317573788	5.1542773	2.2703032
7.585857449496025	5.1667833	2.273056
7.603422759919705	5.229968	2.2869124
7.620988249263007	5.2514796	2.2916107
7.638553917944147	5.2241607	2.2856424
7.656119766381391	5.2539186	2.2921429
7.673685794993023	5.2589355	2.293237
7.691252004197388	5.245882	2.290389
7.70881839441285	5.2455125	2.2903085
7.726384966057826	5.257528	2.29293
7.743951719550762	5.2543836	2.2922442
7.761518655310149	5.2479305	2.290836
7.779085773754511	5.2655554	2.2946799
7.796653075302419	5.2923584	2.3005126
7.814220560372475	5.3058023	2.3034327
7.831788229383323	5.311453	2.304659
7.8493560827536495	5.272059	2.2960966
7.866924120902174	5.28212	2.2982864
7.884492344247663	5.3058486	2.3034427
7.9020607532089135	5.3209147	2.3067107
7.919629348204771	5.4195457	2.3279917
7.937198129654115	5.4252925	2.3292258
7.954767097975865	5.4334497	2.3309762
7.972336253588986	5.4285746	2.32993
7.989905596912472	5.385457	2.3206587
8.007475128365371	5.474294	2.339721
8.025044848366756	5.544862	2.354753
8.042614757335754	5.6413183	2.375146
8.060184855691523	5.6794415	2.383158
8.07775514385327	5.735613	2.394914
8.095325622240228	5.7269387	2.3931024
8.112896291271687	5.749729	2.3978593
8.130467151366968	5.7890615	2.4060469
8.148038202945436	5.8549485	2.4197001
8.165609446426497	5.9245334	2.4340365
8.183180882229594	6.010294	2.45159
8.200752510774217	6.0518928	2.4600594
8.218324332479893	6.0396266	2.457565
8.235896347766193	6.006091	2.4507327
8.253468557052724	5.9816785	2.4457471
8.27104096075914	5.9989276	2.4492707
8.288613559305137	6.053735	2.460434
8.306186353110448	6.1037593	2.4705787
8.32375934259485	6.2450795	2.4990158
8.341332528178162	6.305819	2.511139
8.358905910280246	6.323496	2.5146563
8.376479489321003	6.2418356	2.4983666
8.394053265720377	6.1816306	2.4862885
8.411627239898356	6.1932564	2.4886253
8.42920141227497	6.230182	2.4960332
8.44677578327029	6.2736073	2.504717
8.464350353304427	6.278183	2.5056303
8.48192512279754	6.279864	2.5059657
8.499500092169827	6.2557983	2.5011594
8.51707526184153	6.202163	2.4904144
8.534650632232934	6.1827126	2.486506
8.552226203764365	6.1376157	2.4774213
8.569801976856192	6.1364827	2.4771924
8.587377951928834	6.200874	2.4901555
8.60495412940274	6.2328434	2.4965663
8.622530509698416	6.301638	2.5103064
8.6401070932364	6.456205	2.5409064
8.657683880437283	6.6234837	2.573613
8.675260871721695	6.765018	2.6009648
8.692838067510303	6.817355	2.6110065
8.710415468223834	6.949986	2.6362827
8.727993074283043	7.0946674	2.6635816
8.745570886108737	7.1637063	2.67651
8.763148904121765	7.192475	2.681879
8.78072712874302	7.183243	2.6801572
8.798305560393441	7.4155245	2.723146
8.815884199494006	7.63222	2.7626472
8.833463046465745	7.87315	2.8059134
8.851042101729728	8.066253	2.8401148
8.86862136570707	8.26669	2.8751853
8.886200838818924	8.400574	2.8983743
8.903780521486505	8.439434	2.9050703
8.921360414131055	8.566412	2.9268434
8.938940517173874	8.623939	2.9366543
8.956520831036297	8.737824	2.955981
8.97410135613971	9.019485	3.0032458
8.99168209290554	9.202551	3.0335708
9.009263041755265	9.524644	3.0862021
9.026844203110405	9.749572	3.1224303
9.044425577392525	9.855555	3.1393557
9.062007165023239	9.88508	3.1440547
9.079588966424197	10.176131	3.1900048
9.097170982017108	10.365539	3.2195556
9.11475321222372	11.338407	3.367255
9.132335657465825	12.14607	3.4851213
9.149918318165264	12.243566	3.4990807
9.167501194743924	13.05221	3.6127841
9.18508428762374	12.771279	3.5736926
9.202667597226693	12.688449	3.562085
9.220251123974803	12.2699375	3.502847
9.237834868290143	11.991284	3.4628434
9.255418830594836	11.857546	3.4434788
9.273003011311046	11.334245	3.366637
9.290587410860985	11.156658	3.3401585
9.308172029666911	10.609908	3.2572854
9.32575686815113	10.293192	3.2083004
9.343341926735997	8.948774	2.9914503
9.360927205843916	8.668108	2.944165
9.378512705897327	8.459576	2.908535
9.396098427318728	8.178513	2.8598099
9.413684370530664	8.101445	2.8463037
9.431270535955722	7.9599986	2.821347
9.448856924016539	7.90051	2.8107846
9.466443535135806	7.782156	2.7896516
9.484030369736251	7.7040534	2.7756176
9.501617428240658	7.70021	2.7749252
9.519204711071852	7.695285	2.7740376
9.536792218652714	7.7503905	2.7839522
9.55437995140617	7.866621	2.8047497
9.571967909755191	7.937176	2.8172994
9.589556094122802	7.9734	2.823721
9.60714450493207	7.9569454	2.8208058
9.624733142606116	7.902476	2.8111343
9.642322007568108	7.925611	2.815246
9.659911100241267	7.99906	2.828261
9.677500421048851	8.021	2.8321369
9.695089970414175	8.124137	2.8502872
9.712679748760609	8.148836	2.8546166
9.730269756511557	8.2186985	2.8668272
9.747859994090492	8.216552	2.866453
9.765450461920915	8.223249	2.867621
9.78304116042639	8.2	2.8635643
9.800632090030527	8.208309	2.8650148
9.81822325115699	8.26305	2.8745522
9.835814644229481	8.267477	2.875322
9.853406269671762	8.315451	2.8836522
9.870998127907646	8.31678	2.8838828
9.888590219360985	8.364901	2.8922138
9.906182544455698	8.410741	2.9001276
9.923775103615734	8.494987	2.914616
9.941367897265108	8.53289	2.921111
9.958960925827878	8.524608	2.919693
9.97655418972816	8.425032	2.9025905
9.994147689390106	8.424925	2.9025722
10.011741425237934	8.390745	2.8966782
10.029335397695904	8.361653	2.8916523
10.04692960718833	8.268807	2.8755534
10.06452405413958	8.250317	2.8723364
10.082118738974064	8.241279	2.8707628
10.099713662116246	8.254134	2.8730009
10.117308823990651	8.267992	2.8754115
10.134904225021844	8.328194	2.885861
10.152499865634445	8.285069	2.8783796
10.170095746253125	8.245252	2.8714547
10.18769186730261	8.193013	2.862344
10.205288229207675	8.1014385	2.8463025
10.222884832393145	8.086599	2.8436947
10.2404816772839	8.156278	2.8559198
10.258078764304868	8.118977	2.8493817
10.275676093881035	8.107633	2.8473904
10.293273666437438	8.09857	2.8457987
10.310871482399158	8.100781	2.846187
10.32846954219134	8.092128	2.8446665
10.346067846239173	8.122019	2.8499155
10.363666394967908	8.123807	2.8502293
10.38126518880283	8.202778	2.8640492
10.398864228169298	8.243543	2.871157
10.416463513492713	8.304695	2.8817868
10.434063045198531	8.259307	2.873901
10.451662823712262	8.287853	2.878863
10.469262849459467	8.235615	2.869776
10.486863122865758	8.17906	2.8599055
10.504463644356806	8.173852	2.858995
10.522064414358338	8.172635	2.858782
10.539665433296118	8.149692	2.8547664
10.557266701595987	8.029947	2.8337162
10.574868219683818	7.90959	2.8123994
10.592469987985552	7.7893615	2.7909427
10.610072006927185	7.685138	2.7722082
10.627674276934751	7.592539	2.7554562
10.64527679843435	7.512256	2.7408495
10.662879571852143	7.3595486	2.712849
10.680482597614331	7.1578393	2.6754138
10.698085876147173	7.048277	2.654859
10.715689407876988	6.997061	2.6451957
10.733293193230146	7.0032578	2.6463668
10.750897232633072	6.8870044	2.6243103
10.76850152651225	6.793469	2.6064284
10.786106075294207	6.687138	2.5859501
10.803710879405534	6.5625267	2.561743
10.821315939272877	6.4733133	2.5442708
10.83892125532294	6.441249	2.5379615
10.856526827982472	6.4010935	2.530038
10.874132657678285	6.3325977	2.5164654
10.891738744837243	6.306558	2.5112863
10.909345089886271	6.180192	2.485999
10.926951693252343	6.136946	2.477286
10.944558555362494	6.078952	2.465553
10.96216567664381	6.0332108	2.4562595
10.979773057523436	5.9672694	2.4427996
10.997380698428573	5.8677464	2.4223433
11.014988599786477	5.7878594	2.405797
11.032596762024461	5.754412	2.3988357
11.050205185569892	5.71609	2.3908346
11.067813870850198	5.624051	2.3715081
11.085422818292859	5.537892	2.3532727
11.10303202832541	5.510533	2.3474524
11.120641501375454	5.4469647	2.3338733
11.138251237870636	5.3798933	2.3194597
11.155861238238671	5.351069	2.3132377
11.173471502907317	5.2778683	2.2973611
11.191082032304402	5.2129397	2.2831862
11.208692826857805	5.0861907	2.2552586
11.226303886995465	5.0512977	2.2475092
11.243915213145371	5.049085	2.247017
11.261526805735578	5.0648756	2.2505279
11.279138665194196	5.0304413	2.2428646
11.296750791949393	4.997337	2.2354724
11.314363186429393	4.931049	2.2205966
11.331975849062479	4.8621798	2.2050352
11.34958878027699	4.7132363	2.1709988
11.36720198050133	4.6111064	2.1473486
11.384815450163948	4.5428944	2.1314065
11.402429189693366	4.493608	2.1198132
11.420043199518153	4.443458	2.1079512
11.437657480066942	63.404854	7.9627166
11.455272031768422	85.14497	9.227404
11.472886855051353	107.56206	10.371213
11.490501950344528	99.086784	9.954234
11.508117318076819	84.408005	9.187383
11.52573295867715	45.774258	6.7656674
11.543348872574514	4.103367	2.025677
11.560965060197946	4.0906444	2.0225341
11.57858152197655	4.075269	2.0187297
11.59619825833949	4.039813	2.0099287
11.613815269715985	4.0203166	2.0050728
11.631432556535323	38.488495	6.20391
11.649050119226837	83.031204	9.112146
11.666667958219929	93.43921	9.666396
11.68428607394406	107.72384	10.379009
11.701904466828756	82.51253	9.083641
11.719523137303586	65.333565	8.082918
11.737142085798196	4.5340776	2.1293373
11.754761312742286	3.650448	1.9106146
11.772380818565619	3.689382	1.9207764
11.790000603698015	3.6954756	1.922362
11.80762066856935	3.6540272	1.911551
11.825241013609572	3.5953624	1.8961442
11.842861639248683	3.5579531	1.8862537
11.860482545916748	3.5164337	1.8752156
11.878103734043883	3.5037858	1.8718402
11.895725204060282	3.450733	1.8576149
11.91334695639619	3.4103446	1.8467119
11.930968991481919	3.356495	1.8320739
11.948591309747824	3.3278575	1.8242416
11.966213911624347	3.3452077	1.8289909
11.98383679754198	3.3354132	1.8263113
12.001459967931268	3.3360856	1.8264954
12.019083423222835	3.2952976	1.8152955
12.036707163847352	3.2588897	1.8052396
12.05433119023556	3.1907432	1.7862651
12.071955502818259	3.1779366	1.7826768
12.089580102026313	3.1475644	1.7741376
12.107204988290643	3.150604	1.7749941
12.12483016204224	3.151928	1.775367
12.142455623712152	3.1830432	1.7841085
12.16008137373149	3.2157056	1.7932389
12.177707412531431	3.1796348	1.783153
12.19533374054321	3.1184883	1.7659242
12.212960358198126	3.1013608	1.7610681
12.230587265927545	3.089441	1.7576805
12.248214464162889	3.0667834	1.7512234
12.265841953335649	3.0248187	1.7392006
12.283469733877375	3.028723	1.7403227
12.301097806219685	3.0072587	1.7341449
12.31872617079425	2.961061	1.7207733
12.336354828032825	2.9541523	1.7187648
12.353983778367205	2.9527326	1.7183517
12.371613022229262	2.9355786	1.713353
12.389242560050928	2.9165778	1.7077991
12.406872392264201	2.924168	1.71002
12.424502519301143	2.9174566	1.7080563
12.442132941593874	2.8963573	1.7018688
12.459763659574586	2.85522	1.6897397
12.477394673675532	2.8565662	1.6901379
12.49502598432903	2.8932428	1.7009535
12.51265759196746	2.9010816	1.7032561
12.530289497023267	2.8999367	1.7029201
12.547921699928967	2.83748	1.6844821
12.565554201117134	2.83354	1.6833122
12.583187001020404	2.827965	1.6816554
12.600820100071486	2.8101099	1.6763382
12.618453498703152	2.76363	1.6624169
12.636087197348235	2.7476208	1.6575949
12.65372119643964	2.7336805	1.6533846
12.671355496410326	2.738229	1.6547595
12.68899009769333	2.7812102	1.6676961
12.706625000721749	2.8516426	1.6886808
12.724260205928752	2.9426754	1.7154227
12.741895713747551	2.9818895	1.7268149
12.759531524611454	3.0377176	1.7429049
12.777167638953818	3.0205266	1.7379662
12.794804057208072	3.0282676	1.7401918
12.812440779807702	3.0525057	1.7471422
12.830077807186271	3.2022417	1.7894808
12.847715139777405	3.2532287	1.8036709
12.865352778014795	3.4810839	1.8657663
12.882990722332197	3.6113963	1.9003674
12.90062897316344	3.6952913	1.922314
12.918267530942412	3.758942	1.9387991
12.935906396103071	3.652817	1.9112344
12.953545569079449	3.7956192	1.9482349
12.971185050305628	3.6092308	1.8997976
12.988824840215775	3.612524	1.9006641
13.006464939244115	3.620447	1.9027472
13.024105347824943	3.4789517	1.8651948
13.041746066392617	3.5634198	1.8877022
13.05938709538157	3.3680499	1.8352247
13.077028435226296	3.4013312	1.8442699
13.094670086361363	3.3098357	1.8192954
13.112312049221401	3.2323039	1.7978609
13.129954324241112	3.145508	1.773558
13.147596911855258	2.9549484	1.7189963
13.165239812498685	2.906504	1.7048472
13.182883026606293	2.8348794	1.68371
13.200526554613058	2.7714562	1.6647692
13.218170396954017	2.7567825	1.6603562
13.235814554064284	2.7104707	1.6463507
13.253459026379034	2.7075346	1.6454588
13.271103814333523	2.6970615	1.6422733
13.288748918363058	2.717138	1.6483743
13.306394338903031	2.741304	1.6556884
13.32404007638889	2.7226262	1.6500382
13.341686131256164	2.7101967	1.6462675
13.359332503940449	2.6914673	1.6405692
13.376979194877402	2.6802115	1.6371351
13.394626204502751	2.7337294	1.6533993
13.412273533252307	2.7602284	1.6613935
13.429921181561937	2.7568257	1.6603692
13.447569149867581	2.7625577	1.6620944
13.465217438605247	2.7440186	1.656508
13.482866048211022	2.7423806	1.6560135
13.500514979121052	2.728595	1.6518459
13.518164231771568	2.7572606	1.6605
13.535813806598844	2.7473462	1.6575121
13.553463704039254	2.7390578	1.6550099
13.571113924529229	2.7432642	1.6562803
13.588764468505275	2.7483215	1.6578063
13.606415336403956	2.7580783	1.6607463
13.624066528661917	2.7901993	1.6703889
13.641718045715882	2.8178463	1.6786442
13.659369888002635	2.8749967	1.6955816
13.67702205595903	2.9045203	1.7042654
13.694674550021993	2.9836137	1.727314
13.712327370628532	3.0395815	1.7434396
13.729980518215713	3.1346161	1.7704847
13.747633993220681	3.2233484	1.7953686
13.765287796080647	3.2762349	1.8100373
13.7829419272329	3.3265376	1.8238798
13.800596387114801	3.3428562	1.8283479
13.818251176163775	3.3425019	1.828251
13.835906294817324	3.373613	1.8367398
13.853561743513023	3.42815	1.8515264
13.871217522688525	3.5129883	1.8742968
13.888873632781538	3.557273	1.8860735
13.906530074229858	3.5404248	1.8816017
13.92418684747135	3.5321517	1.8794019
13.941843952943948	3.5416403	1.8819246
13.959501391085665	3.5557733	1.8856758
13.977159162334578	3.4706025	1.8629553
13.994817267128846	3.3758824	1.8373574
14.012475705906693	3.2527761	1.8035455
14.030134479106424	3.1803334	1.7833489
14.047793587166414	3.117755	1.7657166
14.065453030525108	3.05751	1.7485737
14.083112809621026	2.992125	1.729776
14.100772924892766	2.9179156	1.7081907
14.118433376778997	2.8851972	1.6985868
14.136094165718458	2.845535	1.6868714
14.153755292149969	2.7963414	1.6722264
14.171416756512416	2.726047	1.6510745
14.189078559244768	2.651408	1.6283145
14.20674070078606	2.5702245	1.603192
14.224403181575408	2.5304122	1.590727
14.242066002051999	2.4727137	1.5724865
14.259729162655093	2.4696422	1.5715095
14.277392663824022	2.468044	1.5710009
14.295056505998208	2.4472375	1.5643649
14.312720689617128	2.41827	1.5550789
14.330385215120348	2.371288	1.5398988
14.348050082947497	2.385576	1.544531
14.3657152935383	2.389463	1.5457888
14.383380847332528	2.4075398	1.5516249
14.401046744770051	2.4135447	1.5535587
14.418712986290798	2.4097996	1.5523529
14.436379572334793	2.41465	1.5539144
14.454046503342123	2.413496	1.5535431
14.471713779752946	2.41321	1.553451
14.489381402007504	2.4181721	1.5550473
14.507049370546113	2.442989	1.5630064
14.524717685809168	2.4475255	1.5644569
14.542386348237134	2.4404984	1.5622095
14.560055358270553	2.4013073	1.5496153
14.577724716350051	2.3883536	1.54543
14.595394422916325	2.3988159	1.5488111
14.61306447841015	2.4625125	1.5692395
14.63073488327237	2.506098	1.583066
14.648405637943917	2.5029767	1.5820799
14.6660767428658	2.5036595	1.5822957
14.683748198479094	2.5050082	1.5827218
14.701420005224954	2.5339258	1.591831
14.719092163544628	2.5928838	1.6102434
14.73676467387942	2.6580608	1.6303561
14.754437536670727	2.6894186	1.6399447
14.772110752360014	2.6807933	1.6373128
14.78978432138882	2.6909735	1.6404186
14.807458244198777	2.7100186	1.6462134
14.82513252123159	2.749234	1.6580814
14.842807152929028	2.7719781	1.6649258
14.860482139732962	2.760298	1.6614145
14.87815748208531	2.7134857	1.6472661
14.8958331804281	2.6755743	1.6357182
14.91350923520342	2.6402016	1.6248697
14.931185646853438	2.6333985	1.622775
14.948862415820408	2.6416883	1.6253271
14.966539542546656	2.637527	1.6240464
14.98421702747459	2.6624148	1.6316907
15.001894871046696	2.674518	1.6353954
15.019573073705542	2.6887457	1.6397395
15.037251635893766	2.6502352	1.6279542
15.054930558054092	2.6547124	1.6293288
15.072609840629323	2.7308307	1.6525226
15.090289484062351	2.8588858	1.690824
15.107969488796124	3.087675	1.7571782
15.125649855273691	3.4204235	1.8494387
15.14333058393817	3.9441888	1.9859982
15.161011675232768	4.9644527	2.2281053
15.17869312960076	6.3859234	2.5270386
15.196374947485506	8.282258	2.8778913
15.214057129330447	11.487963	3.3893898
15.231739675579114	16.40912	4.0508175
15.249422586675102	21.527325	4.639755
15.267105863062092	24.57141	4.9569554
15.284789505183847	24.662289	4.966114
15.302473513484218	22.528189	4.746387
15.320157888407127	19.035372	4.3629546
15.337842630396578	14.874209	3.8567097
15.355527739896656	11.585613	3.4037645
15.37321321735153	9.0163555	3.0027246
15.39089906320545	6.511877	2.551838
15.408585277902748	4.87463	2.2078564
15.42627186188783	3.7330816	1.9321184
15.443958815605198	3.2233565	1.7953708
15.461646139499424	2.966773	1.7224323
15.479333834015168	2.8453386	1.6868131
15.497021899597165	2.7623742	1.6620392
15.514710336690234	2.6954238	1.6417747
15.53239914573928	2.6353943	1.6233897
15.550088327189297	2.569671	1.6030194
15.567777881485336	2.5203307	1.5875549
15.58546780907256	2.4659433	1.5703323
15.6031581103962	2.4492445	1.5650063
15.620848785901568	2.4917965	1.5785425
15.638539836034063	2.494656	1.579448
15.656231261239173	2.4728627	1.5725338
15.673923061962451	2.4353898	1.5605736
15.691615238649552	2.4529607	1.5661931
15.709307791746202	2.4394658	1.5618789
15.727000721698221	2.4109664	1.5527287
15.744694028951498	2.3874345	1.5451325
15.76238771395202	2.3893762	1.5457608
15.780081777145844	2.394371	1.5473756
15.797776218979125	2.4248188	1.5571829
15.815471039898094	2.4393454	1.5618404
15.833166240349064	2.442074	1.5627137
15.850861820778437	2.4430318	1.5630201
15.868557781632699	2.4142106	1.553773
15.886254123358412	2.400746	1.5494341
15.903950846402232	2.4112723	1.5528272
15.921647951210897	2.4202564	1.5557173
15.939345438231225	2.4198246	1.5555786
15.957043307910133	2.401969	1.5498286
15.974741560694602	2.3856604	1.5445583
15.992440197031714	2.3884962	1.5454761
16.01013921736862	2.3723238	1.5402349
16.02783862215259	2.376104	1.5414617
16.045538411830933	2.3565264	1.5350982
16.06323858685107	2.3395417	1.529556
16.080939147660512	2.348379	1.5324421
16.09864009470684	2.367341	1.5386167
16.11634142843774	2.3713367	1.5399145
16.134043149300954	2.4096525	1.5523056
16.15174525774433	2.415445	1.5541703
16.169447754215817	2.4354923	1.5606064
16.18715063916342	2.443004	1.5630112
16.204853913035244	2.45383	1.5664705
16.222557576279478	2.464231	1.5697869
16.240261629344403	22.421381	4.735122
16.257966072678386	42.97352	6.555419
16.275670906729868	38.12184	6.1742887
16.293376131947387	2.5684855	1.6026496
16.31108174877957	2.5854738	1.6079408
16.328787757675133	2.617867	1.6179824
16.34649415908287	2.636028	1.623585
16.364200953451657	2.6676884	1.6333059
16.38190814123048	2.668215	1.6334672
16.39961572286839	2.6997576	1.643094
16.41732369881455	2.6858027	1.6388419
16.43503206951817	2.6764076	1.635973
16.45274083542859	2.699864	1.6431262
16.47044999699522	2.8120565	1.6769187
16.488159554667558	2.8784637	1.6966035
16.505869508895184	2.9049776	1.7043995
16.523579860127786	2.8764005	1.6959955
16.541290608815117	2.932235	1.712377
16.559001755407035	3.0105407	1.735091
16.57671330035348	3.0626497	1.7500428
16.59442524410448	3.1206226	1.7665284
16.61213758711015	3.2236438	1.7954508
16.629850329820705	3.2843804	1.812286
16.647563472686436	3.3788214	1.838157
16.665277016157724	3.4147224	1.8478968
16.682990960685053	3.5025258	1.8715036
16.70070530671898	3.5599117	1.8867729
16.718420054710155	3.6060772	1.8989674
16.736135205109335	3.6306243	1.9054197
16.753850758367335	3.6736352	1.916673
16.771566714935087	3.7263565	1.9303772
16.789283075263597	3.7679417	1.9411187
16.80699983980398	3.8245912	1.9556562
16.82471700900741	3.8357089	1.9584966
16.84243458332518	3.9232826	1.9807278
16.860152563208665	3.9871855	1.9967937
16.87787094910932	4.0498466	2.012423
16.89558974147871	4.0936613	2.02328
16.913308940768466	4.1754785	2.0433989
16.931028547430333	4.2534757	2.0623956
16.94874856191613	4.2993402	2.0734851
16.966468984677785	4.318296	2.078051
16.98418981616729	4.3313484	2.0811892
17.00191105683676	4.4127407	2.1006525
17.019632707138374	4.479955	2.1165905
17.03735476752442	4.4802775	2.1166666
17.05507723844728	4.5299783	2.1283746
17.072800120359403	4.601302	2.1450646
17.090523413713353	4.677476	2.1627474
17.108247118961785	4.6783867	2.162958
17.125971236557437	4.755869	2.1807954
17.143695766953133	4.7923236	2.1891377
17.161420710601806	4.8031993	2.1916203
17.179146067956477	4.7794986	2.1862063
17.19687183947025	4.7594905	2.1816256
17.21459802559634	4.711583	2.170618
17.232324626788028	4.717294	2.1719332
17.25005164349871	4.6472507	2.1557484
17.267779076181863	4.6396685	2.153989
17.285506925291074	4.626712	2.1509793
17.30323519127999	4.6521573	2.156886
17.320963874602384	4.6478653	2.155891
17.33869297571211	4.6295247	2.151633
17.356422495063114	4.629821	2.151702
17.37415243310944	4.619627	2.1493318
17.391882790305218	4.5552917	2.1343129
17.40961356710468	4.5190163	2.1257977
17.42734476396215	4.505027	2.122505
17.445076381332044	4.5279803	2.1279051
17.462808419668868	4.611423	2.1474223
17.48054087942723	4.7393665	2.1770086
17.498273761061835	4.9994507	2.2359452
17.51600706502747	5.419028	2.3278806
17.533740791779024	6.1707373	2.4840968
17.551474941771485	7.739175	2.7819374
17.56920951545993	8.926022	2.987645
17.586944513299528	11.246793	3.3536239
17.60467993574556	12.929153	3.5957131
17.622415783253373	14.649326	3.8274438
17.64015205627843	16.039492	4.0049334
17.657888755276293	17.082954	4.133153
17.675625880702604	17.45757	4.1782255
17.69336343301311	17.233679	4.1513467
17.71110141266366	16.49042	4.0608397
17.728839820110178	15.639991	3.954743
17.746578655808705	14.701709	3.8342807
17.764317920215372	13.158935	3.6275246
17.7820576137864	11.474611	3.3874195
17.79979773697811	9.29464	3.048711
17.81753829024692	7.2919216	2.7003558
17.835279274049356	5.6393023	2.3747215
17.85302068884201	4.6592937	2.1585398
17.870762535081607	4.0722814	2.0179894
17.888504813224934	3.77999	1.9442196
17.90624752372891	3.647835	1.9099306
17.923990667050536	3.6424356	1.9085165
17.941734243646895	3.580792	1.8922981
17.959478253975185	3.5070062	1.8727002
17.9772226984927	3.4127092	1.8473519
17.994967577656833	3.3741658	1.8368902
18.01271289192506	3.3464422	1.8293283
18.030458641754965	3.3128018	1.8201104
18.04820482760425	3.3294117	1.8246676
18.06595144993067	3.3512437	1.8306402
18.083698509192125	3.353555	1.8312714
18.101446005846576	3.3297577	1.8247623
18.119193940352105	3.3202567	1.8221571
18.136942313166887	3.272579	1.8090271
18.1546911247492	3.2119455	1.7921902
18.1724403755574	3.1463594	1.773798
18.19019006604997	3.118772	1.7660046
18.207940196685467	3.1114843	1.76394
18.225690767922575	3.1065896	1.762552
18.243441780220046	3.1371295	1.7711943
18.261193234036764	3.1277268	1.768538
18.278945129831676	3.0715535	1.7525848
18.29669746806386	3.0166867	1.7368611
18.314450249192483	3.0326762	1.741458
18.3322034736768	3.0518274	1.746948
18.349957141976184	3.0871134	1.7570183
18.3677112545501	3.1015885	1.7611327
18.385465811858108	3.094777	1.7591978
18.403220814359884	3.0960217	1.7595515
18.420976262515172	3.1073556	1.7627693
18.43873215678387	3.1474671	1.7741102
18.456488497625923	3.1631982	1.7785382
18.474245285501407	3.2715776	1.8087503
18.492002520870486	3.2927988	1.814607
18.50976020419343	3.3699982	1.8357555
18.527518335930615	3.703751	1.9245132
18.545276916542516	4.3427234	2.0839202
18.563035946489688	4.4883122	2.1185637
18.580795426232832	4.916285	2.2172697
18.598555356232698	4.778154	2.1858988
18.616315736950185	5.0941157	2.2570148
18.63407656884626	4.6926394	2.16625
18.65183785238201	4.914182	2.2167954
18.669599588018617	4.6863422	2.164796
18.68736177621737	4.6797304	2.1632686
18.705124417439652	4.718216	2.1721454
18.72288751214696	4.6068163	2.1463494
18.740651060800886	4.7165875	2.1717706
18.758415063863115	4.355981	2.0870986
18.77617952179546	4.4893208	2.1188018
18.793944435059814	4.2874517	2.0706162
18.811709804118184	4.2942605	2.0722597
18.829475629432675	4.2504597	2.0616643
18.8472419114655	4.0639124	2.0159147
18.86500865067897	4.1354833	2.0335886
18.88277584753551	3.8330874	1.9578272
18.90054350249763	3.8373077	1.9589047
18.918311616027957	3.473877	1.8638339
18.936080188589226	3.35378	1.8313328
18.953849220644265	3.0664926	1.7511404
18.971618712656007	2.9020386	1.7035371
18.9893886650875	2.8830252	1.6979474
19.007159078401887	8.032401	2.8341491
19.024929953062408	32.891598	5.73512
19.042701289532435	32.846737	5.7312074
19.060473088275405	25.439072	5.043716
19.07824534975489	2.7263086	1.6511537
19.096018074434568	2.7031672	1.6441312
19.113791262778197	2.6863937	1.6390222
19.13156491524966	2.6662452	1.6328641
19.149339032312945	2.6397665	1.6247358
19.167113614432136	2.626584	1.6206739
19.184888662071433	2.6070724	1.6146431
19.202664175695123	2.5597699	1.5999281
19.220440155767623	2.5167148	1.5864158
19.238216602753447	2.4714155	1.5720736
19.2559935171172	2.4726107	1.5724537
19.27377089932361	2.5025985	1.5819603
19.291548749837514	2.5502982	1.5969653
19.309327069123835	2.5812051	1.6066129
19.32710585764763	2.571121	1.6034715
19.344885115874032	2.5391896	1.5934834
19.362664844268313	2.5344172	1.5919853
19.380445043295822	2.4989276	1.5807997
19.39822571342203	2.4883783	1.5774595
19.41600685511252	2.4555702	1.5670259
19.43378846883297	2.4586198	1.5679986
19.451570555049173	2.4535282	1.5663742
19.469353114227037	2.4430158	1.563015
19.48713614683254	2.4371471	1.5611365
19.50491965333182	2.507982	1.583661
19.52270363419109	2.5639672	1.6012393
19.540488089876686	2.511311	1.5847117
19.55827302085503	2.4881268	1.5773797
19.576058427592674	2.4648364	1.5699798
19.593844310556282	2.5023682	1.5818876
19.611630670212598	2.480272	1.574888
19.629417507028506	2.4744842	1.5730493
19.64720482147098	2.454509	1.5666872
19.6649926140071	2.4711952	1.5720036
19.682780885104084	2.5119379	1.5849094
19.70056963522921	2.5388825	1.5933871
19.718358864849908	2.5401788	1.5937939
19.7361485744337	2.5367699	1.5927241
19.753938764448215	2.5497906	1.5968064
19.771729435361202	2.5461872	1.5956776
19.789520587640506	2.5390098	1.5934271
19.807312221754092	2.5627046	1.600845
19.825104338170043	2.5492642	1.5966415
19.842896937356517	2.5329921	1.5915377
19.860690019781824	2.5040612	1.5824226
19.87848358591436	2.5548153	1.598379
19.896277636222635	2.611499	1.6160133
19.914072171175278	2.620288	1.6187303
19.931867191241015	2.5535495	1.597983
19.94966269688869	2.5094438	1.5841224
19.967458688587264	2.4795587	1.5746615
19.985255166805807	2.5021029	1.5818037
20.00305213201348	2.4848475	1.57634
20.020849584679578	2.4695117	1.571468
20.038647525273507	2.4575367	1.5676533
20.05644595426477	2.4848294	1.5763341
20.07424487212299	2.470691	1.5718431
20.092044279317903	2.4390376	1.5617418
20.109844176319353	2.4408963	1.5623368
20.127644563597304	2.4217587	1.5562
20.145445441621817	2.4210587	1.5559752
20.16324681086307	2.4347687	1.5603745
20.181048671791373	2.4335642	1.5599885
20.198851024877122	2.4316008	1.5593591
20.216653870590836	2.428339	1.5583129
20.234457209403146	2.4622235	1.5691473
20.252261041784802	2.4805014	1.5749607
20.270065368206662	2.4410706	1.5623926
20.287870189139685	2.382867	1.5436538
20.305675505054968	2.3564048	1.5350586
20.323481316423702	2.340138	1.529751
20.341287623717207	2.3393164	1.5294824
20.359094427406884	2.355489	1.5347602
20.376901727964288	2.3720353	1.5401413
20.39470952586107	2.3826632	1.5435878
20.41251782156899	2.3914597	1.5464345
20.430326615559935	2.3811622	1.5431014
20.448135908305886	2.348048	1.5323342
20.465945700278965	2.3366175	1.5285999
20.483755991951384	2.3576794	1.5354737
20.50156678379548	2.3629422	1.5371865
20.519378076283708	2.330465	1.526586
20.537189869888635	2.3254242	1.5249342
20.55500216508294	2.352992	1.5339465
20.572814962339415	2.3538826	1.5342368
20.59062826213098	2.3234875	1.524299
20.60844206493066	2.3028853	1.517526
20.626256371211593	2.3225532	1.5239925
20.644071181447032	2.3354714	1.528225
20.66188649611036	2.3398862	1.5296687
20.67970231567506	2.3264835	1.5252814
20.697518640614742	2.328283	1.5258713
20.715335471403122	2.297394	1.5157157
20.73315280851404	2.2982879	1.5160105
20.750970652421447	2.3013666	1.5170256
20.768789003599412	2.3198507	1.5231056
20.786607862522136	2.2933538	1.5143824
20.8044272296639	2.2657018	1.5052248
20.82224710549913	2.2538452	1.5012811
20.84006749050237	2.2721207	1.5073556
20.857888385148268	3.842148	1.9601398
20.8757097899116	45.94009	6.777912
20.893531705267254	64.774994	8.048291
20.911354131690224	83.77303	9.1527605
20.92917706965566	69.03676	8.308836
20.94700051963877	50.103256	7.0783653
20.96482448211493	29.416237	5.4236736
20.982648957559622	4.188807	2.0466576
21.00047394644843	2.2936883	1.5144928
21.01829944925707	2.2700572	1.506671
21.036125466461375	2.2417893	1.4972606
21.053951998537297	2.2215457	1.4904851
21.071779045960906	2.2172494	1.4890431
21.089606609208378	2.2321417	1.4940354
21.10743468875603	2.2285135	1.4928206
21.12526328508028	2.2108622	1.4868969
21.143092398657675	2.2088537	1.4862213
21.16092202996488	2.2060182	1.485267
21.17875217947867	2.241914	1.4973023
21.19658284767596	2.2347453	1.4949064
21.21441403503377	2.2068765	1.485556
21.232245742029225	2.2103834	1.4867358
21.2500779691396	2.183703	1.4777358
21.26791071684227	2.2042623	1.4846758
21.28574398561475	2.1889038	1.4794945
21.30357777593465	2.160474	1.4698551
21.321412088279704	2.1380405	1.462204
21.339246923127792	2.1671543	1.4721258
21.357082280956888	2.1835413	1.477681
21.3749181622451	2.2088645	1.4862249
21.392754567470647	2.1848662	1.4781293
21.41059149711187	2.1704254	1.4732363
21.42842895164726	2.1350226	1.4611716
21.446266931555378	2.1443145	1.4643478
21.464105437314945	2.1319692	1.4601264
21.481944469404798	2.1227238	1.456957
21.49978402830388	2.10502	1.4508687
21.51762411449127	2.0784	1.4416656
21.53546472844617	2.0787644	1.4417921
21.553305870647876	2.0944853	1.4472337
21.571147541575865	2.1025872	1.4500301
21.58898974170967	2.126094	1.4581132
21.60683247152899	2.1192968	1.4557805
21.62467573151363	2.1288116	1.4590448
21.642519522143523	2.1044464	1.4506711
21.660363843898722	2.0953667	1.4475381
21.6782086972594	2.0796883	1.4421124
21.696054082705864	2.0828557	1.4432102
21.713900000718535	2.0880177	1.4449974
21.73174645177795	2.0623355	1.4360834
21.749593436364794	2.047658	1.430964
21.767440954959845	2.0144792	1.4193234
21.785289008044032	1.983336	1.4083096
21.803137596098388	1.9964553	1.4129598
21.820986719604086	2.0036802	1.4155141
21.838836379042412	2.0195549	1.4211104
21.85668657489478	2.0537612	1.433095
21.87453730764273	2.0472007	1.4308043
21.892388577767914	2.038308	1.4276932
21.91024038575213	2.0545707	1.4333774
21.928092732077285	2.046716	1.4306349
21.945945617225426	2.0247264	1.4229288
21.963799041678694	2.0053253	1.4160951
21.981653005919398	31.349398	5.5990534
21.999507510429943	78.166725	8.841195
22.01736255569286	73.103546	8.550061
22.035218142190818	4.1736293	2.0429463
22.05307427040661	1.9937651	1.4120075
22.07093094082315	2.0192525	1.421004
22.088788153923474	2.0430336	1.4293473
22.106645910190746	2.024562	1.422871
22.12450421010827	1.9932457	1.4118235
22.142363054159464	2.006502	1.4165105
22.16022244282787	2.0129318	1.4187783
22.178082376597164	1.980332	1.4072427
22.195942855951145	1.9435883	1.3941263
22.213803881373742	1.9573067	1.3990378
22.231665453349002	1.9721586	1.4043356
22.24952757236111	1.967348	1.4026219
22.26739023889438	1.9709154	1.403893
22.28525345343323	2.0104938	1.4179188
22.30311721646225	2.0083458	1.4171612
22.320981528466113	1.9512619	1.3968757
22.33884638992964	1.9222046	1.386436
22.356711801337788	1.9202424	1.3857281
22.37457776317561	1.95673	1.3988316
22.392444275928337	2.000686	1.414456
22.410311340081282	2.033412	1.4259776
22.428178956119904	2.0497468	1.4316937
22.446047124529805	2.025134	1.4230721
22.46391584579669	1.9951643	1.4125029
22.481785120406414	1.9696791	1.4034525
22.49965494884496	1.9539162	1.3978255
22.51752533159841	1.9699403	1.4035456
22.53539626915302	1.9869351	1.4095869
22.553267761995137	1.9683932	1.4029944
22.571139810611264	1.9304737	1.3894149
22.589012415488025	1.9272585	1.3882574
22.60688557711216	1.951671	1.3970222
22.624759295970566	1.9625694	1.4009173
22.642633572550263	1.9390632	1.3925025
22.660508407338362	1.9423274	1.393674
22.67838380082217	1.9515026	1.3969619
22.696259753489077	1.9767191	1.4059584
22.714136265826614	1.9456294	1.3948582
22.73201333832246	1.9178156	1.3848522
22.74989097146439	1.9420999	1.3935925
22.76776916574035	1.9561555	1.3986263
22.785647921638393	1.9522016	1.397212
22.803527239646712	1.9325842	1.3901742
22.82140712025363	1.9014274	1.3789226
22.839287563947593	1.8731126	1.368617
22.85716857121719	1.8885806	1.3742564
22.875050142551135	1.9452231	1.3947126
22.892932278438277	1.9562975	1.3986771
22.910814979367604	1.9370999	1.3917974
22.928698245828222	1.9560132	1.3985754
22.946582078309387	1.9446096	1.3944926
22.96446647730047	1.9209027	1.3859663
22.98235144329098	1.8741314	1.3689892
23.000236976770562	1.8602442	1.3639077
23.018123078229	1.8778783	1.370357
23.03600974815619	1.8628607	1.3648665
23.053896987042194	1.8351451	1.3546753
23.071784795377173	1.870957	1.3678293
23.08967317365145	1.9145715	1.3836805
23.10756212235546	1.9151306	1.3838824
23.125451641979787	1.8896576	1.3746482
23.143341733015134	1.9081522	1.3813589
23.161232395952357	1.9380064	1.392123
23.179123631282426	1.9643754	1.4015617
23.197015439496468	1.9372187	1.39184
23.214907821085717	1.9369845	1.3917559
23.23280077654157	1.9127762	1.3830315
23.250694306355538	1.956688	1.3988167
23.268588411019277	1.9527293	1.397401
23.28648309102458	1.9480857	1.3957384
23.304378346863356	1.9808825	1.4074383
23.322274179027676	2.0340266	1.426193
23.340170588009723	2.0121758	1.4185119
23.358067574301852	1.9742773	1.4050897
23.37596513839651	1.9628812	1.4010286
23.39386328078629	1.9909594	1.4110136
23.411762001963947	1.9663926	1.4022813
23.429661302422353	1.9131405	1.3831632
23.4475611826545	1.9100597	1.3820491
23.46546164315356	1.950827	1.39672
23.48336268441279	2.0061376	1.4163818
23.501264306925638	1.9482315	1.3957906
23.51916651118564	1.9034184	1.3796443
23.537069297686497	1.8534802	1.3614258
23.554972666922037	1.8643934	1.3654279
23.57287661938623	1.8940344	1.3762392
23.59078115557318	1.9436358	1.3941433
23.608686275977128	1.9657723	1.40206
23.62659198109246	1.9411246	1.3932425
23.6444982714137	1.8994812	1.3782166
23.66240514743549	1.8581634	1.3631446
23.68031260965263	1.8938419	1.3761693
23.698220658560068	1.918619	1.3851422
23.716129294652845	1.9635904	1.4012817
23.7340385184262	1.9941014	1.4121265
23.75194833037546	1.9954392	1.4126002
23.769858730996123	1.9640478	1.4014449
23.78776972078382	1.9181237	1.3849634
23.80568130023431	1.8841827	1.3726554
23.823593469843495	1.9092089	1.3817413
23.841506230107424	1.9462789	1.395091
23.859419581522275	1.9566388	1.3987991
23.87733352458438	1.9366286	1.391628
23.89524805979019	1.8937283	1.376128
23.913163187636318	1.8685582	1.3669522
23.931078908619508	1.9053158	1.3803318
23.948995223236633	1.9980409	1.4135207
23.966912131984735	2.0624695	1.43613
23.98482963536096	2.0679042	1.438021
24.002747733862616	2.0458622	1.4303364
24.020666427987155	2.0252516	1.4231133
24.038585718232156	2.023145	1.422373
24.056505605095353	2.0178227	1.4205009
24.074426089074617	2.0972435	1.4481863
24.092347170667946	2.0957987	1.4476874
24.110268850373515	2.052513	1.4326594
24.128191128689586	2.0462618	1.4304761
24.146114006114626	2.0427449	1.4292463
24.164037483147187	2.0433452	1.4294562
24.181961560286005	2.0652156	1.4370857
24.199886238029926	2.0694656	1.4385637
24.21781151687797	2.0538988	1.433143
24.235737397329274	2.0320299	1.4254929
24.253663879883135	2.032448	1.4256395
24.271590965038975	2.034291	1.4262857
24.289518653296376	2.0620816	1.435995
24.30744694515505	2.0980616	1.4484687
24.32537584111486	2.0780594	1.4415476
24.34330534167581	2.0345948	1.4263922
24.361235447338046	2.0519452	1.4324613
24.379166158601876	2.0270555	1.423747
24.39709747596772	1.9859723	1.4092453
24.41502939993615	1.9555836	1.3984218
24.432961931007917	1.9805007	1.4073026
24.450895069683856	1.9911143	1.4110684
24.468828816465	2.0107262	1.4180008
24.4867631718525	2.0082672	1.4171335
24.504698136347656	1.9582671	1.3993809
24.52263371045192	1.9200846	1.3856711
24.540569894666874	1.9425796	1.3937645
24.558506689494266	1.9726392	1.4045068
24.57644409543597	1.9613838	1.4004941
24.594382112994012	1.9750018	1.4053476
24.61232074267057	1.991928	1.4113568
24.630259984967953	2.0097115	1.417643
24.64819984038863	1.9838823	1.4085035
24.66614030943522	1.9794492	1.406929
24.684081392610462	1.9563503	1.398696
24.702023090417274	2.0146604	1.4193873
24.7199654033587	1.9905151	1.4108561
24.737908331937927	2.017195	1.4202799
24.755851876658305	2.0089076	1.4173594
24.773796038023324	2.070952	1.4390802
24.79174081653661	2.129407	1.4592488
24.809686212701962	2.1406643	1.4631009
24.827632227023294	2.0911245	1.4460721
24.8455788600047	2.0719116	1.4394137
24.8635261121504	2.0779128	1.4414967
24.88147398396475	2.1330159	1.4604849
24.899422475952303	2.1474543	1.4654195
24.917371588617698	2.139858	1.4628253
24.935321322465768	2.1721938	1.4738364
24.953271678001478	2.2685518	1.5061712
24.97122265572994	2.5073693	1.5834675
24.989174256156414	2.836593	1.6842188
25.00712647978632	3.2948797	1.8151803
25.02507932712521	3.8672822	1.9665407
25.043032798678798	4.4392047	2.106942
25.060986894952933	5.1017666	2.258709
25.078941616453637	5.7792687	2.404011
25.096896963687055	6.7257094	2.5933974
25.114852937159508	7.8891687	2.8087664
25.132809537377444	8.352014	2.889985
25.150766764847468	8.340538	2.887999
25.168724620076347	7.6627765	2.768172
25.186683103570985	6.603609	2.5697489
25.204642215838426	5.4240794	2.3289654
25.222601957385894	4.1064415	2.0264356
25.24056232872074	3.1153047	1.7650226
25.25852333035048	2.5508196	1.5971285
25.276484962782778	2.196254	1.4819764
25.294447226525435	2.0558085	1.4338092
25.312410122086423	1.984553	1.4087416
25.330373649973843	1.9551672	1.3982729
25.348337810695988	1.9477788	1.3956285
25.366302604761245	1.9772524	1.4061481
25.384268032678207	1.953087	1.3975289
25.40223409495558	1.920296	1.3857474
25.420200792102257	1.9066522	1.3808157
25.438168124627246	1.9108975	1.3823521
25.45613609303974	1.8923953	1.3756436
25.474104697849057	1.9421428	1.3936079
25.492073939564698	1.9477909	1.3956327
25.510043818696285	1.9257516	1.3877145
25.528014335753614	1.8938719	1.3761802
25.54598549124664	1.873175	1.3686398
25.56395728568544	1.8934785	1.3760372
25.58192971958028	1.9351473	1.3910958
25.59990279344156	1.92699	1.3881607
25.617876507779833	1.8753296	1.3694267
25.635850863105826	1.8182317	1.3484182
25.653825859930386	1.8060689	1.3439007
25.671801498764548	1.8401277	1.356513
25.68977778011949	1.8667487	1.3662901
25.707754704506524	1.8431821	1.3576385
25.725732272437153	1.847208	1.3591204
25.743710484423012	1.9214045	1.3861474
25.761689340975888	1.9599937	1.3999977
25.77966884260774	1.9181296	1.3849655
25.797648989830662	1.8716052	1.3680662
25.815629783156922	1.8368118	1.3552903
25.83361122309895	1.8231102	1.350226
25.85159331016929	1.8364079	1.3551413
25.869576044880695	1.8741589	1.3689992
25.887559427746034	1.8643601	1.3654157
25.90554345927836	1.8782266	1.3704841
25.92352813999086	1.923921	1.3870548
25.94151347039689	1.8252686	1.351025
25.959499451009965	1.7625976	1.3276285
25.97748608234374	1.7507862	1.3231728
25.995473364912062	1.7810374	1.3345551
26.013461299228904	1.7795498	1.3339977
26.03144988580839	1.8101903	1.3454331
26.04943912516483	1.8624662	1.364722
26.067429017812675	1.8594152	1.3636037
26.085419564266537	1.8382769	1.3558307
26.103410765041186	1.8026544	1.3426297
26.12140262065155	1.8306242	1.3530056
26.139395131612723	1.8690053	1.3671157
26.157388298439948	1.8683907	1.3668909
26.17538212164861	1.8307889	1.3530664
26.193376601754295	1.8149712	1.3472086
26.211371739272714	1.836744	1.3552653
26.229367534719746	1.863224	1.3649997
26.247363988611433	1.8408029	1.3567619
26.26536110146397	1.77191	1.3311311
26.283358873793727	1.7685213	1.3298576
26.301357306117204	1.7989634	1.3412545
26.319356398951104	1.8299664	1.3527625
26.33735615281224	1.8125885	1.3463241
26.35535656821762	1.7821712	1.3349799
26.373357645684404	1.7519704	1.3236202
26.39135938572991	1.795447	1.3399429
26.409361788871614	1.8151833	1.3472874
26.427364855627165	1.8219994	1.3498145
26.445368586514352	1.8342631	1.3543497
26.46337298205115	1.8412365	1.3569217
26.48137804275568	1.8051592	1.3435621
26.499383769146217	1.7914286	1.3384426
26.517390161741215	1.829831	1.3527125
26.53539722105928	1.8746295	1.3691711
26.553404947619182	1.8402035	1.356541
26.571413341939856	1.8481	1.3594484
26.589422404540397	1.8656695	1.3658952
26.60743213594006	1.8522677	1.3609804
26.62544253665827	1.8001161	1.341684
26.64345360721459	1.7816099	1.3347696
26.66146534812879	1.805578	1.3437179
26.679477759920758	1.8161659	1.347652
26.69749084311057	1.8326368	1.3537492
26.71550459821847	1.853691	1.3615032
26.733519025764842	1.8456804	1.3585582
26.751534126270258	1.8297207	1.3526717
26.769549900255434	1.8432122	1.3576496
26.787566348241267	1.8747983	1.3692328
26.80558347074881	1.8114085	1.3458858
26.823601268299267	1.7882156	1.3372418
26.841619741414036	1.8258802	1.3512514
26.85963889061465	1.838733	1.3559989
26.877658716422832	1.8415391	1.3570333
26.89567921936045	1.7978237	1.3408295
26.913700399949544	1.7731452	1.331595
26.93172225871233	1.8138258	1.3467835
26.949744796171174	1.8193477	1.348832
26.967768012848605	1.7780777	1.3334458
26.98579190926733	1.8070862	1.344279
27.003816485950225	1.811857	1.3460524
27.021841743420318	1.7531163	1.3240529
27.039867682200814	1.7498803	1.3228304
27.057894302815072	1.8062302	1.3439606
27.07592160578664	1.8242701	1.3506554
27.0939495916392	1.812467	1.3462789
27.111978260896635	1.8448344	1.3582468
27.13000761408296	1.8531519	1.3613052
27.148037651722397	1.8135773	1.3466913
27.166068374339304	1.7962238	1.3402327
27.184099782458215	1.8138707	1.3468002
27.20213187660384	1.8481314	1.35946
27.22016465730105	1.8340653	1.3542767
27.23819812507487	1.8305957	1.352995
27.256232280450533	1.8070484	1.344265
27.274267123953383	1.8020905	1.3424196
27.292302656108987	1.7672927	1.3293957
27.31033887744306	1.7844093	1.3358178
27.32837578848146	1.8118869	1.3460635
27.34641338975026	1.8424321	1.3573622
27.364451681775673	1.8597536	1.3637278
27.382490665084074	1.8087872	1.3449116
27.400530340202046	1.7933793	1.3391712
27.41857070765629	1.815687	1.3474743
27.436611767973726	1.8510112	1.3605187
27.454653521681404	1.8854244	1.3731076
27.472695969306564	1.8593341	1.363574
27.490739111376627	1.8565109	1.3625383
27.508782948419153	1.8120483	1.3461235
27.526827480961902	1.8036968	1.3430178
27.54487270953279	1.8026733	1.3426367
27.562918634659898	1.8252184	1.3510065
27.580965256871508	1.8500674	1.3601718
27.599012576696026	1.8401374	1.3565166
27.617060594662068	1.8446496	1.3581787
27.63510931129842	1.8865286	1.3735096
27.65315872713401	1.8848484	1.3728977
27.67120884269797	1.8132205	1.3465588
27.68925965851958	1.7778761	1.3333702
27.707311175128307	1.8809271	1.3714689
27.725363393053787	1.9420696	1.3935816
27.74341631282583	1.9369005	1.3917258
27.7614699349744	1.885231	1.3730371
27.77952426002968	2.0802438	1.4423051
27.797579288521973	2.1321	1.4601712
27.815635020981784	2.5275068	1.5898135
27.83369145793979	2.5593858	1.5998081
27.85174859992682	2.4472365	1.5643646
27.869806447473923	2.3316855	1.5269858
27.887865001112267	1.994586	1.4122981
27.905924261373233	1.8864695	1.3734881
27.92398422878836	1.872766	1.3684905
27.94204490388936	1.8683618	1.3668803
27.96010628720813	1.8630866	1.3649493
27.978168379276728	1.8423136	1.3573185
27.9962311806274	1.8519063	1.3608476
28.014294691792568	1.8599136	1.3637865
28.0323589133048	1.8276209	1.3518953
28.050423845696887	1.7967042	1.3404119
28.068489489501758	1.8466331	1.3589088
28.086555845252523	1.8761942	1.3697424
28.104622913482487	1.9113489	1.3825154
28.122690694725115	1.9156029	1.3840531
28.14075918951405	1.9623681	1.4008455
28.15882839838312	1.973033	1.4046469
28.176898321866304	1.9380065	1.392123
28.1949689604978	1.8999132	1.3783734
28.213040314811945	1.8699437	1.3674588
28.23111238534327	1.9130481	1.3831298
28.249185172626493	1.9381938	1.3921903
28.267258677196473	1.9563687	1.3987025
28.285332899588294	1.9407476	1.3931072
28.303407840337172	1.9350157	1.3910484
28.321483499978545	1.9372923	1.3918664
28.33955987904799	1.9523762	1.3972746
28.357636978081285	1.9498397	1.3963666
28.37571479761439	1.9592755	1.3997412
28.393793338183425	1.9419036	1.393522
28.41187260032469	1.9742256	1.4050714
28.429952584574686	1.9386263	1.3923455
28.448033291470065	1.9306929	1.3894937
28.46611472154769	1.9396017	1.3926958
28.484196875344566	1.9665112	1.4023235
28.502279753397914	1.9228151	1.386656
28.52036335624511	1.9185771	1.3851271
28.538447684423716	1.9513196	1.3968964
28.556532738471482	1.946427	1.3951441
28.574618518926325	2.0156493	1.4197357
28.59270502632635	2.046571	1.4305842
28.61079226120985	2.0371253	1.427279
28.628880224115274	2.0070384	1.4166998
28.646968915581287	1.952488	1.3973145
28.66505833614671	1.9815198	1.4076647
28.68314848635055	2.0548077	1.43346
28.701239366732004	2.1108284	1.452869
28.71933097783044	2.1053674	1.4509884
28.737423320185403	2.0637143	1.4365634
28.75551639433665	2.0940104	1.4470695
28.773610200824074	2.1200595	1.4560424
28.791704740187793	2.1351357	1.4612104
28.80980001296809	2.1557086	1.4682331
28.827896019705413	2.165528	1.4715734
28.845992760940433	2.1654222	1.4715374
28.86409023721397	2.149525	1.4661258
28.88218844906704	2.1980824	1.4825932
28.900287397040845	2.287248	1.512365
28.918387081676755	2.2857833	1.5118808
28.936487503516343	2.2614439	1.5038098
28.954588663101365	2.2600553	1.503348
28.97269056097374	2.2928774	1.514225
28.990793197675597	2.3419075	1.5303292
29.00889657374923	2.3406193	1.5299083
29.027000689737125	2.369437	1.5392976
29.04510554618196	2.333875	1.5277025
29.06321114362659	2.3674657	1.5386571
29.08131748261405	2.470191	1.5716841
29.099424563687567	2.5439746	1.5949842
29.11753238739057	2.5039976	1.5824025
29.13564095426663	2.523369	1.5885116
29.15375026485954	2.588518	1.6088872
29.171860319713275	2.5976267	1.6117154
29.18997111937199	2.6076868	1.6148334
29.20808266438002	2.6942098	1.6414049
29.226194955281898	2.7539175	1.6594931
29.244307992622335	2.8315768	1.682729
29.26242177694624	2.8556018	1.6898526
29.2805363087987	2.8453183	1.6868072
29.29865158872498	2.858239	1.6906327
29.316767617270557	2.8988373	1.7025973
29.334884394981064	2.9909458	1.7294351
29.353001922402367	3.0223887	1.7385019
29.37112020008047	3.0772054	1.7541965
29.389239228561596	3.1764767	1.7822673
29.407359008392152	3.3857563	1.8400425
29.42547954011872	3.7214005	1.9290931
29.44360082428809	4.417527	2.1017914
29.46172286144722	5.5560236	2.357122
29.479845652143283	7.2734942	2.6969416
29.497969196923606	9.512002	3.0841534
29.516093496335728	12.050674	3.4714081
29.5342185509274	14.727649	3.837662
29.55234436124651	16.983154	4.1210623
29.570470927841175	18.303047	4.278206
29.588598251259686	17.978033	4.2400513
29.60672633205055	16.532978	4.0660763
29.624855170762405	14.201699	3.7685142
29.642984767944146	11.339058	3.3673518
29.66111512414481	8.711934	2.9515986
29.67924623991366	6.5176516	2.5529692
29.697378115800138	5.028546	2.242442
29.71551075235387	4.1647882	2.0407813
29.733644150124675	3.6932302	1.9217778
29.751778309662576	3.4587808	1.8597797
29.769913231517766	3.3337862	1.8258659
29.78804891624066	3.2825565	1.8117827
29.806185364381818	3.3009207	1.8168436
29.82432257649206	3.3569648	1.8322022
29.842460553122333	3.374811	1.8370658
29.86059929482382	3.387965	1.8406426
29.878738802147872	3.3893945	1.8410308
29.896879075646048	3.4382043	1.8542396
29.915020115870114	3.4054224	1.8453786
29.933161923371976	3.3591063	1.8327864
29.951304498703777	3.2810662	1.8113713
29.969447842417857	3.2449484	1.8013741
29.987591955066733	3.2228541	1.795231
30.005736837203123	3.2661998	1.8072631
30.023882489379943	3.280583	1.8112379
30.04202891215028	3.1990921	1.7886006
30.060176106067455	3.129836	1.7691343
30.078324071684946	3.1079333	1.7629331
30.09647280955646	3.1521456	1.7754283
30.114622320235863	3.2371943	1.7992204
30.132772604277257	3.203183	1.7897438
30.1509236622349	3.152471	1.77552
30.16907549466328	3.1029463	1.7615181
30.18722810211705	3.0884292	1.7573928
30.205381485151097	3.0227294	1.7385999
30.22353564432045	2.9984596	1.7316061
30.241690580180403	3.0185876	1.7374083
30.25984629328638	3.0305328	1.7408426
30.278002784194037	3.0260496	1.7395544
30.296160053459246	3.0299966	1.7406886
30.314318101638033	2.98282	1.7270843
30.332476929286646	2.9710896	1.7236849
30.35063653696153	2.9006386	1.7031261
30.368796925219307	2.9259636	1.7105448
30.386958094616844	2.9705756	1.7235358
30.40512004571115	2.8683126	1.6936094
30.423282779059463	2.8225038	1.680031
30.441446295219233	2.854887	1.6896411
30.459610594748067	2.878954	1.696748
30.47777567820382	2.833571	1.6833214
30.495941546144504	2.7959619	1.672113
30.51410819912835	2.8010576	1.6736361
30.532275637713795	2.8121648	1.676951
30.55044386245946	2.8501983	1.688253
30.56861287392416	2.8614123	1.691571
30.586782672666956	2.8483212	1.687697
30.604953259247047	2.826071	1.6810923
30.623124634223885	2.8626592	1.6919395
30.641296798157075	2.8545825	1.689551
30.659469751606462	2.85491	1.6896479
30.677643495132074	2.7900677	1.6703496
30.695818029294152	2.6752217	1.6356105
30.713993354653116	2.6564424	1.6298597
30.73216947176962	2.6994786	1.6430091
30.75034638120448	2.7140162	1.6474272
30.768524083518756	2.7575455	1.6605859
30.786702579273673	2.8102193	1.6763709
30.80488186903069	2.848442	1.6877328
30.82306195335144	2.9625106	1.7211945
30.841242832797782	3.1947706	1.7873921
30.85942450793176	3.5035248	1.8717705
30.877606979315637	3.8141482	1.9529845
30.895790247511883	4.197171	2.0486999
30.913974313083134	4.667797	2.1605086
30.932159176592283	4.962931	2.2277637
30.95034483860237	4.918442	2.217756
30.968531299676698	4.6546135	2.1574554
30.98671856037873	4.2917833	2.071662
31.00490662127215	3.9277873	1.9818646
31.023095482920848	3.5441942	1.882603
31.04128514588892	3.143688	1.7730448
31.059475610740662	2.7643757	1.6626412
31.07766687804056	2.6045296	1.6138555
31.09585894835335	2.53883	1.5933707
31.11405182224393	2.4914606	1.5784361
31.132245500277417	2.4743876	1.5730187
31.15043998301914	2.4880273	1.5773482
31.168635271034628	2.5271428	1.5896989
31.18683136488964	2.4216373	1.556161
31.20502826515008	2.3736875	1.5406777
31.223225972382135	2.3966098	1.5480988
31.241424487152155	2.3831477	1.5437447
31.259623810026692	2.3357491	1.5283158
31.27782394157253	2.389392	1.5457658
31.296024882356644	2.426982	1.5578774
31.314226632946237	2.4154541	1.5541731
31.332429193908684	2.4232755	1.5566874
31.350632565811598	2.3931928	1.5469948
31.368836749222787	2.455761	1.5670868
31.387041744710295	2.560312	1.6000975
31.40524755284232	2.5656626	1.6017686
31.423454174187317	2.5871701	1.6084683
31.441661609313922	2.6051662	1.6140528
31.459869858791002	2.5168417	1.5864557
31.478078923187628	2.3905318	1.5461345
31.496288803073064	2.3767745	1.5416791
31.514499499016807	2.3840451	1.5440353
31.532711011588546	2.3029165	1.5175363
31.550923341358178	2.2182229	1.48937
31.56913648889584	2.2491693	1.4997231
31.587350454771844	2.3097417	1.5197835
31.605565239556732	2.332969	1.527406
31.62378084382127	2.2963955	1.5153862
31.641997268136382	2.253261	1.5010866
31.660214513073274	2.2390761	1.4963543
31.67843257920331	2.3136868	1.5210809
31.6966514670981	2.4197843	1.5555656
31.71487117732944	2.4323022	1.559584
31.733091710469346	2.3944695	1.5474074
31.751313067090052	2.346553	1.5318463
31.769535247764008	2.288233	1.5126907
31.787758253063878	2.272838	1.5075935
31.805982083562526	2.3300397	1.5264468
31.824206739833024	2.3396087	1.529578
31.84243222244869	2.2791936	1.5096998
31.860658531983013	2.2212546	1.4903874
31.878885669009737	2.2651932	1.5050559
31.897113634102784	2.303606	1.5177635
31.91534242783632	2.285882	1.5119133
31.933572050784694	2.1899378	1.4798439
31.951802503522508	2.165483	1.471558
31.970033786624548	2.2194517	1.4897825
31.988265900665834	2.2110276	1.4869524
32.006498846221575	2.245218	1.4984052
32.02473262386724	2.2381427	1.4960424
32.04296723417845	2.1250198	1.4577447
32.0612026777311	2.098769	1.4487128
32.07943895510129	2.1531928	1.4673761
32.097676066865304	2.277337	1.5090848
32.115914013599685	2.2640705	1.5046829
32.13415279588115	2.1776903	1.4756999
32.152392414286666	2.1007936	1.4494115
32.1706328693934	2.1486037	1.4658116
32.18887416177875	2.131406	1.4599336
32.20711629202032	2.0979612	1.448434
32.225359260695924	2.1143043	1.4540647
32.243603068383614	2.1540687	1.4676746
32.26184771566166	2.1949635	1.4815409
32.28009320310852	2.1826165	1.4773681
32.2983395313029	2.1737962	1.4743799
32.31658670082372	2.1207407	1.4562763
32.33483471225012	2.1145012	1.4541324
32.35308356616143	2.1324494	1.4602909
32.371333263137245	2.1190693	1.4557023
32.38958380375734	2.0498066	1.4317145
32.407835188601744	2.1236677	1.4572809
32.42608741825067	2.108921	1.4522125
32.444340493284585	2.0107136	1.4179963
32.46259441428416	1.9998424	1.4141579
32.48084918183028	2.082414	1.4430572
32.49910479650405	2.074772	1.4404068
32.51736125888683	1.9713775	1.4040575
32.53561856956014	2.0253365	1.4231431
32.5538767291058	2.1542847	1.4677482
32.572135738105764	2.1272345	1.4585042
32.59039559714228	2.0177739	1.4204837
32.608656306797776	1.8899137	1.3747413
32.62691786765491	1.8582144	1.3631634
32.645180280296586	1.9396453	1.3927115
32.663443545305896	2.0195715	1.4211164
32.68170766326619	2.111734	1.4531807
32.69997263476099	2.1393764	1.4626607
32.7182384603741	2.1155245	1.4544842
32.7365051406895	2.0464005	1.4305246
32.75477267629144	1.994096	1.4121246
32.77304106776434	2.0326931	1.4257255
32.79131031569289	2.0582583	1.4346632
32.809580420661966	2.0611227	1.4356611
32.827851383256714	2.1022792	1.4499239
32.84612320406245	1.9885851	1.410172
32.86439588366476	1.940199	1.3929102
32.88266942264945	1.9761771	1.4057657
32.9009438216025	2.0382187	1.427662
32.9192190811102	2.0047133	1.415879
32.937495201758985	1.9979345	1.4134831
32.95577218413556	2.0530903	1.4328609
32.974050028826866	2.154298	1.4677527
32.992328736420035	2.2106934	1.48684
33.010608307502444	2.1520715	1.466994
33.02888874266169	1.9946721	1.4123286
33.047170042485604	1.9088254	1.3816025
33.06545220756225	1.8946345	1.3764572
33.083735238479896	1.8915551	1.3753382
33.10201913582707	1.8600736	1.3638451
33.12030390019248	1.898416	1.3778301
33.138589532165135	2.001645	1.414795
33.15687603233419	1.9852756	1.4089981
33.17516340128909	1.8812157	1.3715742
33.19345163961947	1.890954	1.3751197
33.211740747915215	2.0010767	1.4145942
33.23003072676643	2.1376646	1.4620755
33.248321576763466	2.1129527	1.4535999
33.266613298496885	2.0372345	1.4273173
33.28490589255747	2.009787	1.4176697
33.30319935953626	1.9611788	1.4004209
33.32149370002451	1.9611009	1.4003931
33.339788914613706	2.0475762	1.4309354
33.358085003895575	2.0750964	1.4405195
33.376381968462034	1.8850887	1.3729854
33.39467980890529	1.7301885	1.3153663
33.41297852581774	1.8546618	1.3618597
33.43127811979204	1.9917419	1.4112909
33.44957859142105	1.9521202	1.397183
33.467879941297866	1.9286072	1.388743
33.486182170015844	1.898363	1.377811
33.50448527816853	1.8118324	1.3460432
33.522789266349754	1.7138894	1.309156
33.541094135153514	1.7355021	1.3173846
33.55939988517411	1.7828324	1.3352275
33.57770651700602	1.8174229	1.3481183
33.59601403124398	1.8401592	1.3565247
33.61432242848296	1.9196411	1.3855112
33.632631709318154	1.9465301	1.3951811
33.650941874344994	1.9916615	1.4112624
33.66925292415916	1.9869795	1.4096026
33.68756485935654	1.9464024	1.3951353
33.70587768053328	1.8921459	1.3755529
33.724191388285746	1.8928286	1.3758011
33.74250598321054	1.9072275	1.3810241
33.760821465904506	1.877388	1.3701781
33.77913783696474	1.8179724	1.348322
33.79745509698852	1.7585753	1.3261129
33.815773246573414	1.8103217	1.345482
33.8340922863172	1.850189	1.3602165
33.852412216817896	1.878594	1.3706181
33.87073303867377	1.9328755	1.3902789
33.889054752483304	1.9843663	1.4086753
33.907377358845245	1.9635488	1.4012668
33.92570085835853	1.9837891	1.4084705
33.94402525162239	1.8998725	1.3783586
33.96235053923627	1.8964624	1.3771211
33.980676721799824	1.9142935	1.38358
33.999003799912984	1.9092902	1.3817707
34.01733177417592	1.8947971	1.3765163
34.03566064518901	1.9227986	1.3866502
34.0539904135529	1.8954251	1.3767444
34.07232107986846	1.9459953	1.3949894
34.090652644736785	1.9299452	1.3892246
34.108985108759235	2.0003273	1.4143293
34.12731847253742	2.0345082	1.4263619
34.14565273667313	2.0433898	1.4294719
34.16398790176847	2.0311723	1.425192
34.18232396842574	2.0088277	1.4173312
34.20066093724749	2.0728154	1.4397275
34.21899880883651	1.9057819	1.3805006
34.23733758379583	1.8255512	1.3511295
34.25567726272874	1.8725455	1.3684099
34.27401784623872	1.8787484	1.3706745
34.29235933492957	1.8285592	1.3522422
34.31070172940526	1.761264	1.3271263
34.32904503027003	1.7965574	1.3403572
34.347389238128386	1.9761981	1.4057732
34.36573435358502	2.0543802	1.4333109
34.38408037724492	2.0230947	1.4223553
34.402427309713296	1.9773601	1.4061863
34.42077515159559	1.9219397	1.3863404
34.43912390349752	1.9571488	1.3989813
34.45747356602499	2.0455546	1.4302288
34.47582413978423	2.0822892	1.4430139
34.49417562538163	2.0473428	1.4308538
34.51252802342388	2.097876	1.4484047
34.53088133451789	2.0828147	1.443196
34.54923555927084	2.0360458	1.4269007
34.567590698290104	2.0382838	1.4276848
34.58594675218336	1.9505566	1.3966233
34.6043037215585	1.8835146	1.372412
34.62266160702365	1.8083874	1.3447629
34.641020409187234	1.7843342	1.3357897
34.65938012865785	1.8309715	1.3531339
34.677740766044394	1.9373338	1.3918813
34.69610232195598	1.9533862	1.3976359
34.714464797002016	1.913556	1.3833134
34.73282819179208	2.043168	1.4293942
34.751192506936064	1.9143665	1.3836063
34.76955774304408	1.7599568	1.3266337
34.7879239007265	1.684935	1.2980504
34.80629098059391	1.7456119	1.3212161
34.824658983257194	1.8939972	1.3762257
34.843027909327446	2.048581	1.4312865
34.86139775941603	2.0749085	1.4404542
34.879768534134534	1.9511263	1.3968272
34.89814023409483	1.8801672	1.3711919
34.91651285990901	1.9115664	1.3825941
34.93488641218944	1.9272009	1.3882366
34.95326089154871	1.9194795	1.3854529
34.97163629859967	2.0096133	1.4176083
34.99001263395542	1.8254763	1.3511019
35.00838989822934	1.6768721	1.294941
35.02676809203499	1.940139	1.3928888
35.04514721598624	2.1845334	1.4780167
35.063527270697215	2.1028621	1.4501249
35.081908256782256	1.9185076	1.385102
35.10029017485597	1.8601838	1.3638855
35.11867302553321	1.9001746	1.3784682
35.137056809429104	1.9271855	1.388231
35.155441527159006	1.8861201	1.3733609
35.173827179338524	1.7864553	1.3365834
35.19221376658354	1.7902496	1.3380021
35.21060128951017	2.0712266	1.4391757
35.2289897487348	2.1263914	1.4582151
35.24737914487405	1.7396475	1.318957
35.26576947854479	1.7863948	1.3365608
35.28416075036418	2.1027095	1.4500723
35.30255296094958	2.2817829	1.5105572
35.32094611091867	2.2137828	1.4878786
35.33934020088932	2.0080614	1.4170609
35.35773523147969	1.7505544	1.3230852
35.3761312033082	1.5558467	1.2473358
35.394528116993506	1.802717	1.3426529
35.41292597315452	1.9505064	1.3966054
35.431324772410434	1.9863135	1.4093664
35.449724515380666	1.7049998	1.3057564
35.46812520268491	1.5269305	1.2356902
35.486526834943106	1.7122695	1.3085371
35.504929412775454	1.9818152	1.4077696
35.52333293680242	2.147885	1.4655665
35.54173740764471	2.5054765	1.5828696
35.560142825923286	2.1461737	1.4649825
35.5785491922594	1.5755169	1.255196
35.59695650727454	1.6393871	1.2803855
35.61536477159042	1.8569168	1.3626873
