0.008763373481513119	0.0	0.0
0.026290120649546365	0.0	0.0
0.043816868432600686	0.0	0.0
0.06134361724069026	0.01719954	0.13114701
0.07887036748382949	0.07350938	0.27112612
0.0963971195720331	0.06077644	0.24652877
0.11392387391531617	0.13989618	0.37402698
0.1314506309236943	0.19856866	0.44561043
0.1489773910071836	0.29041013	0.53889716
0.16650415457580078	0.27146783	0.5210258
0.18403092203956356	0.17274232	0.4156228
0.20155769380849	0.14713396	0.38358045
0.2190844702925996	0.14073107	0.37514138
0.2366112519019124	0.12870258	0.35875142
0.2541380390464497	0.16663025	0.4082037
0.27166483213623416	0.14018938	0.37441874
0.28919163158128947	0.15599668	0.39496416
0.3067184377916406	0.10491075	0.3238993
0.324245251177314	0.09405197	0.30667895
0.34177207214833777	0.09409648	0.3067515
0.3592989011147415	0.14249812	0.37748924
0.37682573848655654	0.18550754	0.43070585
0.39435258467381573	0.19739683	0.44429362
0.41187944008655414	0.16716188	0.40885437
0.42940630513480854	0.1581107	0.39763135
0.446933180228618	0.15828636	0.39785218
0.4644600657780234	0.15624899	0.39528343
0.48198696219306775	0.1607272	0.40090796
0.49951386988379676	0.1676496	0.40945035
0.5170407892602581	0.18153292	0.42606682
0.5345677207325025	0.18172325	0.4262901
0.5520946647105822	0.16774444	0.40956616
0.5696216216045534	0.15820841	0.39775422
0.5871485918244737	0.12977187	0.36023864
0.6046755757804043	0.122132674	0.34947485
0.6222025738824094	0.15623681	0.39526802
0.6397295865405557	0.19079995	0.43680653
0.6572566141649129	0.20398755	0.4516498
0.6747836571655547	0.17584254	0.41933584
0.6923107159525568	0.16046724	0.40058362
0.7098377909359992	0.17080243	0.4132825
0.7273648825259653	0.1980709	0.44505158
0.7448919911325411	0.1784662	0.4224526
0.762419117165817	0.1624818	0.4030903
0.7799462610358868	0.14437053	0.37996122
0.7974734231528482	0.15796252	0.397445
0.8150006039268024	0.15965077	0.39956322
0.8325278037678551	0.12848501	0.35844806
0.8500550230861152	0.16915944	0.41128996
0.8675822622916969	0.175599	0.41904533
0.8851095217947171	0.19781007	0.44475845
0.9026368020052984	0.20086916	0.44818428
0.9201641033335665	0.20177262	0.44919106
0.9376914261896523	0.21495886	0.46363655
0.9552187709836915	0.20515211	0.45293722
0.9727461381258234	0.20713681	0.45512286
0.990273528026193	0.2162474	0.46502408
1.0078009410949496	0.243206	0.4931592
1.0253283777422473	0.23291333	0.48261094
1.0428558383782454	0.21361782	0.46218807
1.0603833234131086	0.20864834	0.4567804
1.0779108332570058	0.3045722	0.5518806
1.0954383683201119	0.37800863	0.61482406
1.112965929012607	0.4508018	0.6714178
1.1304935157446763	0.52190804	0.722432
1.1480211289265108	0.5261323	0.7253498
1.1655487689683062	1.3095053	1.1443362
1.1830764362802655	1.5823855	1.2579291
1.200604131272596	2.0220175	1.4219766
1.2181318543555117	2.3960104	1.5479052
1.235659605939232	2.4700792	1.5716486
1.253187386433982	3.9852211	1.9963019
1.270715196249994	6.3658485	2.5230634
1.2882430357975057	11.488849	3.3895204
1.3057709054867608	16.374577	4.046551
1.3232988057280106	22.04316	4.6950145
1.3408267369315112	27.15725	5.2112617
1.358354699507526	30.991444	5.566996
1.3758826938663256	34.98762	5.9150333
1.3934107204181858	37.095078	6.090573
1.410938779573391	37.44082	6.1188903
1.4284668717422309	37.888424	6.1553574
1.4459949973350033	37.298374	6.1072397
1.4635231567620117	36.839302	6.069539
1.4810513504335687	35.626293	5.9687767
1.4985795787599925	34.938942	5.9109173
1.5161078421516088	34.745094	5.894497
1.5336361410187505	34.710285	5.8915434
1.5511644757717598	34.920086	5.909322
1.5686928468209842	35.469036	5.955589
1.58622125457678	35.65379	5.9710793
1.6037496994495108	36.25127	6.0209026
1.621278181849548	36.27825	6.023143
1.6388067021872719	36.93583	6.0774856
1.6563352608730693	36.83835	6.0694604
1.673863858317336	35.92818	5.994012
1.6913924949304753	35.114746	5.92577
1.7089211711228998	33.921303	5.8241997
1.7264498873050296	33.017067	5.746048
1.7439786438872935	32.12903	5.668247
1.7615074412801288	31.299479	5.5945935
1.779036279893981	30.513533	5.5239058
1.796565160139305	29.724005	5.4519725
1.814094082426564	29.027954	5.3877597
1.8316230471662298	28.256433	5.315678
1.849152054768784	27.581594	5.251818
1.8666811056447168	27.08504	5.204329
1.8842102002045273	26.449598	5.142917
1.901739338858724	25.916422	5.0908175
1.9192685220178245	25.070374	5.0070324
1.9367977500923557	23.970005	4.8959174
1.9543270234928547	23.622305	4.860278
1.971856342629867	23.326769	4.829779
1.9893857079139496	23.243563	4.821158
2.006915119755667	22.711185	4.7656255
2.0244445785655945	21.987206	4.6890516
2.0419740847543175	21.686438	4.65687
2.0595036387324317	21.146797	4.5985646
2.0770332409105414	20.748043	4.555002
2.094562891699263	20.478638	4.525333
2.1120925915092217	19.962872	4.467983
2.129622340751053	19.772907	4.446674
2.1471521398354043	187.5819	13.6960535
2.1646819891729323	443.67624	21.063623
2.182211889174303	439.76233	20.97051
2.1997418402501974	452.259	21.266382
2.2172718428113023	432.42807	20.794905
2.234801897268317	320.47137	17.901714
2.2523320040319548	16.813086	4.100376
2.269862163512935	16.661692	4.0818734
2.287392376121992	16.19997	4.0249186
2.304922642269869	15.947622	3.9934473
2.322452962367322	15.514625	3.938861
2.3399833368251164	15.161236	3.8937433
2.357513766054032	14.9396	3.8651779
2.3750442504648586	14.8808155	3.857566
2.3925747904683963	14.847528	3.853249
2.410105386475459	14.699017	3.8339295
2.4276360388968707	14.209067	3.7694917
2.445166748143469	14.1169405	3.7572517
2.4626975146261025	13.7686405	3.7106118
2.4802283387556323	13.539231	3.6795695
2.4977592209429305	13.24866	3.639871
2.5152901615988825	13.021449	3.6085246
2.5328211611343865	12.771809	3.5737667
2.5503522199603523	12.430529	3.5256956
2.5678833384877024	12.226537	3.4966464
2.5854145171273712	11.966218	3.459222
2.6029457562903064	11.871782	3.4455452
2.620477056387469	11.58453	3.4036055
2.6380084178298326	11.462219	3.3855898
2.655539841028383	11.221638	3.3498714
2.673071326394119	11.013315	3.3186314
2.6906028743380523	10.872252	3.2973099
2.708134485271211	10.655709	3.2643085
2.7256661596046325	10.577161	3.2522547
2.743197897749369	10.494214	3.2394774
2.760729700116486	10.498943	3.2402072
2.778261567117063	10.111735	3.1798954
2.795793499162193	10.00381	3.16288
2.8133254966629817	9.782939	3.127769
2.830857560030551	9.754041	3.123146
2.8483896896760337	9.583105	3.095659
2.865921886010578	9.372872	3.0615146
2.883454149445347	9.286765	3.0474193
2.9009864803915177	9.253116	3.0418935
2.91851887926028	9.101689	3.0169005
2.9360513464628384	9.063107	3.0104995
2.953583882410413	8.897842	2.9829252
2.9711164875142373	8.814089	2.968853
2.9886491621855606	8.628094	2.9373617
3.0061819068356455	8.625778	2.9369676
3.023714721875769	8.573125	2.92799
3.041247607717225	8.359927	2.8913538
3.0587805647713213	8.1094475	2.8477092
3.0763135934493806	8.019899	2.8319428
3.0938466941627407	8.005169	2.8293407
3.1113798673227544	8.154817	2.855664
3.1289131133407904	8.05319	2.8378143
3.1464464326282315	8.054299	2.8380098
3.1639798255964786	7.826465	2.797582
3.1815132926569443	7.5498257	2.7476945
3.1990468342210603	7.3052707	2.7028265
3.216580450700272	7.231812	2.6892028
3.2341141425060416	7.233544	2.689525
3.251647910049847	7.2740755	2.6970494
3.2691817537431813	7.2342215	2.6896508
3.286715673997555	7.2184763	2.6867223
3.3042496712244938	7.1369205	2.6715016
3.32178374583554	6.9938197	2.644583
3.339317898242251	6.827657	2.6129787
3.3568521288562034	6.718193	2.5919478
3.3743864380889876	6.741408	2.5964222
3.3919208263522127	6.5816317	2.565469
3.4094552940575023	6.4317946	2.5360982
3.4269898416164972	6.3723216	2.5243459
3.444524469440858	6.4167814	2.5331366
3.4620591779422587	6.47088	2.5437925
3.479593967532391	6.3477	2.5194643
3.4971288386229658	6.255485	2.5010967
3.5146637916257086	6.2452245	2.4990447
3.5321988269523628	6.1443334	2.4787767
3.5497339450146903	6.1498394	2.479887
3.5672691462244708	6.1000338	2.4698246
3.5848044309934988	6.062055	2.462124
3.60233979973359	6.057005	2.4610984
3.619875252856575	6.037756	2.4571846
3.6374107907743034	6.0775437	2.4652674
3.6549464138986427	6.099398	2.469696
3.6724821226414788	6.1750546	2.4849658
3.690017917414714	6.23616	2.4972305
3.7075537986302702	6.3139267	2.5127528
3.7250897667000857	6.2903957	2.5080662
3.7426258220361235	6.402763	2.530368
3.7601619650503553	6.6677403	2.5821967
3.777698196154779	7.206699	2.6845295
3.7952345157614067	8.222613	2.8675098
3.8127709242822716	9.081933	3.0136247
3.830307422129425	11.275977	3.3579721
3.847844009714936	12.61602	3.5519037
3.8653806874508954	15.872134	3.9839847
3.882917455749409	15.438833	3.929228
3.900454315022606	15.607007	3.9505706
3.917991265682631	12.505763	3.5363488
3.9355283081416506	10.668071	3.2662013
3.9530654428118495	8.596144	2.9319181
3.970602670105433	7.369894	2.7147548
3.9881399904346244	6.5181932	2.5530753
4.005677404211669	6.3295054	2.5158508
4.023214911848827	6.196593	2.4892957
4.0407525137583855	6.1617126	2.4822798
4.058290210352644	6.2203474	2.4940624
4.075828002043927	6.2880135	2.5075912
4.0933658892445814	6.1547055	2.4808679
4.110903872366966	6.0624332	2.4622009
4.128441951823468	5.9625306	2.4418294
4.145980128026488	6.0719385	2.4641304
4.163518401388452	6.0859566	2.466973
4.181056772321807	6.0345497	2.456532
4.1985952412390155	6.0181904	2.4532
4.216133808552567	6.0343204	2.4564853
4.233672474674966	6.044532	2.4585629
4.251211240018741	6.241393	2.4982781
4.268750104996445	6.469121	2.5434468
4.286289070020643	7.4219785	2.724331
4.303828135503928	9.111865	3.0185866
4.3213673018589125	29.42833	5.4247885
4.3389065694982305	90.563354	9.516478
4.356445938834537	165.54774	12.866536
4.3739854102805085	170.84827	13.070894
4.391524984248844	171.85446	13.109327
4.409064661152262	136.17291	11.669315
4.426604441403504	96.60923	9.8289995
4.444144325415337	75.778595	8.7050905
4.461684313600543	21.608303	4.6484733
4.47922440637193	22.09444	4.7004724
4.496764604142329	20.274101	4.502677
4.5143049073245916	18.41232	4.290958
4.531845316331589	16.277885	4.034586
4.5493858315762195	13.291278	3.6457205
4.566926453471405	11.175832	3.3430274
4.584467182430081	9.232107	3.0384383
4.602008018865218	8.074266	2.8415253
4.619548963189798	7.3723083	2.7151995
4.637090015816834	6.7834983	2.604515
4.654631177159353	6.622416	2.5734055
4.672172447630417	6.3751287	2.5249016
4.689713827643102	6.2947836	2.5089407
4.7072553176105085	6.073432	2.4644334
4.724796917945764	5.927055	2.4345543
4.742338629062015	5.765897	2.4012282
4.759880451372434	5.6689253	2.3809505
4.777422385290215	5.6497903	2.3769288
4.794964431228581	5.6630535	2.379717
4.812506589600768	5.668651	2.380893
4.830048860820047	5.632	2.3731835
4.847591245299709	5.537438	2.353176
4.8651337434530655	5.505951	2.3464763
4.882676355693457	5.497579	2.3446918
4.900219082434242	5.5408335	2.3538976
4.917761924088813	5.5188785	2.3492293
4.935304881070575	5.497421	2.344658
4.952847953792969	5.46631	2.3380141
4.970391142669449	5.4717536	2.339178
4.9879344481135055	5.4427905	2.332979
5.005477870538642	5.41153	2.3262696
5.023021410358394	5.408294	2.325574
5.040565067986324	5.4124136	2.3264594
5.05810884383601	5.4498315	2.3344874
5.075652738321066	5.461365	2.3369565
5.09319675185512	5.411854	2.3263392
5.110740884851836	5.2899246	2.2999835
5.128285137724894	5.25958	2.2933774
5.145829510888007	5.2102246	2.2825916
5.163374004754908	5.2099485	2.2825313
5.1809186197393595	5.235471	2.288115
5.198463356255145	5.149898	2.2693386
5.216008214716077	5.1522036	2.2698467
5.233553195535998	5.1424994	2.267708
5.251098299128764	5.1733866	2.274508
5.268643525908272	5.1996007	2.2802632
5.286188876288432	5.197586	2.2798214
5.3037343506831895	5.161507	2.2718952
5.32127994950651	5.136321	2.2663453
5.3388256731723915	5.1275635	2.2644124
5.356371522094851	5.0987973	2.2580516
5.373917496687938	5.053729	2.24805
5.391463597365729	5.1232195	2.263453
5.40900982454232	5.156694	2.2708354
5.426556178631843	5.1534033	2.2701108
5.444102660048449	5.0998607	2.2582872
5.4616492692063225	5.09077	2.2562735
5.479196006519669	5.1467032	2.2686346
5.496742872402727	5.113411	2.2612853
5.514289867269756	5.1378417	2.2666807
5.531836991535049	5.099499	2.258207
5.549384245612924	5.1285033	2.2646198
5.566931629917724	5.1632686	2.2722826
5.584479144863822	5.1680303	2.2733302
5.6020267908656205	5.096676	2.257582
5.619574568337545	4.974122	2.230274
5.637122477694054	4.901951	2.214035
5.654670519349629	4.929891	2.2203357
5.672218693718784	4.9803777	2.2316759
5.689767001216059	5.058752	2.249167
5.707315442256021	5.082425	2.2544234
5.724864017253266	5.0809417	2.2540944
5.7424127266224225	5.134531	2.2659504
5.75996157077814	5.14343	2.267913
5.777510550135105	5.158501	2.2712333
5.795059665108022	5.1466856	2.2686307
5.812608916111639	5.1807017	2.2761154
5.830158303560715	5.273624	2.2964373
5.847707827870055	5.317169	2.3058987
5.86525748945448	5.3581605	2.31477
5.8828072887288485	5.4700212	2.3388076
5.900357226108044	5.5055327	2.3463871
5.917907302006979	5.55139	2.356139
5.9354575168406	6.0683546	2.463403
5.9530078710238765	6.6165333	2.5722623
5.970558364971812	7.1599317	2.6758049
5.988108999099438	7.4843698	2.7357576
6.005659773821818	8.102177	2.8464322
6.023210689554039	7.880361	2.807198
6.040761746711227	8.324134	2.8851576
6.058312945708531	7.691122	2.7732873
6.075864286961132	7.2171392	2.6864734
6.093415770884244	6.495423	2.5486119
6.1109673978931065	5.9913645	2.4477265
6.128519168402993	5.398062	2.323373
6.146071082829204	5.2734494	2.296399
6.163623141587075	5.1460114	2.2684822
6.181175345091969	5.1055984	2.2595572
6.198727693759281	5.112295	2.2610385
6.216280188004435	5.174346	2.2747188
6.233832828242885	5.1262946	2.2641323
6.251385614890126	5.1173525	2.2621565
6.268938548361669	5.0516224	2.2475815
6.286491629073067	5.022235	2.2410343
6.304044857439898	5.0913982	2.2564127
6.321598233877777	5.0205746	2.2406638
6.339151758802344	5.022064	2.2409964
6.356705432629277	4.977073	2.2309356
6.37425925577428	4.881061	2.2093124
6.391813228653095	4.8629785	2.2052162
6.409367351681486	4.902116	2.2140722
6.426921625275259	4.968816	2.229084
6.44447604985025	4.9243817	2.2190948
6.46203062582232	4.8948855	2.2124388
6.47958535360737	4.862724	2.2051585
6.497140233621328	4.8749094	2.2079196
6.514695266280161	4.9342194	2.2213104
6.532250451999859	5.045761	2.246277
6.549805791196454	5.097593	2.2577848
6.567361284286002	5.0492516	2.2470539
6.584916931684597	5.0133877	2.2390594
6.602472733808367	4.95827	2.2267172
6.6200286910734665	4.9455657	2.223863
6.637584803896092	4.898029	2.213149
6.655141072692462	4.844784	2.201087
6.672697497878842	4.856498	2.2037463
6.690254079871514	4.9006658	2.2137446
6.707810819086808	4.9873834	2.2332451
6.725367715941078	4.9657187	2.2283893
6.742924770850719	4.9251976	2.2192786
6.760481984232151	4.9094615	2.2157304
6.778039356501836	4.8937116	2.2121735
6.795596888076266	4.944333	2.2235856
6.813154579371963	4.941701	2.2229936
6.830712430805492	4.944986	2.2237325
6.84827044279344	4.9155536	2.2171047
6.865828615752445	4.9419208	2.2230432
6.883386950099159	4.964341	2.22808
6.900945446250287	4.974113	2.230272
6.918504104622553	5.0367684	2.2442746
6.936062925632727	5.053879	2.2480834
6.953621909697607	5.0017757	2.236465
6.971181057234028	4.987019	2.2331634
6.988740368658859	4.9719534	2.2297878
7.006299844389007	5.054737	2.2482743
7.023859484841407	5.1132445	2.2612484
7.041419290433036	5.206947	2.2818735
7.058979261580902	5.355803	2.3142607
7.0765393987020495	5.5758643	2.3613267
7.094099702213559	5.9621515	2.4417517
7.111660172532549	6.3057985	2.5111349
7.129220810076164	6.6255546	2.5740154
7.146781615261595	7.128119	2.6698537
7.16434258850606	7.342384	2.7096834
7.181903730226821	7.8186226	2.79618
7.1994650408411704	7.976498	2.8242695
7.217026520766437	8.108394	2.8475242
7.234588170419983	8.245303	2.8714635
7.252149990219215	8.2300005	2.8687978
7.269711980581568	8.063698	2.8396652
7.2872741419245175	7.958424	2.8210678
7.304836474665574	7.60772	2.7582095
7.322398979222286	7.399655	2.7202306
7.339961656012233	7.1610637	2.6760163
7.357524505453039	6.7612014	2.600231
7.375087527962357	6.4146585	2.5327177
7.392650723957886	6.106432	2.4711196
7.410214093857353	5.7505174	2.3980236
7.427777638078528	5.5402303	2.3537693
7.445341357039213	5.380471	2.3195844
7.4629052511572525	5.275233	2.2967875
7.480469320850524	5.2616606	2.2938309
7.498033566536948	5.1905375	2.278275
7.5155979886344735	5.1367855	2.2664478
7.5331625875610975	5.115369	2.261718
7.550727363734844	5.1287665	2.264678
7.568292317573788	5.113012	2.261197
7.585857449496025	5.0345984	2.243791
7.603422759919705	5.024045	2.2414382
7.620988249263007	5.0219083	2.2409616
7.638553917944147	5.0911775	2.2563639
7.656119766381391	5.1483326	2.2689939
7.673685794993023	5.177754	2.2754679
7.691252004197388	5.1692257	2.2735932
7.70881839441285	5.0884495	2.2557592
7.726384966057826	5.1815414	2.2763
7.743951719550762	5.2040677	2.2812426
7.761518655310149	5.244185	2.2900186
7.779085773754511	5.170516	2.273877
7.796653075302419	5.148474	2.2690248
7.814220560372475	5.10953	2.260427
7.831788229383323	5.1265945	2.2641985
7.8493560827536495	5.1711903	2.2740252
7.866924120902174	5.2072816	2.281947
7.884492344247663	5.2310095	2.2871401
7.9020607532089135	5.2773895	2.297257
7.919629348204771	5.276856	2.2971408
7.937198129654115	5.295772	2.3012545
7.954767097975865	5.2659874	2.2947738
7.972336253588986	5.233748	2.2877386
7.989905596912472	5.1899867	2.2781541
8.007475128365371	5.2106256	2.2826796
8.025044848366756	5.31749	2.3059683
8.042614757335754	5.478539	2.340628
8.060184855691523	5.58923	2.3641553
8.07775514385327	5.702979	2.388091
8.095325622240228	5.6887455	2.3851092
8.112896291271687	5.71054	2.3896735
8.130467151366968	5.7458854	2.3970575
8.148038202945436	5.7538238	2.3987129
8.165609446426497	5.73455	2.394692
8.183180882229594	5.7246766	2.3926296
8.200752510774217	5.7379556	2.395403
8.218324332479893	5.8452935	2.417704
8.235896347766193	5.86789	2.4223728
8.253468557052724	5.921096	2.4333303
8.27104096075914	5.9477677	2.4388046
8.288613559305137	5.9521713	2.4397073
8.306186353110448	6.008239	2.451171
8.32375934259485	6.0700536	2.463748
8.341332528178162	6.1258516	2.4750457
8.358905910280246	6.205636	2.4911115
8.376479489321003	6.21297	2.492583
8.394053265720377	6.264537	2.5029056
8.411627239898356	6.2050414	2.490992
8.42920141227497	6.244045	2.4988086
8.44677578327029	6.214085	2.4928067
8.464350353304427	6.1480107	2.4795182
8.48192512279754	6.077975	2.465355
8.499500092169827	6.0358596	2.4567986
8.51707526184153	6.050452	2.4597666
8.534650632232934	6.0708265	2.4639046
8.552226203764365	6.0379343	2.4572208
8.569801976856192	6.0235224	2.4542866
8.587377951928834	6.0580525	2.461311
8.60495412940274	6.127222	2.4753227
8.622530509698416	6.1525197	2.4804273
8.6401070932364	6.2444744	2.4988947
8.657683880437283	6.3636484	2.5226274
8.675260871721695	6.520105	2.5534496
8.692838067510303	6.705342	2.5894675
8.710415468223834	6.8983846	2.6264775
8.727993074283043	7.033132	2.6520052
8.745570886108737	7.059735	2.657016
8.763148904121765	7.1375628	2.6716218
8.78072712874302	7.092025	2.6630855
8.798305560393441	7.3164797	2.7048993
8.815884199494006	7.3727407	2.715279
8.833463046465745	7.591882	2.755337
8.851042101729728	7.6921883	2.7734795
8.86862136570707	8.057013	2.8384876
8.886200838818924	8.1991005	2.8634071
8.903780521486505	8.277611	2.8770838
8.921360414131055	8.379837	2.8947947
8.938940517173874	8.521151	2.919101
8.956520831036297	8.610712	2.9344015
8.97410135613971	8.836435	2.9726143
8.99168209290554	9.043875	3.0073035
9.009263041755265	9.435349	3.0717013
9.026844203110405	9.649862	3.1064227
9.044425577392525	9.781736	3.1275768
9.062007165023239	9.857485	3.1396632
9.079588966424197	10.022529	3.1658378
9.097170982017108	10.119331	3.1810896
9.11475321222372	11.107763	3.3328311
9.132335657465825	12.086315	3.4765377
9.149918318165264	12.151515	3.4859023
9.167501194743924	12.746774	3.5702624
9.18508428762374	12.429983	3.525618
9.202667597226693	12.401968	3.5216427
9.220251123974803	11.987364	3.4622772
9.237834868290143	11.642241	3.4120727
9.255418830594836	11.409807	3.3778405
9.273003011311046	10.931949	3.3063498
9.290587410860985	10.797728	3.2859895
9.308172029666911	10.263536	3.2036755
9.32575686815113	10.046384	3.169603
9.343341926735997	8.727132	2.954172
9.360927205843916	8.430054	2.9034555
9.378512705897327	8.1992655	2.863436
9.396098427318728	7.9383645	2.8175104
9.413684370530664	7.8498216	2.8017533
9.431270535955722	7.774421	2.788265
9.448856924016539	7.725597	2.7794957
9.466443535135806	7.6412606	2.764283
9.484030369736251	7.644479	2.7648652
9.501617428240658	7.628777	2.7620242
9.519204711071852	7.5559397	2.748807
9.536792218652714	7.560566	2.7496483
9.55437995140617	7.584152	2.753934
9.571967909755191	7.630841	2.7623978
9.589556094122802	7.6598387	2.7676413
9.60714450493207	7.6982293	2.7745683
9.624733142606116	7.7668834	2.786913
9.642322007568108	7.878464	2.8068602
9.659911100241267	7.9363728	2.8171568
9.677500421048851	7.970809	2.8232622
9.695089970414175	8.045967	2.8365414
9.712679748760609	8.078528	2.8422751
9.730269756511557	8.074148	2.8415046
9.747859994090492	8.070166	2.8408036
9.765450461920915	8.081028	2.8427148
9.78304116042639	8.093463	2.8449013
9.800632090030527	8.068713	2.840548
9.81822325115699	8.100569	2.84615
9.835814644229481	8.1968355	2.8630116
9.853406269671762	8.225309	2.86798
9.870998127907646	8.22962	2.8687315
9.888590219360985	8.138406	2.8527892
9.906182544455698	8.093986	2.844993
9.923775103615734	8.082832	2.8430324
9.941367897265108	8.133628	2.8519516
9.958960925827878	8.166077	2.8576348
9.97655418972816	8.152748	2.8553019
9.994147689390106	8.156921	2.8560324
10.011741425237934	8.137206	2.8525789
10.029335397695904	8.170654	2.8584356
10.04692960718833	8.122179	2.8499436
10.06452405413958	8.158662	2.856337
10.082118738974064	8.138201	2.8527532
10.099713662116246	8.137688	2.8526633
10.117308823990651	8.058594	2.8387663
10.134904225021844	8.054574	2.8380582
10.152499865634445	8.030047	2.8337338
10.170095746253125	8.064663	2.839835
10.18769186730261	8.072998	2.8413022
10.205288229207675	8.053141	2.8378055
10.222884832393145	8.097601	2.8456285
10.2404816772839	8.02494	2.8328323
10.258078764304868	7.990731	2.826788
10.275676093881035	7.915699	2.8134851
10.293273666437438	7.858295	2.803265
10.310871482399158	7.9542885	2.820335
10.32846954219134	8.007406	2.829736
10.346067846239173	8.094014	2.8449981
10.363666394967908	8.076707	2.8419547
10.38126518880283	8.076565	2.8419297
10.398864228169298	8.053346	2.8378417
10.416463513492713	8.124561	2.8503616
10.434063045198531	8.080816	2.8426776
10.451662823712262	8.060727	2.839142
10.469262849459467	8.078082	2.8421967
10.486863122865758	8.008486	2.8299267
10.504463644356806	8.049778	2.837213
10.522064414358338	7.9573455	2.8208768
10.539665433296118	7.8618145	2.8038929
10.557266701595987	7.737899	2.781708
10.574868219683818	7.690329	2.7731442
10.592469987985552	7.5708737	2.751522
10.610072006927185	7.4690566	2.7329576
10.627674276934751	7.381873	2.7169602
10.64527679843435	7.291521	2.7002816
10.662879571852143	7.240639	2.6908436
10.680482597614331	7.1560154	2.675073
10.698085876147173	7.0119066	2.6480005
10.715689407876988	6.913123	2.6292818
10.733293193230146	6.820072	2.6115267
10.750897232633072	6.760667	2.6001282
10.76850152651225	6.6392837	2.5766807
10.786106075294207	6.5342135	2.5562108
10.803710879405534	6.378391	2.5255475
10.821315939272877	6.3130703	2.5125823
10.83892125532294	6.262587	2.502516
10.856526827982472	6.157065	2.4813433
10.874132657678285	6.1311316	2.4761121
10.891738744837243	6.14944	2.4798064
10.909345089886271	6.1266665	2.4752104
10.926951693252343	6.015338	2.4526186
10.944558555362494	5.9278297	2.4347134
10.96216567664381	5.8480506	2.4182744
10.979773057523436	5.8078885	2.4099562
10.997380698428573	5.731951	2.3941493
11.014988599786477	5.682344	2.3837667
11.032596762024461	5.667442	2.380639
11.050205185569892	5.633354	2.3734689
11.067813870850198	5.5713573	2.3603723
11.085422818292859	5.476254	2.3401396
11.10303202832541	5.3454003	2.3120122
11.120641501375454	5.244609	2.290111
11.138251237870636	5.2135053	2.2833102
11.155861238238671	5.3165874	2.3057725
11.173471502907317	5.3108335	2.3045247
11.191082032304402	5.211661	2.2829063
11.208692826857805	5.0720286	2.2521164
11.226303886995465	4.973654	2.230169
11.243915213145371	4.902504	2.21416
11.261526805735578	4.882206	2.2095714
11.279138665194196	4.867945	2.206342
11.296750791949393	4.8663177	2.2059731
11.314363186429393	4.7876897	2.1880789
11.331975849062479	4.695973	2.1670194
11.34958878027699	4.6493745	2.156241
11.36720198050133	4.606229	2.1462126
11.384815450163948	4.563365	2.1362033
11.402429189693366	4.48663	2.1181667
11.420043199518153	4.429083	2.1045387
11.437657480066942	63.392487	7.96194
11.455272031768422	85.111855	9.225609
11.472886855051353	107.50363	10.368396
11.490501950344528	99.09793	9.954794
11.508117318076819	84.453705	9.18987
11.52573295867715	45.81904	6.768976
11.543348872574514	4.095656	2.0237727
11.560965060197946	4.0488935	2.0121863
11.57858152197655	4.0209413	2.0052285
11.59619825833949	3.9719212	1.992968
11.613815269715985	3.9404795	1.9850641
11.631432556535323	38.437683	6.1998134
11.649050119226837	82.93498	9.106865
11.666667958219929	93.34921	9.661739
11.68428607394406	107.58068	10.37211
11.701904466828756	82.43681	9.079473
11.719523137303586	65.303986	8.081088
11.737142085798196	4.540654	2.130881
11.754761312742286	3.654949	1.911792
11.772380818565619	3.5990105	1.8971058
11.790000603698015	3.5784996	1.8916923
11.80762066856935	3.5552418	1.8855349
11.825241013609572	3.5098224	1.873452
11.842861639248683	3.439937	1.8547068
11.860482545916748	3.4233172	1.8502208
11.878103734043883	3.4420607	1.8552791
11.895725204060282	3.410976	1.8468828
11.91334695639619	3.3409965	1.8278393
11.930968991481919	3.3191864	1.8218634
11.948591309747824	3.2992063	1.8163717
11.966213911624347	3.3106449	1.8195177
11.98383679754198	3.261957	1.8060888
12.001459967931268	3.3005497	1.8167415
12.019083423222835	3.2807114	1.8112735
12.036707163847352	3.2225065	1.7951341
12.05433119023556	3.1497846	1.7747632
12.071955502818259	3.1273541	1.7684327
12.089580102026313	3.1367643	1.7710912
12.107204988290643	3.1313803	1.7695707
12.12483016204224	3.154917	1.7762086
12.142455623712152	3.124691	1.7676796
12.16008137373149	3.1280334	1.7686247
12.177707412531431	3.0898938	1.7578094
12.19533374054321	3.050325	1.7465179
12.212960358198126	3.0283203	1.740207
12.230587265927545	3.009365	1.7347522
12.248214464162889	3.0090928	1.7346737
12.265841953335649	2.9959087	1.7308694
12.283469733877375	2.97885	1.7259345
12.301097806219685	2.9764812	1.7252481
12.31872617079425	2.9680824	1.7228124
12.336354828032825	2.9182804	1.7082975
12.353983778367205	2.8913329	1.700392
12.371613022229262	2.8765416	1.696037
12.389242560050928	2.8467376	1.6872278
12.406872392264201	2.8367956	1.684279
12.424502519301143	2.8215652	1.6797515
12.442132941593874	2.829424	1.6820891
12.459763659574586	2.8006687	1.6735198
12.477394673675532	2.782648	1.6681271
12.49502598432903	2.782339	1.6680346
12.51265759196746	2.7863994	1.6692511
12.530289497023267	2.7644968	1.6626776
12.547921699928967	2.7428143	1.6561444
12.565554201117134	2.7768266	1.6663812
12.583187001020404	2.7905264	1.6704869
12.600820100071486	2.7964907	1.6722711
12.618453498703152	2.745003	1.656805
12.636087197348235	2.7126322	1.647007
12.65372119643964	2.7033875	1.6441982
12.671355496410326	2.7501001	1.6583426
12.68899009769333	2.7853427	1.6689346
12.706625000721749	2.8284006	1.681785
12.724260205928752	2.847973	1.6875939
12.741895713747551	2.87329	1.6950781
12.759531524611454	2.8944705	1.7013143
12.777167638953818	2.8628774	1.692004
12.794804057208072	2.8612258	1.6915158
12.812440779807702	2.9200509	1.7088156
12.830077807186271	3.0908768	1.758089
12.847715139777405	3.1391459	1.7717634
12.865352778014795	3.3831737	1.8393406
12.882990722332197	3.5495112	1.8840146
12.90062897316344	3.6430938	1.908689
12.918267530942412	3.6999927	1.9235365
12.935906396103071	3.5604455	1.8869143
12.953545569079449	3.7073188	1.9254398
12.971185050305628	3.515788	1.8750435
12.988824840215775	3.5483263	1.8837001
13.006464939244115	3.5566123	1.8858982
13.024105347824943	3.3994362	1.843756
13.041746066392617	3.4490802	1.85717
13.05938709538157	3.2450137	1.8013922
13.077028435226296	3.2445621	1.8012668
13.094670086361363	3.1840103	1.7843795
13.112312049221401	3.0783029	1.7545093
13.129954324241112	3.0184002	1.7373544
13.147596911855258	2.8346014	1.6836275
13.165239812498685	2.8424282	1.6859503
13.182883026606293	2.7902253	1.6703967
13.200526554613058	2.7000828	1.6431929
13.218170396954017	2.6323037	1.6224376
13.235814554064284	2.6323717	1.6224586
13.253459026379034	2.650543	1.6280488
13.271103814333523	2.6273737	1.6209176
13.288748918363058	2.6024318	1.6132054
13.306394338903031	2.6140409	1.6167996
13.32404007638889	2.6232774	1.6196535
13.341686131256164	2.634425	1.6230912
13.359332503940449	2.602184	1.6131287
13.376979194877402	2.6089313	1.6152186
13.394626204502751	2.627598	1.6209867
13.412273533252307	2.64874	1.627495
13.429921181561937	2.6782048	1.6365222
13.447569149867581	2.7147198	1.6476407
13.465217438605247	2.7401047	1.6553261
13.482866048211022	2.7363608	1.654195
13.500514979121052	2.6852727	1.6386802
13.518164231771568	2.6345074	1.6231166
13.535813806598844	2.60838	1.615048
13.553463704039254	2.6170483	1.6177293
13.571113924529229	2.6102343	1.6156219
13.588764468505275	2.6238694	1.6198362
13.606415336403956	2.650048	1.6278968
13.624066528661917	2.6954553	1.6417842
13.641718045715882	2.761528	1.6617845
13.659369888002635	2.8111835	1.6766584
13.67702205595903	2.859	1.6908578
13.694674550021993	2.925836	1.7105075
13.712327370628532	2.9912126	1.7295122
13.729980518215713	3.095395	1.7593735
13.747633993220681	3.1769152	1.7823902
13.765287796080647	3.205922	1.7905089
13.7829419272329	3.24344	1.8009553
13.800596387114801	3.2706418	1.8084916
13.818251176163775	3.3236606	1.8230909
13.835906294817324	3.3886025	1.8408157
13.853561743513023	3.4297	1.8519449
13.871217522688525	3.446957	1.8565983
13.888873632781538	3.4372015	1.8539691
13.906530074229858	3.490362	1.8682511
13.92418684747135	3.4721954	1.8633828
13.941843952943948	3.4893866	1.86799
13.959501391085665	3.4600418	1.8601187
13.977159162334578	3.406816	1.8457562
13.994817267128846	3.354016	1.8313973
14.012475705906693	3.2914503	1.8142354
14.030134479106424	3.2618787	1.8060672
14.047793587166414	3.1939037	1.7871495
14.065453030525108	3.0967686	1.7597638
14.083112809621026	2.977425	1.7255217
14.100772924892766	2.8810716	1.697372
14.118433376778997	2.8156347	1.6779853
14.136094165718458	2.7771025	1.6664641
14.153755292149969	2.7448034	1.6567448
14.171416756512416	2.6982903	1.6426474
14.189078559244768	2.6448991	1.6263146
14.20674070078606	2.55004	1.5968845
14.224403181575408	2.4828825	1.5757165
14.242066002051999	2.4172757	1.554759
14.259729162655093	2.4123337	1.5531689
14.277392663824022	2.3885245	1.5454853
14.295056505998208	2.3713543	1.5399202
14.312720689617128	2.3560064	1.5349288
14.330385215120348	2.3628354	1.5371517
14.348050082947497	2.3751676	1.5411578
14.3657152935383	2.3756003	1.5412983
14.383380847332528	2.3586466	1.5357887
14.401046744770051	2.3604622	1.5363796
14.418712986290798	2.3841977	1.5440848
14.436379572334793	2.3919566	1.5465951
14.454046503342123	2.383296	1.5437927
14.471713779752946	2.381012	1.5430528
14.489381402007504	2.3880627	1.5453358
14.507049370546113	2.3750012	1.5411038
14.524717685809168	2.366597	1.5383748
14.542386348237134	2.3674679	1.5386578
14.560055358270553	2.3821678	1.5434273
14.577724716350051	2.40142	1.5496516
14.595394422916325	2.416825	1.5546141
14.61306447841015	2.4320214	1.5594939
14.63073488327237	2.4426265	1.5628904
14.648405637943917	2.4505715	1.5654302
14.6660767428658	2.4387853	1.5616611
14.683748198479094	2.4608092	1.5686966
14.701420005224954	2.5083427	1.5837748
14.719092163544628	2.5883982	1.60885
14.73676467387942	2.6824205	1.6378096
14.754437536670727	2.7269802	1.651357
14.772110752360014	2.7337527	1.6534064
14.78978432138882	2.697396	1.6423751
14.807458244198777	2.6871862	1.639264
14.82513252123159	2.6177435	1.6179442
14.842807152929028	2.6553824	1.6295344
14.860482139732962	2.617781	1.6179558
14.87815748208531	2.618358	1.618134
14.8958331804281	2.6469862	1.6269561
14.91350923520342	2.624793	1.6201214
14.931185646853438	2.6676404	1.6332912
14.948862415820408	2.6496418	1.627772
14.966539542546656	2.6849685	1.6385874
14.98421702747459	2.6799593	1.6370581
15.001894871046696	2.7157052	1.6479397
15.019573073705542	2.690465	1.6402637
15.037251635893766	2.610298	1.6156416
15.054930558054092	2.5597074	1.5999086
15.072609840629323	2.608742	1.6151601
15.090289484062351	2.7702253	1.6643994
15.107969488796124	2.9631147	1.72137
15.125649855273691	3.118821	1.7660184
15.14333058393817	3.4567356	1.8592298
15.161011675232768	3.9835498	1.9958832
15.17869312960076	4.671212	2.1612988
15.196374947485506	5.370546	2.3174438
15.214057129330447	6.7318225	2.5945756
15.231739675579114	8.848367	2.9746203
15.249422586675102	13.427141	3.6643064
15.267105863062092	17.870554	4.227358
15.284789505183847	25.113396	5.011327
15.302473513484218	30.161497	5.4919486
15.320157888407127	34.490963	5.872901
15.337842630396578	33.317734	5.7721515
15.355527739896656	30.240389	5.499126
15.37321321735153	23.394768	4.836814
15.39089906320545	15.85563	3.9819129
15.408585277902748	10.131583	3.1830149
15.42627186188783	6.240221	2.4980435
15.443958815605198	4.5146036	2.1247597
15.461646139499424	3.781524	1.944614
15.479333834015168	3.384098	1.8395919
15.497021899597165	3.0529385	1.747266
15.514710336690234	2.7794185	1.6671588
15.53239914573928	2.6189206	1.618308
15.550088327189297	2.519132	1.5871774
15.567777881485336	2.5125368	1.5850984
15.58546780907256	2.5132015	1.585308
15.6031581103962	2.5482662	1.596329
15.620848785901568	2.5430126	1.5946826
15.638539836034063	2.5475805	1.5961142
15.656231261239173	2.5256512	1.5892297
15.673923061962451	2.5385387	1.5932792
15.691615238649552	2.5214016	1.5878922
15.709307791746202	2.4685128	1.5711502
15.727000721698221	2.4232695	1.5566854
15.744694028951498	2.3904393	1.5461046
15.76238771395202	2.3782556	1.5421594
15.780081777145844	2.3932033	1.5469981
15.797776218979125	2.410816	1.5526803
15.815471039898094	2.4471989	1.5643525
15.833166240349064	2.4212918	1.5560501
15.850861820778437	2.3749633	1.5410916
15.868557781632699	2.3795795	1.5425886
15.886254123358412	2.405136	1.5508502
15.903950846402232	2.435538	1.560621
15.921647951210897	2.445607	1.5638436
15.939345438231225	2.465939	1.5703309
15.957043307910133	2.5049126	1.5826916
15.974741560694602	2.5083601	1.5837803
15.992440197031714	2.5073555	1.5834631
16.01013921736862	2.4834533	1.5758976
16.02783862215259	2.4880166	1.5773448
16.045538411830933	2.4638436	1.5696635
16.06323858685107	2.4475033	1.5644499
16.080939147660512	2.397168	1.548279
16.09864009470684	2.3591383	1.5359486
16.11634142843774	2.3429585	1.5306726
16.134043149300954	2.3962173	1.547972
16.15174525774433	2.433184	1.5598667
16.169447754215817	2.4455707	1.563832
16.18715063916342	2.4275444	1.5580579
16.204853913035244	2.415665	1.554241
16.222557576279478	2.4262805	1.5576522
16.240261629344403	22.42241	4.7352304
16.257966072678386	42.956726	6.554138
16.275670906729868	38.065437	6.169719
16.293376131947387	2.5114279	1.5847485
16.31108174877957	2.5411558	1.5941004
16.328787757675133	2.541111	1.5940863
16.34649415908287	2.5227075	1.5883033
16.364200953451657	2.5678296	1.6024449
16.38190814123048	2.5994847	1.6122917
16.39961572286839	2.6553807	1.6295339
16.41732369881455	2.6811073	1.6374087
16.43503206951817	2.7104948	1.646358
16.45274083542859	2.737695	1.6545981
16.47044999699522	2.7496223	1.6581985
16.488159554667558	2.7508824	1.6585784
16.505869508895184	2.7561398	1.6601626
16.523579860127786	2.7751575	1.6658804
16.541290608815117	2.876757	1.6961005
16.559001755407035	3.0179245	1.7372174
16.57671330035348	3.1510773	1.7751274
16.59442524410448	3.2512891	1.8031331
16.61213758711015	3.3785267	1.838077
16.629850329820705	3.4244614	1.85053
16.647563472686436	3.4663348	1.8618096
16.665277016157724	3.4464903	1.8564725
16.682990960685053	3.450482	1.8575473
16.70070530671898	3.4500446	1.8574296
16.718420054710155	3.4581466	1.8596092
16.736135205109335	3.5170405	1.8753774
16.753850758367335	3.5630221	1.887597
16.771566714935087	3.6212869	1.9029679
16.789283075263597	3.6473475	1.909803
16.80699983980398	3.7191575	1.9285117
16.82471700900741	3.7655902	1.9405129
16.84243458332518	3.8499358	1.9621253
16.860152563208665	3.909625	1.9772772
16.87787094910932	3.9530067	1.988217
16.89558974147871	4.0387588	2.0096664
16.913308940768466	4.1399803	2.0346942
16.931028547430333	4.2546153	2.062672
16.94874856191613	4.272242	2.0669403
16.966468984677785	4.2826476	2.0694559
16.98418981616729	4.279641	2.0687294
17.00191105683676	4.2910457	2.0714839
17.019632707138374	4.3374696	2.0826592
17.03735476752442	4.4395466	2.1070232
17.05507723844728	4.511477	2.1240237
17.072800120359403	4.592544	2.1430223
17.090523413713353	4.64714	2.1557226
17.108247118961785	4.6631546	2.1594338
17.125971236557437	4.648187	2.1559656
17.143695766953133	4.6616597	2.1590877
17.161420710601806	4.7056413	2.169249
17.179146067956477	4.763051	2.1824415
17.19687183947025	4.7283773	2.1744833
17.21459802559634	4.653	2.1570814
17.232324626788028	4.6087008	2.1467884
17.25005164349871	4.621128	2.1496809
17.267779076181863	4.6557612	2.1577213
17.285506925291074	4.5911384	2.1426942
17.30323519127999	4.516969	2.1253161
17.320963874602384	4.4867024	2.1181839
17.33869297571211	4.4836583	2.117465
17.356422495063114	4.4492936	2.109335
17.37415243310944	4.4186234	2.1020522
17.391882790305218	4.399358	2.0974646
17.40961356710468	4.4088116	2.0997171
17.42734476396215	4.5273714	2.127762
17.445076381332044	4.610443	2.1471941
17.462808419668868	4.6241665	2.1503875
17.48054087942723	4.7014327	2.1682787
17.498273761061835	4.814778	2.1942601
17.51600706502747	5.148158	2.2689552
17.533740791779024	5.7488647	2.397679
17.551474941771485	6.6467338	2.578126
17.56920951545993	8.664035	2.9434733
17.586944513299528	9.988657	3.1604836
17.60467993574556	12.987211	3.6037774
17.622415783253373	15.731197	3.9662573
17.64015205627843	18.406673	4.2903
17.657888755276293	20.642948	4.5434513
17.675625880702604	22.117802	4.7029567
17.69336343301311	20.66766	4.5461698
17.71110141266366	18.489782	4.299975
17.728839820110178	15.687505	3.9607456
17.746578655808705	12.489077	3.5339887
17.764317920215372	10.324444	3.2131672
17.7820576137864	8.5673275	2.9269998
17.79979773697811	7.233214	2.6894636
17.81753829024692	5.9587684	2.4410589
17.835279274049356	5.148871	2.2691123
17.85302068884201	4.4418516	2.1075702
17.870762535081607	4.1017213	2.0252707
17.888504813224934	3.8620744	1.9652162
17.90624752372891	3.7081554	1.9256572
17.923990667050536	3.607056	1.8992251
17.941734243646895	3.501456	1.8712178
17.959478253975185	3.4226837	1.8500496
17.9772226984927	3.4042735	1.8450674
17.994967577656833	3.416665	1.8484223
18.01271289192506	3.3936481	1.8421857
18.030458641754965	3.354438	1.8315125
18.04820482760425	3.255318	1.80425
18.06595144993067	3.2402842	1.800079
18.083698509192125	3.2879431	1.8132687
18.101446005846576	3.3094409	1.8191868
18.119193940352105	3.2715995	1.8087564
18.136942313166887	3.2264755	1.7962393
18.1546911247492	3.2006931	1.7890481
18.1724403755574	3.1518493	1.7753448
18.19019006604997	3.1352713	1.7706697
18.207940196685467	3.117468	1.7656354
18.225690767922575	3.1326616	1.7699326
18.243441780220046	3.1021008	1.7612782
18.261193234036764	3.0622053	1.7499158
18.278945129831676	3.025929	1.7395197
18.29669746806386	2.9961216	1.7309308
18.314450249192483	2.968035	1.7227986
18.3322034736768	2.9628825	1.7213025
18.349957141976184	2.9669921	1.7224959
18.3677112545501	2.964407	1.7217454
18.385465811858108	3.0062964	1.7338675
18.403220814359884	3.0253448	1.7393519
18.420976262515172	3.0441413	1.7447468
18.43873215678387	3.0507314	1.7466344
18.456488497625923	3.0910459	1.758137
18.474245285501407	3.1733215	1.7813818
18.492002520870486	3.2568471	1.8046737
18.50976020419343	3.3506699	1.8304836
18.527518335930615	3.6709094	1.9159617
18.545276916542516	4.285909	2.0702438
18.563035946489688	4.4212804	2.102684
18.580795426232832	4.823279	2.1961966
18.598555356232698	4.680182	2.1633728
18.616315736950185	5.0237694	2.2413766
18.63407656884626	4.6754103	2.1622696
18.65183785238201	4.8341866	2.1986783
18.669599588018617	4.6198883	2.1493926
18.68736177621737	4.6094456	2.146962
18.705124417439652	4.617088	2.148741
18.72288751214696	4.4224544	2.1029632
18.740651060800886	4.560301	2.1354861
18.758415063863115	4.27889	2.0685477
18.77617952179546	4.4466195	2.108701
18.793944435059814	4.211674	2.0522363
18.811709804118184	4.223699	2.055164
18.829475629432675	4.1478825	2.0366352
18.8472419114655	3.8870327	1.971556
18.86500865067897	3.9372203	1.984243
18.88277584753551	3.637394	1.9071953
18.90054350249763	3.683349	1.9192053
18.918311616027957	3.4168956	1.8484846
18.936080188589226	3.2995627	1.8164698
18.953849220644265	3.005629	1.733675
18.971618712656007	2.8355417	1.6839067
18.9893886650875	2.8202472	1.6793592
19.007159078401887	8.014124	2.8309228
19.024929953062408	32.915695	5.7372203
19.042701289532435	32.867435	5.7330127
19.060473088275405	25.39158	5.0390058
19.07824534975489	2.6023338	1.613175
19.096018074434568	2.5677676	1.6024256
19.113791262778197	2.581	1.6065491
19.13156491524966	2.5937026	1.6104976
19.149339032312945	2.586862	1.6083724
19.167113614432136	2.5511317	1.5972263
19.184888662071433	2.5078263	1.5836118
19.202664175695123	2.4857893	1.5766386
19.220440155767623	2.5203035	1.5875463
19.238216602753447	2.553228	1.5978823
19.2559935171172	2.5467563	1.595856
19.27377089932361	2.5401103	1.5937724
19.291548749837514	2.5575202	1.5992248
19.309327069123835	2.5715578	1.6036078
19.32710585764763	2.5445366	1.5951604
19.344885115874032	2.4816818	1.5753355
19.362664844268313	2.4435506	1.563186
19.380445043295822	2.4585888	1.5679888
19.39822571342203	2.4805894	1.5749887
19.41600685511252	2.4816053	1.5753112
19.43378846883297	2.486707	1.5769296
19.451570555049173	2.4376247	1.5612894
19.469353114227037	2.420992	1.5559537
19.48713614683254	2.4284904	1.5583614
19.50491965333182	2.4593992	1.5682472
19.52270363419109	2.4731224	1.5726165
19.540488089876686	2.4593604	1.5682348
19.55827302085503	2.4732695	1.5726632
19.576058427592674	2.510555	1.5844731
19.593844310556282	2.5244484	1.5888513
19.611630670212598	2.4814446	1.5752602
19.629417507028506	2.4652808	1.5701213
19.64720482147098	2.495584	1.5797417
19.6649926140071	2.4772491	1.5739279
19.682780885104084	2.451441	1.5657078
19.70056963522921	2.378057	1.542095
19.718358864849908	2.3782072	1.5421437
19.7361485744337	2.4154472	1.554171
19.753938764448215	2.4862354	1.5767801
19.771729435361202	2.5139432	1.585542
19.789520587640506	2.5419703	1.5943557
19.807312221754092	2.5867174	1.6083275
19.825104338170043	2.5853753	1.6079103
19.842896937356517	2.533681	1.5917541
19.860690019781824	2.4971607	1.5802407
19.87848358591436	2.526949	1.589638
19.896277636222635	2.566032	1.6018839
19.914072171175278	2.5768986	1.6052722
19.931867191241015	2.5127008	1.5851501
19.94966269688869	2.522287	1.5881709
19.967458688587264	2.5144563	1.5857037
19.985255166805807	2.4955904	1.5797437
20.00305213201348	2.4561105	1.5671983
20.020849584679578	2.410118	1.5524555
20.038647525273507	2.3731158	1.540492
20.05644595426477	2.387762	1.5452385
20.07424487212299	2.4367342	1.5610043
20.092044279317903	2.4478638	1.5645651
20.109844176319353	2.4129925	1.553381
20.127644563597304	2.3855104	1.5445098
20.145445441621817	2.4251454	1.5572878
20.16324681086307	2.4186103	1.5551882
20.181048671791373	2.3933723	1.5470527
20.198851024877122	2.382363	1.5434905
20.216653870590836	2.3483937	1.532447
20.234457209403146	2.3191187	1.5228653
20.252261041784802	2.3208535	1.5234348
20.270065368206662	2.3659387	1.5381608
20.287870189139685	2.3733227	1.5405592
20.305675505054968	2.344085	1.5310404
20.323481316423702	2.3302445	1.5265138
20.341287623717207	2.3191586	1.5228784
20.359094427406884	2.3297188	1.5263417
20.376901727964288	2.328542	1.525956
20.39470952586107	2.3161945	1.521905
20.41251782156899	2.2790453	1.5096507
20.430326615559935	2.275341	1.5084233
20.448135908305886	2.3300018	1.5264343
20.465945700278965	2.3723955	1.5402583
20.483755991951384	2.3660243	1.5381886
20.50156678379548	2.3586755	1.535798
20.519378076283708	2.3719196	1.5401038
20.537189869888635	2.3591416	1.5359497
20.55500216508294	2.3141615	1.5212369
20.572814962339415	2.2844515	1.5114402
20.59062826213098	2.313543	1.5210335
20.60844206493066	2.3462682	1.5317533
20.626256371211593	2.3567557	1.5351728
20.644071181447032	2.346146	1.5317135
20.66188649611036	2.3332853	1.5275096
20.67970231567506	2.296977	1.5155782
20.697518640614742	2.2733657	1.5077685
20.715335471403122	2.259544	1.5031779
20.73315280851404	2.2580984	1.502697
20.750970652421447	2.2878761	1.5125726
20.768789003599412	2.302316	1.5173384
20.786607862522136	2.2893212	1.5130503
20.8044272296639	2.2720935	1.5073465
20.82224710549913	2.2653291	1.5051011
20.84006749050237	2.2770727	1.5089972
20.857888385148268	3.8363953	1.9586718
20.8757097899116	45.980503	6.7808924
20.893531705267254	64.81933	8.051045
20.911354131690224	83.78792	9.153574
20.92917706965566	69.02397	8.308066
20.94700051963877	50.081005	7.076793
20.96482448211493	29.37689	5.4200454
20.982648957559622	4.169202	2.0418622
21.00047394644843	2.3170085	1.5221723
21.01829944925707	2.3168	1.5221038
21.036125466461375	2.267047	1.5056716
21.053951998537297	2.2288604	1.4929368
21.071779045960906	2.2160158	1.4886289
21.089606609208378	2.209267	1.4863603
21.10743468875603	2.2286687	1.4928726
21.12526328508028	2.2143514	1.4880697
21.143092398657675	2.2422075	1.4974003
21.16092202996488	2.2216322	1.490514
21.17875217947867	2.1931748	1.4809371
21.19658284767596	2.1679564	1.4723982
21.21441403503377	2.1830163	1.4775034
21.232245742029225	2.1813648	1.4769444
21.2500779691396	2.1963835	1.48202
21.26791071684227	2.2033753	1.4843771
21.28574398561475	2.1904044	1.4800014
21.30357777593465	2.1517806	1.4668949
21.321412088279704	2.118479	1.4554995
21.339246923127792	2.101373	1.4496113
21.357082280956888	2.1290798	1.4591367
21.3749181622451	2.1390178	1.4625381
21.392754567470647	2.1607094	1.4699352
21.41059149711187	2.1853666	1.4782985
21.42842895164726	2.1789799	1.4761368
21.446266931555378	2.105456	1.451019
21.464105437314945	2.0839977	1.4436058
21.481944469404798	2.0756855	1.4407239
21.49978402830388	2.0881934	1.4450582
21.51762411449127	2.0947077	1.4473106
21.53546472844617	2.0972106	1.448175
21.553305870647876	2.0960639	1.4477789
21.571147541575865	2.0758476	1.4407802
21.58898974170967	2.0733922	1.4399278
21.60683247152899	2.0611422	1.4356679
21.62467573151363	2.0491388	1.4314814
21.642519522143523	2.050293	1.4318844
21.660363843898722	2.0576115	1.4344376
21.6782086972594	2.0612838	1.4357172
21.696054082705864	2.0402682	1.4283795
21.713900000718535	2.0298624	1.4247324
21.73174645177795	2.0190487	1.4209323
21.749593436364794	2.0171003	1.4202466
21.767440954959845	2.0183625	1.4206909
21.785289008044032	2.0034041	1.4154166
21.803137596098388	1.9866117	1.4094721
21.820986719604086	1.9946791	1.4123311
21.838836379042412	1.9992542	1.4139498
21.85668657489478	2.0331469	1.4258846
21.87453730764273	2.02987	1.4247351
21.892388577767914	2.0137262	1.4190582
21.91024038575213	1.9751089	1.4053856
21.928092732077285	1.9340103	1.390687
21.945945617225426	1.9330338	1.3903359
21.963799041678694	1.9444767	1.394445
21.981653005919398	31.301182	5.594746
21.999507510429943	78.089836	8.836845
22.01736255569286	73.03888	8.546279
22.035218142190818	4.146852	2.0363822
22.05307427040661	2.0246756	1.4229109
22.07093094082315	2.0124218	1.4185985
22.088788153923474	2.0156264	1.4197276
22.106645910190746	1.9623803	1.4008498
22.12450421010827	1.963722	1.4013287
22.142363054159464	1.9600741	1.4000264
22.16022244282787	2.019602	1.4211271
22.178082376597164	2.0186887	1.4208057
22.195942855951145	1.9946136	1.4123079
22.213803881373742	1.9649693	1.4017736
22.231665453349002	1.9593079	1.3997529
22.24952757236111	1.9560916	1.3986034
22.26739023889438	1.9595814	1.3998505
22.28525345343323	1.9716328	1.4041485
22.30311721646225	1.9817381	1.4077421
22.320981528466113	1.9713343	1.4040421
22.33884638992964	1.9333887	1.3904635
22.356711801337788	1.9447488	1.3945425
22.37457776317561	1.9384862	1.3922954
22.392444275928337	1.9384933	1.3922979
22.410311340081282	1.9155701	1.3840412
22.428178956119904	1.9055728	1.3804249
22.446047124529805	1.89311	1.3759034
22.46391584579669	1.9137797	1.3833942
22.481785120406414	1.9272742	1.388263
22.49965494884496	1.954273	1.3979532
22.51752533159841	1.9411681	1.3932581
22.53539626915302	1.962427	1.4008665
22.553267761995137	1.956627	1.3987949
22.571139810611264	1.9648902	1.4017454
22.589012415488025	1.9636065	1.4012874
22.60688557711216	1.9775082	1.406239
22.624759295970566	1.9837614	1.4084606
22.642633572550263	1.9502697	1.3965206
22.660508407338362	1.9175327	1.38475
22.67838380082217	1.9431444	1.3939672
22.696259753489077	1.9468844	1.395308
22.714136265826614	1.9441212	1.3943175
22.73201333832246	1.9162204	1.3842762
22.74989097146439	1.9360636	1.391425
22.76776916574035	1.9539785	1.3978478
22.785647921638393	1.9420773	1.3935844
22.803527239646712	1.9091341	1.3817142
22.82140712025363	1.8741038	1.3689791
22.839287563947593	1.8865879	1.3735312
22.85716857121719	1.9303523	1.3893712
22.875050142551135	1.9417727	1.393475
22.892932278438277	1.9405581	1.3930391
22.910814979367604	1.9118048	1.3826803
22.928698245828222	1.8920046	1.3755016
22.946582078309387	1.8743334	1.3690629
22.96446647730047	1.8445029	1.3581247
22.98235144329098	1.8446027	1.3581616
23.000236976770562	1.8453246	1.3584273
23.018123078229	1.9071766	1.3810056
23.03600974815619	1.91187	1.3827039
23.053896987042194	1.8784329	1.3705593
23.071784795377173	1.8587086	1.3633447
23.08967317365145	1.8417187	1.3570994
23.10756212235546	1.8583695	1.3632202
23.125451641979787	1.8748492	1.3692514
23.143341733015134	1.9138583	1.3834227
23.161232395952357	1.9163249	1.3843138
23.179123631282426	1.925522	1.3876318
23.197015439496468	1.8843904	1.372731
23.214907821085717	1.85451	1.3618039
23.23280077654157	1.8560922	1.3623848
23.250694306355538	1.8917217	1.3753988
23.268588411019277	1.9185127	1.3851038
23.28648309102458	1.934481	1.3908563
23.304378346863356	1.9350883	1.3910745
23.322274179027676	1.9286058	1.3887426
23.340170588009723	1.9169112	1.3845257
23.358067574301852	1.8833992	1.3723699
23.37596513839651	1.8524988	1.3610653
23.39386328078629	1.8832556	1.3723176
23.411762001963947	1.9302195	1.3893234
23.429661302422353	1.9678344	1.4027952
23.4475611826545	1.9423121	1.3936685
23.46546164315356	1.9564604	1.3987353
23.48336268441279	1.9408672	1.3931501
23.501264306925638	1.9334979	1.3905028
23.51916651118564	1.9511751	1.3968447
23.537069297686497	1.9631425	1.4011219
23.554972666922037	1.9547814	1.398135
23.57287661938623	1.9594072	1.3997883
23.59078115557318	1.947143	1.3954006
23.608686275977128	1.9157041	1.3840896
23.62659198109246	1.9204044	1.3857865
23.6444982714137	1.9541122	1.3978956
23.66240514743549	1.926099	1.3878397
23.68031260965263	1.9148204	1.3837703
23.698220658560068	1.8899727	1.3747628
23.716129294652845	1.9035611	1.379696
23.7340385184262	1.8867139	1.373577
23.75194833037546	1.9414954	1.3933755
23.769858730996123	1.9486173	1.3959289
23.78776972078382	1.9581311	1.3993324
23.80568130023431	1.9152168	1.3839136
23.823593469843495	1.9152051	1.3839093
23.841506230107424	1.8805343	1.3713257
23.859419581522275	1.8866711	1.3735615
23.87733352458438	1.8866401	1.3735502
23.89524805979019	1.8729414	1.3685545
23.913163187636318	1.8801486	1.3711852
23.931078908619508	1.9486018	1.3959233
23.948995223236633	2.0137293	1.4190593
23.966912131984735	2.0210817	1.4216475
23.98482963536096	2.0571706	1.434284
24.002747733862616	2.0583124	1.434682
24.020666427987155	2.0714624	1.4392576
24.038585718232156	2.028014	1.4240836
24.056505605095353	2.0330226	1.425841
24.074426089074617	2.103665	1.4504017
24.092347170667946	2.1136713	1.453847
24.110268850373515	2.0795062	1.4420493
24.128191128689586	2.0691183	1.438443
24.146114006114626	2.0826845	1.4431509
24.164037483147187	2.1491132	1.4659854
24.181961560286005	2.1769357	1.4754442
24.199886238029926	2.1174989	1.4551629
24.21781151687797	2.0745313	1.4403234
24.235737397329274	2.0347273	1.4264387
24.253663879883135	2.039579	1.4281383
24.271590965038975	2.0160418	1.4198738
24.289518653296376	2.0111217	1.4181403
24.30744694515505	2.0394857	1.4281056
24.32537584111486	2.072336	1.439561
24.34330534167581	2.0493546	1.4315567
24.361235447338046	1.9936222	1.4119569
24.379166158601876	1.9658324	1.4020815
24.39709747596772	1.9860657	1.4092784
24.41502939993615	2.036988	1.4272308
24.432961931007917	2.0605135	1.4354489
24.450895069683856	2.0446796	1.4299229
24.468828816465	1.9924387	1.4115376
24.4867631718525	1.978138	1.4064629
24.504698136347656	1.9723803	1.4044145
24.52263371045192	1.9584292	1.3994389
24.540569894666874	1.9676623	1.4027339
24.558506689494266	1.9745222	1.405177
24.57644409543597	1.9490122	1.3960702
24.594382112994012	1.960613	1.400219
24.61232074267057	1.9776065	1.406274
24.630259984967953	2.0312948	1.425235
24.64819984038863	2.0045156	1.4158092
24.66614030943522	1.9521828	1.3972054
24.684081392610462	1.9100428	1.382043
24.702023090417274	1.9769026	1.4060237
24.7199654033587	2.0185237	1.4207476
24.737908331937927	2.0269039	1.4236938
24.755851876658305	2.0157359	1.4197662
24.773796038023324	2.0183756	1.4206954
24.79174081653661	2.0336053	1.4260453
24.809686212701962	2.1079853	1.4518902
24.827632227023294	2.113746	1.4538727
24.8455788600047	2.117859	1.4552865
24.8635261121504	2.0512817	1.4322296
24.88147398396475	2.0380096	1.4275887
24.899422475952303	2.0233202	1.4224346
24.917371588617698	2.0558162	1.4338118
24.935321322465768	2.1214993	1.4565368
24.953271678001478	2.2508833	1.5002944
24.97122265572994	2.4399073	1.5620203
24.989174256156414	2.8209631	1.6795723
25.00712647978632	3.4021313	1.8444867
25.02507932712521	4.39589	2.0966377
25.043032798678798	5.922737	2.4336674
25.060986894952933	7.561946	2.7498991
25.078941616453637	8.9869375	2.997822
25.096896963687055	9.884924	3.1440299
25.114852937159508	10.745669	3.2780588
25.132809537377444	10.632246	3.2607124
25.150766764847468	9.998411	3.1620264
25.168724620076347	8.559192	2.9256096
25.186683103570985	7.224695	2.6878793
25.204642215838426	5.7148542	2.3905761
25.222601957385894	4.5958962	2.143804
25.24056232872074	3.6192973	1.9024451
25.25852333035048	2.8923156	1.700681
25.276484962782778	2.4371622	1.5611413
25.294447226525435	2.2128637	1.4875697
25.312410122086423	2.1139832	1.4539543
25.330373649973843	2.031267	1.4252253
25.348337810695988	1.9215566	1.3862022
25.366302604761245	1.8548601	1.3619325
25.384268032678207	1.8574243	1.3628736
25.40223409495558	1.8848985	1.3729161
25.420200792102257	1.9304018	1.389389
25.438168124627246	1.9661634	1.4021995
25.45613609303974	1.9318908	1.3899248
25.474104697849057	1.838745	1.3560033
25.492073939564698	1.8172963	1.3480713
25.510043818696285	1.8225222	1.3500082
25.528014335753614	1.828523	1.3522289
25.54598549124664	1.8428923	1.3575317
25.56395728568544	1.8596231	1.36368
25.58192971958028	1.8707991	1.3677716
25.59990279344156	1.9032528	1.3795843
25.617876507779833	1.9068496	1.3808873
25.635850863105826	1.8943701	1.3763611
25.653825859930386	1.88834	1.3741689
25.671801498764548	1.8351719	1.3546852
25.68977778011949	1.769252	1.3301322
25.707754704506524	1.7928593	1.338977
25.725732272437153	1.8439026	1.3579037
25.743710484423012	1.876491	1.3698508
25.761689340975888	1.8805176	1.3713197
25.77966884260774	1.8538269	1.3615531
25.797648989830662	1.8389055	1.3560625
25.815629783156922	1.812618	1.346335
25.83361122309895	1.8275443	1.351867
25.85159331016929	1.7961907	1.3402205
25.869576044880695	1.8117902	1.3460276
25.887559427746034	1.8651892	1.3657193
25.90554345927836	1.8625368	1.3647479
25.92352813999086	1.8409437	1.3568138
25.94151347039689	1.8296933	1.3526616
25.959499451009965	1.8254578	1.3510951
25.97748608234374	1.8061941	1.3439472
25.995473364912062	1.8007358	1.341915
26.013461299228904	1.7955973	1.339999
26.03144988580839	1.760253	1.3267453
26.04943912516483	1.7690662	1.3300625
26.067429017812675	1.7988856	1.3412254
26.085419564266537	1.8472792	1.3591465
26.103410765041186	1.8603873	1.3639601
26.12140262065155	1.819712	1.3489671
26.139395131612723	1.8183768	1.348472
26.157388298439948	1.8525087	1.361069
26.17538212164861	1.8666264	1.3662454
26.193376601754295	1.8192401	1.3487921
26.211371739272714	1.8211563	1.3495022
26.229367534719746	1.8503574	1.3602785
26.247363988611433	1.8720919	1.368244
26.26536110146397	1.8493465	1.3599068
26.283358873793727	1.8540608	1.361639
26.301357306117204	1.8263302	1.3514179
26.319356398951104	1.7908185	1.3382146
26.33735615281224	1.7668784	1.3292397
26.35535656821762	1.7321916	1.3161275
26.373357645684404	1.712409	1.3085904
26.39135938572991	1.7479967	1.3221183
26.409361788871614	1.7708703	1.3307406
26.427364855627165	1.7730141	1.3315457
26.445368586514352	1.7711891	1.3308603
26.46337298205115	1.783745	1.3355691
26.48137804275568	1.8134013	1.3466259
26.499383769146217	1.8052698	1.3436033
26.517390161741215	1.7639221	1.3281273
26.53539722105928	1.7800217	1.3341745
26.553404947619182	1.8661195	1.3660599
26.571413341939856	1.8784478	1.3705648
26.589422404540397	1.8460082	1.3586788
26.60743213594006	1.7807212	1.3344367
26.62544253665827	1.7739797	1.3319082
26.64345360721459	1.7689028	1.330001
26.66146534812879	1.7991388	1.3413198
26.679477759920758	1.8214738	1.3496199
26.69749084311057	1.8238751	1.3505092
26.71550459821847	1.7886704	1.3374119
26.733519025764842	1.7629613	1.3277655
26.751534126270258	1.7612401	1.3271172
26.769549900255434	1.7785983	1.333641
26.787566348241267	1.7706171	1.3306453
26.80558347074881	1.7702831	1.3305199
26.823601268299267	1.7358993	1.3175353
26.841619741414036	1.77964	1.3340315
26.85963889061465	1.8125795	1.3463207
26.877658716422832	1.8382221	1.3558105
26.89567921936045	1.8525735	1.3610928
26.913700399949544	1.8727545	1.3684862
26.93172225871233	1.8009839	1.3420074
26.949744796171174	1.7767587	1.3329511
26.967768012848605	1.7737935	1.3318384
26.98579190926733	1.8289318	1.35238
27.003816485950225	1.816115	1.3476331
27.021841743420318	1.8037847	1.3430505
27.039867682200814	1.816083	1.3476212
27.057894302815072	1.8511789	1.3605803
27.07592160578664	1.8345112	1.3544413
27.0939495916392	1.7884471	1.3373283
27.111978260896635	1.7969171	1.3404914
27.13000761408296	1.801329	1.342136
27.148037651722397	1.7752225	1.3323748
27.166068374339304	1.8280145	1.3520409
27.184099782458215	1.8357475	1.3548976
27.20213187660384	1.8158097	1.3475199
27.22016465730105	1.7676886	1.3295445
27.23819812507487	1.8162472	1.3476821
27.256232280450533	1.8368868	1.355318
27.274267123953383	1.8514078	1.3606645
27.292302656108987	1.825533	1.3511229
27.31033887744306	1.7962676	1.3402491
27.32837578848146	1.788126	1.3372083
27.34641338975026	1.8146076	1.3470737
27.364451681775673	1.8246301	1.3507887
27.382490665084074	1.825291	1.3510333
27.400530340202046	1.8383986	1.3558756
27.41857070765629	1.8556707	1.3622301
27.436611767973726	1.8497139	1.3600419
27.454653521681404	1.866794	1.3663067
27.472695969306564	1.8517348	1.3607846
27.490739111376627	1.8589206	1.3634224
27.508782948419153	1.8148209	1.3471528
27.526827480961902	1.7677883	1.329582
27.54487270953279	1.7605437	1.3268548
27.562918634659898	1.818566	1.3485422
27.580965256871508	1.8659128	1.3659842
27.599012576696026	1.8632603	1.3650129
27.617060594662068	1.845714	1.3585706
27.63510931129842	1.8518832	1.3608391
27.65315872713401	1.8096514	1.3452328
27.67120884269797	1.8173375	1.3480866
27.68925965851958	1.8242947	1.3506645
27.707311175128307	1.8200741	1.3491012
27.725363393053787	1.8376119	1.3555855
27.74341631282583	1.9137833	1.3833956
27.7614699349744	1.9526869	1.3973857
27.77952426002968	2.1305254	1.4596319
27.797579288521973	2.212692	1.487512
27.815635020981784	2.6900077	1.6401243
27.83369145793979	2.7351995	1.6538439
27.85174859992682	2.5271955	1.5897155
27.869806447473923	2.3773723	1.541873
27.887865001112267	2.0986972	1.4486881
27.905924261373233	1.9695678	1.4034129
27.92398422878836	1.9599564	1.3999845
27.94204490388936	1.9097714	1.3819448
27.96010628720813	1.8563727	1.3624877
27.978168379276728	1.8043158	1.3432482
27.9962311806274	1.8542252	1.3616993
28.014294691792568	1.8960222	1.3769612
28.0323589133048	1.9337249	1.3905843
28.050423845696887	1.9195372	1.3854736
28.068489489501758	1.8920509	1.3755184
28.086555845252523	1.8587971	1.3633771
28.104622913482487	1.861285	1.3642892
28.122690694725115	1.9289919	1.3888816
28.14075918951405	1.9869095	1.4095777
28.15882839838312	1.9777569	1.4063275
28.176898321866304	1.930492	1.3894215
28.1949689604978	1.9275659	1.3883681
28.213040314811945	1.8778051	1.3703303
28.23111238534327	1.852589	1.3610984
28.249185172626493	1.8581816	1.3631513
28.267258677196473	1.8901528	1.3748283
28.285332899588294	1.9141785	1.3835384
28.303407840337172	1.91575	1.3841063
28.321483499978545	1.9305127	1.3894289
28.33955987904799	1.9287935	1.3888102
28.357636978081285	1.9181403	1.3849695
28.37571479761439	1.9335986	1.3905389
28.393793338183425	1.9933435	1.4118582
28.41187260032469	1.9390162	1.3924856
28.429952584574686	1.9312155	1.3896818
28.448033291470065	2.0091393	1.4174411
28.46611472154769	2.0796254	1.4420906
28.484196875344566	2.0945587	1.4472591
28.502279753397914	2.0291505	1.4244826
28.52036335624511	1.9343884	1.3908229
28.538447684423716	1.8976119	1.3775383
28.556532738471482	1.9012628	1.3788629
28.574618518926325	1.9549983	1.3982126
28.59270502632635	2.0483751	1.4312146
28.61079226120985	2.1224737	1.4568712
28.628880224115274	2.1291845	1.4591725
28.646968915581287	2.0944211	1.4472115
28.66505833614671	2.078465	1.4416883
28.68314848635055	2.0753405	1.4406042
28.701239366732004	2.1380038	1.4621915
28.71933097783044	2.1149476	1.454286
28.737423320185403	2.0968306	1.4480437
28.75551639433665	2.1075017	1.4517237
28.773610200824074	2.1312437	1.459878
28.791704740187793	2.1181407	1.4553833
28.80980001296809	2.0734043	1.4399321
28.827896019705413	2.1151195	1.454345
28.845992760940433	2.1639109	1.4710238
28.86409023721397	2.1851788	1.478235
28.88218844906704	2.1674726	1.4722339
28.900287397040845	2.1959372	1.4818695
28.918387081676755	2.232431	1.4941322
28.936487503516343	2.2070122	1.4856017
28.954588663101365	2.2164564	1.4887768
28.97269056097374	2.2123606	1.4874007
28.990793197675597	2.2877455	1.5125295
29.00889657374923	2.369053	1.5391728
29.027000689737125	2.3822577	1.5434564
29.04510554618196	2.4139643	1.5536938
29.06321114362659	2.4787095	1.5743917
29.08131748261405	2.4537413	1.5664423
29.099424563687567	2.4870076	1.5770249
29.11753238739057	2.5389185	1.5933985
29.13564095426663	2.5601788	1.6000558
29.15375026485954	2.5736191	1.6042503
29.171860319713275	2.6002927	1.6125423
29.18997111937199	2.7003424	1.6432718
29.20808266438002	2.7715387	1.6647938
29.226194955281898	2.7574294	1.660551
29.244307992622335	2.8099105	1.6762788
29.26242177694624	2.8630292	1.6920488
29.2805363087987	2.8796446	1.6969516
29.29865158872498	2.879522	1.6969155
29.316767617270557	2.9400408	1.7146547
29.334884394981064	2.988317	1.7286749
29.353001922402367	3.016182	1.7367158
29.37112020008047	3.06646	1.751131
29.389239228561596	3.1866996	1.7851329
29.407359008392152	3.322367	1.8227361
29.42547954011872	3.5701504	1.8894842
29.44360082428809	4.089146	2.0221636
29.46172286144722	5.0827503	2.2544956
29.479845652143283	6.680855	2.584735
29.497969196923606	9.302613	3.0500185
29.516093496335728	13.047267	3.6121001
29.5342185509274	16.633091	4.0783687
29.55234436124651	19.743298	4.443343
29.570470927841175	21.022102	4.5849867
29.588598251259686	20.710726	4.550904
29.60672633205055	19.235792	4.385863
29.624855170762405	16.174961	4.0218105
29.642984767944146	12.620216	3.5524943
29.66111512414481	9.4499235	3.0740728
29.67924623991366	7.0280724	2.6510513
29.697378115800138	5.274286	2.2965813
29.71551075235387	4.2747936	2.0675573
29.733644150124675	3.7061667	1.9251407
29.751778309662576	3.42518	1.8507242
29.769913231517766	3.3622808	1.8336524
29.78804891624066	3.3799653	1.8384682
29.806185364381818	3.3924873	1.8418705
29.82432257649206	3.4420557	1.8552778
29.842460553122333	3.3841083	1.8395946
29.86059929482382	3.3444824	1.8287926
29.878738802147872	3.33464	1.8260996
29.896879075646048	3.2856066	1.8126242
29.915020115870114	3.2084045	1.791202
29.933161923371976	3.2120342	1.7922149
29.951304498703777	3.325037	1.8234684
29.969447842417857	3.3709285	1.8360089
29.987591955066733	3.3406675	1.8277493
30.005736837203123	3.2597215	1.8054699
30.023882489379943	3.1943417	1.7872721
30.04202891215028	3.1968942	1.787986
30.060176106067455	3.2440758	1.8011318
30.078324071684946	3.2636952	1.80657
30.09647280955646	3.2062047	1.7905878
30.114622320235863	3.235436	1.7987318
30.132772604277257	3.1481862	1.7743129
30.1509236622349	3.0575356	1.748581
30.16907549466328	3.0697286	1.7520641
30.18722810211705	3.0350459	1.7421383
30.205381485151097	3.0075765	1.7342366
30.22353564432045	3.0011456	1.7323815
30.241690580180403	2.9954505	1.730737
30.25984629328638	3.0327764	1.7414868
30.278002784194037	3.0180826	1.737263
30.296160053459246	2.9702747	1.7234485
30.314318101638033	2.9388912	1.7143195
30.332476929286646	2.9475262	1.7168361
30.35063653696153	2.9394927	1.7144948
30.368796925219307	2.9126208	1.7066402
30.386958094616844	2.9420002	1.7152259
30.40512004571115	2.9765325	1.725263
30.423282779059463	2.934223	1.7129574
30.441446295219233	2.9473045	1.7167715
30.459610594748067	2.9184184	1.7083379
30.47777567820382	2.9105077	1.706021
30.495941546144504	2.9096868	1.7057804
30.51410819912835	2.8770533	1.6961879
30.532275637713795	2.7958157	1.6720693
30.55044386245946	2.735021	1.6537899
30.56861287392416	2.7740395	1.6655447
30.586782672666956	2.8000422	1.6733327
30.604953259247047	2.8131938	1.6772578
30.623124634223885	2.8110588	1.6766212
30.641296798157075	2.7425323	1.6560593
30.659469751606462	2.7409902	1.6555936
30.677643495132074	2.76844	1.663863
30.695818029294152	2.7733455	1.6653365
30.713993354653116	2.7667174	1.6633452
30.73216947176962	2.7237172	1.6503688
30.75034638120448	2.7341213	1.6535178
30.768524083518756	2.767635	1.6636211
30.786702579273673	2.7852888	1.6689185
30.80488186903069	2.9476337	1.7168674
30.82306195335144	3.1655402	1.7791965
30.841242832797782	3.4353151	1.8534603
30.85942450793176	3.6603804	1.9132121
30.877606979315637	3.9571369	1.9892553
30.895790247511883	4.285774	2.0702112
30.913974313083134	4.759657	2.1816638
30.932159176592283	5.297637	2.3016596
30.95034483860237	5.644374	2.3757892
30.968531299676698	5.600093	2.3664515
30.98671856037873	5.272492	2.2961907
31.00490662127215	4.841664	2.2003782
31.023095482920848	4.3301334	2.0808973
31.04128514588892	3.737995	1.9333895
31.059475610740662	3.1357028	1.7707915
31.07766687804056	2.7689986	1.6640308
31.09585894835335	2.657455	1.6301702
31.11405182224393	2.6043103	1.6137875
31.132245500277417	2.4836776	1.5759687
31.15043998301914	2.4295802	1.558711
31.168635271034628	2.4834535	1.5758977
31.18683136488964	2.5169907	1.5865027
31.20502826515008	2.5019531	1.5817564
31.223225972382135	2.4331543	1.5598571
31.241424487152155	2.4075856	1.5516397
31.259623810026692	2.4191256	1.5553539
31.27782394157253	2.520425	1.5875846
31.296024882356644	2.4815514	1.575294
31.314226632946237	2.3756769	1.5413231
31.332429193908684	2.359029	1.5359131
31.350632565811598	2.4025369	1.5500119
31.368836749222787	2.4888241	1.5776007
31.387041744710295	2.5328684	1.5914987
31.40524755284232	2.6201932	1.6187011
31.423454174187317	2.5874314	1.6085495
31.441661609313922	2.4841738	1.5761262
31.459869858791002	2.3381605	1.5291045
31.478078923187628	2.300162	1.5166285
31.496288803073064	2.2129366	1.4875942
31.514499499016807	2.2836215	1.5111656
31.532711011588546	2.3960178	1.5479076
31.550923341358178	2.3888316	1.5455846
31.56913648889584	2.383382	1.5438206
31.587350454771844	2.4241142	1.5569568
31.605565239556732	2.4102976	1.5525134
31.62378084382127	2.345415	1.5314748
31.641997268136382	2.2666426	1.5055373
31.660214513073274	2.2010665	1.4835992
31.67843257920331	2.286522	1.512125
31.6966514670981	2.3758562	1.5413812
31.71487117732944	2.446302	1.5640658
31.733091710469346	2.3753107	1.5412043
31.751313067090052	2.296366	1.5153766
31.769535247764008	2.232069	1.494011
31.787758253063878	2.2387118	1.4962325
31.805982083562526	2.2958283	1.5151991
31.824206739833024	2.262386	1.504123
31.84243222244869	2.200273	1.4833317
31.860658531983013	2.2031977	1.4843173
31.878885669009737	2.272674	1.507539
31.897113634102784	2.2534304	1.501143
31.91534242783632	2.2156715	1.4885132
31.933572050784694	2.2014318	1.4837222
31.951802503522508	2.1882436	1.4792713
31.970033786624548	2.214779	1.4882133
31.988265900665834	2.2298877	1.4932809
32.006498846221575	2.2048118	1.4848609
32.02473262386724	2.1425924	1.4637597
32.04296723417845	2.0710247	1.4391055
32.0612026777311	2.0205836	1.4214723
32.07943895510129	2.131284	1.4598918
32.097676066865304	2.2093701	1.486395
32.115914013599685	2.1802058	1.476552
32.13415279588115	2.1045368	1.4507022
32.152392414286666	2.1290915	1.4591407
32.1706328693934	2.1597662	1.4696143
32.18887416177875	2.1159663	1.4546361
32.20711629202032	2.1444383	1.46439
32.225359260695924	2.1561744	1.4683918
32.243603068383614	2.2125459	1.4874629
32.26184771566166	2.2306914	1.49355
32.28009320310852	2.1886363	1.4794041
32.2983395313029	2.1137543	1.4538757
32.31658670082372	2.1078577	1.4518464
32.33483471225012	2.1001358	1.4491845
32.35308356616143	2.076162	1.4408894
32.371333263137245	2.0984287	1.4485954
32.38958380375734	2.1319532	1.4601209
32.407835188601744	2.1714694	1.4735906
32.42608741825067	2.1632667	1.4708048
32.444340493284585	2.0836453	1.4434837
32.46259441428416	1.9709073	1.40389
32.48084918183028	1.9686813	1.403097
32.49910479650405	2.0531158	1.4328698
32.51736125888683	2.033052	1.4258513
32.53561856956014	2.0627654	1.436233
32.5538767291058	2.0747316	1.4403929
32.572135738105764	2.0357237	1.4267879
32.59039559714228	1.9597603	1.3999144
32.608656306797776	1.9428284	1.3938538
32.62691786765491	2.044996	1.4300336
32.645180280296586	2.1147861	1.4542304
32.663443545305896	2.1566637	1.4685583
32.68170766326619	2.1119058	1.4532398
32.69997263476099	2.0266864	1.4236174
32.7182384603741	1.9883188	1.4100776
32.7365051406895	2.0059214	1.4163055
32.75477267629144	2.026711	1.423626
32.77304106776434	2.0379546	1.4275695
32.79131031569289	1.9956043	1.4126586
32.809580420661966	1.9611609	1.4004146
32.827851383256714	1.9861937	1.4093238
32.84612320406245	1.9947041	1.4123399
32.86439588366476	2.051554	1.4323246
32.88266942264945	2.0577047	1.4344702
32.9009438216025	1.9892942	1.4104234
32.9192190811102	1.9224092	1.3865097
32.937495201758985	1.9900805	1.4107021
32.95577218413556	2.041941	1.428965
32.974050028826866	2.033247	1.4259197
32.992328736420035	2.0402312	1.4283667
33.010608307502444	2.0740876	1.4401693
33.02888874266169	2.0051005	1.4160157
33.047170042485604	1.9429489	1.393897
33.06545220756225	1.8611004	1.3642216
33.083735238479896	1.877173	1.3700997
33.10201913582707	2.0379899	1.4275818
33.12030390019248	2.1035492	1.4503617
33.138589532165135	2.0181692	1.4206228
33.15687603233419	1.9712526	1.404013
33.17516340128909	1.9722505	1.4043684
33.19345163961947	1.944498	1.3944526
33.211740747915215	1.9303845	1.3893828
33.23003072676643	1.8883998	1.3741906
33.248321576763466	1.9216641	1.386241
33.266613298496885	2.0787156	1.4417751
33.28490589255747	2.0747263	1.4403911
33.30319935953626	2.0625138	1.4361454
33.32149370002451	2.0529892	1.4328256
33.339788914613706	1.9913924	1.411167
33.358085003895575	1.9522387	1.3972254
33.376381968462034	1.9494922	1.3962421
33.39467980890529	1.9521933	1.397209
33.41297852581774	2.002623	1.4151406
33.43127811979204	1.9750801	1.4053755
33.44957859142105	1.9779081	1.4063812
33.467879941297866	2.013506	1.4189806
33.486182170015844	2.035268	1.4266282
33.50448527816853	2.049248	1.4315195
33.522789266349754	1.9867054	1.4095054
33.541094135153514	1.9456345	1.39486
33.55939988517411	1.9356048	1.3912601
33.57770651700602	1.8861077	1.3733563
33.59601403124398	1.9067142	1.3808383
33.61432242848296	1.8782887	1.3705068
33.632631709318154	1.8756648	1.3695492
33.650941874344994	1.8959116	1.376921
33.66925292415916	1.9674263	1.4026498
33.68756485935654	1.9733229	1.4047501
33.70587768053328	1.9247526	1.3873545
33.724191388285746	1.8996685	1.3782846
33.74250598321054	1.8871479	1.3737351
33.760821465904506	1.9160348	1.384209
33.77913783696474	1.879869	1.3710831
33.79745509698852	1.8452065	1.3583838
33.815773246573414	1.8981389	1.3777297
33.8340922863172	1.9415014	1.3933777
33.852412216817896	1.952449	1.3973006
33.87073303867377	1.9083216	1.3814201
33.889054752483304	1.9243536	1.3872107
33.907377358845245	1.9830868	1.4082211
33.92570085835853	1.9664674	1.4023079
33.94402525162239	1.8476064	1.3592669
33.96235053923627	1.8785635	1.370607
33.980676721799824	1.9405692	1.3930432
33.999003799912984	1.880761	1.3714085
34.01733177417592	1.839901	1.3564295
34.03566064518901	1.9106536	1.3822639
34.0539904135529	1.9416878	1.3934445
34.07232107986846	1.9469094	1.395317
34.090652644736785	1.8525871	1.3610978
34.108985108759235	1.9015228	1.3789572
34.12731847253742	1.9429743	1.3939061
34.14565273667313	1.8519636	1.3608687
34.16398790176847	1.886829	1.373619
34.18232396842574	1.960927	1.400331
34.20066093724749	2.0087564	1.4173061
34.21899880883651	1.949614	1.3962858
34.23733758379583	2.06854	1.438242
34.25567726272874	2.1264436	1.458233
34.27401784623872	2.0397124	1.428185
34.29235933492957	1.9870647	1.4096328
34.31070172940526	1.9907516	1.4109399
34.32904503027003	1.9929824	1.4117303
34.347389238128386	1.8772354	1.3701224
34.36573435358502	1.8354378	1.3547833
34.38408037724492	1.8263079	1.3514096
34.402427309713296	2.005963	1.4163202
34.42077515159559	2.0431912	1.4294024
34.43912390349752	2.0189013	1.4208804
34.45747356602499	1.9891049	1.4103563
34.47582413978423	2.0420246	1.4289943
34.49417562538163	2.174967	1.474777
34.51252802342388	2.2513566	1.5004522
34.53088133451789	2.150251	1.4663734
34.54923555927084	1.9523551	1.397267
34.567590698290104	1.8342879	1.3543588
34.58594675218336	1.9276317	1.3883917
34.6043037215585	2.0914483	1.446184
34.62266160702365	2.1006706	1.4493691
34.641020409187234	1.985754	1.4091679
34.65938012865785	1.9882221	1.4100434
34.677740766044394	2.2107923	1.4868734
34.69610232195598	2.2344306	1.4948012
34.714464797002016	2.086443	1.4444525
34.73282819179208	2.0710752	1.439123
34.751192506936064	2.1846008	1.4780395
34.76955774304408	2.1489618	1.4659338
34.7879239007265	2.1091988	1.452308
34.80629098059391	1.9675984	1.4027112
34.824658983257194	1.8780137	1.3704064
34.843027909327446	1.9324284	1.3901181
34.86139775941603	1.8981476	1.3777328
34.879768534134534	1.7503124	1.3229938
34.89814023409483	1.8212793	1.3495479
34.91651285990901	1.9611454	1.400409
34.93488641218944	2.08401	1.4436101
34.95326089154871	2.1139138	1.4539305
34.97163629859967	2.0339928	1.4261812
34.99001263395542	2.0432677	1.4294292
35.00838989822934	2.1459177	1.4648951
35.02676809203499	2.0421622	1.4290425
35.04514721598624	1.9720975	1.4043139
35.063527270697215	1.9529623	1.3974843
35.081908256782256	1.6556925	1.2867371
35.10029017485597	1.5678862	1.2521527
35.11867302553321	1.9189116	1.3852478
35.137056809429104	1.9748234	1.405284
35.155441527159006	1.8428838	1.3575286
35.173827179338524	1.7089242	1.3072582
35.19221376658354	1.5632876	1.250315
35.21060128951017	1.7762389	1.3327562
35.2289897487348	2.2319455	1.4939697
35.24737914487405	2.5834215	1.6073025
35.26576947854479	2.4978163	1.5804482
35.28416075036418	2.2320597	1.494008
35.30255296094958	2.142881	1.4638582
35.32094611091867	2.0691283	1.4384465
35.33934020088932	2.1678667	1.4723678
35.35773523147969	2.0841415	1.4436556
35.3761312033082	1.9737636	1.404907
35.394528116993506	2.0972378	1.4481844
35.41292597315452	1.8426759	1.357452
35.431324772410434	1.9377486	1.3920304
35.449724515380666	2.256693	1.5022293
35.46812520268491	2.4091308	1.5521375
35.486526834943106	2.3279722	1.5257694
35.504929412775454	1.9369618	1.3917477
35.52333293680242	1.6277026	1.2758145
35.54173740764471	2.0140433	1.4191699
35.560142825923286	2.3544204	1.534412
35.5785491922594	1.9144036	1.3836198
35.59695650727454	1.5302668	1.2370396
35.61536477159042	2.20624	1.4853417
