0.008763373481513119	0.0	0.0
0.026290120649546365	0.0	0.0
0.043816868432600686	0.0	0.0
0.06134361724069026	0.011486674	0.1071759
0.07887036748382949	0.10356127	0.32180935
0.0963971195720331	0.19982164	0.44701412
0.11392387391531617	0.23754068	0.48738146
0.1314506309236943	0.34928274	0.59100145
0.1489773910071836	0.34955418	0.59123105
0.16650415457580078	0.2562596	0.5062209
0.18403092203956356	0.18734178	0.43282998
0.20155769380849	0.08533629	0.29212376
0.2190844702925996	0.12143376	0.34847346
0.2366112519019124	0.086533554	0.29416585
0.2541380390464497	0.12678035	0.3560623
0.27166483213623416	0.11711453	0.34222
0.28919163158128947	0.17097758	0.41349435
0.3067184377916406	0.19695356	0.44379452
0.324245251177314	0.18309261	0.42789322
0.34177207214833777	0.18220527	0.4268551
0.3592989011147415	0.20534651	0.45315176
0.37682573848655654	0.20869526	0.45683175
0.39435258467381573	0.18532337	0.430492
0.41187944008655414	0.17338967	0.41640085
0.42940630513480854	0.19097257	0.4370041
0.446933180228618	0.2767213	0.52604306
0.4644600657780234	0.26366836	0.51348644
0.48198696219306775	0.24807836	0.49807465
0.49951386988379676	0.19292971	0.43923765
0.5170407892602581	0.18238448	0.42706496
0.5345677207325025	0.20981982	0.45806095
0.5520946647105822	0.26198387	0.5118436
0.5696216216045534	0.2571817	0.50713086
0.5871485918244737	0.23947856	0.48936546
0.6046755757804043	0.2100037	0.4582616
0.6222025738824094	0.20223294	0.44970316
0.6397295865405557	0.24766387	0.4976584
0.6572566141649129	0.2801277	0.52927095
0.6747836571655547	0.29219854	0.5405539
0.6923107159525568	0.2653044	0.51507705
0.7098377909359992	0.23255943	0.48224416
0.7273648825259653	0.21495938	0.4636371
0.7448919911325411	0.205499	0.45331997
0.762419117165817	0.20328502	0.4508714
0.7799462610358868	0.17817192	0.42210415
0.7974734231528482	0.14961873	0.3868058
0.8150006039268024	0.16159935	0.40199423
0.8325278037678551	0.17149125	0.414115
0.8500550230861152	0.16973557	0.41198978
0.8675822622916969	0.17517398	0.4185379
0.8851095217947171	0.19595411	0.44266704
0.9026368020052984	0.21078034	0.4591082
0.9201641033335665	0.20725477	0.4552524
0.9376914261896523	0.16553353	0.40685812
0.9552187709836915	0.20612499	0.4540099
0.9727461381258234	0.22796752	0.47745943
0.990273528026193	0.24971706	0.49971697
1.0078009410949496	0.22188026	0.47104168
1.0253283777422473	0.21483774	0.46350592
1.0428558383782454	0.24294186	0.4928913
1.0603833234131086	0.2722003	0.52172816
1.0779108332570058	0.2685438	0.51821214
1.0954383683201119	0.2657817	0.5155402
1.112965929012607	0.28718767	0.5358989
1.1304935157446763	0.48766425	0.6983296
1.1480211289265108	0.55226773	0.7431472
1.1655487689683062	1.4949596	1.2226855
1.1830764362802655	1.762004	1.327405
1.200604131272596	2.1215768	1.4565634
1.2181318543555117	2.297624	1.5157915
1.235659605939232	2.283171	1.5110165
1.253187386433982	4.0773783	2.0192518
1.270715196249994	6.570729	2.5633433
1.2882430357975057	12.333832	3.5119555
1.3057709054867608	17.1998	4.147264
1.3232988057280106	22.746452	4.7693243
1.3408267369315112	27.206032	5.21594
1.358354699507526	30.415907	5.515062
1.3758826938663256	34.44733	5.869185
1.3934107204181858	36.256966	6.0213757
1.410938779573391	36.65389	6.0542455
1.4284668717422309	37.36341	6.1125617
1.4459949973350033	36.99049	6.0819807
1.4635231567620117	37.175285	6.0971537
1.4810513504335687	36.350636	6.029149
1.4985795787599925	35.193714	5.932429
1.5161078421516088	34.781387	5.897575
1.5336361410187505	33.87857	5.82053
1.5511644757717598	34.187004	5.8469653
1.5686928468209842	35.28765	5.940341
1.58622125457678	35.990128	5.9991775
1.6037496994495108	37.632977	6.134572
1.621278181849548	37.514774	6.1249304
1.6388067021872719	38.13925	6.1756983
1.6563352608730693	37.25985	6.1040845
1.673863858317336	36.056522	6.0047083
1.6913924949304753	35.20513	5.933391
1.7089211711228998	34.37586	5.863093
1.7264498873050296	33.525257	5.7901
1.7439786438872935	32.894714	5.7353916
1.7615074412801288	31.882803	5.646486
1.779036279893981	30.97879	5.5658593
1.796565160139305	29.790108	5.4580317
1.814094082426564	29.078854	5.3924813
1.8316230471662298	28.77386	5.364127
1.849152054768784	28.013998	5.292825
1.8666811056447168	27.34303	5.2290564
1.8842102002045273	26.527803	5.150515
1.901739338858724	25.893963	5.088611
1.9192685220178245	25.514551	5.051193
1.9367977500923557	24.769741	4.9769206
1.9543270234928547	24.31295	4.930816
1.971856342629867	23.512028	4.8489203
1.9893857079139496	23.22268	4.8189917
2.006915119755667	22.686798	4.763066
2.0244445785655945	22.120281	4.7032204
2.0419740847543175	21.563164	4.6436152
2.0595036387324317	20.946379	4.576721
2.0770332409105414	20.519754	4.5298734
2.094562891699263	20.055336	4.478318
2.1120925915092217	19.63977	4.4316783
2.129622340751053	19.349396	4.3987947
2.1471521398354043	187.62874	13.697764
2.1646819891729323	444.01746	21.071722
2.182211889174303	440.31247	20.983624
2.1997418402501974	452.7266	21.277372
2.2172718428113023	432.6747	20.800835
2.234801897268317	320.98264	17.915989
2.2523320040319548	17.597027	4.194881
2.269862163512935	17.286352	4.1576858
2.287392376121992	16.766582	4.094702
2.304922642269869	16.26712	4.033252
2.322452962367322	15.949573	3.9936917
2.3399833368251164	15.518778	3.939388
2.357513766054032	15.29408	3.9107647
2.3750442504648586	15.027388	3.8765175
2.3925747904683963	14.748753	3.8404105
2.410105386475459	14.483537	3.8057241
2.4276360388968707	14.331475	3.7856934
2.445166748143469	14.269499	3.777499
2.4626975146261025	13.999907	3.7416449
2.4802283387556323	13.575334	3.6844718
2.4977592209429305	13.1597805	3.6276412
2.5152901615988825	12.821097	3.580656
2.5328211611343865	12.773312	3.573977
2.5503522199603523	12.499227	3.5354245
2.5678833384877024	12.359348	3.5155864
2.5854145171273712	12.115264	3.4806988
2.6029457562903064	12.047277	3.470919
2.620477056387469	11.950956	3.4570155
2.6380084178298326	11.740598	3.4264555
2.655539841028383	11.568283	3.401218
2.673071326394119	11.41182	3.3781385
2.6906028743380523	11.306755	3.362552
2.708134485271211	11.103779	3.3322334
2.7256661596046325	10.898884	3.3013458
2.743197897749369	10.702748	3.2715056
2.760729700116486	10.7149725	3.2733734
2.778261567117063	10.445122	3.2318914
2.795793499162193	10.318906	3.2123053
2.8133254966629817	10.089925	3.176464
2.830857560030551	9.869863	3.1416337
2.8483896896760337	9.661362	3.108273
2.865921886010578	9.525256	3.0863013
2.883454149445347	9.440249	3.0724988
2.9009864803915177	9.349181	3.0576432
2.91851887926028	9.218215	3.0361514
2.9360513464628384	9.012851	3.002141
2.953583882410413	8.872757	2.9787173
2.9711164875142373	8.808756	2.9679549
2.9886491621855606	8.730248	2.9546993
3.0061819068356455	8.533139	2.9211538
3.023714721875769	8.422508	2.9021559
3.041247607717225	8.264772	2.8748517
3.0587805647713213	8.064761	2.8398523
3.0763135934493806	7.984474	2.8256812
3.0938466941627407	7.8349767	2.7991028
3.1113798673227544	7.827696	2.797802
3.1289131133407904	7.841244	2.8002222
3.1464464326282315	7.837603	2.799572
3.1639798255964786	7.846124	2.8010933
3.1815132926569443	7.756652	2.7850766
3.1990468342210603	7.7011933	2.7751024
3.216580450700272	7.546026	2.747003
3.2341141425060416	7.457968	2.7309282
3.251647910049847	7.3417797	2.7095718
3.2691817537431813	7.1586685	2.6755688
3.286715673997555	7.1474276	2.6734674
3.3042496712244938	7.117318	2.6678302
3.32178374583554	6.983718	2.6426725
3.339317898242251	6.9472117	2.6357565
3.3568521288562034	6.8656363	2.620236
3.3743864380889876	6.8256245	2.6125896
3.3919208263522127	6.7697606	2.6018763
3.4094552940575023	6.6922474	2.586938
3.4269898416164972	6.6928086	2.5870464
3.444524469440858	6.7071924	2.5898247
3.4620591779422587	6.599341	2.5689182
3.479593967532391	6.54764	2.5588357
3.4971288386229658	6.4888806	2.5473282
3.5146637916257086	6.4661613	2.5428648
3.5321988269523628	6.3624763	2.522395
3.5497339450146903	6.220808	2.4941547
3.5672691462244708	6.189366	2.4878435
3.5848044309934988	6.096866	2.4691832
3.60233979973359	6.157954	2.4815226
3.619875252856575	6.180109	2.4859824
3.6374107907743034	6.148988	2.4797153
3.6549464138986427	6.2175345	2.4934986
3.6724821226414788	6.214362	2.4928622
3.690017917414714	6.3830433	2.5264685
3.7075537986302702	6.4567056	2.541005
3.7250897667000857	6.536091	2.556578
3.7426258220361235	6.5721664	2.5636237
3.7601619650503553	6.8135157	2.6102712
3.777698196154779	7.410374	2.7222002
3.7952345157614067	8.532738	2.9210851
3.8127709242822716	9.417056	3.0687222
3.830307422129425	11.727584	3.424556
3.847844009714936	30.438845	5.517141
3.8653806874508954	97.7756	9.888154
3.882917455749409	96.87693	9.8426075
3.900454315022606	96.66416	9.831794
3.917991265682631	41.361717	6.431308
3.9355283081416506	11.003119	3.317095
3.9530654428118495	8.805551	2.9674149
3.970602670105433	7.4381967	2.7273057
3.9881399904346244	6.457715	2.5412035
4.005677404211669	6.3895426	2.5277545
4.023214911848827	6.408199	2.5314422
4.0407525137583855	6.356326	2.5211756
4.058290210352644	6.3597546	2.5218554
4.075828002043927	6.2626033	2.5025194
4.0933658892445814	6.215262	2.4930427
4.110903872366966	6.1894827	2.487867
4.128441951823468	6.1886635	2.4877024
4.145980128026488	6.181177	2.4861972
4.163518401388452	6.1265984	2.4751966
4.181056772321807	6.068526	2.4634378
4.1985952412390155	5.962839	2.4418926
4.216133808552567	5.9630413	2.4419339
4.233672474674966	6.043805	2.4584153
4.251211240018741	6.2961826	2.5092194
4.268750104996445	6.6050353	2.5700264
4.286289070020643	7.5170226	2.741719
4.303828135503928	9.068866	3.0114558
4.3213673018589125	29.453661	5.4271226
4.3389065694982305	90.70489	9.523911
4.356445938834537	166.11034	12.88838
4.3739854102805085	171.21016	13.08473
4.391524984248844	172.05664	13.117036
4.409064661152262	135.94263	11.659444
4.426604441403504	96.24414	9.81041
4.444144325415337	75.48336	8.688116
4.461684313600543	21.49626	4.636406
4.47922440637193	22.054852	4.6962595
4.496764604142329	20.41918	4.518759
4.5143049073245916	18.469141	4.297574
4.531845316331589	16.242722	4.030226
4.5493858315762195	13.196752	3.6327333
4.566926453471405	11.000333	3.316675
4.584467182430081	8.92514	2.9874973
4.602008018865218	7.8730364	2.8058932
4.619548963189798	7.167833	2.677281
4.637090015816834	6.7428403	2.596698
4.654631177159353	6.464582	2.5425541
4.672172447630417	6.349987	2.519918
4.689713827643102	6.175668	2.485089
4.7072553176105085	5.9303927	2.4352398
4.724796917945764	5.7651777	2.4010785
4.742338629062015	5.666729	2.380489
4.759880451372434	5.609394	2.3684158
4.777422385290215	5.58794	2.3638825
4.794964431228581	5.565965	2.3592298
4.812506589600768	5.5719733	2.3605027
4.830048860820047	5.6618567	2.3794656
4.847591245299709	5.694584	2.3863328
4.8651337434530655	5.61878	2.3703966
4.882676355693457	5.5292	2.3514252
4.900219082434242	5.447469	2.3339815
4.917761924088813	5.53029	2.351657
4.935304881070575	5.538327	2.3533652
4.952847953792969	5.498051	2.3447924
4.970391142669449	5.4867096	2.3423727
4.9879344481135055	5.4661064	2.3379705
5.005477870538642	5.493691	2.3438623
5.023021410358394	5.4666395	2.3380847
5.040565067986324	5.55289	2.356457
5.05810884383601	5.479341	2.3407993
5.075652738321066	5.460872	2.336851
5.09319675185512	5.4111567	2.3261893
5.110740884851836	5.4054418	2.3249607
5.128285137724894	5.3902044	2.3216813
5.145829510888007	5.2858305	2.2990935
5.163374004754908	5.217237	2.2841272
5.1809186197393595	5.179295	2.2758064
5.198463356255145	5.1785746	2.275648
5.216008214716077	5.2197633	2.2846801
5.233553195535998	5.2871485	2.29938
5.251098299128764	5.3329062	2.3093085
5.268643525908272	5.2584944	2.2931406
5.286188876288432	5.2704315	2.295742
5.3037343506831895	5.2494545	2.2911687
5.32127994950651	5.253976	2.2921553
5.3388256731723915	5.2043085	2.2812953
5.356371522094851	5.178305	2.275589
5.373917496687938	5.142768	2.2677672
5.391463597365729	5.1499257	2.2693448
5.40900982454232	5.1394253	2.26703
5.426556178631843	5.2030573	2.281021
5.444102660048449	5.198806	2.280089
5.4616492692063225	5.229546	2.2868202
5.479196006519669	5.225636	2.285965
5.496742872402727	5.2204237	2.2848246
5.514289867269756	5.3007298	2.3023314
5.531836991535049	5.2348003	2.2879686
5.549384245612924	5.2061906	2.2817078
5.566931629917724	5.21506	2.2836506
5.584479144863822	5.1816254	2.2763183
5.6020267908656205	5.215712	2.2837934
5.619574568337545	5.1194096	2.2626112
5.637122477694054	5.0928	2.2567234
5.654670519349629	5.0722265	2.2521603
5.672218693718784	5.0936933	2.2569213
5.689767001216059	5.1261826	2.2641075
5.707315442256021	5.1558056	2.27064
5.724864017253266	5.165691	2.2728157
5.7424127266224225	5.1026554	2.258906
5.75996157077814	5.1652913	2.2727277
5.777510550135105	5.1629286	2.272208
5.795059665108022	5.2018356	2.2807534
5.812608916111639	5.2458134	2.290374
5.830158303560715	5.328327	2.308317
5.847707827870055	5.391461	2.3219519
5.86525748945448	5.4878626	2.3426187
5.8828072887288485	5.491818	2.3434627
5.900357226108044	5.572553	2.3606255
5.917907302006979	5.7297406	2.3936877
5.9354575168406	6.340206	2.5179765
5.9530078710238765	6.921572	2.630888
5.970558364971812	7.3451076	2.710186
5.988108999099438	7.725643	2.779504
6.005659773821818	8.425099	2.9026022
6.023210689554039	8.25036	2.872344
6.040761746711227	8.732874	2.9551437
6.058312945708531	8.017512	2.8315213
6.075864286961132	7.4842696	2.7357392
6.093415770884244	6.7389884	2.595956
6.1109673978931065	6.1288643	2.4756544
6.128519168402993	5.516431	2.3487084
6.146071082829204	5.3484373	2.3126688
6.163623141587075	5.210135	2.282572
6.181175345091969	5.139309	2.2670045
6.198727693759281	5.0764914	2.253107
6.216280188004435	5.115031	2.2616434
6.233832828242885	5.123012	2.2634072
6.251385614890126	5.146796	2.268655
6.268938548361669	5.155079	2.27048
6.286491629073067	5.161048	2.271794
6.304044857439898	5.0771346	2.25325
6.321598233877777	4.998741	2.2357864
6.339151758802344	4.924582	2.2191398
6.356705432629277	4.9625573	2.2276797
6.37425925577428	5.018561	2.2402146
6.391813228653095	4.953112	2.2255588
6.409367351681486	4.9814353	2.2319129
6.426921625275259	4.9622126	2.2276025
6.44447604985025	5.001875	2.2364872
6.46203062582232	4.9900866	2.2338502
6.47958535360737	4.893291	2.2120783
6.497140233621328	4.8382382	2.1995995
6.514695266280161	4.7906837	2.1887631
6.532250451999859	4.881893	2.2095006
6.549805791196454	4.9116015	2.2162132
6.567361284286002	4.9537315	2.225698
6.584916931684597	4.9998255	2.236029
6.602472733808367	5.065346	2.2506323
6.6200286910734665	5.0959682	2.257425
6.637584803896092	5.0508666	2.2474134
6.655141072692462	4.959867	2.2270758
6.672697497878842	5.0563254	2.2486274
6.690254079871514	5.037355	2.2444053
6.707810819086808	5.028294	2.2423859
6.725367715941078	4.9584446	2.2267566
6.742924770850719	4.957751	2.2266006
6.760481984232151	5.028957	2.2425337
6.778039356501836	5.0666018	2.2509112
6.795596888076266	5.0356627	2.2440283
6.813154579371963	4.9736285	2.2301633
6.830712430805492	4.9239917	2.219007
6.84827044279344	4.9681525	2.2289352
6.865828615752445	5.0324407	2.2433102
6.883386950099159	5.0341816	2.2436981
6.900945446250287	5.02058	2.240665
6.918504104622553	5.005481	2.2372932
6.936062925632727	5.029696	2.2426984
6.953621909697607	5.0262146	2.2419221
6.971181057234028	5.093739	2.2569313
6.988740368658859	5.1156845	2.261788
7.006299844389007	5.1425643	2.2677224
7.023859484841407	5.0886374	2.2558007
7.041419290433036	5.126477	2.2641723
7.058979261580902	5.2730765	2.296318
7.0765393987020495	5.51563	2.3485377
7.094099702213559	5.944338	2.4381013
7.111660172532549	6.3364234	2.5172253
7.129220810076164	6.7647343	2.6009102
7.146781615261595	7.354531	2.7119238
7.16434258850606	7.602735	2.7573059
7.181903730226821	8.039668	2.8354309
7.1994650408411704	8.244336	2.8712952
7.217026520766437	8.333662	2.8868084
7.234588170419983	8.556873	2.9252133
7.252149990219215	8.549195	2.9239006
7.269711980581568	8.453675	2.9075205
7.2872741419245175	8.292305	2.8796363
7.304836474665574	7.8833637	2.8077328
7.322398979222286	7.523364	2.742875
7.339961656012233	7.1265087	2.669552
7.357524505453039	6.8171325	2.6109638
7.375087527962357	6.5816026	2.5654633
7.392650723957886	6.319067	2.5137753
7.410214093857353	5.9351707	2.4362206
7.427777638078528	5.680119	2.3833
7.445341357039213	5.3857875	2.32073
7.4629052511572525	5.269864	2.2956185
7.480469320850524	5.226031	2.2860513
7.498033566536948	5.281119	2.2980685
7.5155979886344735	5.284398	2.2987819
7.5331625875610975	5.201465	2.280672
7.550727363734844	5.168788	2.2734969
7.568292317573788	5.1263127	2.2641363
7.585857449496025	5.116825	2.2620401
7.603422759919705	5.1314516	2.2652707
7.620988249263007	5.1422577	2.2676547
7.638553917944147	5.1506143	2.2694964
7.656119766381391	5.125613	2.2639818
7.673685794993023	5.1027455	2.2589257
7.691252004197388	5.1060004	2.2596462
7.70881839441285	5.130242	2.2650037
7.726384966057826	5.0416007	2.2453508
7.743951719550762	5.010915	2.2385073
7.761518655310149	4.9747195	2.230408
7.779085773754511	5.0852923	2.2550592
7.796653075302419	5.185622	2.2771962
7.814220560372475	5.2930145	2.3006551
7.831788229383323	5.3343053	2.3096116
7.8493560827536495	5.3341227	2.309572
7.866924120902174	5.363472	2.315917
7.884492344247663	5.3627915	2.3157701
7.9020607532089135	5.372849	2.3179407
7.919629348204771	5.3883686	2.321286
7.937198129654115	5.432363	2.330743
7.954767097975865	5.4337797	2.3310468
7.972336253588986	5.3913236	2.3219223
7.989905596912472	5.3235855	2.3072896
8.007475128365371	5.29326	2.3007085
8.025044848366756	5.3259206	2.3077955
8.042614757335754	5.4634953	2.337412
8.060184855691523	5.482199	2.3414097
8.07775514385327	5.6179895	2.37023
8.095325622240228	5.646839	2.376308
8.112896291271687	5.7064595	2.3888197
8.130467151366968	5.80104	2.4085348
8.148038202945436	5.8245564	2.4134119
8.165609446426497	5.8827724	2.4254427
8.183180882229594	5.9204	2.4331872
8.200752510774217	5.923472	2.4338183
8.218324332479893	5.9393034	2.4370687
8.235896347766193	5.905053	2.4300315
8.253468557052724	6.0043917	2.450386
8.27104096075914	5.9743547	2.4442494
8.288613559305137	6.052995	2.4602835
8.306186353110448	6.078753	2.4655128
8.32375934259485	6.1377144	2.477441
8.341332528178162	6.1669655	2.4833376
8.358905910280246	6.25311	2.5006218
8.376479489321003	6.239314	2.4978619
8.394053265720377	6.283037	2.5065987
8.411627239898356	6.224129	2.4948204
8.42920141227497	6.2555957	2.501119
8.44677578327029	6.250629	2.500126
8.464350353304427	6.243377	2.498675
8.48192512279754	6.187258	2.4874198
8.499500092169827	6.0589595	2.4614954
8.51707526184153	5.9730234	2.4439769
8.534650632232934	5.957995	2.4409003
8.552226203764365	6.03897	2.4574316
8.569801976856192	6.1294613	2.475775
8.587377951928834	6.2292986	2.4958563
8.60495412940274	6.2337217	2.4967422
8.622530509698416	6.265812	2.5031605
8.6401070932364	6.384303	2.526718
8.657683880437283	6.4383326	2.537387
8.675260871721695	6.5703645	2.5632722
8.692838067510303	6.7113333	2.590624
8.710415468223834	6.893471	2.625542
8.727993074283043	6.9837627	2.642681
8.745570886108737	6.951996	2.6366637
8.763148904121765	6.9521637	2.6366956
8.78072712874302	6.965745	2.6392698
8.798305560393441	7.21652	2.6863582
8.815884199494006	7.4497843	2.7294292
8.833463046465745	7.6634493	2.7682936
8.851042101729728	7.783086	2.7898183
8.86862136570707	8.003538	2.8290524
8.886200838818924	8.18251	2.8605087
8.903780521486505	8.224243	2.867794
8.921360414131055	8.337336	2.8874445
8.938940517173874	8.4111	2.9001896
8.956520831036297	8.538899	2.9221396
8.97410135613971	8.7309	2.9548097
8.99168209290554	8.963167	2.993855
9.009263041755265	9.3251915	3.0537176
9.026844203110405	9.661102	3.1082313
9.044425577392525	9.91802	3.149289
9.062007165023239	9.978536	3.1588821
9.079588966424197	10.189616	3.192118
9.097170982017108	10.344166	3.2162347
9.11475321222372	11.436105	3.381731
9.132335657465825	12.336183	3.5122902
9.149918318165264	12.438964	3.5268915
9.167501194743924	13.173834	3.6295776
9.18508428762374	12.802976	3.5781245
9.202667597226693	12.713028	3.5655334
9.220251123974803	12.290782	3.5058212
9.237834868290143	12.001321	3.4642923
9.255418830594836	11.863335	3.4443192
9.273003011311046	11.370125	3.3719616
9.290587410860985	11.100746	3.3317783
9.308172029666911	10.502763	3.2407966
9.32575686815113	10.189744	3.192138
9.343341926735997	8.784135	2.963804
9.360927205843916	8.536584	2.9217434
9.378512705897327	8.325382	2.8853738
9.396098427318728	8.104483	2.8468373
9.413684370530664	8.06919	2.840632
9.431270535955722	8.026071	2.8330321
9.448856924016539	7.959258	2.8212156
9.466443535135806	7.8093486	2.794521
9.484030369736251	7.6623616	2.7680972
9.501617428240658	7.6506705	2.7659845
9.519204711071852	7.6520686	2.7662373
9.536792218652714	7.6854887	2.7722714
9.55437995140617	7.679841	2.7712526
9.571967909755191	7.6554236	2.7668436
9.589556094122802	7.6664395	2.7688336
9.60714450493207	7.7325406	2.7807446
9.624733142606116	7.8141065	2.7953722
9.642322007568108	7.9349494	2.8169043
9.659911100241267	7.979779	2.8248503
9.677500421048851	8.041905	2.8358254
9.695089970414175	8.04143	2.8357415
9.712679748760609	8.008085	2.8298562
9.730269756511557	8.038778	2.835274
9.747859994090492	8.109307	2.8476846
9.765450461920915	8.185144	2.860969
9.78304116042639	8.204783	2.8643994
9.800632090030527	8.198081	2.863229
9.81822325115699	8.212463	2.8657396
9.835814644229481	8.276141	2.8768284
9.853406269671762	8.317328	2.883978
9.870998127907646	8.307607	2.882292
9.888590219360985	8.336536	2.887306
9.906182544455698	8.277695	2.8770983
9.923775103615734	8.26307	2.8745556
9.941367897265108	8.295283	2.8801534
9.958960925827878	8.269464	2.8756676
9.97655418972816	8.325876	2.8854594
9.994147689390106	8.317982	2.8840911
10.011741425237934	8.289865	2.8792124
10.029335397695904	8.3408785	2.888058
10.04692960718833	8.250273	2.8723288
10.06452405413958	8.250164	2.87231
10.082118738974064	8.242607	2.870994
10.099713662116246	8.178705	2.8598435
10.117308823990651	8.121775	2.8498728
10.134904225021844	8.007934	2.8298292
10.152499865634445	8.033738	2.834385
10.170095746253125	8.054406	2.8380287
10.18769186730261	8.077952	2.8421738
10.205288229207675	8.030707	2.8338504
10.222884832393145	7.9986467	2.828188
10.2404816772839	7.9716988	2.8234198
10.258078764304868	7.9896035	2.8265886
10.275676093881035	8.070684	2.840895
10.293273666437438	8.10199	2.8463995
10.310871482399158	8.225145	2.8679514
10.32846954219134	8.201046	2.863747
10.346067846239173	8.189249	2.8616865
10.363666394967908	8.099886	2.8460298
10.38126518880283	8.089013	2.844119
10.398864228169298	8.149249	2.854689
10.416463513492713	8.184875	2.8609219
10.434063045198531	8.126557	2.8507118
10.451662823712262	8.154015	2.8555236
10.469262849459467	8.216305	2.8664098
10.486863122865758	8.180821	2.8602135
10.504463644356806	8.121286	2.849787
10.522064414358338	8.019051	2.8317928
10.539665433296118	7.956302	2.8206918
10.557266701595987	7.903681	2.8113487
10.574868219683818	7.801925	2.7931926
10.592469987985552	7.6636834	2.7683358
10.610072006927185	7.5529466	2.7482624
10.627674276934751	7.5354347	2.7450745
10.64527679843435	7.435731	2.7268536
10.662879571852143	7.296435	2.7011914
10.680482597614331	7.210049	2.6851535
10.698085876147173	7.043661	2.6539896
10.715689407876988	6.982451	2.6424327
10.733293193230146	6.8791647	2.622816
10.750897232633072	6.7645035	2.6008658
10.76850152651225	6.705796	2.589555
10.786106075294207	6.6137934	2.5717297
10.803710879405534	6.5319057	2.5557592
10.821315939272877	6.4617567	2.5419986
10.83892125532294	6.346793	2.5192842
10.856526827982472	6.290463	2.5080795
10.874132657678285	6.2914305	2.5082724
10.891738744837243	6.255741	2.501148
10.909345089886271	6.1821322	2.4863894
10.926951693252343	6.0444365	2.4585435
10.944558555362494	5.9922705	2.4479115
10.96216567664381	5.9221506	2.433547
10.979773057523436	5.884423	2.425783
10.997380698428573	5.8715544	2.423129
11.014988599786477	5.802361	2.408809
11.032596762024461	5.702698	2.3880322
11.050205185569892	5.589799	2.3642755
11.067813870850198	5.52639	2.3508275
11.085422818292859	5.5152683	2.348461
11.10303202832541	5.4535246	2.3352783
11.120641501375454	5.50806	2.3469257
11.138251237870636	5.4668136	2.338122
11.155861238238671	5.3949084	2.3226943
11.173471502907317	5.236872	2.2884214
11.191082032304402	5.125471	2.2639503
11.208692826857805	5.0616274	2.2498062
11.226303886995465	5.0201225	2.240563
11.243915213145371	4.978586	2.2312746
11.261526805735578	4.866399	2.2059915
11.279138665194196	4.8040752	2.1918201
11.296750791949393	4.782422	2.1868749
11.314363186429393	4.7917585	2.1890085
11.331975849062479	4.7328873	2.17552
11.34958878027699	4.653151	2.1571164
11.36720198050133	4.6003323	2.1448386
11.384815450163948	4.566504	2.136938
11.402429189693366	4.5270987	2.127698
11.420043199518153	4.4161463	2.1014628
11.437657480066942	63.355953	7.9596453
11.455272031768422	85.066345	9.223142
11.472886855051353	107.46984	10.366766
11.490501950344528	99.112526	9.955527
11.508117318076819	84.474075	9.190978
11.52573295867715	45.880474	6.773513
11.543348872574514	4.1855636	2.045865
11.560965060197946	4.1808295	2.0447078
11.57858152197655	4.1512213	2.0374546
11.59619825833949	4.103811	2.0257864
11.613815269715985	3.9971917	1.9992977
11.631432556535323	38.483635	6.203518
11.649050119226837	82.99181	9.109984
11.666667958219929	93.446205	9.666758
11.68428607394406	107.67052	10.37644
11.701904466828756	82.55766	9.086124
11.719523137303586	65.361374	8.084639
11.737142085798196	4.6103373	2.1471696
11.754761312742286	3.6905918	1.9210913
11.772380818565619	3.6401424	1.9079157
11.790000603698015	3.6136153	1.9009511
11.80762066856935	3.5824375	1.8927329
11.825241013609572	3.559736	1.8867263
11.842861639248683	3.525687	1.8776813
11.860482545916748	3.526573	1.8779172
11.878103734043883	3.4792738	1.8652811
11.895725204060282	3.442081	1.8552846
11.91334695639619	3.3799696	1.8384694
11.930968991481919	3.3633015	1.8339306
11.948591309747824	3.350073	1.8303205
11.966213911624347	3.3296578	1.824735
11.98383679754198	3.2727349	1.8090702
12.001459967931268	3.228043	1.7966756
12.019083423222835	3.216373	1.793425
12.036707163847352	3.2069442	1.7907943
12.05433119023556	3.1876166	1.7853898
12.071955502818259	3.151713	1.7753065
12.089580102026313	3.1273725	1.7684379
12.107204988290643	3.1384234	1.7715596
12.12483016204224	3.131837	1.7696997
12.142455623712152	3.0920608	1.7584257
12.16008137373149	3.0915062	1.758268
12.177707412531431	3.0691316	1.7518938
12.19533374054321	3.127104	1.7683619
12.212960358198126	3.1028106	1.7614796
12.230587265927545	3.0974634	1.7599611
12.248214464162889	3.0708547	1.7523854
12.265841953335649	3.0877647	1.7572037
12.283469733877375	3.1031983	1.7615896
12.301097806219685	3.089407	1.7576709
12.31872617079425	3.016942	1.7369347
12.336354828032825	2.966632	1.7223914
12.353983778367205	2.934417	1.713014
12.371613022229262	2.9252226	1.7103282
12.389242560050928	2.9224083	1.7095053
12.406872392264201	2.905036	1.7044166
12.424502519301143	2.9211404	1.7091345
12.442132941593874	2.9064415	1.7048289
12.459763659574586	2.8419974	1.6858225
12.477394673675532	2.8195248	1.679144
12.49502598432903	2.78807	1.6697515
12.51265759196746	2.8041785	1.6745682
12.530289497023267	2.8020465	1.6739315
12.547921699928967	2.8066583	1.6753085
12.565554201117134	2.8062534	1.6751876
12.583187001020404	2.7960837	1.6721494
12.600820100071486	2.753928	1.6594963
12.618453498703152	2.758653	1.6609193
12.636087197348235	2.7501595	1.6583605
12.65372119643964	2.7457879	1.6570419
12.671355496410326	2.7125106	1.6469702
12.68899009769333	2.7499404	1.6582944
12.706625000721749	2.8284807	1.6818087
12.724260205928752	2.9308443	1.7119709
12.741895713747551	2.9630075	1.7213389
12.759531524611454	2.99014	1.7292022
12.777167638953818	2.9858587	1.7279637
12.794804057208072	2.984246	1.727497
12.812440779807702	2.9973145	1.7312754
12.830077807186271	3.170387	1.7805581
12.847715139777405	3.236516	1.799032
12.865352778014795	3.47602	1.8644087
12.882990722332197	3.6151536	1.9013557
12.90062897316344	3.6846385	1.9195412
12.918267530942412	3.7558978	1.9380139
12.935906396103071	3.6211176	1.9029235
12.953545569079449	3.818829	1.9541825
12.971185050305628	3.6270943	1.9044932
12.988824840215775	3.6667266	1.9148699
13.006464939244115	3.6394272	1.9077283
13.024105347824943	3.4943962	1.8693304
13.041746066392617	3.5784886	1.8916893
13.05938709538157	3.3798845	1.8384463
13.077028435226296	3.3926697	1.8419201
13.094670086361363	3.2639546	1.8066418
13.112312049221401	3.1670516	1.7796211
13.129954324241112	3.076788	1.7540776
13.147596911855258	2.8653212	1.6927259
13.165239812498685	2.8322134	1.6829181
13.182883026606293	2.7448385	1.6567554
13.200526554613058	2.7050512	1.644704
13.218170396954017	2.6909413	1.6404089
13.235814554064284	2.7088563	1.6458603
13.253459026379034	2.7306478	1.6524671
13.271103814333523	2.7384853	1.6548369
13.288748918363058	2.695366	1.641757
13.306394338903031	2.6533668	1.6289158
13.32404007638889	2.6143353	1.6168907
13.341686131256164	2.6077256	1.6148454
13.359332503940449	2.5958288	1.6111575
13.376979194877402	2.6136296	1.6166724
13.394626204502751	2.6690197	1.6337135
13.412273533252307	2.7371335	1.6544285
13.429921181561937	2.7407765	1.655529
13.447569149867581	2.7608929	1.6615934
13.465217438605247	2.7019925	1.6437739
13.482866048211022	2.6342235	1.6230291
13.500514979121052	2.629159	1.6214682
13.518164231771568	2.650776	1.6281203
13.535813806598844	2.676275	1.6359324
13.553463704039254	2.6686082	1.6335875
13.571113924529229	2.6591887	1.6307019
13.588764468505275	2.676671	1.6360534
13.606415336403956	2.7311106	1.6526072
13.624066528661917	2.7369192	1.6543636
13.641718045715882	2.7786155	1.6669179
13.659369888002635	2.768918	1.6640066
13.67702205595903	2.8337739	1.6833817
13.694674550021993	2.9384353	1.7141864
13.712327370628532	3.0473387	1.7456628
13.729980518215713	3.1519976	1.7753866
13.747633993220681	3.2135446	1.7926363
13.765287796080647	3.2512848	1.8031319
13.7829419272329	3.3209662	1.8223518
13.800596387114801	3.323139	1.8229479
13.818251176163775	3.34169	1.828029
13.835906294817324	3.384631	1.8397367
13.853561743513023	3.4264765	1.8510745
13.871217522688525	3.456406	1.8591412
13.888873632781538	3.4670298	1.8619962
13.906530074229858	3.4620414	1.8606561
13.92418684747135	3.4707422	1.8629928
13.941843952943948	3.4742324	1.8639293
13.959501391085665	3.486659	1.8672597
13.977159162334578	3.4991872	1.8706114
13.994817267128846	3.4446397	1.8559741
14.012475705906693	3.3293085	1.8246393
14.030134479106424	3.2164185	1.7934376
14.047793587166414	3.1682136	1.7799476
14.065453030525108	3.0966856	1.7597402
14.083112809621026	2.9786987	1.7258908
14.100772924892766	2.8808496	1.6973065
14.118433376778997	2.8584306	1.6906894
14.136094165718458	2.808872	1.675969
14.153755292149969	2.7558188	1.6600659
14.171416756512416	2.6820807	1.6377059
14.189078559244768	2.632976	1.6226448
14.20674070078606	2.5995264	1.6123047
14.224403181575408	2.5691478	1.6028562
14.242066002051999	2.527419	1.5897858
14.259729162655093	2.4613771	1.5688777
14.277392663824022	2.4075708	1.5516349
14.295056505998208	2.3653383	1.5379657
14.312720689617128	2.3883455	1.5454273
14.330385215120348	2.4105642	1.5525992
14.348050082947497	2.4138439	1.553655
14.3657152935383	2.3856173	1.5445443
14.383380847332528	2.3514037	1.5334288
14.401046744770051	2.3512905	1.5333918
14.418712986290798	2.350823	1.5332394
14.436379572334793	2.3958857	1.5478649
14.454046503342123	2.3840015	1.5440212
14.471713779752946	2.3926926	1.546833
14.489381402007504	2.3177068	1.5224017
14.507049370546113	2.299535	1.5164218
14.524717685809168	2.3026948	1.5174633
14.542386348237134	2.354089	1.5343041
14.560055358270553	2.3787134	1.5423079
14.577724716350051	2.4295313	1.5586954
14.595394422916325	2.4470854	1.5643163
14.61306447841015	2.47206	1.5722786
14.63073488327237	2.4586613	1.5680119
14.648405637943917	2.4593854	1.5682428
14.6660767428658	2.481473	1.5752692
14.683748198479094	2.4875283	1.57719
14.701420005224954	2.5503416	1.5969789
14.719092163544628	2.6349964	1.6232672
14.73676467387942	2.687731	1.63943
14.754437536670727	2.7245908	1.6506335
14.772110752360014	2.6857548	1.6388272
14.78978432138882	2.647588	1.627141
14.807458244198777	2.6329136	1.6226255
14.82513252123159	2.6486206	1.6274583
14.842807152929028	2.6975405	1.6424191
14.860482139732962	2.674497	1.6353889
14.87815748208531	2.6715858	1.6344986
14.8958331804281	2.661192	1.6313161
14.91350923520342	2.648563	1.6274406
14.931185646853438	2.7062109	1.6450565
14.948862415820408	2.6804006	1.637193
14.966539542546656	2.6672113	1.6331599
14.98421702747459	2.5979047	1.6118017
15.001894871046696	2.6080725	1.6149528
15.019573073705542	2.644143	1.6260822
15.037251635893766	2.6268458	1.6207547
15.054930558054092	2.6483035	1.6273609
15.072609840629323	2.6855402	1.6387618
15.090289484062351	2.826281	1.6811547
15.107969488796124	3.058614	1.7488893
15.125649855273691	3.3957863	1.8427659
15.14333058393817	3.8819177	1.9702582
15.161011675232768	4.8872566	2.210714
15.17869312960076	6.287114	2.507412
15.196374947485506	8.137392	2.8526115
15.214057129330447	11.237189	3.3521917
15.231739675579114	16.021679	4.002709
15.249422586675102	21.233753	4.60801
15.267105863062092	24.494131	4.9491544
15.284789505183847	25.033327	5.0033317
15.302473513484218	23.41175	4.838569
15.320157888407127	19.950092	4.4665527
15.337842630396578	15.548676	3.9431808
15.355527739896656	11.942296	3.4557626
15.37321321735153	9.135128	3.0224373
15.39089906320545	6.590703	2.5672364
15.408585277902748	4.932045	2.220821
15.42627186188783	3.7972836	1.948662
15.443958815605198	3.22232	1.7950822
15.461646139499424	2.901362	1.7033385
15.479333834015168	2.7392366	1.6550639
15.497021899597165	2.6984732	1.642703
15.514710336690234	2.6413865	1.6252342
15.53239914573928	2.599377	1.6122583
15.550088327189297	2.5467412	1.5958513
15.567777881485336	2.5021892	1.581831
15.58546780907256	2.454709	1.5667511
15.6031581103962	2.4434075	1.5631403
15.620848785901568	2.4356108	1.5606444
15.638539836034063	2.4225657	1.5564593
15.656231261239173	2.4256148	1.5574385
15.673923061962451	2.417258	1.5547534
15.691615238649552	2.402284	1.5499303
15.709307791746202	2.38968	1.545859
15.727000721698221	2.3703036	1.539579
15.744694028951498	2.3909423	1.5462673
15.76238771395202	2.422601	1.5564706
15.780081777145844	2.4029944	1.5501595
15.797776218979125	2.3923562	1.5467243
15.815471039898094	2.3892937	1.545734
15.833166240349064	2.3773096	1.5418526
15.850861820778437	2.35313	1.5339916
15.868557781632699	2.3775656	1.5419357
15.886254123358412	2.3992708	1.548958
15.903950846402232	2.4144402	1.5538468
15.921647951210897	2.4297833	1.5587763
15.939345438231225	2.4301345	1.5588889
15.957043307910133	2.4352095	1.5605158
15.974741560694602	2.3995557	1.54905
15.992440197031714	2.4467773	1.5642178
16.01013921736862	2.4079041	1.5517423
16.02783862215259	2.3868942	1.5449576
16.045538411830933	2.36118	1.5366132
16.06323858685107	2.3911595	1.5463375
16.080939147660512	2.4316432	1.5593727
16.09864009470684	2.3987653	1.5487947
16.11634142843774	2.387901	1.5452834
16.134043149300954	2.3815386	1.5432235
16.15174525774433	2.3826053	1.543569
16.169447754215817	2.4030051	1.5501629
16.18715063916342	2.3883994	1.5454447
16.204853913035244	2.4360397	1.5607817
16.222557576279478	2.4349897	1.5604453
16.240261629344403	22.416552	4.734612
16.257966072678386	42.952213	6.553794
16.275670906729868	38.09772	6.172335
16.293376131947387	2.5446694	1.595202
16.31108174877957	2.5363207	1.5925831
16.328787757675133	2.5290117	1.5902867
16.34649415908287	2.5031188	1.5821247
16.364200953451657	2.4918342	1.5785545
16.38190814123048	2.5602248	1.6000702
16.39961572286839	2.5910683	1.6096796
16.41732369881455	2.627501	1.6209568
16.43503206951817	2.638701	1.6244079
16.45274083542859	2.6832383	1.6380593
16.47044999699522	2.704376	1.6444987
16.488159554667558	2.7663674	1.6632401
16.505869508895184	2.8348124	1.6836901
16.523579860127786	2.8646393	1.6925246
16.541290608815117	2.8915305	1.7004501
16.559001755407035	2.9310813	1.7120401
16.57671330035348	3.0112123	1.7352846
16.59442524410448	3.0736818	1.753192
16.61213758711015	3.176008	1.7821358
16.629850329820705	3.2656868	1.8071212
16.647563472686436	3.3762038	1.8374449
16.665277016157724	3.427953	1.8514732
16.682990960685053	3.4858232	1.867036
16.70070530671898	3.5180933	1.8756582
16.718420054710155	3.504521	1.8720366
16.736135205109335	3.5002472	1.8708948
16.753850758367335	3.5236475	1.8771381
16.771566714935087	3.6255362	1.9040841
16.789283075263597	3.7121675	1.9266986
16.80699983980398	3.8627837	1.9653965
16.82471700900741	3.9307616	1.9826149
16.84243458332518	3.9825232	1.995626
16.860152563208665	3.9945319	1.9986326
16.87787094910932	4.0243964	2.00609
16.89558974147871	4.0659027	2.0164084
16.913308940768466	4.161816	2.040053
16.931028547430333	4.2951965	2.0724857
16.94874856191613	4.359199	2.0878694
16.966468984677785	4.379888	2.0928183
16.98418981616729	4.384142	2.0938342
17.00191105683676	4.3916044	2.0956156
17.019632707138374	4.403118	2.0983608
17.03735476752442	4.4449825	2.1083126
17.05507723844728	4.499789	2.1212707
17.072800120359403	4.5485754	2.1327388
17.090523413713353	4.6240373	2.1503575
17.108247118961785	4.671544	2.1613755
17.125971236557437	4.712212	2.170763
17.143695766953133	4.699817	2.1679063
17.161420710601806	4.6958504	2.166991
17.179146067956477	4.709877	2.1702251
17.19687183947025	4.733021	2.1755507
17.21459802559634	4.7665477	2.1832426
17.232324626788028	4.739757	2.1770983
17.25005164349871	4.634608	2.152814
17.267779076181863	4.555065	2.13426
17.285506925291074	4.5438266	2.1316254
17.30323519127999	4.598927	2.144511
17.320963874602384	4.583912	2.1410072
17.33869297571211	4.5362124	2.1298387
17.356422495063114	4.479817	2.1165578
17.37415243310944	4.437797	2.106608
17.391882790305218	4.422089	2.1028764
17.40961356710468	4.4428964	2.107818
17.42734476396215	4.47097	2.114467
17.445076381332044	4.5099196	2.1236572
17.462808419668868	4.572436	2.1383255
17.48054087942723	4.691906	2.1660807
17.498273761061835	4.943412	2.2233784
17.51600706502747	5.4226003	2.3286479
17.533740791779024	6.0996604	2.469749
17.551474941771485	7.5097513	2.7403924
17.56920951545993	8.711837	2.9515822
17.586944513299528	11.061284	3.325851
17.60467993574556	12.931126	3.5959873
17.622415783253373	14.808452	3.848175
17.64015205627843	16.37765	4.046931
17.657888755276293	17.655134	4.2018013
17.675625880702604	18.25141	4.2721667
17.69336343301311	18.0689	4.250753
17.71110141266366	17.103693	4.135661
17.728839820110178	15.957192	3.9946454
17.746578655808705	14.751862	3.8408153
17.764317920215372	13.040315	3.6111376
17.7820576137864	11.386544	3.3743954
17.79979773697811	9.320303	3.0529172
17.81753829024692	7.3323994	2.7078404
17.835279274049356	5.6560235	2.3782396
17.85302068884201	4.641359	2.1543813
17.870762535081607	4.0812016	2.0201983
17.888504813224934	3.83763	1.958987
17.90624752372891	3.7041035	1.9246048
17.923990667050536	3.600859	1.8975929
17.941734243646895	3.5340447	1.8799055
17.959478253975185	3.4404466	1.8548441
17.9772226984927	3.410589	1.846778
17.994967577656833	3.391058	1.8414825
18.01271289192506	3.373193	1.8366255
18.030458641754965	3.3371816	1.8267955
18.04820482760425	3.286686	1.8129219
18.06595144993067	3.2554471	1.8042858
18.083698509192125	3.2210712	1.7947344
18.101446005846576	3.2236347	1.7954483
18.119193940352105	3.227597	1.7965515
18.136942313166887	3.2218695	1.7949567
18.1546911247492	3.215385	1.7931495
18.1724403755574	3.2196994	1.794352
18.19019006604997	3.189349	1.7858748
18.207940196685467	3.1616054	1.7780904
18.225690767922575	3.1540818	1.7759734
18.243441780220046	3.1274202	1.7684513
18.261193234036764	3.1246092	1.7676564
18.278945129831676	3.0868838	1.756953
18.29669746806386	3.0228426	1.7386324
18.314450249192483	3.0110562	1.7352395
18.3322034736768	3.0548632	1.7478167
18.349957141976184	3.0718706	1.7526753
18.3677112545501	3.0264478	1.7396688
18.385465811858108	2.9964516	1.7310262
18.403220814359884	2.999309	1.7318513
18.420976262515172	3.0693576	1.7519583
18.43873215678387	3.1070318	1.7626774
18.456488497625923	3.148931	1.7745228
18.474245285501407	3.2547352	1.8040885
18.492002520870486	3.3323545	1.8254738
18.50976020419343	3.4150891	1.847996
18.527518335930615	3.6546462	1.9117129
18.545276916542516	4.235598	2.0580568
18.563035946489688	4.4342084	2.105756
18.580795426232832	4.883794	2.2099307
18.598555356232698	4.7257514	2.1738794
18.616315736950185	4.9553394	2.2260592
18.63407656884626	4.589089	2.142216
18.65183785238201	4.7676616	2.1834977
18.669599588018617	4.5457234	2.1320703
18.68736177621737	4.5600667	2.1354313
18.705124417439652	4.556167	2.134518
18.72288751214696	4.3877516	2.094696
18.740651060800886	4.517989	2.1255562
18.758415063863115	4.242148	2.0596476
18.77617952179546	4.3896093	2.0951395
18.793944435059814	4.1702332	2.042115
18.811709804118184	4.188089	2.046482
18.829475629432675	4.1103296	2.0273948
18.8472419114655	3.8885093	1.9719304
18.86500865067897	3.9705017	1.9926118
18.88277584753551	3.6916053	1.9213551
18.90054350249763	3.6717854	1.9161903
18.918311616027957	3.401995	1.8444498
18.936080188589226	3.2944674	1.8150668
18.953849220644265	3.0045743	1.7333708
18.971618712656007	2.8581262	1.6905993
18.9893886650875	2.7941632	1.6715751
19.007159078401887	7.949647	2.819512
19.024929953062408	32.820614	5.7289276
19.042701289532435	32.81288	5.728253
19.060473088275405	25.415552	5.0413837
19.07824534975489	2.698008	1.6425614
19.096018074434568	2.6508021	1.6281284
19.113791262778197	2.6008205	1.612706
19.13156491524966	2.5954378	1.6110362
19.149339032312945	2.5906253	1.6095419
19.167113614432136	2.5770662	1.6053243
19.184888662071433	2.5581002	1.5994062
19.202664175695123	2.5089674	1.583972
19.220440155767623	2.4773982	1.5739753
19.238216602753447	2.5098097	1.5842379
19.2559935171172	2.5530794	1.5978358
19.27377089932361	2.56979	1.6030564
19.291548749837514	2.5603828	1.6001196
19.309327069123835	2.5542746	1.5982097
19.32710585764763	2.5217907	1.5880147
19.344885115874032	2.5189347	1.5871152
19.362664844268313	2.533533	1.5917076
19.380445043295822	2.523062	1.5884149
19.39822571342203	2.5109732	1.5846051
19.41600685511252	2.4946861	1.5794575
19.43378846883297	2.4800682	1.5748233
19.451570555049173	2.438568	1.5615915
19.469353114227037	2.428571	1.5583873
19.48713614683254	2.456494	1.5673207
19.50491965333182	2.4813056	1.575216
19.52270363419109	2.4878492	1.5772917
19.540488089876686	2.4712422	1.5720185
19.55827302085503	2.4733164	1.5726781
19.576058427592674	2.4742951	1.5729892
19.593844310556282	2.4964745	1.5800235
19.611630670212598	2.5049436	1.5827013
19.629417507028506	2.492383	1.5787283
19.64720482147098	2.4671469	1.5707154
19.6649926140071	2.480973	1.5751104
19.682780885104084	2.4549983	1.5668434
19.70056963522921	2.4403956	1.5621766
19.718358864849908	2.4680235	1.5709945
19.7361485744337	2.510669	1.584509
19.753938764448215	2.5421972	1.5944269
19.771729435361202	2.5424442	1.5945044
19.789520587640506	2.5424266	1.5944989
19.807312221754092	2.5054693	1.5828674
19.825104338170043	2.482699	1.5756582
19.842896937356517	2.4754896	1.5733689
19.860690019781824	2.5105987	1.5844868
19.87848358591436	2.4852998	1.5764834
19.896277636222635	2.48144	1.5752587
19.914072171175278	2.5049486	1.582703
19.931867191241015	2.51797	1.5868113
19.94966269688869	2.4986618	1.5807155
19.967458688587264	2.4593174	1.5682211
19.985255166805807	2.4369879	1.5610855
20.00305213201348	2.4172614	1.5547545
20.020849584679578	2.4341464	1.5601751
20.038647525273507	2.433903	1.5600971
20.05644595426477	2.4598835	1.5684016
20.07424487212299	2.4493153	1.5650289
20.092044279317903	2.4599235	1.5684143
20.109844176319353	2.4667108	1.5705765
20.127644563597304	2.4480395	1.5646212
20.145445441621817	2.4475262	1.5644572
20.16324681086307	2.3917773	1.5465372
20.181048671791373	2.3667655	1.5384295
20.198851024877122	2.303398	1.517695
20.216653870590836	2.3367052	1.5286286
20.234457209403146	2.3496528	1.5328577
20.252261041784802	2.3511012	1.5333301
20.270065368206662	2.325332	1.5249039
20.287870189139685	2.3130682	1.5208775
20.305675505054968	2.307896	1.519176
20.323481316423702	2.3026955	1.5174636
20.341287623717207	2.3024879	1.5173951
20.359094427406884	2.3124948	1.5206889
20.376901727964288	2.3137367	1.5210972
20.39470952586107	2.3343809	1.527868
20.41251782156899	2.354515	1.5344429
20.430326615559935	2.3938248	1.547199
20.448135908305886	2.3592567	1.5359873
20.465945700278965	2.3597417	1.5361451
20.483755991951384	2.35771	1.5354836
20.50156678379548	2.3658307	1.5381258
20.519378076283708	2.352671	1.5338418
20.537189869888635	2.3297265	1.5263442
20.55500216508294	2.3250997	1.5248277
20.572814962339415	2.3042712	1.5179826
20.59062826213098	2.2992444	1.516326
20.60844206493066	2.302807	1.5175003
20.626256371211593	2.3102715	1.5199578
20.644071181447032	2.3174815	1.5223277
20.66188649611036	2.314192	1.5212469
20.67970231567506	2.3199046	1.5231233
20.697518640614742	2.3127058	1.5207583
20.715335471403122	2.3084476	1.5193577
20.73315280851404	2.3491971	1.5327091
20.750970652421447	2.3478966	1.5322847
20.768789003599412	2.3011992	1.5169704
20.786607862522136	2.2907774	1.5135314
20.8044272296639	2.3085623	1.5193954
20.82224710549913	2.3077655	1.5191331
20.84006749050237	2.2729037	1.5076152
20.857888385148268	3.7891853	1.946583
20.8757097899116	45.901707	6.7750797
20.893531705267254	64.74426	8.046382
20.911354131690224	83.7606	9.1520815
20.92917706965566	69.01269	8.307387
20.94700051963877	50.10872	7.078751
20.96482448211493	29.396198	5.421826
20.982648957559622	4.1456966	2.0360985
21.00047394644843	2.2509902	1.50033
21.01829944925707	2.257427	1.5024736
21.036125466461375	2.2440033	1.4979998
21.053951998537297	2.233783	1.4945846
21.071779045960906	2.2112188	1.4870168
21.089606609208378	2.221665	1.490525
21.10743468875603	2.2189734	1.4896219
21.12526328508028	2.1963952	1.482024
21.143092398657675	2.1972005	1.4822958
21.16092202996488	2.2354367	1.4951377
21.17875217947867	2.2296665	1.4932067
21.19658284767596	2.2158856	1.4885851
21.21441403503377	2.1991668	1.4829588
21.232245742029225	2.1873567	1.4789715
21.2500779691396	2.1415074	1.463389
21.26791071684227	2.1562123	1.4684047
21.28574398561475	2.1825216	1.4773359
21.30357777593465	2.1871524	1.4789025
21.321412088279704	2.1588337	1.469297
21.339246923127792	2.1017048	1.4497257
21.357082280956888	2.1114714	1.4530903
21.3749181622451	2.1398304	1.4628159
21.392754567470647	2.1673665	1.4721979
21.41059149711187	2.1819613	1.4771464
21.42842895164726	2.1476958	1.4655019
21.446266931555378	2.1337914	1.4607503
21.464105437314945	2.1129963	1.453615
21.481944469404798	2.1389372	1.4625106
21.49978402830388	2.1455452	1.4647679
21.51762411449127	2.1458755	1.4648807
21.53546472844617	2.1163757	1.4547769
21.553305870647876	2.0838861	1.4435672
21.571147541575865	2.0449195	1.4300069
21.58898974170967	2.027632	1.4239495
21.60683247152899	2.0456586	1.4302652
21.62467573151363	2.0711534	1.4391502
21.642519522143523	2.0939105	1.4470351
21.660363843898722	2.084896	1.4439169
21.6782086972594	2.0669348	1.4376838
21.696054082705864	2.0523212	1.4325925
21.713900000718535	2.0507677	1.4320501
21.73174645177795	2.021831	1.421911
21.749593436364794	2.0194175	1.4210621
21.767440954959845	2.0080347	1.4170514
21.785289008044032	2.0292888	1.4245311
21.803137596098388	2.0476882	1.4309746
21.820986719604086	2.0468397	1.430678
21.838836379042412	1.9953877	1.4125819
21.85668657489478	1.9925226	1.4115674
21.87453730764273	2.0238225	1.4226111
21.892388577767914	2.0267131	1.4236268
21.91024038575213	2.0217159	1.4218706
21.928092732077285	2.008327	1.4171546
21.945945617225426	2.0224478	1.422128
21.963799041678694	2.0078948	1.4170021
21.981653005919398	31.339813	5.5981975
21.999507510429943	78.11881	8.838485
22.01736255569286	73.079956	8.548681
22.035218142190818	4.178634	2.0441709
22.05307427040661	1.9749054	1.4053133
22.07093094082315	1.9680045	1.4028559
22.088788153923474	1.9904219	1.4108231
22.106645910190746	1.9819996	1.4078351
22.12450421010827	1.9663838	1.4022781
22.142363054159464	1.9906228	1.4108943
22.16022244282787	2.0130327	1.4188138
22.178082376597164	1.989527	1.4105059
22.195942855951145	1.9391983	1.392551
22.213803881373742	1.9339082	1.3906503
22.231665453349002	1.9483222	1.3958231
22.24952757236111	1.9600753	1.4000269
22.26739023889438	1.9647982	1.4017127
22.28525345343323	1.9438518	1.3942208
22.30311721646225	1.9333025	1.3904325
22.320981528466113	1.9179153	1.3848882
22.33884638992964	1.9436436	1.3941462
22.356711801337788	1.9705249	1.4037539
22.37457776317561	1.9902627	1.4107667
22.392444275928337	1.962111	1.4007537
22.410311340081282	1.9383721	1.3922544
22.428178956119904	1.9198534	1.3855878
22.446047124529805	1.9388797	1.3924366
22.46391584579669	1.9568775	1.3988844
22.481785120406414	1.9514877	1.3969566
22.49965494884496	1.9408165	1.3931319
22.51752533159841	1.9453387	1.394754
22.53539626915302	1.9255744	1.3876507
22.553267761995137	1.925074	1.3874704
22.571139810611264	1.9286083	1.3887434
22.589012415488025	1.9524156	1.3972887
22.60688557711216	1.9921327	1.4114293
22.624759295970566	1.9967741	1.4130726
22.642633572550263	1.9887117	1.4102169
22.660508407338362	1.9649132	1.4017537
22.67838380082217	1.9742925	1.4050952
22.696259753489077	1.9787046	1.4066644
22.714136265826614	2.010123	1.417788
22.73201333832246	2.010812	1.4180311
22.74989097146439	2.0157547	1.4197727
22.76776916574035	1.963675	1.4013119
22.785647921638393	1.9194137	1.385429
22.803527239646712	1.874241	1.3690292
22.82140712025363	1.8722293	1.3682944
22.839287563947593	1.9156744	1.3840789
22.85716857121719	1.9367148	1.391659
22.875050142551135	1.9147633	1.3837497
22.892932278438277	1.8957278	1.3768543
22.910814979367604	1.9254272	1.3875977
22.928698245828222	1.9453878	1.3947716
22.946582078309387	1.9264777	1.387976
22.96446647730047	1.9013247	1.3788853
22.98235144329098	1.8992506	1.378133
23.000236976770562	1.8653098	1.3657634
23.018123078229	1.8570297	1.3627287
23.03600974815619	1.8557804	1.3622704
23.053896987042194	1.8855785	1.3731637
23.071784795377173	1.8621458	1.3646046
23.08967317365145	1.8908019	1.3750644
23.10756212235546	1.881804	1.3717886
23.125451641979787	1.932828	1.3902618
23.143341733015134	1.9480995	1.3957434
23.161232395952357	1.9657929	1.4020674
23.179123631282426	1.9605201	1.4001857
23.197015439496468	1.9628437	1.4010153
23.214907821085717	1.9395595	1.3926806
23.23280077654157	1.9220989	1.3863978
23.250694306355538	1.8660622	1.3660389
23.268588411019277	1.8874658	1.3738507
23.28648309102458	1.9093175	1.3817805
23.304378346863356	1.9468589	1.3952988
23.322274179027676	1.9454887	1.3948078
23.340170588009723	1.943913	1.3942428
23.358067574301852	1.9351127	1.3910832
23.37596513839651	1.9491158	1.3961073
23.39386328078629	1.9259348	1.3877805
23.411762001963947	1.9306196	1.3894674
23.429661302422353	1.9431183	1.3939579
23.4475611826545	1.9530424	1.3975129
23.46546164315356	1.9454894	1.394808
23.48336268441279	1.917435	1.3847148
23.501264306925638	1.9240288	1.3870937
23.51916651118564	1.9513428	1.3969047
23.537069297686497	1.954494	1.3980322
23.554972666922037	1.9247158	1.3873413
23.57287661938623	1.9050711	1.3802432
23.59078115557318	1.9205198	1.3858283
23.608686275977128	1.93125	1.3896942
23.62659198109246	1.9559108	1.3985388
23.6444982714137	1.9642255	1.4015083
23.66240514743549	1.9651567	1.4018404
23.68031260965263	1.9373636	1.3918921
23.698220658560068	1.9123149	1.3828647
23.716129294652845	1.9056779	1.3804629
23.7340385184262	1.9206771	1.3858849
23.75194833037546	1.9002962	1.3785123
23.769858730996123	1.8605074	1.3640041
23.78776972078382	1.8834763	1.372398
23.80568130023431	1.8727347	1.368479
23.823593469843495	1.8543422	1.3617424
23.841506230107424	1.8556315	1.3622156
23.859419581522275	1.886817	1.3736145
23.87733352458438	1.9331485	1.3903772
23.89524805979019	1.9133469	1.3832378
23.913163187636318	1.8955803	1.3768008
23.931078908619508	1.92189	1.3863225
23.948995223236633	1.9712607	1.4040159
23.966912131984735	2.0178134	1.4204977
23.98482963536096	2.0394619	1.4280972
24.002747733862616	2.0405147	1.4284658
24.020666427987155	2.0559409	1.4338553
24.038585718232156	2.0805175	1.4424
24.056505605095353	2.0777874	1.4414532
24.074426089074617	2.101268	1.4495752
24.092347170667946	2.0617855	1.4358919
24.110268850373515	2.0321634	1.4255397
24.128191128689586	2.0263038	1.423483
24.146114006114626	2.0482218	1.431161
24.164037483147187	2.0607426	1.4355286
24.181961560286005	2.0650008	1.437011
24.199886238029926	2.0208251	1.4215573
24.21781151687797	2.0358856	1.4268446
24.235737397329274	2.0569658	1.4342126
24.253663879883135	2.0547714	1.4334474
24.271590965038975	2.025531	1.4232116
24.289518653296376	1.9666605	1.4023768
24.30744694515505	1.9933344	1.411855
24.32537584111486	2.0407805	1.428559
24.34330534167581	2.0460513	1.4304025
24.361235447338046	2.0483518	1.4312063
24.379166158601876	2.056829	1.4341649
24.39709747596772	2.062989	1.4363109
24.41502939993615	2.034182	1.4262476
24.432961931007917	2.00952	1.4175754
24.450895069683856	2.0178254	1.4205018
24.468828816465	2.0095918	1.4176008
24.4867631718525	2.0351722	1.4265946
24.504698136347656	2.027118	1.4237689
24.52263371045192	2.0267985	1.4236567
24.540569894666874	1.9839118	1.408514
24.558506689494266	1.976865	1.4060104
24.57644409543597	1.9385873	1.3923316
24.594382112994012	1.9333086	1.3904346
24.61232074267057	1.9537736	1.3977746
24.630259984967953	1.9671698	1.4025583
24.64819984038863	1.9055564	1.3804189
24.66614030943522	1.9145314	1.3836659
24.684081392610462	1.9151167	1.3838774
24.702023090417274	1.9616299	1.400582
24.7199654033587	2.0051274	1.4160253
24.737908331937927	2.0188951	1.4208783
24.755851876658305	2.0352664	1.4266276
24.773796038023324	1.9984937	1.4136809
24.79174081653661	2.043414	1.4294803
24.809686212701962	2.106453	1.4513625
24.827632227023294	2.1236057	1.4572597
24.8455788600047	2.1188092	1.455613
24.8635261121504	2.125132	1.4577832
24.88147398396475	2.1299477	1.459434
24.899422475952303	2.1044493	1.450672
24.917371588617698	2.1103745	1.4527128
24.935321322465768	2.149256	1.466034
24.953271678001478	2.2561436	1.5020465
24.97122265572994	2.4786134	1.5743612
24.989174256156414	2.8435478	1.6862823
25.00712647978632	3.3186476	1.8217156
25.02507932712521	3.9291158	1.9821998
25.043032798678798	4.474233	2.1152384
25.060986894952933	5.222551	2.28529
25.078941616453637	5.9489994	2.439057
25.096896963687055	6.9214497	2.6308649
25.114852937159508	8.065251	2.8399386
25.132809537377444	8.640174	2.9394174
25.150766764847468	8.719147	2.95282
25.168724620076347	8.071557	2.8410485
25.186683103570985	6.906886	2.6280956
25.204642215838426	5.6457925	2.3760877
25.222601957385894	4.2161474	2.053326
25.24056232872074	3.1840935	1.7844028
25.25852333035048	2.5786393	1.6058142
25.276484962782778	2.2314904	1.4938173
25.294447226525435	2.072658	1.439673
25.312410122086423	1.9668639	1.4024493
25.330373649973843	1.9078733	1.3812579
25.348337810695988	1.8850871	1.3729848
25.366302604761245	1.921469	1.3861706
25.384268032678207	1.9331342	1.3903719
25.40223409495558	1.9023912	1.379272
25.420200792102257	1.8482105	1.3594891
25.438168124627246	1.871618	1.368071
25.45613609303974	1.9028361	1.3794333
25.474104697849057	1.9306664	1.3894843
25.492073939564698	1.9374535	1.3919244
25.510043818696285	1.9114827	1.3825638
25.528014335753614	1.8709426	1.3678241
25.54598549124664	1.8280723	1.3520622
25.56395728568544	1.8834997	1.3724066
25.58192971958028	1.8748175	1.3692398
25.59990279344156	1.8928223	1.3757988
25.617876507779833	1.8982853	1.3777827
25.635850863105826	1.9015856	1.3789799
25.653825859930386	1.8884796	1.3742197
25.671801498764548	1.8911426	1.3751882
25.68977778011949	1.8791524	1.3708218
25.707754704506524	1.8625838	1.364765
25.725732272437153	1.8172233	1.3480443
25.743710484423012	1.8089843	1.3449849
25.761689340975888	1.857774	1.3630018
25.77966884260774	1.8665993	1.3662355
25.797648989830662	1.8759438	1.369651
25.815629783156922	1.866616	1.3662416
25.83361122309895	1.924084	1.3871136
25.85159331016929	1.9597572	1.3999133
25.869576044880695	1.9353871	1.391182
25.887559427746034	1.8767918	1.3699605
25.90554345927836	1.8907057	1.3750293
25.92352813999086	1.8373022	1.3554713
25.94151347039689	1.7910862	1.3383147
25.959499451009965	1.7936615	1.3392764
25.97748608234374	1.8481113	1.3594526
25.995473364912062	1.8382069	1.3558049
26.013461299228904	1.7940719	1.3394297
26.03144988580839	1.7966952	1.3404086
26.04943912516483	1.8295689	1.3526156
26.067429017812675	1.8343679	1.3543884
26.085419564266537	1.821511	1.3496337
26.103410765041186	1.8134874	1.3466579
26.12140262065155	1.8058249	1.3438098
26.139395131612723	1.8086692	1.3448677
26.157388298439948	1.7962599	1.3402462
26.17538212164861	1.7997048	1.3415308
26.193376601754295	1.8217778	1.3497325
26.211371739272714	1.8314198	1.3532996
26.229367534719746	1.8313259	1.3532649
26.247363988611433	1.8233268	1.3503062
26.26536110146397	1.8338453	1.3541955
26.283358873793727	1.8171388	1.3480129
26.301357306117204	1.8018188	1.3423184
26.319356398951104	1.8217713	1.34973
26.33735615281224	1.8076911	1.344504
26.35535656821762	1.80456	1.3433391
26.373357645684404	1.7708346	1.3307271
26.39135938572991	1.7734722	1.3317177
26.409361788871614	1.7699704	1.3304024
26.427364855627165	1.7934848	1.3392105
26.445368586514352	1.7926381	1.3388944
26.46337298205115	1.7968307	1.3404591
26.48137804275568	1.7841393	1.3357167
26.499383769146217	1.7795061	1.3339813
26.517390161741215	1.7571439	1.3255731
26.53539722105928	1.7478399	1.3220589
26.553404947619182	1.737732	1.3182306
26.571413341939856	1.777412	1.3331962
26.589422404540397	1.7952988	1.3398876
26.60743213594006	1.8037874	1.3430516
26.62544253665827	1.8002282	1.3417258
26.64345360721459	1.8473933	1.3591884
26.66146534812879	1.8313148	1.3532608
26.679477759920758	1.8261056	1.3513347
26.69749084311057	1.8151532	1.3472762
26.71550459821847	1.8150954	1.3472548
26.733519025764842	1.8093947	1.3451375
26.751534126270258	1.7972094	1.3406004
26.769549900255434	1.8301884	1.3528446
26.787566348241267	1.8581173	1.3631278
26.80558347074881	1.8222374	1.3499027
26.823601268299267	1.8293364	1.3525296
26.841619741414036	1.7857713	1.3363276
26.85963889061465	1.8047669	1.3434161
26.877658716422832	1.8432935	1.3576795
26.89567921936045	1.8867409	1.3735869
26.913700399949544	1.8887687	1.3743248
26.93172225871233	1.8203515	1.3492041
26.949744796171174	1.7806727	1.3344185
26.967768012848605	1.8244631	1.3507268
26.98579190926733	1.8606597	1.36406
27.003816485950225	1.8668388	1.3663231
27.021841743420318	1.8645021	1.3654677
27.039867682200814	1.8482575	1.3595064
27.057894302815072	1.8017846	1.3423057
27.07592160578664	1.7881011	1.337199
27.0939495916392	1.8135934	1.3466972
27.111978260896635	1.8234859	1.350365
27.13000761408296	1.7765353	1.3328673
27.148037651722397	1.7406548	1.3193388
27.166068374339304	1.7479773	1.3221109
27.184099782458215	1.7559961	1.32514
27.20213187660384	1.783805	1.3355917
27.22016465730105	1.8310117	1.3531488
27.23819812507487	1.8701322	1.3675277
27.256232280450533	1.8612171	1.3642644
27.274267123953383	1.8575715	1.3629276
27.292302656108987	1.82663	1.3515288
27.31033887744306	1.7812039	1.3346175
27.32837578848146	1.7585559	1.3261055
27.34641338975026	1.7925142	1.3388481
27.364451681775673	1.8072717	1.3443481
27.382490665084074	1.7763664	1.332804
27.400530340202046	1.8178873	1.3482906
27.41857070765629	1.821644	1.3496829
27.436611767973726	1.8281598	1.3520947
27.454653521681404	1.8094407	1.3451545
27.472695969306564	1.8107986	1.3456591
27.490739111376627	1.8089207	1.3449613
27.508782948419153	1.7764473	1.3328344
27.526827480961902	1.7729025	1.3315039
27.54487270953279	1.8182782	1.3484354
27.562918634659898	1.8281503	1.3520911
27.580965256871508	1.8202628	1.3491712
27.599012576696026	1.8158215	1.3475242
27.617060594662068	1.8054527	1.3436713
27.63510931129842	1.7971786	1.3405889
27.65315872713401	1.8087648	1.3449032
27.67120884269797	1.8024356	1.3425481
27.68925965851958	1.8342755	1.3543543
27.707311175128307	1.8582381	1.363172
27.725363393053787	1.8649122	1.3656179
27.74341631282583	1.865259	1.3657448
27.7614699349744	1.8672221	1.3664633
27.77952426002968	2.0040998	1.4156623
27.797579288521973	2.0746799	1.4403749
27.815635020981784	2.3709219	1.5397798
27.83369145793979	2.4050112	1.5508099
27.85174859992682	2.303314	1.5176673
27.869806447473923	2.2005835	1.4834363
27.887865001112267	1.9670627	1.4025202
27.905924261373233	1.859932	1.3637933
27.92398422878836	1.859571	1.3636609
27.94204490388936	1.8970717	1.3773422
27.96010628720813	1.8750354	1.3693193
27.978168379276728	1.8457602	1.3585876
27.9962311806274	1.8716204	1.3680718
28.014294691792568	1.8868098	1.3736119
28.0323589133048	1.8945718	1.3764344
28.050423845696887	1.9349337	1.391019
28.068489489501758	1.904386	1.379995
28.086555845252523	1.8622706	1.3646504
28.104622913482487	1.8551408	1.3620355
28.122690694725115	1.8347005	1.3545111
28.14075918951405	1.848733	1.3596812
28.15882839838312	1.8425972	1.3574231
28.176898321866304	1.8647197	1.3655474
28.1949689604978	1.8687612	1.3670264
28.213040314811945	1.8662888	1.3661218
28.23111238534327	1.8653258	1.3657693
28.249185172626493	1.9224305	1.3865174
28.267258677196473	1.9464779	1.3951623
28.285332899588294	1.9168929	1.384519
28.303407840337172	1.9401448	1.3928908
28.321483499978545	1.9150847	1.3838658
28.33955987904799	1.8783977	1.3705465
28.357636978081285	1.8889447	1.3743888
28.37571479761439	1.9415373	1.3933905
28.393793338183425	2.001281	1.4146664
28.41187260032469	2.0474231	1.430882
28.429952584574686	2.0695095	1.438579
28.448033291470065	1.9876355	1.4098352
28.46611472154769	1.9538436	1.3977996
28.484196875344566	1.9704808	1.4037381
28.502279753397914	1.9949026	1.4124103
28.52036335624511	1.9410275	1.3932077
28.538447684423716	1.8862368	1.3734033
28.556532738471482	1.9087641	1.3815804
28.574618518926325	1.9297167	1.3891424
28.59270502632635	1.98152	1.4076648
28.61079226120985	2.052267	1.4325736
28.628880224115274	2.0678017	1.4379853
28.646968915581287	2.0384157	1.4277309
28.66505833614671	2.008307	1.4171475
28.68314848635055	2.0273397	1.4238468
28.701239366732004	2.0565784	1.4340775
28.71933097783044	2.0401196	1.4283276
28.737423320185403	2.0729687	1.4397808
28.75551639433665	2.0892966	1.4454399
28.773610200824074	2.0521474	1.4325318
28.791704740187793	2.0443835	1.4298193
28.80980001296809	2.085881	1.444258
28.827896019705413	2.1190424	1.4556931
28.845992760940433	2.1117253	1.4531777
28.86409023721397	2.15877	1.4692754
28.88218844906704	2.1893826	1.4796562
28.900287397040845	2.2045083	1.4847586
28.918387081676755	2.2077355	1.4858451
28.936487503516343	2.2565722	1.5021892
28.954588663101365	2.275347	1.5084254
28.97269056097374	2.2834551	1.5111105
28.990793197675597	2.334078	1.527769
29.00889657374923	2.3834145	1.5438311
29.027000689737125	2.3792107	1.542469
29.04510554618196	2.3747606	1.5410259
29.06321114362659	2.3906336	1.5461674
29.08131748261405	2.3855295	1.544516
29.099424563687567	2.3937333	1.5471694
29.11753238739057	2.4619	1.5690444
29.13564095426663	2.4913294	1.5783945
29.15375026485954	2.470348	1.5717341
29.171860319713275	2.4946232	1.5794376
29.18997111937199	2.6138375	1.6167367
29.20808266438002	2.7050126	1.6446922
29.226194955281898	2.7821708	1.667984
29.244307992622335	2.832303	1.6829448
29.26242177694624	2.8477046	1.6875143
29.2805363087987	2.8532114	1.6891452
29.29865158872498	2.8081424	1.6757513
29.316767617270557	2.8640373	1.6923467
29.334884394981064	2.9695194	1.7232293
29.353001922402367	3.0273724	1.7399346
29.37112020008047	3.0701876	1.7521951
29.389239228561596	3.183556	1.7842523
29.407359008392152	3.341555	1.8279921
29.42547954011872	3.6244752	1.9038055
29.44360082428809	4.2559905	2.0630052
29.46172286144722	5.4253707	2.3292425
29.479845652143283	7.078958	2.6606312
29.497969196923606	9.37626	3.062068
29.516093496335728	12.174053	3.4891336
29.5342185509274	15.267589	3.9073763
29.55234436124651	17.943176	4.2359385
29.570470927841175	19.519655	4.4181056
29.588598251259686	19.187126	4.380311
29.60672633205055	17.693514	4.206366
29.624855170762405	15.126065	3.8892243
29.642984767944146	12.154716	3.4863613
29.66111512414481	9.263505	3.0436006
29.67924623991366	6.771335	2.6021788
29.697378115800138	5.051827	2.247627
29.71551075235387	4.11516	2.0285857
29.733644150124675	3.6883159	1.9204988
29.751778309662576	3.5061796	1.8724796
29.769913231517766	3.4450834	1.8560935
29.78804891624066	3.3832097	1.8393503
29.806185364381818	3.360059	1.8330464
29.82432257649206	3.3583364	1.8325764
29.842460553122333	3.2911468	1.8141518
29.86059929482382	3.2823975	1.8117388
29.878738802147872	3.276569	1.8101295
29.896879075646048	3.2911136	1.8141427
29.915020115870114	3.3461738	1.829255
29.933161923371976	3.362175	1.8336234
29.951304498703777	3.2883847	1.8133904
29.969447842417857	3.2398174	1.7999493
29.987591955066733	3.205018	1.7902564
30.005736837203123	3.1623359	1.7782958
30.023882489379943	3.16539	1.7791543
30.04202891215028	3.2057583	1.7904632
30.060176106067455	3.234548	1.7984849
30.078324071684946	3.2050734	1.7902719
30.09647280955646	3.158148	1.7771178
30.114622320235863	3.1141589	1.7646979
30.132772604277257	3.0378697	1.7429485
30.1509236622349	3.0376368	1.7428818
30.16907549466328	3.1222365	1.7669852
30.18722810211705	3.1178293	1.7657377
30.205381485151097	3.1423693	1.7726729
30.22353564432045	3.0547595	1.747787
30.241690580180403	2.9875762	1.7284607
30.25984629328638	3.0079124	1.7343334
30.278002784194037	2.9966378	1.7310799
30.296160053459246	2.9986591	1.7316637
30.314318101638033	2.970974	1.7236513
30.332476929286646	2.989368	1.7289789
30.35063653696153	2.9975865	1.731354
30.368796925219307	2.9097657	1.7058035
30.386958094616844	2.8402033	1.6852902
30.40512004571115	2.8272452	1.6814414
30.423282779059463	2.8646007	1.6925131
30.441446295219233	2.899782	1.7028747
30.459610594748067	2.9211695	1.7091429
30.47777567820382	2.933583	1.7127706
30.495941546144504	2.916212	1.707692
30.51410819912835	2.868178	1.6935695
30.532275637713795	2.834687	1.6836529
30.55044386245946	2.8068118	1.6753542
30.56861287392416	2.7826755	1.6681353
30.586782672666956	2.7593539	1.6611303
30.604953259247047	2.8408885	1.6854936
30.623124634223885	2.849462	1.688035
30.641296798157075	2.787836	1.6696814
30.659469751606462	2.759948	1.6613091
30.677643495132074	2.773639	1.6654246
30.695818029294152	2.7696981	1.664241
30.713993354653116	2.7624447	1.6620604
30.73216947176962	2.7411141	1.6556311
30.75034638120448	2.7738028	1.6654737
30.768524083518756	2.7600636	1.6613439
30.786702579273673	2.7641487	1.6625729
30.80488186903069	2.7862554	1.669208
30.82306195335144	2.9635217	1.7214882
30.841242832797782	3.1809719	1.783528
30.85942450793176	3.502095	1.8713886
30.877606979315637	3.8795466	1.9696565
30.895790247511883	4.2211328	2.0545394
30.913974313083134	4.6611266	2.1589642
30.932159176592283	5.02228	2.2410445
30.95034483860237	5.069548	2.2515657
30.968531299676698	4.825931	2.1968002
30.98671856037873	4.503646	2.1221795
31.00490662127215	4.0922756	2.0229373
31.023095482920848	3.7081082	1.9256449
31.04128514588892	3.2034664	1.789823
31.059475610740662	2.7501996	1.6583725
31.07766687804056	2.567349	1.6022949
31.09585894835335	2.549289	1.5966493
31.11405182224393	2.4644413	1.5698539
31.132245500277417	2.3949754	1.5475708
31.15043998301914	2.3535216	1.5341191
31.168635271034628	2.3836555	1.5439092
31.18683136488964	2.430695	1.5590687
31.20502826515008	2.4443846	1.5634527
31.223225972382135	2.4439676	1.5633194
31.241424487152155	2.4234955	1.556758
31.259623810026692	2.4381883	1.5614699
31.27782394157253	2.443296	1.5631046
31.296024882356644	2.4470365	1.5643007
31.314226632946237	2.4207792	1.5558853
31.332429193908684	2.405907	1.5510986
31.350632565811598	2.4635608	1.5695734
31.368836749222787	2.518062	1.5868403
31.387041744710295	2.525538	1.5891942
31.40524755284232	2.42383	1.5568655
31.423454174187317	2.3792164	1.5424709
31.441661609313922	2.403239	1.5502384
31.459869858791002	2.3914914	1.5464448
31.478078923187628	2.3246272	1.5246727
31.496288803073064	2.3342595	1.5278283
31.514499499016807	2.3766801	1.5416485
31.532711011588546	2.3848047	1.5442812
31.550923341358178	2.3649175	1.5378288
31.56913648889584	2.2742605	1.5080651
31.587350454771844	2.2991185	1.5162845
31.605565239556732	2.419597	1.5555054
31.62378084382127	2.4345992	1.5603203
31.641997268136382	2.3371475	1.5287732
31.660214513073274	2.3001406	1.5166215
31.67843257920331	2.310542	1.5200467
31.6966514670981	2.306904	1.5188496
31.71487117732944	2.3097024	1.5197705
31.733091710469346	2.3081586	1.5192626
31.751313067090052	2.296875	1.5155444
31.769535247764008	2.2789874	1.5096315
31.787758253063878	2.2238498	1.4912578
31.805982083562526	2.2407095	1.4969
31.824206739833024	2.2695866	1.5065147
31.84243222244869	2.19664	1.4821066
31.860658531983013	2.21152	1.487118
31.878885669009737	2.2880883	1.5126429
31.897113634102784	2.2568579	1.5022842
31.91534242783632	2.21826	1.4893824
31.933572050784694	2.1542559	1.4677384
31.951802503522508	2.1851158	1.4782137
31.970033786624548	2.233767	1.4945792
31.988265900665834	2.1649606	1.4713805
32.006498846221575	2.1717544	1.4736873
32.02473262386724	2.1521742	1.4670291
32.04296723417845	2.1511936	1.4666948
32.0612026777311	2.1314173	1.4599375
32.07943895510129	2.1963775	1.4820181
32.097676066865304	2.2598243	1.5032712
32.115914013599685	2.2357378	1.4952384
32.13415279588115	2.1991384	1.4829493
32.152392414286666	2.2139332	1.4879292
32.1706328693934	2.1714535	1.4735852
32.18887416177875	2.1085858	1.452097
32.20711629202032	2.098698	1.4486884
32.225359260695924	2.1743875	1.4745804
32.243603068383614	2.1614566	1.4701893
32.26184771566166	2.131109	1.4598318
32.28009320310852	2.197821	1.482505
32.2983395313029	2.2404242	1.4968046
32.31658670082372	2.1334863	1.4606458
32.33483471225012	2.0278533	1.4240271
32.35308356616143	1.964239	1.4015131
32.371333263137245	2.0056903	1.416224
32.38958380375734	2.0548737	1.4334831
32.407835188601744	2.103358	1.4502958
32.42608741825067	2.0603058	1.4353765
32.444340493284585	2.0381157	1.4276259
32.46259441428416	2.0754483	1.4406416
32.48084918183028	2.103533	1.4503561
32.49910479650405	2.116279	1.4547436
32.51736125888683	2.0804694	1.4423832
32.53561856956014	2.0931149	1.4467602
32.5538767291058	2.0561106	1.4339144
32.572135738105764	1.9985613	1.4137048
32.59039559714228	1.9504031	1.3965683
32.608656306797776	2.0536308	1.4330494
32.62691786765491	2.1320164	1.4601426
32.645180280296586	2.099774	1.4490596
32.663443545305896	1.9355432	1.391238
32.68170766326619	1.9684731	1.4030229
32.69997263476099	2.084782	1.4438773
32.7182384603741	2.0464067	1.4305267
32.7365051406895	1.9467281	1.395252
32.75477267629144	1.9862291	1.4093364
32.77304106776434	2.0098917	1.4177065
32.79131031569289	2.0045393	1.4158175
32.809580420661966	1.9695107	1.4033926
32.827851383256714	1.938613	1.3923409
32.84612320406245	1.896718	1.3772138
32.86439588366476	1.8993052	1.3781528
32.88266942264945	1.9917221	1.4112839
32.9009438216025	1.9018469	1.3790747
32.9192190811102	1.8859395	1.3732951
32.937495201758985	1.8224342	1.3499756
32.95577218413556	1.910978	1.3823813
32.974050028826866	2.0259454	1.4233571
32.992328736420035	2.1068954	1.4515148
33.010608307502444	1.9827946	1.4081174
33.02888874266169	1.9098179	1.3819616
33.047170042485604	1.9005046	1.3785878
33.06545220756225	1.9454213	1.3947836
33.083735238479896	1.9769613	1.4060445
33.10201913582707	1.987125	1.4096543
33.12030390019248	1.9759614	1.405689
33.138589532165135	1.9574089	1.3990743
33.15687603233419	1.9734752	1.4048043
33.17516340128909	1.967894	1.4028164
33.19345163961947	1.8999805	1.3783978
33.211740747915215	1.9430671	1.3939394
33.23003072676643	1.9554366	1.3983693
33.248321576763466	1.8952367	1.376676
33.266613298496885	1.9091561	1.3817221
33.28490589255747	1.8902417	1.3748606
33.30319935953626	1.9120556	1.382771
33.32149370002451	1.9795276	1.4069569
33.339788914613706	1.9660817	1.4021704
33.358085003895575	2.002177	1.414983
33.376381968462034	1.9869928	1.4096073
33.39467980890529	1.9226723	1.3866045
33.41297852581774	1.900847	1.378712
33.43127811979204	1.9047996	1.3801447
33.44957859142105	1.7626121	1.327634
33.467879941297866	1.6277083	1.2758167
33.486182170015844	1.6763123	1.2947248
33.50448527816853	1.8902036	1.3748467
33.522789266349754	1.9913561	1.4111542
33.541094135153514	2.0172725	1.4203072
33.55939988517411	1.9662352	1.402225
33.57770651700602	1.9429818	1.3939089
33.59601403124398	1.9332744	1.3904223
33.61432242848296	1.8651537	1.3657063
33.632631709318154	1.8082864	1.3447254
33.650941874344994	1.8337045	1.3541435
33.66925292415916	1.9252322	1.3875273
33.68756485935654	1.9146291	1.3837012
33.70587768053328	1.888196	1.3741164
33.724191388285746	1.9326696	1.3902049
33.74250598321054	1.9815713	1.407683
33.760821465904506	1.9552357	1.3982974
33.77913783696474	1.8494694	1.359952
33.79745509698852	1.8060205	1.3438827
33.815773246573414	1.9130042	1.383114
33.8340922863172	2.0057695	1.4162519
33.852412216817896	1.9960084	1.4128016
33.87073303867377	1.9585534	1.3994833
33.889054752483304	1.9224265	1.386516
33.907377358845245	1.8778664	1.3703526
33.92570085835853	1.9273283	1.3882825
33.94402525162239	1.9375834	1.3919711
33.96235053923627	1.9328917	1.3902848
33.980676721799824	1.8750572	1.3693273
33.999003799912984	1.9287347	1.3887889
34.01733177417592	1.9278171	1.3884585
34.03566064518901	1.8976692	1.3775592
34.0539904135529	1.8687766	1.367032
34.07232107986846	1.7724231	1.3313239
34.090652644736785	1.8017306	1.3422856
34.108985108759235	2.0368674	1.4271886
34.12731847253742	2.146286	1.4650208
34.14565273667313	2.119782	1.4559472
34.16398790176847	2.0386734	1.4278212
34.18232396842574	2.004745	1.4158902
34.20066093724749	1.996264	1.4128921
34.21899880883651	2.040167	1.4283441
34.23733758379583	2.0118375	1.4183925
34.25567726272874	1.9047753	1.380136
34.27401784623872	1.8574135	1.3628696
34.29235933492957	1.9123794	1.3828881
34.31070172940526	2.0493212	1.431545
34.32904503027003	2.1194303	1.4558263
34.347389238128386	1.94156	1.3933988
34.36573435358502	1.8693372	1.3672371
34.38408037724492	2.0271187	1.4237692
34.402427309713296	2.1011643	1.4495393
34.42077515159559	2.0341399	1.4262327
34.43912390349752	1.9007436	1.3786746
34.45747356602499	1.9352552	1.3911345
34.47582413978423	1.8917369	1.3754042
34.49417562538163	1.8585049	1.3632699
34.51252802342388	1.8951226	1.3766345
34.53088133451789	1.9560483	1.398588
34.54923555927084	2.0347853	1.426459
34.567590698290104	2.1124442	1.4534249
34.58594675218336	2.1778219	1.4757445
34.6043037215585	1.9439782	1.3942661
34.62266160702365	1.864355	1.3654139
34.641020409187234	2.0309389	1.4251101
34.65938012865785	1.9698898	1.4035276
34.677740766044394	1.9778296	1.4063532
34.69610232195598	2.1130736	1.4536415
34.714464797002016	2.2360904	1.4953563
34.73282819179208	2.0870016	1.4446459
34.751192506936064	1.9002923	1.3785108
34.76955774304408	1.9700712	1.4035922
34.7879239007265	2.1399589	1.4628599
34.80629098059391	2.202701	1.4841499
34.824658983257194	2.0820048	1.4429153
34.843027909327446	2.0656302	1.43723
34.86139775941603	1.956934	1.3989046
34.879768534134534	2.0174553	1.4203715
34.89814023409483	1.9872317	1.409692
34.91651285990901	2.0132842	1.4189025
34.93488641218944	2.1241226	1.457437
34.95326089154871	2.1526315	1.4671849
34.97163629859967	2.079506	1.4420493
34.99001263395542	1.9382626	1.392215
35.00838989822934	1.8626992	1.3648074
35.02676809203499	1.8837825	1.3725096
35.04514721598624	1.9222572	1.3864549
35.063527270697215	2.1025896	1.4500309
35.081908256782256	2.0859907	1.4442959
35.10029017485597	2.0117512	1.4183621
35.11867302553321	1.9163344	1.3843173
35.137056809429104	1.7841257	1.3357117
35.155441527159006	1.7217548	1.3121566
35.173827179338524	1.6298323	1.2766489
35.19221376658354	1.7318025	1.3159796
35.21060128951017	1.9778137	1.4063476
35.2289897487348	2.269145	1.5063682
35.24737914487405	2.1375759	1.4620451
35.26576947854479	1.7449511	1.320966
35.28416075036418	1.7911549	1.3383403
35.30255296094958	1.9737871	1.4049153
35.32094611091867	2.121883	1.4566684
35.33934020088932	1.9869639	1.409597
35.35773523147969	1.988913	1.4102883
35.3761312033082	2.2714307	1.5071267
35.394528116993506	2.3026178	1.5174379
35.41292597315452	2.0871894	1.4447109
35.431324772410434	1.9661078	1.4021797
35.449724515380666	2.0444727	1.4298506
35.46812520268491	2.245041	1.4983461
35.486526834943106	2.0068898	1.4166474
35.504929412775454	1.651373	1.2850575
35.52333293680242	1.8043469	1.3432598
35.54173740764471	2.194858	1.4815054
35.560142825923286	2.1604888	1.4698602
35.5785491922594	2.7224534	1.6499859
35.59695650727454	3.3932364	1.8420739
35.61536477159042	3.5109696	1.8737582
