0.008763373481513119	0.0	0.0
0.026290120649546365	0.0	0.0
0.043816868432600686	0.060138714	0.24523196
0.06134361724069026	0.08291717	0.2879534
0.07887036748382949	0.06477313	0.25450566
0.0963971195720331	0.11781899	0.3432477
0.11392387391531617	0.19722553	0.4441008
0.1314506309236943	0.23820096	0.48805836
0.1489773910071836	0.25953764	0.50944835
0.16650415457580078	0.17858863	0.42259747
0.18403092203956356	0.24264021	0.49258524
0.20155769380849	0.20005563	0.4472758
0.2190844702925996	0.19982609	0.44701913
0.2366112519019124	0.19283143	0.43912575
0.2541380390464497	0.23745182	0.4872903
0.27166483213623416	0.2155223	0.4642438
0.28919163158128947	0.18113859	0.4256038
0.3067184377916406	0.15303187	0.39119288
0.324245251177314	0.1261079	0.35511675
0.34177207214833777	0.11338836	0.33673188
0.3592989011147415	0.08889167	0.29814705
0.37682573848655654	0.09210323	0.30348513
0.39435258467381573	0.08983961	0.29973257
0.41187944008655414	0.13475212	0.367086
0.42940630513480854	0.18459427	0.42964435
0.446933180228618	0.21856773	0.46751228
0.4644600657780234	0.21109223	0.45944774
0.48198696219306775	0.1851152	0.43025017
0.49951386988379676	0.14528903	0.38116798
0.5170407892602581	0.15230015	0.39025652
0.5345677207325025	0.1791845	0.4233019
0.5520946647105822	0.22433135	0.4736363
0.5696216216045534	0.22902101	0.4785614
0.5871485918244737	0.2532016	0.5031914
0.6046755757804043	0.24765486	0.49764934
0.6222025738824094	0.22108626	0.47019812
0.6397295865405557	0.17152439	0.41415504
0.6572566141649129	0.17572987	0.41920146
0.6747836571655547	0.16304424	0.40378737
0.6923107159525568	0.15942258	0.39927757
0.7098377909359992	0.13849938	0.37215504
0.7273648825259653	0.1480232	0.38473785
0.7448919911325411	0.1688242	0.4108822
0.762419117165817	0.17637157	0.41996616
0.7799462610358868	0.16916785	0.41130018
0.7974734231528482	0.14797902	0.38468042
0.8150006039268024	0.15821874	0.3977672
0.8325278037678551	0.17324269	0.41622433
0.8500550230861152	0.21615314	0.46492273
0.8675822622916969	0.21035215	0.45864165
0.8851095217947171	0.2579709	0.50790834
0.9026368020052984	0.2326226	0.48230964
0.9201641033335665	0.24594314	0.49592656
0.9376914261896523	0.23485446	0.48461786
0.9552187709836915	0.21488489	0.4635568
0.9727461381258234	0.24118377	0.49110463
0.990273528026193	0.26986045	0.51948094
1.0078009410949496	0.2820764	0.5311086
1.0253283777422473	0.27950487	0.5286822
1.0428558383782454	0.2576204	0.5075632
1.0603833234131086	0.23435746	0.4841048
1.0779108332570058	0.29167098	0.5400657
1.0954383683201119	0.3089882	0.5558671
1.112965929012607	0.38847968	0.62328136
1.1304935157446763	0.5332141	0.7302151
1.1480211289265108	0.57638824	0.75920236
1.1655487689683062	1.4211957	1.1921391
1.1830764362802655	1.7238916	1.3129705
1.200604131272596	2.1519065	1.4669378
1.2181318543555117	2.4632225	1.5694656
1.235659605939232	2.4328568	1.5597618
1.253187386433982	3.9904149	1.9976022
1.270715196249994	6.3515644	2.520231
1.2882430357975057	11.909796	3.4510572
1.3057709054867608	17.015366	4.1249685
1.3232988057280106	22.92349	4.787848
1.3408267369315112	28.126429	5.3034353
1.358354699507526	31.239614	5.589241
1.3758826938663256	35.26214	5.9381933
1.3934107204181858	36.658707	6.0546436
1.410938779573391	37.149345	6.0950265
1.4284668717422309	37.825634	6.1502547
1.4459949973350033	37.311325	6.1082997
1.4635231567620117	37.604115	6.1322193
1.4810513504335687	36.873764	6.072377
1.4985795787599925	36.08523	6.0070987
1.5161078421516088	35.269695	5.9388294
1.5336361410187505	34.70734	5.8912935
1.5511644757717598	35.161907	5.9297476
1.5686928468209842	36.0079	6.0006585
1.58622125457678	36.714397	6.059241
1.6037496994495108	38.046124	6.168154
1.621278181849548	37.892925	6.155723
1.6388067021872719	38.49113	6.204122
1.6563352608730693	37.698914	6.139944
1.673863858317336	36.433273	6.0359983
1.6913924949304753	35.89741	5.991445
1.7089211711228998	34.59263	5.88155
1.7264498873050296	33.76886	5.811098
1.7439786438872935	32.839012	5.730533
1.7615074412801288	32.057205	5.661908
1.779036279893981	31.547182	5.616688
1.796565160139305	30.34956	5.509043
1.814094082426564	29.367481	5.419177
1.8316230471662298	28.217339	5.3119993
1.849152054768784	27.352634	5.2299747
1.8666811056447168	27.010952	5.197206
1.8842102002045273	26.251438	5.1236157
1.901739338858724	25.913195	5.0905004
1.9192685220178245	25.432787	5.043093
1.9367977500923557	24.837477	4.9837213
1.9543270234928547	24.578709	4.9576917
1.971856342629867	23.944786	4.893341
1.9893857079139496	23.483055	4.845932
2.006915119755667	23.003496	4.796196
2.0244445785655945	22.337988	4.726308
2.0419740847543175	22.167517	4.708239
2.0595036387324317	21.667221	4.654806
2.0770332409105414	21.17898	4.6020627
2.094562891699263	20.793821	4.5600243
2.1120925915092217	20.2674	4.501933
2.129622340751053	20.105808	4.48395
2.1471521398354043	188.12648	13.71592
2.1646819891729323	444.484	21.082788
2.182211889174303	440.74878	20.994019
2.1997418402501974	453.0413	21.284767
2.2172718428113023	432.96158	20.80773
2.234801897268317	320.89896	17.913652
2.2523320040319548	17.345587	4.1648035
2.269862163512935	16.836668	4.103251
2.287392376121992	16.371975	4.04623
2.304922642269869	16.015484	4.001935
2.322452962367322	15.903028	3.98786
2.3399833368251164	15.66126	3.9574308
2.357513766054032	15.38888	3.9228663
2.3750442504648586	15.032964	3.8772366
2.3925747904683963	14.788309	3.845557
2.410105386475459	14.4863205	3.8060899
2.4276360388968707	14.118764	3.7574944
2.445166748143469	14.015095	3.743674
2.4626975146261025	13.6931095	3.7004201
2.4802283387556323	13.234308	3.637899
2.4977592209429305	13.052449	3.6128173
2.5152901615988825	12.980673	3.60287
2.5328211611343865	12.836099	3.58275
2.5503522199603523	12.509588	3.5368896
2.5678833384877024	12.306433	3.5080526
2.5854145171273712	12.095041	3.4777925
2.6029457562903064	11.93551	3.4547808
2.620477056387469	11.773267	3.4312193
2.6380084178298326	11.432681	3.3812249
2.655539841028383	11.198712	3.3464477
2.673071326394119	11.184956	3.3443916
2.6906028743380523	11.12269	3.3350697
2.708134485271211	11.097426	3.33128
2.7256661596046325	10.780817	3.2834156
2.743197897749369	10.554483	3.2487664
2.760729700116486	10.488906	3.238658
2.778261567117063	10.420881	3.228139
2.795793499162193	10.256906	3.2026403
2.8133254966629817	10.089839	3.1764507
2.830857560030551	10.059954	3.171743
2.8483896896760337	10.191776	3.1924562
2.865921886010578	10.051245	3.1703699
2.883454149445347	9.818294	3.1334157
2.9009864803915177	9.535098	3.0878954
2.91851887926028	9.518936	3.0852773
2.9360513464628384	9.304496	3.050327
2.953583882410413	9.088086	3.0146453
2.9711164875142373	8.878182	2.9796278
2.9886491621855606	8.8000965	2.9664958
3.0061819068356455	8.797544	2.9660654
3.023714721875769	8.75901	2.9595625
3.041247607717225	8.674279	2.9452128
3.0587805647713213	8.479241	2.9119136
3.0763135934493806	8.269284	2.8756363
3.0938466941627407	8.119218	2.8494241
3.1113798673227544	8.082626	2.8429961
3.1289131133407904	8.034532	2.8345249
3.1464464326282315	7.9110675	2.812662
3.1639798255964786	7.8233914	2.7970326
3.1815132926569443	7.7759085	2.7885315
3.1990468342210603	7.643339	2.764659
3.216580450700272	7.5188785	2.7420573
3.2341141425060416	7.420733	2.7241023
3.251647910049847	7.311176	2.7039187
3.2691817537431813	7.261723	2.6947584
3.286715673997555	7.261502	2.6947174
3.3042496712244938	7.2084565	2.684857
3.32178374583554	7.1782336	2.6792226
3.339317898242251	6.9893503	2.643738
3.3568521288562034	6.8882365	2.624545
3.3743864380889876	6.7491655	2.5979156
3.3919208263522127	6.67582	2.5837607
3.4094552940575023	6.56166	2.5615737
3.4269898416164972	6.575044	2.564185
3.444524469440858	6.6483216	2.578434
3.4620591779422587	6.585464	2.566216
3.479593967532391	6.476645	2.5449255
3.4971288386229658	6.380711	2.526007
3.5146637916257086	6.4321446	2.5361674
3.5321988269523628	6.4468546	2.5390656
3.5497339450146903	6.420756	2.533921
3.5672691462244708	6.334198	2.5167832
3.5848044309934988	6.3135214	2.5126722
3.60233979973359	6.2992787	2.5098364
3.619875252856575	6.360935	2.5220895
3.6374107907743034	6.419841	2.5337405
3.6549464138986427	6.4747853	2.54456
3.6724821226414788	6.4139533	2.5325785
3.690017917414714	6.3164406	2.513253
3.7075537986302702	6.238209	2.4976406
3.7250897667000857	6.3028975	2.5105572
3.7426258220361235	6.471233	2.5438619
3.7601619650503553	6.886082	2.6241345
3.777698196154779	7.4244304	2.7247808
3.7952345157614067	8.485299	2.9129536
3.8127709242822716	9.387916	3.0639706
3.830307422129425	11.651043	3.4133625
3.847844009714936	30.467812	5.5197654
3.8653806874508954	97.78197	9.888476
3.882917455749409	96.98079	9.847882
3.900454315022606	96.827644	9.840104
3.917991265682631	41.45898	6.4388647
3.9355283081416506	11.249641	3.3540485
3.9530654428118495	8.986638	2.9977722
3.970602670105433	7.6627164	2.7681613
3.9881399904346244	6.6815405	2.5848675
4.005677404211669	6.610279	2.5710464
4.023214911848827	6.57789	2.5647397
4.0407525137583855	6.566262	2.5624719
4.058290210352644	6.515423	2.5525327
4.075828002043927	6.4637117	2.5423832
4.0933658892445814	6.4240923	2.5345793
4.110903872366966	6.316342	2.5132334
4.128441951823468	6.176607	2.4852781
4.145980128026488	6.1366286	2.477222
4.163518401388452	6.152922	2.4805083
4.181056772321807	6.1921782	2.4884088
4.1985952412390155	6.183656	2.4866958
4.216133808552567	6.1371446	2.4773262
4.233672474674966	6.192389	2.4884512
4.251211240018741	6.3755383	2.524983
4.268750104996445	6.6431274	2.5774264
4.286289070020643	7.681183	2.7714946
4.303828135503928	9.367701	3.06067
4.3213673018589125	29.610493	5.4415526
4.3389065694982305	90.67903	9.522553
4.356445938834537	165.7138	12.872988
4.3739854102805085	171.37422	13.090998
4.391524984248844	172.36842	13.128916
4.409064661152262	136.70348	11.692026
4.426604441403504	97.04636	9.851211
4.444144325415337	76.020294	8.718962
4.461684313600543	21.925375	4.682454
4.47922440637193	22.186438	4.710248
4.496764604142329	20.45873	4.523133
4.5143049073245916	18.585957	4.3111434
4.531845316331589	16.476772	4.0591593
4.5493858315762195	13.653443	3.6950567
4.566926453471405	11.362353	3.370809
4.584467182430081	9.47455	3.0780756
4.602008018865218	8.284505	2.8782816
4.619548963189798	7.5660014	2.7506366
4.637090015816834	7.1282334	2.6698751
4.654631177159353	6.8608613	2.6193247
4.672172447630417	6.538079	2.5569668
4.689713827643102	6.3349905	2.5169406
4.7072553176105085	6.158001	2.4815319
4.724796917945764	6.040855	2.4578152
4.742338629062015	5.999754	2.4494395
4.759880451372434	5.8915334	2.427248
4.777422385290215	5.786205	2.4054532
4.794964431228581	5.7089515	2.389341
4.812506589600768	5.7182283	2.3912818
4.830048860820047	5.636494	2.3741302
4.847591245299709	5.612464	2.3690639
4.8651337434530655	5.5061107	2.3465104
4.882676355693457	5.5034676	2.345947
4.900219082434242	5.5471115	2.3552306
4.917761924088813	5.588412	2.3639822
4.935304881070575	5.549613	2.3557618
4.952847953792969	5.5080614	2.346926
4.970391142669449	5.4590716	2.3364656
4.9879344481135055	5.4799094	2.3409207
5.005477870538642	5.465786	2.337902
5.023021410358394	5.42543	2.329255
5.040565067986324	5.4231424	2.3287642
5.05810884383601	5.4707503	2.3389635
5.075652738321066	5.4915943	2.343415
5.09319675185512	5.456531	2.335922
5.110740884851836	5.429728	2.3301778
5.128285137724894	5.3923154	2.322136
5.145829510888007	5.3941545	2.322532
5.163374004754908	5.4165115	2.3273401
5.1809186197393595	5.386353	2.3208518
5.198463356255145	5.3578568	2.3147044
5.216008214716077	5.269519	2.2955432
5.233553195535998	5.217533	2.284192
5.251098299128764	5.204589	2.2813568
5.268643525908272	5.164479	2.272549
5.286188876288432	5.1773734	2.2753842
5.3037343506831895	5.17001	2.2737656
5.32127994950651	5.2120595	2.2829936
5.3388256731723915	5.24652	2.2905283
5.356371522094851	5.2883773	2.299647
5.373917496687938	5.286749	2.299293
5.391463597365729	5.221252	2.2850058
5.40900982454232	5.1785965	2.275653
5.426556178631843	5.2225266	2.2852848
5.444102660048449	5.2587333	2.2931929
5.4616492692063225	5.322177	2.3069844
5.479196006519669	5.2988534	2.3019238
5.496742872402727	5.279796	2.2977808
5.514289867269756	5.228959	2.2866917
5.531836991535049	5.1775217	2.2754169
5.549384245612924	5.147191	2.268742
5.566931629917724	5.1079926	2.2600868
5.584479144863822	5.088267	2.2557187
5.6020267908656205	5.0966372	2.2575734
5.619574568337545	5.1296973	2.2648835
5.637122477694054	5.16306	2.2722368
5.654670519349629	5.1451445	2.268291
5.672218693718784	5.183006	2.2766216
5.689767001216059	5.169949	2.2737522
5.707315442256021	5.1334443	2.2657106
5.724864017253266	5.137015	2.2664983
5.7424127266224225	5.215943	2.283844
5.75996157077814	5.2455444	2.2903154
5.777510550135105	5.2945065	2.3009794
5.795059665108022	5.27145	2.2959638
5.812608916111639	5.3057485	2.303421
5.830158303560715	5.4517455	2.3348973
5.847707827870055	5.4013386	2.324078
5.86525748945448	5.3409233	2.3110437
5.8828072887288485	5.3949203	2.3226967
5.900357226108044	5.5226703	2.3500361
5.917907302006979	5.6278696	2.372313
5.9354575168406	6.259006	2.5018005
5.9530078710238765	6.8961244	2.6260474
5.970558364971812	7.425171	2.7249167
5.988108999099438	7.773966	2.7881832
6.005659773821818	8.267718	2.875364
6.023210689554039	8.017613	2.8315392
6.040761746711227	8.47534	2.9112437
6.058312945708531	7.7790084	2.7890873
6.075864286961132	7.2922883	2.7004237
6.093415770884244	6.6491036	2.5785856
6.1109673978931065	6.125288	2.474932
6.128519168402993	5.6119366	2.3689525
6.146071082829204	5.4577446	2.3361816
6.163623141587075	5.3544984	2.313979
6.181175345091969	5.234175	2.287832
6.198727693759281	5.2083573	2.2821827
6.216280188004435	5.1925836	2.2787242
6.233832828242885	5.166466	2.2729862
6.251385614890126	5.196413	2.2795641
6.268938548361669	5.190622	2.2782936
6.286491629073067	5.1894016	2.2780259
6.304044857439898	5.1574545	2.271003
6.321598233877777	5.0445156	2.2459998
6.339151758802344	5.0699387	2.2516525
6.356705432629277	5.1132197	2.2612429
6.37425925577428	5.076388	2.2530842
6.391813228653095	5.008124	2.2378838
6.409367351681486	4.9256167	2.219373
6.426921625275259	4.935462	2.22159
6.44447604985025	5.007191	2.2376754
6.46203062582232	5.065772	2.250727
6.47958535360737	5.0701256	2.251694
6.497140233621328	4.987693	2.2333143
6.514695266280161	5.010622	2.238442
6.532250451999859	5.0525374	2.247785
6.549805791196454	5.0808086	2.2540648
6.567361284286002	5.0170836	2.2398849
6.584916931684597	4.9901557	2.2338657
6.602472733808367	4.9691515	2.2291594
6.6200286910734665	5.0660515	2.2507892
6.637584803896092	5.0487375	2.2469397
6.655141072692462	5.0501394	2.2472515
6.672697497878842	5.026706	2.2420318
6.690254079871514	4.9874845	2.2332675
6.707810819086808	4.876248	2.2082229
6.725367715941078	4.8666763	2.2060544
6.742924770850719	4.907137	2.215206
6.760481984232151	5.023029	2.2412114
6.778039356501836	5.078428	2.2535367
6.795596888076266	5.054565	2.248236
6.813154579371963	5.1098847	2.2605054
6.830712430805492	5.0831857	2.2545922
6.84827044279344	5.0260158	2.2418778
6.865828615752445	5.007566	2.237759
6.883386950099159	5.0097613	2.2382495
6.900945446250287	5.002081	2.2365332
6.918504104622553	5.021622	2.2408977
6.936062925632727	4.994256	2.2347832
6.953621909697607	5.05042	2.247314
6.971181057234028	5.041346	2.245294
6.988740368658859	5.116006	2.261859
7.006299844389007	5.1956053	2.279387
7.023859484841407	5.2662344	2.2948277
7.041419290433036	5.3646035	2.3161614
7.058979261580902	5.5172296	2.3488784
7.0765393987020495	5.801579	2.4086468
7.094099702213559	6.198633	2.4897053
7.111660172532549	6.476741	2.5449443
7.129220810076164	6.74724	2.597545
7.146781615261595	7.3142843	2.7044933
7.16434258850606	7.593122	2.755562
7.181903730226821	8.096104	2.8453653
7.1994650408411704	8.260506	2.8741095
7.217026520766437	8.361569	2.8916378
7.234588170419983	8.646061	2.9404185
7.252149990219215	8.609895	2.9342623
7.269711980581568	8.436661	2.904593
7.2872741419245175	8.219893	2.8670356
7.304836474665574	7.7928476	2.7915673
7.322398979222286	7.504087	2.739359
7.339961656012233	7.169578	2.6776068
7.357524505453039	6.927474	2.6320095
7.375087527962357	6.6997766	2.5883927
7.392650723957886	6.445504	2.5387998
7.410214093857353	6.0744195	2.4646337
7.427777638078528	5.7611823	2.4002464
7.445341357039213	5.553046	2.3564901
7.4629052511572525	5.390714	2.3217912
7.480469320850524	5.3124456	2.3048744
7.498033566536948	5.2421985	2.2895849
7.5155979886344735	5.25142	2.2915976
7.5331625875610975	5.269135	2.2954597
7.550727363734844	5.31249	2.304884
7.568292317573788	5.2809854	2.2980394
7.585857449496025	5.2330227	2.28758
7.603422759919705	5.2021146	2.2808144
7.620988249263007	5.2182508	2.2843492
7.638553917944147	5.257447	2.2929122
7.656119766381391	5.3007336	2.3023322
7.673685794993023	5.2832704	2.2985365
7.691252004197388	5.2987275	2.3018966
7.70881839441285	5.25008	2.2913053
7.726384966057826	5.298207	2.3017833
7.743951719550762	5.256649	2.2927384
7.761518655310149	5.2255526	2.2859468
7.779085773754511	5.1801333	2.2759907
7.796653075302419	5.230446	2.2870169
7.814220560372475	5.292855	2.3006206
7.831788229383323	5.361777	2.315551
7.8493560827536495	5.457618	2.3361547
7.866924120902174	5.4812326	2.3412032
7.884492344247663	5.447477	2.333983
7.9020607532089135	5.3384037	2.3104985
7.919629348204771	5.264081	2.2943585
7.937198129654115	5.225359	2.2859044
7.954767097975865	5.2756457	2.2968774
7.972336253588986	5.2859964	2.2991295
7.989905596912472	5.3839397	2.3203318
8.007475128365371	5.440835	2.3325598
8.025044848366756	5.477863	2.3404834
8.042614757335754	5.5844646	2.3631473
8.060184855691523	5.644539	2.3758237
8.07775514385327	5.7952275	2.407328
8.095325622240228	5.8502336	2.4187255
8.112896291271687	5.810026	2.4103997
8.130467151366968	5.835968	2.4157748
8.148038202945436	5.8536243	2.4194264
8.165609446426497	5.941437	2.4375062
8.183180882229594	5.967367	2.4428196
8.200752510774217	5.989705	2.4473875
8.218324332479893	5.993011	2.4480627
8.235896347766193	6.052533	2.4601896
8.253468557052724	6.086799	2.467144
8.27104096075914	6.1180353	2.4734662
8.288613559305137	6.172246	2.4844005
8.306186353110448	6.2474356	2.4994872
8.32375934259485	6.298199	2.5096214
8.341332528178162	6.3045454	2.5108855
8.358905910280246	6.3457265	2.5190725
8.376479489321003	6.3288527	2.515721
8.394053265720377	6.332963	2.516538
8.411627239898356	6.3372545	2.5173905
8.42920141227497	6.375225	2.5249207
8.44677578327029	6.43735	2.5371933
8.464350353304427	6.378106	2.5254912
8.48192512279754	6.3228083	2.5145195
8.499500092169827	6.2453938	2.4990785
8.51707526184153	6.214107	2.492811
8.534650632232934	6.2182546	2.4936428
8.552226203764365	6.184268	2.4868188
8.569801976856192	6.191543	2.4882812
8.587377951928834	6.1464524	2.479204
8.60495412940274	6.205481	2.4910803
8.622530509698416	6.3087497	2.5117226
8.6401070932364	6.5152907	2.5525067
8.657683880437283	6.6168838	2.5723305
8.675260871721695	6.7136135	2.5910642
8.692838067510303	6.885357	2.6239963
8.710415468223834	7.0300846	2.6514306
8.727993074283043	7.1668572	2.6770988
8.745570886108737	7.218453	2.686718
8.763148904121765	7.2702084	2.6963325
8.78072712874302	7.24166	2.6910334
8.798305560393441	7.429995	2.7258017
8.815884199494006	7.5715957	2.7516532
8.833463046465745	7.7963796	2.7921999
8.851042101729728	7.977508	2.8244483
8.86862136570707	8.30031	2.8810258
8.886200838818924	8.44352	2.9057734
8.903780521486505	8.477896	2.9116826
8.921360414131055	8.567372	2.9270074
8.938940517173874	8.769457	2.9613268
8.956520831036297	8.922261	2.9870155
8.97410135613971	9.143779	3.023868
8.99168209290554	9.2465105	3.0408075
9.009263041755265	9.471486	3.077578
9.026844203110405	9.720044	3.1176984
9.044425577392525	9.873112	3.1421509
9.062007165023239	10.00823	3.1635787
9.079588966424197	10.312977	3.2113824
9.097170982017108	10.388186	3.2230709
9.11475321222372	11.284477	3.3592377
9.132335657465825	12.150728	3.4857895
9.149918318165264	12.27594	3.5037038
9.167501194743924	12.941275	3.5973983
9.18508428762374	12.634257	3.55447
9.202667597226693	12.57595	3.5462584
9.220251123974803	12.23549	3.4979265
9.237834868290143	12.01785	3.4666772
9.255418830594836	11.687539	3.4187043
9.273003011311046	11.182352	3.3440025
9.290587410860985	10.941387	3.3077767
9.308172029666911	10.417069	3.2275486
9.32575686815113	10.103916	3.1786659
9.343341926735997	8.792151	2.9651563
9.360927205843916	8.559864	2.9257245
9.378512705897327	8.44052	2.9052575
9.396098427318728	8.266254	2.8751094
9.413684370530664	8.122552	2.8500092
9.431270535955722	7.990632	2.8267705
9.448856924016539	7.8735127	2.805978
9.466443535135806	7.7847977	2.7901251
9.484030369736251	7.761529	2.785952
9.501617428240658	7.7514086	2.784135
9.519204711071852	7.8075647	2.794202
9.536792218652714	7.8016295	2.7931397
9.55437995140617	7.8761225	2.806443
9.571967909755191	7.910081	2.8124866
9.589556094122802	7.9810014	2.8250666
9.60714450493207	7.9904885	2.8267453
9.624733142606116	8.018146	2.831633
9.642322007568108	8.019613	2.8318923
9.659911100241267	8.046601	2.8366532
9.677500421048851	8.069175	2.8406293
9.695089970414175	8.074302	2.8415315
9.712679748760609	8.082404	2.842957
9.730269756511557	8.037563	2.8350596
9.747859994090492	8.034869	2.8345845
9.765450461920915	8.086682	2.8437092
9.78304116042639	8.190771	2.8619523
9.800632090030527	8.272033	2.8761141
9.81822325115699	8.214128	2.86603
9.835814644229481	8.2128935	2.8658147
9.853406269671762	8.197953	2.8632069
9.870998127907646	8.320685	2.8845599
9.888590219360985	8.376623	2.8942397
9.906182544455698	8.426683	2.902875
9.923775103615734	8.391979	2.8968914
9.941367897265108	8.411979	2.900341
9.958960925827878	8.31968	2.8843856
9.97655418972816	8.301459	2.8812253
9.994147689390106	8.319303	2.88432
10.011741425237934	8.315996	2.8837469
10.029335397695904	8.356869	2.890825
10.04692960718833	8.363753	2.8920155
10.06452405413958	8.391325	2.8967783
10.082118738974064	8.324552	2.8852298
10.099713662116246	8.291963	2.879577
10.117308823990651	8.250756	2.872413
10.134904225021844	8.238083	2.870206
10.152499865634445	8.355761	2.8906333
10.170095746253125	8.299364	2.8808618
10.18769186730261	8.255642	2.8732634
10.205288229207675	8.1593275	2.8564537
10.222884832393145	8.146437	2.8541963
10.2404816772839	8.178473	2.859803
10.258078764304868	8.258591	2.8737764
10.275676093881035	8.273756	2.8764138
10.293273666437438	8.200037	2.8635707
10.310871482399158	8.158276	2.8562696
10.32846954219134	8.087808	2.843907
10.346067846239173	8.089247	2.84416
10.363666394967908	8.1279125	2.8509495
10.38126518880283	8.181165	2.8602736
10.398864228169298	8.257447	2.8735774
10.416463513492713	8.316819	2.8838897
10.434063045198531	8.267336	2.8752975
10.451662823712262	8.197445	2.863118
10.469262849459467	8.178806	2.8598611
10.486863122865758	8.086484	2.8436744
10.504463644356806	8.106347	2.8471646
10.522064414358338	8.081997	2.8428853
10.539665433296118	8.004775	2.829271
10.557266701595987	7.9125867	2.812932
10.574868219683818	7.776371	2.7886145
10.592469987985552	7.636687	2.7634556
10.610072006927185	7.5419445	2.7462602
10.627674276934751	7.461898	2.7316475
10.64527679843435	7.2606416	2.6945577
10.662879571852143	7.2428184	2.6912484
10.680482597614331	7.1021476	2.6649854
10.698085876147173	7.091695	2.6630237
10.715689407876988	6.972522	2.6405532
10.733293193230146	6.8808527	2.623138
10.750897232633072	6.760487	2.6000936
10.76850152651225	6.6644335	2.5815563
10.786106075294207	6.5785575	2.5648699
10.803710879405534	6.537412	2.5568364
10.821315939272877	6.4240212	2.5345652
10.83892125532294	6.375288	2.5249333
10.856526827982472	6.327349	2.5154223
10.874132657678285	6.323996	2.5147557
10.891738744837243	6.2917795	2.508342
10.909345089886271	6.221314	2.4942563
10.926951693252343	6.091245	2.4680448
10.944558555362494	6.0046444	2.4504375
10.96216567664381	5.9029517	2.429599
10.979773057523436	5.8669825	2.4221854
10.997380698428573	5.805647	2.409491
11.014988599786477	5.806944	2.4097602
11.032596762024461	5.7448235	2.396836
11.050205185569892	5.675522	2.3823354
11.067813870850198	5.6101418	2.3685737
11.085422818292859	5.566541	2.3593519
11.10303202832541	5.526279	2.3508039
11.120641501375454	5.449123	2.3343356
11.138251237870636	5.376907	2.318816
11.155861238238671	5.3236833	2.3073108
11.173471502907317	5.234458	2.2878938
11.191082032304402	5.1909084	2.2783566
11.208692826857805	5.1134586	2.2612958
11.226303886995465	5.0748053	2.2527328
11.243915213145371	4.98875	2.233551
11.261526805735578	4.972416	2.2298915
11.279138665194196	4.962857	2.227747
11.296750791949393	4.9144983	2.2168667
11.314363186429393	4.8485417	2.2019405
11.331975849062479	4.7911534	2.1888704
11.34958878027699	4.7086744	2.169948
11.36720198050133	4.6622343	2.1592207
11.384815450163948	4.5879297	2.1419454
11.402429189693366	4.5031314	2.1220584
11.420043199518153	4.418556	2.1020362
11.437657480066942	63.331135	7.958086
11.455272031768422	85.10035	9.224985
11.472886855051353	107.517235	10.369052
11.490501950344528	99.14211	9.957013
11.508117318076819	84.43869	9.189053
11.52573295867715	45.845806	6.770953
11.543348872574514	4.1265373	2.031388
11.560965060197946	4.069325	2.0172567
11.57858152197655	4.0540624	2.0134702
11.59619825833949	4.0573387	2.0142837
11.613815269715985	4.051832	2.0129163
11.631432556535323	38.542664	6.208274
11.649050119226837	83.03408	9.112304
11.666667958219929	93.43133	9.665988
11.68428607394406	107.675415	10.376677
11.701904466828756	82.505394	9.083248
11.719523137303586	65.36798	8.085047
11.737142085798196	4.596995	2.1440604
11.754761312742286	3.64932	1.9103193
11.772380818565619	3.5961807	1.8963598
11.790000603698015	3.5813315	1.8924407
11.80762066856935	3.5721588	1.8900156
11.825241013609572	3.5775714	1.891447
11.842861639248683	3.556635	1.8859043
11.860482545916748	3.5002904	1.8709064
11.878103734043883	3.5050972	1.8721905
11.895725204060282	3.4897797	1.8680952
11.91334695639619	3.506811	1.8726481
11.930968991481919	3.4716759	1.8632433
11.948591309747824	3.3943748	1.8423829
11.966213911624347	3.3438609	1.8286227
11.98383679754198	3.332146	1.8254167
12.001459967931268	3.3085465	1.818941
12.019083423222835	3.281909	1.811604
12.036707163847352	3.2248886	1.7957975
12.05433119023556	3.1969538	1.7880027
12.071955502818259	3.226181	1.7961572
12.089580102026313	3.2167242	1.7935228
12.107204988290643	3.2200503	1.7944499
12.12483016204224	3.1751337	1.7818905
12.142455623712152	3.146168	1.7737441
12.16008137373149	3.1015124	1.7611111
12.177707412531431	3.1363642	1.7709783
12.19533374054321	3.12959	1.7690648
12.212960358198126	3.112993	1.7643676
12.230587265927545	3.0853422	1.7565142
12.248214464162889	3.0917857	1.7583474
12.265841953335649	3.08946	1.7576859
12.283469733877375	3.072008	1.7527144
12.301097806219685	3.0394745	1.7434089
12.31872617079425	3.0007908	1.7322791
12.336354828032825	2.95667	1.7194971
12.353983778367205	2.913821	1.7069918
12.371613022229262	2.916832	1.7078735
12.389242560050928	2.9148688	1.7072986
12.406872392264201	2.9351025	1.713214
12.424502519301143	2.928657	1.711332
12.442132941593874	2.9248047	1.710206
12.459763659574586	2.886122	1.698859
12.477394673675532	2.839653	1.685127
12.49502598432903	2.8417196	1.6857401
12.51265759196746	2.8350153	1.6837504
12.530289497023267	2.831025	1.682565
12.547921699928967	2.8026288	1.6741054
12.565554201117134	2.7874799	1.6695747
12.583187001020404	2.7615602	1.6617943
12.600820100071486	2.7230208	1.6501578
12.618453498703152	2.6997743	1.643099
12.636087197348235	2.7359033	1.6540565
12.65372119643964	2.7884388	1.6698619
12.671355496410326	2.8354967	1.6838933
12.68899009769333	2.8731234	1.695029
12.706625000721749	2.869916	1.6940826
12.724260205928752	2.8979893	1.7023481
12.741895713747551	2.9260845	1.7105801
12.759531524611454	2.975336	1.7249162
12.777167638953818	2.9801912	1.726323
12.794804057208072	2.9811153	1.7265906
12.812440779807702	2.9954758	1.7307442
12.830077807186271	3.1995463	1.7887275
12.847715139777405	3.2401338	1.8000371
12.865352778014795	3.4587662	1.8597759
12.882990722332197	3.5465686	1.8832335
12.90062897316344	3.652872	1.9112488
12.918267530942412	3.7196512	1.9286398
12.935906396103071	3.5749834	1.8907627
12.953545569079449	3.695525	1.9223748
12.971185050305628	3.5111494	1.8738061
12.988824840215775	3.5615208	1.8871992
13.006464939244115	3.5748324	1.8907228
13.024105347824943	3.460823	1.8603288
13.041746066392617	3.54922	1.8839374
13.05938709538157	3.349645	1.8302035
13.077028435226296	3.3609715	1.8332952
13.094670086361363	3.255176	1.8042107
13.112312049221401	3.2009473	1.7891191
13.129954324241112	3.1441634	1.7731789
13.147596911855258	2.9877603	1.728514
13.165239812498685	2.9413707	1.7150425
13.182883026606293	2.837865	1.6845964
13.200526554613058	2.7841637	1.6685814
13.218170396954017	2.7599826	1.6613195
13.235814554064284	2.7584164	1.6608481
13.253459026379034	2.7515934	1.6587927
13.271103814333523	2.6924746	1.6408762
13.288748918363058	2.6686754	1.6336081
13.306394338903031	2.6669686	1.6330856
13.32404007638889	2.6666384	1.6329845
13.341686131256164	2.7306335	1.6524628
13.359332503940449	2.7301748	1.6523241
13.376979194877402	2.7219644	1.6498377
13.394626204502751	2.7061412	1.6450354
13.412273533252307	2.7131557	1.647166
13.429921181561937	2.7011044	1.6435037
13.447569149867581	2.7188878	1.648905
13.465217438605247	2.6951005	1.6416762
13.482866048211022	2.6622183	1.6316305
13.500514979121052	2.6676428	1.6332921
13.518164231771568	2.6919842	1.6407267
13.535813806598844	2.7176921	1.6485424
13.553463704039254	2.7416155	1.6557825
13.571113924529229	2.7385838	1.6548667
13.588764468505275	2.7547586	1.6597465
13.606415336403956	2.7513924	1.6587322
13.624066528661917	2.7569687	1.6604122
13.641718045715882	2.7979915	1.6727198
13.659369888002635	2.8558135	1.6899152
13.67702205595903	2.8881269	1.699449
13.694674550021993	2.9349015	1.7131554
13.712327370628532	2.9878616	1.7285432
13.729980518215713	3.076825	1.754088
13.747633993220681	3.162052	1.7782159
13.765287796080647	3.1928256	1.786848
13.7829419272329	3.2077966	1.7910323
13.800596387114801	3.2544854	1.8040192
13.818251176163775	3.2876825	1.8131968
13.835906294817324	3.3076057	1.8186824
13.853561743513023	3.3296921	1.8247443
13.871217522688525	3.3819585	1.8390102
13.888873632781538	3.4411201	1.8550256
13.906530074229858	3.4856918	1.8670007
13.92418684747135	3.5217705	1.876638
13.941843952943948	3.540124	1.8815217
13.959501391085665	3.567954	1.8889029
13.977159162334578	3.5395448	1.8813678
13.994817267128846	3.494612	1.8693881
14.012475705906693	3.3504946	1.8304356
14.030134479106424	3.2080257	1.7910962
14.047793587166414	3.075824	1.7538028
14.065453030525108	3.0295467	1.7405593
14.083112809621026	3.0066261	1.7339625
14.100772924892766	3.0236583	1.7388669
14.118433376778997	2.9841652	1.7274736
14.136094165718458	2.8967087	1.701972
14.153755292149969	2.8176522	1.6785864
14.171416756512416	2.7143786	1.6475371
14.189078559244768	2.654328	1.6292108
14.20674070078606	2.5788028	1.6058651
14.224403181575408	2.5493548	1.5966699
14.242066002051999	2.506573	1.5832161
14.259729162655093	2.497263	1.580273
14.277392663824022	2.4928575	1.5788785
14.295056505998208	2.5025725	1.5819521
14.312720689617128	2.5059361	1.5830148
14.330385215120348	2.4905589	1.5781505
14.348050082947497	2.4544358	1.5666639
14.3657152935383	2.4056275	1.5510086
14.383380847332528	2.4188237	1.5552568
14.401046744770051	2.4407976	1.5623052
14.418712986290798	2.440109	1.5620848
14.436379572334793	2.3834987	1.5438584
14.454046503342123	2.3398	1.5296404
14.471713779752946	2.3616135	1.5367543
14.489381402007504	2.3843083	1.5441206
14.507049370546113	2.4208674	1.5559137
14.524717685809168	2.4207923	1.5558896
14.542386348237134	2.4470036	1.5642902
14.560055358270553	2.4147005	1.5539306
14.577724716350051	2.4527876	1.5661378
14.595394422916325	2.4491882	1.5649883
14.61306447841015	2.4830415	1.5757669
14.63073488327237	2.4944055	1.5793687
14.648405637943917	2.5109396	1.5845945
14.6660767428658	2.553677	1.5980228
14.683748198479094	2.5236862	1.5886114
14.701420005224954	2.5310612	1.5909309
14.719092163544628	2.5708091	1.6033742
14.73676467387942	2.6785946	1.6366413
14.754437536670727	2.701641	1.643667
14.772110752360014	2.6998088	1.6431096
14.78978432138882	2.6659598	1.6327767
14.807458244198777	2.6709697	1.6343101
14.82513252123159	2.6838624	1.6382498
14.842807152929028	2.751726	1.6588327
14.860482139732962	2.760086	1.6613507
14.87815748208531	2.7222373	1.6499205
14.8958331804281	2.7261674	1.651111
14.91350923520342	2.7007105	1.6433839
14.931185646853438	2.707452	1.6454337
14.948862415820408	2.6860735	1.6389245
14.966539542546656	2.6843517	1.6383991
14.98421702747459	2.6778514	1.6364142
15.001894871046696	2.6779506	1.6364444
15.019573073705542	2.703972	1.6443759
15.037251635893766	2.6570082	1.6300331
15.054930558054092	2.6722515	1.6347022
15.072609840629323	2.6869438	1.63919
15.090289484062351	2.8031669	1.6742661
15.107969488796124	3.0529618	1.7472727
15.125649855273691	3.500716	1.8710201
15.14333058393817	4.037929	2.00946
15.161011675232768	5.0976725	2.2578025
15.17869312960076	6.7111554	2.5905898
15.196374947485506	8.869988	2.9782526
15.214057129330447	12.343577	3.5133429
15.231739675579114	17.288218	4.1579103
15.249422586675102	22.141237	4.7054477
15.267105863062092	24.615364	4.961387
15.284789505183847	24.19557	4.918899
15.302473513484218	21.55159	4.642369
15.320157888407127	17.943598	4.2359886
15.337842630396578	13.848517	3.7213597
15.355527739896656	10.759978	3.2802405
15.37321321735153	8.325597	2.885411
15.39089906320545	6.0174274	2.4530444
15.408585277902748	4.531293	2.1286833
15.42627186188783	3.5586164	1.8864295
15.443958815605198	3.11895	1.7660549
15.461646139499424	2.9369118	1.713742
15.479333834015168	2.7911348	1.670669
15.497021899597165	2.7184494	1.6487721
15.514710336690234	2.651674	1.6283962
15.53239914573928	2.6245003	1.620031
15.550088327189297	2.572971	1.6040484
15.567777881485336	2.536235	1.5925561
15.58546780907256	2.5364885	1.5926358
15.6031581103962	2.5270345	1.5896649
15.620848785901568	2.5000834	1.5811652
15.638539836034063	2.488553	1.5775149
15.656231261239173	2.5191793	1.5871923
15.673923061962451	2.5259464	1.5893226
15.691615238649552	2.5189352	1.5871154
15.709307791746202	2.4601789	1.5684958
15.727000721698221	2.4044352	1.5506241
15.744694028951498	2.371082	1.5398319
15.76238771395202	2.3576503	1.5354642
15.780081777145844	2.382176	1.54343
15.797776218979125	2.3967586	1.5481468
15.815471039898094	2.4054697	1.5509577
15.833166240349064	2.4081888	1.551834
15.850861820778437	2.4243877	1.5570445
15.868557781632699	2.4269862	1.5578787
15.886254123358412	2.4095118	1.5522603
15.903950846402232	2.3943908	1.5473819
15.921647951210897	2.3877587	1.5452374
15.939345438231225	2.3924003	1.5467386
15.957043307910133	2.3681352	1.5388746
15.974741560694602	2.3465855	1.5318569
15.992440197031714	2.3359723	1.5283887
16.01013921736862	2.3308003	1.5266958
16.02783862215259	2.365378	1.5379785
16.045538411830933	2.391727	1.546521
16.06323858685107	2.4152205	1.554098
16.080939147660512	2.4039164	1.5504569
16.09864009470684	2.380898	1.5430158
16.11634142843774	2.3930264	1.5469409
16.134043149300954	2.407811	1.5517123
16.15174525774433	2.4155352	1.5541992
16.169447754215817	2.4118683	1.553019
16.18715063916342	2.412322	1.5531652
16.204853913035244	2.4660976	1.5703814
16.222557576279478	2.4786136	1.5743613
16.240261629344403	22.426847	4.735699
16.257966072678386	42.92556	6.55176
16.275670906729868	38.06076	6.16934
16.293376131947387	2.5432692	1.594763
16.31108174877957	2.5894194	1.6091673
16.328787757675133	2.6105843	1.6157303
16.34649415908287	2.5853322	1.6078968
16.364200953451657	2.5501897	1.5969313
16.38190814123048	2.551462	1.5973296
16.39961572286839	2.5865645	1.60828
16.41732369881455	2.654881	1.6293806
16.43503206951817	2.7445576	1.6566707
16.45274083542859	2.84686	1.6872641
16.47044999699522	2.9040136	1.7041167
16.488159554667558	2.9537106	1.7186363
16.505869508895184	2.953313	1.7185206
16.523579860127786	2.961275	1.7208356
16.541290608815117	2.9942725	1.7303966
16.559001755407035	3.0631802	1.7501943
16.57671330035348	3.081807	1.7555076
16.59442524410448	3.0983098	1.7602016
16.61213758711015	3.1223388	1.767014
16.629850329820705	3.184605	1.7845461
16.647563472686436	3.2731018	1.8091716
16.665277016157724	3.3577304	1.832411
16.682990960685053	3.4234147	1.8502471
16.70070530671898	3.4640174	1.8611871
16.718420054710155	3.5055854	1.8723209
16.736135205109335	3.5393302	1.8813108
16.753850758367335	3.5897574	1.8946655
16.771566714935087	3.679953	1.9183204
16.789283075263597	3.7779734	1.9437009
16.80699983980398	3.8198283	1.9544381
16.82471700900741	3.8538105	1.9631125
16.84243458332518	3.9283223	1.9819995
16.860152563208665	4.058291	2.01452
16.87787094910932	4.08917	2.0221696
16.89558974147871	4.1365056	2.0338402
16.913308940768466	4.2170067	2.0535352
16.931028547430333	4.352284	2.0862129
16.94874856191613	4.415306	2.101263
16.966468984677785	4.442856	2.1078084
16.98418981616729	4.4269214	2.1040251
17.00191105683676	4.465586	2.1131933
17.019632707138374	4.4837747	2.1174924
17.03735476752442	4.550774	2.1332543
17.05507723844728	4.5835633	2.140926
17.072800120359403	4.5986066	2.1444361
17.090523413713353	4.625531	2.1507049
17.108247118961785	4.680324	2.1634057
17.125971236557437	4.6931024	2.166357
17.143695766953133	4.6989245	2.1677003
17.161420710601806	4.6852884	2.1645527
17.179146067956477	4.6861496	2.1647515
17.19687183947025	4.695887	2.1669996
17.21459802559634	4.714171	2.171214
17.232324626788028	4.686194	2.1647618
17.25005164349871	4.663312	2.1594703
17.267779076181863	4.6032867	2.1455271
17.285506925291074	4.604971	2.1459196
17.30323519127999	4.6033936	2.1455522
17.320963874602384	4.5880556	2.1419747
17.33869297571211	4.6143384	2.148101
17.356422495063114	4.56656	2.136951
17.37415243310944	4.535641	2.1297045
17.391882790305218	4.452701	2.1101425
17.40961356710468	4.4452705	2.108381
17.42734476396215	4.4668975	2.1135037
17.445076381332044	4.4391932	2.1069393
17.462808419668868	4.557683	2.1348732
17.48054087942723	4.7940197	2.189525
17.498273761061835	5.179972	2.2759552
17.51600706502747	5.723276	2.3923368
17.533740791779024	6.506755	2.5508342
17.551474941771485	8.048935	2.8370645
17.56920951545993	9.26433	3.0437362
17.586944513299528	11.503426	3.39167
17.60467993574556	13.307441	3.6479366
17.622415783253373	14.996173	3.8724892
17.64015205627843	16.269209	4.0335107
17.657888755276293	17.161104	4.1425962
17.675625880702604	17.46511	4.179128
17.69336343301311	17.307224	4.1601954
17.71110141266366	16.647028	4.080077
17.728839820110178	15.890691	3.9863129
17.746578655808705	15.046724	3.8790107
17.764317920215372	13.364815	3.655792
17.7820576137864	11.57551	3.40228
17.79979773697811	9.275691	3.0456018
17.81753829024692	7.2570367	2.6938887
17.835279274049356	5.618877	2.370417
17.85302068884201	4.687531	2.1650708
17.870762535081607	4.1586647	2.0392804
17.888504813224934	3.8810163	1.9700295
17.90624752372891	3.715132	1.9274678
17.923990667050536	3.6115549	1.9004091
17.941734243646895	3.5128722	1.8742658
17.959478253975185	3.4473846	1.8567134
17.9772226984927	3.391757	1.8416723
17.994967577656833	3.4306936	1.8522131
18.01271289192506	3.4560816	1.859054
18.030458641754965	3.4417472	1.8551947
18.04820482760425	3.4149187	1.8479499
18.06595144993067	3.4124339	1.8472774
18.083698509192125	3.3695226	1.8356259
18.101446005846576	3.289992	1.8138336
18.119193940352105	3.2453845	1.8014951
18.136942313166887	3.2131996	1.79254
18.1546911247492	3.1963778	1.7878417
18.1724403755574	3.2095294	1.791516
18.19019006604997	3.2451146	1.8014202
18.207940196685467	3.2132502	1.7925541
18.225690767922575	3.1587255	1.7772803
18.243441780220046	3.0807903	1.755218
18.261193234036764	3.080866	1.7552396
18.278945129831676	3.085132	1.7564543
18.29669746806386	3.0976741	1.7600211
18.314450249192483	3.0824685	1.755696
18.3322034736768	3.107556	1.7628262
18.349957141976184	3.087746	1.7571983
18.3677112545501	3.0610745	1.7495927
18.385465811858108	3.0326958	1.7414637
18.403220814359884	3.042978	1.7444134
18.420976262515172	3.0612519	1.7496433
18.43873215678387	3.0822263	1.755627
18.456488497625923	3.105589	1.7622681
18.474245285501407	3.1870391	1.785228
18.492002520870486	3.2723312	1.8089586
18.50976020419343	3.3699276	1.8357363
18.527518335930615	3.704083	1.9245994
18.545276916542516	4.334406	2.0819237
18.563035946489688	4.4759464	2.1156433
18.580795426232832	4.872119	2.2072878
18.598555356232698	4.711741	2.1706545
18.616315736950185	5.0385118	2.244663
18.63407656884626	4.666302	2.1601624
18.65183785238201	4.8355927	2.1989982
18.669599588018617	4.591969	2.142888
18.68736177621737	4.636518	2.1532576
18.705124417439652	4.675467	2.162283
18.72288751214696	4.4996166	2.12123
18.740651060800886	4.5923424	2.142975
18.758415063863115	4.2902064	2.0712814
18.77617952179546	4.471947	2.114698
18.793944435059814	4.259676	2.0638983
18.811709804118184	4.232061	2.0571973
18.829475629432675	4.157664	2.039035
18.8472419114655	3.9720256	1.9929942
18.86500865067897	4.1021495	2.0253763
18.88277584753551	3.8259869	1.956013
18.90054350249763	3.8379202	1.959061
18.918311616027957	3.5083547	1.8730602
18.936080188589226	3.405138	1.8453016
18.953849220644265	3.096661	1.7597332
18.971618712656007	2.889852	1.6999565
18.9893886650875	2.821846	1.6798351
19.007159078401887	7.987901	2.8262875
19.024929953062408	32.8497	5.731466
19.042701289532435	32.84736	5.7312617
19.060473088275405	25.480663	5.0478373
19.07824534975489	2.7752914	1.6659206
19.096018074434568	2.6932774	1.6411208
19.113791262778197	2.635343	1.623374
19.13156491524966	2.5938625	1.6105473
19.149339032312945	2.5891366	1.6090795
19.167113614432136	2.5774257	1.6054363
19.184888662071433	2.5730247	1.6040651
19.202664175695123	2.5431325	1.5947202
19.220440155767623	2.5548286	1.5983832
19.238216602753447	2.5741558	1.6044176
19.2559935171172	2.5430415	1.5946916
19.27377089932361	2.5393775	1.5935425
19.291548749837514	2.553746	1.5980444
19.309327069123835	2.5847273	1.6077087
19.32710585764763	2.5857966	1.6080413
19.344885115874032	2.562141	1.6006689
19.362664844268313	2.5516071	1.597375
19.380445043295822	2.5367057	1.5927039
19.39822571342203	2.5345504	1.5920272
19.41600685511252	2.5300782	1.590622
19.43378846883297	2.5414834	1.5942031
19.451570555049173	2.5019512	1.5817558
19.469353114227037	2.4762208	1.5736012
19.48713614683254	2.4877822	1.5772705
19.50491965333182	2.5197053	1.587358
19.52270363419109	2.5140367	1.5855714
19.540488089876686	2.4707553	1.5718637
19.55827302085503	2.4400775	1.5620748
19.576058427592674	2.462467	1.569225
19.593844310556282	2.4967332	1.5801054
19.611630670212598	2.501064	1.5814753
19.629417507028506	2.4493558	1.5650418
19.64720482147098	2.4336674	1.5600216
19.6649926140071	2.458854	1.5680733
19.682780885104084	2.4835746	1.5759361
19.70056963522921	2.4606838	1.5686567
19.718358864849908	2.4474387	1.5644292
19.7361485744337	2.488876	1.5776172
19.753938764448215	2.4970117	1.5801935
19.771729435361202	2.49586	1.5798291
19.789520587640506	2.4803438	1.5749108
19.807312221754092	2.547321	1.596033
19.825104338170043	2.5692842	1.6028987
19.842896937356517	2.5504365	1.5970086
19.860690019781824	2.4855785	1.5765718
19.87848358591436	2.5279782	1.5899616
19.896277636222635	2.5199337	1.5874299
19.914072171175278	2.5083325	1.5837716
19.931867191241015	2.475198	1.5732762
19.94966269688869	2.4759831	1.5735257
19.967458688587264	2.4858172	1.5766474
19.985255166805807	2.4994373	1.5809609
20.00305213201348	2.508829	1.5839283
20.020849584679578	2.5036118	1.5822805
20.038647525273507	2.5182288	1.5868928
20.05644595426477	2.5161192	1.586228
20.07424487212299	2.447961	1.5645962
20.092044279317903	2.4226754	1.5564946
20.109844176319353	2.4191883	1.555374
20.127644563597304	2.4059916	1.5511259
20.145445441621817	2.4016256	1.5497179
20.16324681086307	2.4169247	1.5546461
20.181048671791373	2.4259443	1.5575444
20.198851024877122	2.4020762	1.5498633
20.216653870590836	2.3931956	1.5469956
20.234457209403146	2.4240494	1.5569359
20.252261041784802	2.4426916	1.5629113
20.270065368206662	2.4480605	1.5646279
20.287870189139685	2.4542425	1.5666022
20.305675505054968	2.4426064	1.562884
20.323481316423702	2.4078753	1.551733
20.341287623717207	2.3878248	1.5452588
20.359094427406884	2.3649933	1.5378535
20.376901727964288	2.3649824	1.5378499
20.39470952586107	2.3873246	1.545097
20.41251782156899	2.3859816	1.5446622
20.430326615559935	2.3401349	1.52975
20.448135908305886	2.3147764	1.521439
20.465945700278965	2.358675	1.5357978
20.483755991951384	2.3617368	1.5367943
20.50156678379548	2.363768	1.5374551
20.519378076283708	2.367371	1.5386263
20.537189869888635	2.3293025	1.5262053
20.55500216508294	2.3284855	1.5259376
20.572814962339415	2.301279	1.5169967
20.59062826213098	2.3317206	1.5269972
20.60844206493066	2.3772147	1.5418218
20.626256371211593	2.3954575	1.5477265
20.644071181447032	2.3649566	1.5378416
20.66188649611036	2.3155584	1.5216959
20.67970231567506	2.3209143	1.5234547
20.697518640614742	2.3277218	1.5256873
20.715335471403122	2.330055	1.5264518
20.73315280851404	2.3159847	1.5218359
20.750970652421447	2.3331435	1.5274631
20.768789003599412	2.3484309	1.5324591
20.786607862522136	2.3606043	1.5364258
20.8044272296639	2.3334823	1.527574
20.82224710549913	2.3175244	1.5223417
20.84006749050237	2.306563	1.5187373
20.857888385148268	3.8768525	1.9689724
20.8757097899116	45.99183	6.781728
20.893531705267254	64.87088	8.054246
20.911354131690224	83.876526	9.158413
20.92917706965566	69.11946	8.313811
20.94700051963877	50.13684	7.080737
20.96482448211493	29.396782	5.42188
20.982648957559622	4.1593823	2.0394564
21.00047394644843	2.2734985	1.5078125
21.01829944925707	2.2568061	1.502267
21.036125466461375	2.200403	1.4833755
21.053951998537297	2.202194	1.4839791
21.071779045960906	2.2224553	1.4907901
21.089606609208378	2.2533638	1.5011208
21.10743468875603	2.2405024	1.4968308
21.12526328508028	2.2262723	1.4920698
21.143092398657675	2.2339725	1.494648
21.16092202996488	2.2213023	1.4904034
21.17875217947867	2.1960752	1.4819161
21.19658284767596	2.1572123	1.4687451
21.21441403503377	2.1578965	1.468978
21.232245742029225	2.182333	1.4772722
21.2500779691396	2.206618	1.485469
21.26791071684227	2.2027977	1.4841825
21.28574398561475	2.186713	1.4787538
21.30357777593465	2.1668048	1.472007
21.321412088279704	2.1835794	1.4776939
21.339246923127792	2.1837509	1.477752
21.357082280956888	2.1973283	1.4823388
21.3749181622451	2.1610658	1.4700564
21.392754567470647	2.1282191	1.4588417
21.41059149711187	2.1131935	1.4536828
21.42842895164726	2.1439102	1.4642098
21.446266931555378	2.1483116	1.465712
21.464105437314945	2.1402628	1.4629637
21.481944469404798	2.1331043	1.4605151
21.49978402830388	2.0942824	1.4471636
21.51762411449127	2.1029482	1.4501545
21.53546472844617	2.1373343	1.4619625
21.553305870647876	2.121952	1.4566922
21.571147541575865	2.111278	1.4530238
21.58898974170967	2.0710964	1.4391304
21.60683247152899	2.1009638	1.4494702
21.62467573151363	2.0892189	1.445413
21.642519522143523	2.086186	1.4443635
21.660363843898722	2.0698059	1.438682
21.6782086972594	2.0676908	1.4379468
21.696054082705864	2.0544071	1.4333203
21.713900000718535	2.0490708	1.4314576
21.73174645177795	2.0647469	1.4369227
21.749593436364794	2.0696063	1.4386126
21.767440954959845	2.0380669	1.4276088
21.785289008044032	2.0151148	1.4195474
21.803137596098388	2.0037642	1.4155438
21.820986719604086	2.0260317	1.4233874
21.838836379042412	2.030676	1.4250178
21.85668657489478	2.009552	1.4175867
21.87453730764273	1.9962529	1.4128882
21.892388577767914	1.9896474	1.4105486
21.91024038575213	1.9905717	1.4108763
21.928092732077285	2.0085883	1.4172467
21.945945617225426	2.0361233	1.4269279
21.963799041678694	2.0309193	1.4251033
21.981653005919398	31.32665	5.5970216
21.999507510429943	78.12639	8.838913
22.01736255569286	73.10491	8.550141
22.035218142190818	4.2077494	2.05128
22.05307427040661	2.0288339	1.4243714
22.07093094082315	2.0443265	1.4297994
22.088788153923474	2.0509617	1.4321179
22.106645910190746	2.0308683	1.4250853
22.12450421010827	2.0148675	1.4194603
22.142363054159464	1.9991447	1.4139111
22.16022244282787	1.9905522	1.4108694
22.178082376597164	1.9985901	1.413715
22.195942855951145	1.9694747	1.4033797
22.213803881373742	1.9483908	1.3958477
22.231665453349002	1.9472867	1.3954521
22.24952757236111	1.9824352	1.4079897
22.26739023889438	1.9654143	1.4019324
22.28525345343323	2.0024047	1.4150635
22.30311721646225	2.0168557	1.4201604
22.320981528466113	1.9959998	1.4127985
22.33884638992964	1.9597905	1.3999251
22.356711801337788	1.9643986	1.4015701
22.37457776317561	1.9846827	1.4087876
22.392444275928337	1.9649073	1.4017515
22.410311340081282	1.9522003	1.3972117
22.428178956119904	1.959485	1.399816
22.446047124529805	1.9680644	1.4028772
22.46391584579669	2.021726	1.421874
22.481785120406414	1.993183	1.4118013
22.49965494884496	1.9915563	1.4112251
22.51752533159841	1.9641851	1.4014939
22.53539626915302	1.9524225	1.3972912
22.553267761995137	1.9423794	1.3936927
22.571139810611264	1.9332913	1.3904284
22.589012415488025	1.9467138	1.3952469
22.60688557711216	1.9624149	1.4008622
22.624759295970566	1.9663205	1.4022555
22.642633572550263	1.9490614	1.3960879
22.660508407338362	1.9817979	1.4077635
22.67838380082217	1.9874234	1.40976
22.696259753489077	1.982929	1.4081651
22.714136265826614	1.9427837	1.3938378
22.73201333832246	1.9094923	1.3818438
22.74989097146439	1.9321109	1.3900039
22.76776916574035	1.9604944	1.4001765
22.785647921638393	1.9787084	1.4066657
22.803527239646712	1.9727659	1.4045519
22.82140712025363	1.9440273	1.3942838
22.839287563947593	1.9595604	1.399843
22.85716857121719	1.9598184	1.3999351
22.875050142551135	1.9521376	1.3971891
22.892932278438277	1.8907245	1.3750362
22.910814979367604	1.8845139	1.3727759
22.928698245828222	1.8802035	1.3712051
22.946582078309387	1.8919307	1.3754747
22.96446647730047	1.893562	1.3760675
22.98235144329098	1.9026595	1.3793693
23.000236976770562	1.9591373	1.3996918
23.018123078229	1.9972277	1.413233
23.03600974815619	1.993625	1.4119579
23.053896987042194	1.9631143	1.4011118
23.071784795377173	1.9302329	1.3893282
23.08967317365145	1.9387685	1.3923967
23.10756212235546	1.9530201	1.3975049
23.125451641979787	1.9694595	1.4033743
23.143341733015134	1.936487	1.3915771
23.161232395952357	1.9173472	1.384683
23.179123631282426	1.8983272	1.377798
23.197015439496468	1.9216712	1.3862436
23.214907821085717	1.9322121	1.3900403
23.23280077654157	1.9422375	1.3936418
23.250694306355538	1.9288896	1.3888447
23.268588411019277	1.954559	1.3980554
23.28648309102458	1.9531629	1.3975561
23.304378346863356	1.9484535	1.3958702
23.322274179027676	1.9555863	1.3984228
23.340170588009723	1.9480727	1.3957337
23.358067574301852	1.9233041	1.3868324
23.37596513839651	1.9091403	1.3817165
23.39386328078629	1.9604888	1.4001746
23.411762001963947	1.9804169	1.4072728
23.429661302422353	1.9495779	1.3962729
23.4475611826545	1.895674	1.3768348
23.46546164315356	1.8749658	1.3692939
23.48336268441279	1.860199	1.3638911
23.501264306925638	1.8734697	1.3687475
23.51916651118564	1.9411094	1.393237
23.537069297686497	1.9352725	1.3911407
23.554972666922037	1.9443045	1.3943832
23.57287661938623	1.9249183	1.3874142
23.59078115557318	1.9251233	1.3874881
23.608686275977128	1.906031	1.3805908
23.62659198109246	1.9328551	1.3902715
23.6444982714137	1.9568678	1.398881
23.66240514743549	1.9616976	1.4006062
23.68031260965263	1.9604297	1.4001534
23.698220658560068	1.9368849	1.39172
23.716129294652845	1.8856479	1.373189
23.7340385184262	1.8769981	1.3700358
23.75194833037546	1.878863	1.3707162
23.769858730996123	1.8741074	1.3689804
23.78776972078382	1.8933018	1.3759731
23.80568130023431	1.9346195	1.390906
23.823593469843495	1.921317	1.3861158
23.841506230107424	1.9039092	1.3798221
23.859419581522275	1.915577	1.3840437
23.87733352458438	1.9328619	1.390274
23.89524805979019	1.9490304	1.3960768
23.913163187636318	1.9358814	1.3913596
23.931078908619508	1.9957774	1.4127198
23.948995223236633	2.0019174	1.4148912
23.966912131984735	2.0024571	1.415082
23.98482963536096	2.0292027	1.4245008
24.002747733862616	2.0184412	1.4207186
24.020666427987155	2.023085	1.422352
24.038585718232156	2.0068781	1.4166433
24.056505605095353	2.010038	1.4177581
24.074426089074617	1.994983	1.4124386
24.092347170667946	1.9802525	1.4072144
24.110268850373515	2.0185657	1.4207623
24.128191128689586	2.0892606	1.4454274
24.146114006114626	2.0380375	1.4275985
24.164037483147187	2.0509794	1.4321241
24.181961560286005	2.0957313	1.447664
24.199886238029926	2.1409361	1.4631938
24.21781151687797	2.0818832	1.4428732
24.235737397329274	2.030152	1.424834
24.253663879883135	1.9987124	1.4137583
24.271590965038975	2.0204258	1.4214169
24.289518653296376	2.016734	1.4201176
24.30744694515505	2.025042	1.4230397
24.32537584111486	2.0231218	1.4223648
24.34330534167581	2.0586839	1.4348115
24.361235447338046	2.053639	1.4330523
24.379166158601876	2.034642	1.4264088
24.39709747596772	2.0186138	1.4207793
24.41502939993615	1.9908037	1.4109584
24.432961931007917	1.942374	1.3936908
24.450895069683856	1.9297924	1.3891697
24.468828816465	1.9511309	1.3968289
24.4867631718525	1.930978	1.3895963
24.504698136347656	1.9480779	1.3957356
24.52263371045192	1.9604025	1.4001437
24.540569894666874	2.0224957	1.4221448
24.558506689494266	2.0772984	1.4412836
24.57644409543597	2.0519416	1.43246
24.594382112994012	1.9766263	1.4059254
24.61232074267057	1.9739052	1.4049574
24.630259984967953	1.9806284	1.407348
24.64819984038863	1.9633641	1.401201
24.66614030943522	1.9832473	1.4082781
24.684081392610462	2.022609	1.4221846
24.702023090417274	2.0237148	1.4225733
24.7199654033587	1.9732541	1.4047257
24.737908331937927	1.9621067	1.4007522
24.755851876658305	1.9985178	1.4136894
24.773796038023324	2.0591996	1.4349911
24.79174081653661	2.104393	1.4506526
24.809686212701962	2.1031792	1.4502342
24.827632227023294	2.1094196	1.4523841
24.8455788600047	2.1174052	1.4551307
24.8635261121504	2.1632938	1.470814
24.88147398396475	2.180424	1.4766259
24.899422475952303	2.1932654	1.4809678
24.917371588617698	2.1673653	1.4721974
24.935321322465768	2.2122884	1.4873763
24.953271678001478	2.3557615	1.534849
24.97122265572994	2.5895476	1.6092072
24.989174256156414	2.9367414	1.7136923
25.00712647978632	3.439552	1.8546029
25.02507932712521	3.993909	1.9984766
25.043032798678798	4.5498004	2.1330261
25.060986894952933	5.1940856	2.2790537
25.078941616453637	5.9575024	2.4407995
25.096896963687055	7.001066	2.6459527
25.114852937159508	8.053317	2.8378367
25.132809537377444	8.338302	2.8876119
25.150766764847468	8.207453	2.8648653
25.168724620076347	7.480416	2.735035
25.186683103570985	6.353895	2.5206933
25.204642215838426	5.1123905	2.2610595
25.222601957385894	3.815746	1.9533935
25.24056232872074	2.996518	1.7310454
25.25852333035048	2.4801009	1.5748336
25.276484962782778	2.190114	1.4799033
25.294447226525435	2.0361073	1.4269223
25.312410122086423	1.9681513	1.4029082
25.330373649973843	1.9178953	1.384881
25.348337810695988	1.8864491	1.3734807
25.366302604761245	1.8560451	1.3623675
25.384268032678207	1.8670273	1.366392
25.40223409495558	1.8802189	1.3712107
25.420200792102257	1.8902024	1.3748463
25.438168124627246	1.8692204	1.3671943
25.45613609303974	1.8887572	1.3743206
25.474104697849057	1.8971597	1.3773742
25.492073939564698	1.9017464	1.3790382
25.510043818696285	1.8788669	1.3707176
25.528014335753614	1.9032713	1.379591
25.54598549124664	1.9402032	1.3929118
25.56395728568544	1.9693397	1.4033316
25.58192971958028	1.9124534	1.3829148
25.59990279344156	1.8516861	1.3607668
25.617876507779833	1.8523331	1.3610045
25.635850863105826	1.8828396	1.372166
25.653825859930386	1.9058025	1.3805081
25.671801498764548	1.8899608	1.3747585
25.68977778011949	1.859899	1.3637812
25.707754704506524	1.8362614	1.3550873
25.725732272437153	1.8344877	1.3544326
25.743710484423012	1.8364654	1.3551625
25.761689340975888	1.8816789	1.3717431
25.77966884260774	1.912984	1.3831067
25.797648989830662	1.9585768	1.3994917
25.815629783156922	1.9114815	1.3825634
25.83361122309895	1.902482	1.3793049
25.85159331016929	1.8947432	1.3764967
25.869576044880695	1.8924414	1.3756603
25.887559427746034	1.8451623	1.3583676
25.90554345927836	1.8064922	1.3440582
25.92352813999086	1.8206842	1.3493273
25.94151347039689	1.8750443	1.3693225
25.959499451009965	1.8722264	1.3682933
25.97748608234374	1.8595442	1.363651
25.995473364912062	1.8619677	1.3645394
26.013461299228904	1.8857241	1.3732166
26.03144988580839	1.8209277	1.3494176
26.04943912516483	1.8070629	1.3442703
26.067429017812675	1.8063469	1.344004
26.085419564266537	1.8779892	1.3703974
26.103410765041186	1.9075341	1.3811351
26.12140262065155	1.8590919	1.3634852
26.139395131612723	1.8248223	1.3508599
26.157388298439948	1.8477755	1.3593291
26.17538212164861	1.832284	1.3536189
26.193376601754295	1.8535591	1.3614548
26.211371739272714	1.848473	1.3595855
26.229367534719746	1.8727671	1.3684908
26.247363988611433	1.8731475	1.3686298
26.26536110146397	1.8441162	1.3579824
26.283358873793727	1.8140684	1.3468735
26.301357306117204	1.7989283	1.3412414
26.319356398951104	1.828647	1.3522748
26.33735615281224	1.828037	1.3520492
26.35535656821762	1.7960069	1.3401518
26.373357645684404	1.8033751	1.342898
26.39135938572991	1.8371089	1.3553998
26.409361788871614	1.8664002	1.3661625
26.427364855627165	1.8045547	1.3433372
26.445368586514352	1.7621356	1.3274546
26.46337298205115	1.7790382	1.3338059
26.48137804275568	1.8098215	1.345296
26.499383769146217	1.8407634	1.3567474
26.517390161741215	1.8459996	1.3586757
26.53539722105928	1.8878263	1.373982
26.553404947619182	1.8764248	1.3698266
26.571413341939856	1.8248297	1.3508626
26.589422404540397	1.773425	1.3317001
26.60743213594006	1.7635834	1.3279998
26.62544253665827	1.8078771	1.3445731
26.64345360721459	1.8267077	1.3515575
26.66146534812879	1.8318907	1.3534735
26.679477759920758	1.7844725	1.3358415
26.69749084311057	1.7565116	1.3253345
26.71550459821847	1.7913584	1.3384163
26.733519025764842	1.8055332	1.3437012
26.751534126270258	1.8200716	1.3491002
26.769549900255434	1.8342669	1.354351
26.787566348241267	1.8046297	1.3433651
26.80558347074881	1.7843117	1.3357813
26.823601268299267	1.765904	1.3288732
26.841619741414036	1.755576	1.3249816
26.85963889061465	1.7852471	1.3361313
26.877658716422832	1.8053204	1.3436221
26.89567921936045	1.7954535	1.3399453
26.913700399949544	1.7892178	1.3376164
26.93172225871233	1.8544986	1.3617997
26.949744796171174	1.8624527	1.3647171
26.967768012848605	1.8740203	1.3689486
26.98579190926733	1.8542056	1.3616922
27.003816485950225	1.828283	1.3521402
27.021841743420318	1.7983966	1.3410431
27.039867682200814	1.7539037	1.3243504
27.057894302815072	1.7533001	1.3241224
27.07592160578664	1.7898996	1.3378713
27.0939495916392	1.8060422	1.3438907
27.111978260896635	1.8445227	1.3581321
27.13000761408296	1.8211339	1.349494
27.148037651722397	1.8321167	1.3535571
27.166068374339304	1.8717448	1.3681172
27.184099782458215	1.909729	1.3819294
27.20213187660384	1.8849075	1.3729193
27.22016465730105	1.8616618	1.3644273
27.23819812507487	1.8086079	1.3448449
27.256232280450533	1.8049389	1.3434801
27.274267123953383	1.802048	1.3424038
27.292302656108987	1.8414413	1.3569971
27.31033887744306	1.8677899	1.3666711
27.32837578848146	1.871021	1.3678527
27.34641338975026	1.7941868	1.3394727
27.364451681775673	1.785249	1.336132
27.382490665084074	1.7761981	1.3327408
27.400530340202046	1.7741688	1.3319793
27.41857070765629	1.7988317	1.3412054
27.436611767973726	1.8249681	1.3509138
27.454653521681404	1.8176651	1.3482081
27.472695969306564	1.8352044	1.3546971
27.490739111376627	1.827616	1.3518934
27.508782948419153	1.7850962	1.336075
27.526827480961902	1.7965989	1.3403727
27.54487270953279	1.8170152	1.347967
27.562918634659898	1.810558	1.3455697
27.580965256871508	1.7990413	1.3412834
27.599012576696026	1.7702237	1.3304975
27.617060594662068	1.7729139	1.3315082
27.63510931129842	1.7995331	1.3414668
27.65315872713401	1.806169	1.3439379
27.67120884269797	1.7824202	1.3350731
27.68925965851958	1.7969574	1.3405064
27.707311175128307	1.7960688	1.3401749
27.725363393053787	1.8080938	1.3446537
27.74341631282583	1.8514884	1.360694
27.7614699349744	1.8716638	1.3680876
27.77952426002968	2.0390174	1.4279417
27.797579288521973	2.1116934	1.4531667
27.815635020981784	2.621583	1.6191304
27.83369145793979	2.740982	1.6555911
27.85174859992682	2.5360146	1.5924869
27.869806447473923	2.3146994	1.5214136
27.887865001112267	1.9343421	1.3908063
27.905924261373233	1.8520669	1.3609066
27.92398422878836	1.8846297	1.3728181
27.94204490388936	1.8662878	1.3661214
27.96010628720813	1.8675216	1.366573
27.978168379276728	1.8562908	1.3624576
27.9962311806274	1.815561	1.3474276
28.014294691792568	1.8233229	1.3503047
28.0323589133048	1.839179	1.3561634
28.050423845696887	1.8706388	1.367713
28.068489489501758	1.8890754	1.3744364
28.086555845252523	1.8893294	1.3745288
28.104622913482487	1.9142052	1.383548
28.122690694725115	1.9152952	1.3839419
28.14075918951405	1.8916615	1.3753768
28.15882839838312	1.8911535	1.3751922
28.176898321866304	1.9216573	1.3862386
28.1949689604978	1.9383858	1.3922592
28.213040314811945	1.9868035	1.4095402
28.23111238534327	2.0104227	1.4178938
28.249185172626493	1.9185048	1.385101
28.267258677196473	1.8816918	1.3717477
28.285332899588294	1.9053882	1.380358
28.303407840337172	1.9741386	1.4050404
28.321483499978545	1.9942062	1.4121636
28.33955987904799	2.0113232	1.4182112
28.357636978081285	1.9792706	1.4068655
28.37571479761439	1.9475356	1.3955413
28.393793338183425	1.8786917	1.3706537
28.41187260032469	1.9080269	1.3813134
28.429952584574686	1.9569248	1.3989012
28.448033291470065	1.9878327	1.4099052
28.46611472154769	1.9809457	1.4074607
28.484196875344566	1.9735789	1.4048413
28.502279753397914	1.9443532	1.3944007
28.52036335624511	1.9562154	1.3986477
28.538447684423716	2.0159013	1.4198244
28.556532738471482	2.0486205	1.4313003
28.574618518926325	2.0638719	1.4366182
28.59270502632635	2.066005	1.4373604
28.61079226120985	2.063127	1.4363589
28.628880224115274	2.0779514	1.4415101
28.646968915581287	2.073168	1.43985
28.66505833614671	2.0440164	1.429691
28.68314848635055	2.0124738	1.4186169
28.701239366732004	2.0143418	1.4192752
28.71933097783044	2.069217	1.4384773
28.737423320185403	2.096881	1.4480611
28.75551639433665	2.083122	1.4433025
28.773610200824074	2.0767088	1.441079
28.791704740187793	2.103608	1.450382
28.80980001296809	2.159004	1.469355
28.827896019705413	2.2018921	1.4838774
28.845992760940433	2.1723974	1.4739054
28.86409023721397	2.1366222	1.4617189
28.88218844906704	2.1374488	1.4620017
28.900287397040845	2.2273684	1.492437
28.918387081676755	2.2687428	1.5062346
28.936487503516343	2.2770329	1.5089841
28.954588663101365	2.246135	1.4987111
28.97269056097374	2.3390067	1.5293812
28.990793197675597	2.3773036	1.5418507
29.00889657374923	2.4000382	1.5492057
29.027000689737125	2.397096	1.5482558
29.04510554618196	2.3406916	1.5299319
29.06321114362659	2.326096	1.5251545
29.08131748261405	2.424253	1.5570012
29.099424563687567	2.4853284	1.5764924
29.11753238739057	2.4923933	1.5787315
29.13564095426663	2.540436	1.5938746
29.15375026485954	2.5472133	1.5959991
29.171860319713275	2.5759287	1.60497
29.18997111937199	2.6406264	1.6250005
29.20808266438002	2.7383966	1.6548102
29.226194955281898	2.7790914	1.6670607
29.244307992622335	2.8094337	1.6761365
29.26242177694624	2.856323	1.690066
29.2805363087987	2.8791244	1.6967983
29.29865158872498	2.8791997	1.6968205
29.316767617270557	2.9160194	1.7076356
29.334884394981064	2.9107592	1.7060947
29.353001922402367	2.952339	1.7182372
29.37112020008047	3.0388021	1.743216
29.389239228561596	3.171607	1.7809006
29.407359008392152	3.3594022	1.8328671
29.42547954011872	3.8355048	1.9584445
29.44360082428809	4.6623964	2.1592584
29.46172286144722	5.9681387	2.4429774
29.479845652143283	7.764521	2.786489
29.497969196923606	10.090717	3.176589
29.516093496335728	12.746483	3.5702217
29.5342185509274	15.6360235	3.9542413
29.55234436124651	17.64887	4.201056
29.570470927841175	18.3061	4.278563
29.588598251259686	17.440851	4.1762247
29.60672633205055	15.716878	3.9644518
29.624855170762405	13.217917	3.6356454
29.642984767944146	10.295828	3.2087111
29.66111512414481	7.68365	2.7719398
29.67924623991366	5.736345	2.3950667
29.697378115800138	4.540572	2.1308618
29.71551075235387	3.9557812	1.9889146
29.733644150124675	3.6589622	1.9128414
29.751778309662576	3.4947758	1.869432
29.769913231517766	3.398225	1.8434275
29.78804891624066	3.381769	1.8389586
29.806185364381818	3.3538558	1.8313535
29.82432257649206	3.3626575	1.833755
29.842460553122333	3.3570461	1.8322244
29.86059929482382	3.2921526	1.814429
29.878738802147872	3.231222	1.79756
29.896879075646048	3.307207	1.8185729
29.915020115870114	3.3002112	1.8166484
29.933161923371976	3.2810256	1.8113601
29.951304498703777	3.3314958	1.8252386
29.969447842417857	3.3446176	1.8288295
29.987591955066733	3.2231145	1.7953035
30.005736837203123	3.113187	1.7644225
30.023882489379943	3.10277	1.7614682
30.04202891215028	3.149119	1.7745757
30.060176106067455	3.2454367	1.8015095
30.078324071684946	3.2484577	1.8023478
30.09647280955646	3.2104144	1.791763
30.114622320235863	3.140819	1.7722356
30.132772604277257	3.1173668	1.7656066
30.1509236622349	3.0647576	1.7506449
30.16907549466328	3.054857	1.7478149
30.18722810211705	3.0315783	1.7411429
30.205381485151097	3.100497	1.7608228
30.22353564432045	3.1010785	1.7609879
30.241690580180403	3.0420442	1.7441456
30.25984629328638	2.973124	1.7242749
30.278002784194037	3.035065	1.7421438
30.296160053459246	3.0000706	1.7320712
30.314318101638033	2.99106	1.7294681
30.332476929286646	2.997242	1.7312545
30.35063653696153	3.050821	1.74666
30.368796925219307	2.9459858	1.7163874
30.386958094616844	2.8709311	1.6943822
30.40512004571115	2.9391782	1.7144032
30.423282779059463	2.9938178	1.7302653
30.441446295219233	2.9371376	1.713808
30.459610594748067	2.9106257	1.7060556
30.47777567820382	2.8744757	1.6954279
30.495941546144504	2.7901664	1.6703792
30.51410819912835	2.802679	1.6741204
30.532275637713795	2.8569157	1.6902413
30.55044386245946	2.8634636	1.6921772
30.56861287392416	2.8196604	1.6791844
30.586782672666956	2.841401	1.6856456
30.604953259247047	2.8279064	1.681638
30.623124634223885	2.8216472	1.679776
30.641296798157075	2.802935	1.6741968
30.659469751606462	2.7647877	1.662765
30.677643495132074	2.720631	1.6494335
30.695818029294152	2.7224884	1.6499965
30.713993354653116	2.7432551	1.6562775
30.73216947176962	2.7689333	1.6640112
30.75034638120448	2.720001	1.6492425
30.768524083518756	2.7349293	1.6537622
30.786702579273673	2.7874124	1.6695546
30.80488186903069	2.8846798	1.6984345
30.82306195335144	3.0160396	1.7366749
30.841242832797782	3.2754936	1.8098325
30.85942450793176	3.6143165	1.9011356
30.877606979315637	3.952152	1.9880021
30.895790247511883	4.2444654	2.06021
30.913974313083134	4.5856667	2.141417
30.932159176592283	4.7426715	2.1777675
30.95034483860237	4.7335086	2.1756628
30.968531299676698	4.534448	2.1294243
30.98671856037873	4.215352	2.0531323
31.00490662127215	3.8639345	1.9656893
31.023095482920848	3.410681	1.846803
31.04128514588892	2.956532	1.7194569
31.059475610740662	2.6586032	1.6305224
31.07766687804056	2.5255842	1.5892087
31.09585894835335	2.5105438	1.5844696
31.11405182224393	2.5028853	1.582051
31.132245500277417	2.5156932	1.5860937
31.15043998301914	2.604192	1.6137509
31.168635271034628	2.5613294	1.6004153
31.18683136488964	2.4040189	1.5504899
31.20502826515008	2.339153	1.529429
31.223225972382135	2.364881	1.537817
31.241424487152155	2.4236095	1.5567946
31.259623810026692	2.5061343	1.5830774
31.27782394157253	2.5162232	1.5862608
31.296024882356644	2.4416418	1.5625753
31.314226632946237	2.4030986	1.5501931
31.332429193908684	2.421333	1.5560633
31.350632565811598	2.4568346	1.5674293
31.368836749222787	2.4788606	1.5744398
31.387041744710295	2.535365	1.592283
31.40524755284232	2.5761747	1.6050466
31.423454174187317	2.5716705	1.603643
31.441661609313922	2.5366175	1.5926762
31.459869858791002	2.4935572	1.5791001
31.478078923187628	2.387642	1.5451996
31.496288803073064	2.3160546	1.5218589
31.514499499016807	2.2860029	1.5119534
31.532711011588546	2.3071125	1.5189182
31.550923341358178	2.3245988	1.5246634
31.56913648889584	2.3680573	1.5388494
31.587350454771844	2.3774023	1.5418828
31.605565239556732	2.3200483	1.5231705
31.62378084382127	2.3327534	1.5273354
31.641997268136382	2.3189516	1.5228105
31.660214513073274	2.262716	1.5042328
31.67843257920331	2.2755404	1.5084894
31.6966514670981	2.3172557	1.5222535
31.71487117732944	2.2946177	1.5147996
31.733091710469346	2.3003676	1.5166963
31.751313067090052	2.2954009	1.515058
31.769535247764008	2.1849458	1.4781562
31.787758253063878	2.1250937	1.4577701
31.805982083562526	2.207917	1.4859061
31.824206739833024	2.2372575	1.4957465
31.84243222244869	2.2087197	1.4861763
31.860658531983013	2.2591279	1.5030395
31.878885669009737	2.307815	1.5191494
31.897113634102784	2.3238215	1.5244086
31.91534242783632	2.297603	1.5157846
31.933572050784694	2.2700675	1.5066743
31.951802503522508	2.2828553	1.5109121
31.970033786624548	2.2493753	1.4997917
31.988265900665834	2.2770412	1.5089868
32.006498846221575	2.293846	1.5145447
32.02473262386724	2.3312495	1.526843
32.04296723417845	2.2686641	1.5062085
32.0612026777311	2.1853373	1.4782887
32.07943895510129	2.1019363	1.4498056
32.097676066865304	2.1531527	1.4673625
32.115914013599685	2.299268	1.5163337
32.13415279588115	2.2711868	1.5070457
32.152392414286666	2.19453	1.4813946
32.1706328693934	2.1002548	1.4492255
32.18887416177875	2.0868669	1.4445992
32.20711629202032	2.1694536	1.4729065
32.225359260695924	2.2186255	1.4895052
32.243603068383614	2.1839118	1.4778064
32.26184771566166	2.1229184	1.4570239
32.28009320310852	2.1067667	1.4514705
32.2983395313029	2.1009624	1.4494697
32.31658670082372	2.099904	1.4491045
32.33483471225012	2.0815096	1.4427438
32.35308356616143	2.03872	1.4278375
32.371333263137245	2.0160413	1.4198737
32.38958380375734	2.0936177	1.4469339
32.407835188601744	2.1010528	1.4495009
32.42608741825067	2.0885878	1.4451947
32.444340493284585	2.0810869	1.4425973
32.46259441428416	2.0826504	1.4431391
32.48084918183028	2.1171277	1.4550353
32.49910479650405	2.1498513	1.4662372
32.51736125888683	2.1298962	1.4594164
32.53561856956014	2.04988	1.4317402
32.5538767291058	1.9797738	1.4070443
32.572135738105764	1.9866779	1.4094956
32.59039559714228	2.0461018	1.4304202
32.608656306797776	2.1423388	1.463673
32.62691786765491	2.131505	1.4599675
32.645180280296586	2.051386	1.4322661
32.663443545305896	2.0099943	1.4177426
32.68170766326619	2.054602	1.4333882
32.69997263476099	2.1333199	1.4605889
32.7182384603741	2.0430305	1.4293462
32.7365051406895	1.9166199	1.3844204
32.75477267629144	1.9726603	1.4045143
32.77304106776434	2.0513556	1.4322554
32.79131031569289	2.0003586	1.4143404
32.809580420661966	2.013939	1.4191332
32.827851383256714	2.0576358	1.4344462
32.84612320406245	2.1512876	1.4667268
32.86439588366476	2.059908	1.4352379
32.88266942264945	1.9676597	1.402733
32.9009438216025	1.9229794	1.3867153
32.9192190811102	1.9722555	1.4043702
32.937495201758985	2.0368645	1.4271877
32.95577218413556	2.128693	1.4590042
32.974050028826866	2.1605659	1.4698863
32.992328736420035	2.103622	1.4503869
33.010608307502444	2.0057685	1.4162515
33.02888874266169	1.9471334	1.3953972
33.047170042485604	2.0081675	1.4170983
33.06545220756225	2.0554504	1.4336842
33.083735238479896	2.1313696	1.4599211
33.10201913582707	2.130433	1.4596003
33.12030390019248	2.0244672	1.4228377
33.138589532165135	2.003769	1.4155455
33.15687603233419	1.9569528	1.3989112
33.17516340128909	1.9020655	1.379154
33.19345163961947	1.9331954	1.390394
33.211740747915215	1.9553957	1.3983546
33.23003072676643	1.9645331	1.401618
33.248321576763466	1.9818064	1.4077665
33.266613298496885	1.9702399	1.4036523
33.28490589255747	1.9639825	1.4014215
33.30319935953626	1.933569	1.3905283
33.32149370002451	1.9263183	1.3879187
33.339788914613706	1.9277238	1.3884249
33.358085003895575	1.9415871	1.3934084
33.376381968462034	1.9201301	1.3856876
33.39467980890529	1.9129328	1.3830881
33.41297852581774	1.8953491	1.3767169
33.43127811979204	1.906706	1.3808353
33.44957859142105	1.8374029	1.3555083
33.467879941297866	1.8500592	1.3601688
33.486182170015844	1.9141494	1.3835279
33.50448527816853	1.9591248	1.3996874
33.522789266349754	1.9258971	1.387767
33.541094135153514	1.8960369	1.3769666
33.55939988517411	1.9000144	1.3784101
33.57770651700602	1.8846021	1.3728081
33.59601403124398	1.8856871	1.3732033
33.61432242848296	1.961874	1.4006691
33.632631709318154	1.941044	1.3932135
33.650941874344994	1.8582886	1.3631907
33.66925292415916	1.8466688	1.3589219
33.68756485935654	1.9966505	1.4130288
33.70587768053328	2.0265515	1.42357
33.724191388285746	1.9602362	1.4000844
33.74250598321054	1.9929659	1.4117244
33.760821465904506	2.0204844	1.4214375
33.77913783696474	1.9915125	1.4112096
33.79745509698852	2.0214841	1.421789
33.815773246573414	2.0102482	1.4178323
33.8340922863172	1.9944133	1.4122369
33.852412216817896	2.0063977	1.4164737
33.87073303867377	2.027812	1.4240127
33.889054752483304	1.9452882	1.3947359
33.907377358845245	1.8852228	1.3730341
33.92570085835853	1.9077233	1.3812035
33.94402525162239	2.042454	1.4291445
33.96235053923627	2.050478	1.431949
33.980676721799824	1.9892367	1.410403
33.999003799912984	2.0115728	1.4182993
34.01733177417592	2.0793808	1.4420058
34.03566064518901	2.007698	1.4169326
34.0539904135529	1.898978	1.3780341
34.07232107986846	1.9784137	1.4065609
34.090652644736785	2.0126898	1.418693
34.108985108759235	1.8346758	1.3545021
34.12731847253742	1.7791755	1.3338574
34.14565273667313	1.7820541	1.334936
34.16398790176847	1.8713531	1.3679742
34.18232396842574	1.9694839	1.403383
34.20066093724749	1.9497366	1.3963296
34.21899880883651	1.968071	1.4028795
34.23733758379583	2.0464833	1.4305534
34.25567726272874	2.1004395	1.4492893
34.27401784623872	2.1042478	1.4506025
34.29235933492957	2.0365374	1.427073
34.31070172940526	1.8778156	1.3703341
34.32904503027003	1.8104131	1.345516
34.347389238128386	1.7415459	1.3196764
34.36573435358502	1.7325664	1.3162699
34.38408037724492	1.7768313	1.3329784
34.402427309713296	1.9642235	1.4015076
34.42077515159559	2.0654223	1.4371578
34.43912390349752	1.9263027	1.3879131
34.45747356602499	1.8539023	1.3615808
34.47582413978423	1.8986667	1.3779212
34.49417562538163	1.8552665	1.3620816
34.51252802342388	1.751857	1.3235774
34.53088133451789	1.7731359	1.3315915
34.54923555927084	1.742236	1.3199378
34.567590698290104	1.762349	1.3275349
34.58594675218336	2.0050333	1.415992
34.6043037215585	2.1296315	1.4593257
34.62266160702365	1.8664267	1.3661723
34.641020409187234	1.7073034	1.3066382
34.65938012865785	1.9266483	1.3880376
34.677740766044394	1.9879466	1.4099456
34.69610232195598	1.8565303	1.3625455
34.714464797002016	1.8346062	1.3544763
34.73282819179208	1.8339266	1.3542254
34.751192506936064	1.952717	1.3973964
34.76955774304408	1.909363	1.3817971
34.7879239007265	1.8365667	1.3551998
34.80629098059391	1.8146434	1.347087
34.824658983257194	1.9264263	1.3879576
34.843027909327446	2.006281	1.4164325
34.86139775941603	2.058288	1.4346735
34.879768534134534	2.0149164	1.4194775
34.89814023409483	1.9071393	1.3809922
34.91651285990901	1.904123	1.3798996
34.93488641218944	2.0013983	1.4147079
34.95326089154871	2.0671604	1.4377623
34.97163629859967	2.0899405	1.4456626
34.99001263395542	1.956909	1.3988956
35.00838989822934	1.9619174	1.4006846
35.02676809203499	1.8817785	1.3717793
35.04514721598624	1.9949343	1.4124215
35.063527270697215	2.0846496	1.4438316
35.081908256782256	2.1769333	1.4754434
35.10029017485597	2.034195	1.426252
35.11867302553321	1.7176068	1.310575
35.137056809429104	1.8416141	1.3570608
35.155441527159006	2.026136	1.423424
35.173827179338524	2.1017587	1.4497443
35.19221376658354	2.0644743	1.4368279
35.21060128951017	2.004672	1.4158645
35.2289897487348	1.9621259	1.4007591
35.24737914487405	2.0607972	1.4355477
35.26576947854479	1.8551935	1.3620548
35.28416075036418	1.8255084	1.3511138
35.30255296094958	2.183805	1.4777703
35.32094611091867	2.4573278	1.5675867
35.33934020088932	2.2336042	1.4945247
35.35773523147969	1.9202057	1.3857149
35.3761312033082	1.7351753	1.3172605
35.394528116993506	1.81464	1.3470857
35.41292597315452	1.8591156	1.3634939
35.431324772410434	1.8820311	1.3718714
35.449724515380666	2.0292897	1.4245315
35.46812520268491	2.1318214	1.4600759
35.486526834943106	2.0242043	1.4227453
35.504929412775454	2.0899436	1.4456637
35.52333293680242	2.298818	1.5161854
35.54173740764471	2.1470492	1.4652812
35.560142825923286	1.7224194	1.3124098
35.5785491922594	1.4715602	1.2130789
35.59695650727454	1.2872533	1.1345718
35.61536477159042	1.3578206	1.1652557
