0.008763373481513119	0.0	0.0
0.026290120649546365	0.0	0.0
0.043816868432600686	0.13170215	0.36290792
0.06134361724069026	0.09919149	0.3149468
0.07887036748382949	0.103433706	0.3216111
0.0963971195720331	0.057187628	0.23913935
0.11392387391531617	0.07491569	0.2737073
0.1314506309236943	0.083587244	0.2891146
0.1489773910071836	0.14047147	0.37479523
0.16650415457580078	0.22106826	0.47017896
0.18403092203956356	0.20133235	0.44870073
0.20155769380849	0.155153	0.39389467
0.2190844702925996	0.08893048	0.29821214
0.2366112519019124	0.11273159	0.33575526
0.2541380390464497	0.11944514	0.34560835
0.27166483213623416	0.13948242	0.37347347
0.28919163158128947	0.1308726	0.36176318
0.3067184377916406	0.15901251	0.39876372
0.324245251177314	0.1260556	0.35504308
0.34177207214833777	0.1785383	0.42253792
0.3592989011147415	0.22050641	0.4695811
0.37682573848655654	0.22371194	0.47298196
0.39435258467381573	0.22007018	0.4691164
0.41187944008655414	0.17145139	0.41406688
0.42940630513480854	0.18153082	0.42606434
0.446933180228618	0.17144418	0.41405818
0.4644600657780234	0.17974742	0.4239663
0.48198696219306775	0.20643638	0.4543527
0.49951386988379676	0.22906448	0.47860682
0.5170407892602581	0.21557528	0.46430084
0.5345677207325025	0.15416169	0.3926343
0.5520946647105822	0.16725342	0.40896627
0.5696216216045534	0.15074886	0.3882639
0.5871485918244737	0.15176347	0.3895683
0.6046755757804043	0.145787	0.38182065
0.6222025738824094	0.14225262	0.37716392
0.6397295865405557	0.16165067	0.40205804
0.6572566141649129	0.20870087	0.4568379
0.6747836571655547	0.20109709	0.4484385
0.6923107159525568	0.18351428	0.42838567
0.7098377909359992	0.12879877	0.35888547
0.7273648825259653	0.13584732	0.3685747
0.7448919911325411	0.17794354	0.42183354
0.762419117165817	0.22896485	0.47850272
0.7799462610358868	0.21417737	0.46279302
0.7974734231528482	0.2069722	0.45494196
0.8150006039268024	0.21182927	0.46024916
0.8325278037678551	0.23723845	0.4870713
0.8500550230861152	0.21079308	0.45912206
0.8675822622916969	0.16923879	0.41138643
0.8851095217947171	0.18735774	0.4328484
0.9026368020052984	0.19037485	0.43631968
0.9201641033335665	0.22012654	0.46917644
0.9376914261896523	0.23286326	0.48255908
0.9552187709836915	0.24687389	0.49686405
0.9727461381258234	0.2308373	0.4804553
0.990273528026193	0.2489361	0.49893495
1.0078009410949496	0.23740901	0.48724636
1.0253283777422473	0.24946827	0.499468
1.0428558383782454	0.25305873	0.50304943
1.0603833234131086	0.25252187	0.50251555
1.0779108332570058	0.30598432	0.5531585
1.0954383683201119	0.33551025	0.57923245
1.112965929012607	0.43984094	0.663205
1.1304935157446763	0.5657017	0.75213146
1.1480211289265108	0.56267524	0.7501168
1.1655487689683062	1.4021376	1.184119
1.1830764362802655	1.6431861	1.2818682
1.200604131272596	2.0475166	1.4309146
1.2181318543555117	2.356848	1.5352029
1.235659605939232	2.3638139	1.53747
1.253187386433982	4.026666	2.0066555
1.270715196249994	6.470331	2.5436845
1.2882430357975057	11.801165	3.4352822
1.3057709054867608	16.35496	4.0441265
1.3232988057280106	22.158022	4.707231
1.3408267369315112	27.101799	5.205939
1.358354699507526	30.964756	5.5645986
1.3758826938663256	35.236393	5.936025
1.3934107204181858	37.45645	6.1201677
1.410938779573391	38.005543	6.1648636
1.4284668717422309	38.45785	6.2014394
1.4459949973350033	37.71073	6.1409063
1.4635231567620117	37.711445	6.1409645
1.4810513504335687	36.983227	6.0813837
1.4985795787599925	36.62299	6.051693
1.5161078421516088	35.954407	5.996199
1.5336361410187505	34.81551	5.900467
1.5511644757717598	34.55387	5.878254
1.5686928468209842	34.873394	5.9053698
1.58622125457678	35.71758	5.9764185
1.6037496994495108	37.722378	6.141855
1.621278181849548	38.01254	6.165431
1.6388067021872719	38.53225	6.207435
1.6563352608730693	37.5326	6.1263857
1.673863858317336	36.503216	6.041789
1.6913924949304753	35.98341	5.998617
1.7089211711228998	35.207657	5.9336042
1.7264498873050296	34.47446	5.8714957
1.7439786438872935	33.5575	5.7928834
1.7615074412801288	32.38252	5.690564
1.779036279893981	31.509157	5.6133018
1.796565160139305	30.458817	5.5189505
1.814094082426564	29.731031	5.452617
1.8316230471662298	29.113945	5.395734
1.849152054768784	28.439346	5.332855
1.8666811056447168	28.118465	5.302685
1.8842102002045273	27.466972	5.2408943
1.901739338858724	26.86126	5.182785
1.9192685220178245	26.367558	5.134935
1.9367977500923557	25.5684	5.0565205
1.9543270234928547	25.10914	5.010902
1.971856342629867	24.389236	4.938546
1.9893857079139496	23.744822	4.8728657
2.006915119755667	22.914627	4.7869225
2.0244445785655945	22.216072	4.7133927
2.0419740847543175	21.717974	4.6602545
2.0595036387324317	21.238232	4.6084957
2.0770332409105414	20.82507	4.5634494
2.094562891699263	20.541094	4.5322285
2.1120925915092217	20.239864	4.4988737
2.129622340751053	19.831562	4.453264
2.1471521398354043	188.37065	13.724819
2.1646819891729323	444.75195	21.089144
2.182211889174303	441.08273	21.00197
2.1997418402501974	453.5877	21.297598
2.2172718428113023	433.4319	20.819027
2.234801897268317	321.38544	17.927227
2.2523320040319548	17.429121	4.17482
2.269862163512935	17.020197	4.125554
2.287392376121992	16.641666	4.07942
2.304922642269869	16.216038	4.026914
2.322452962367322	15.909802	3.9887094
2.3399833368251164	15.638456	3.9545488
2.357513766054032	15.470855	3.9333007
2.3750442504648586	15.197507	3.898398
2.3925747904683963	14.803131	3.8474836
2.410105386475459	14.78921	3.8456743
2.4276360388968707	14.451944	3.8015714
2.445166748143469	14.140851	3.7604322
2.4626975146261025	13.811792	3.716422
2.4802283387556323	13.602208	3.6881173
2.4977592209429305	13.344646	3.6530325
2.5152901615988825	12.942914	3.5976262
2.5328211611343865	12.88581	3.5896811
2.5503522199603523	12.807213	3.5787168
2.5678833384877024	12.904122	3.5922308
2.5854145171273712	12.645769	3.556089
2.6029457562903064	12.358647	3.5154867
2.620477056387469	12.163481	3.4876182
2.6380084178298326	12.033109	3.468877
2.655539841028383	11.941281	3.455616
2.673071326394119	11.6578865	3.4143648
2.6906028743380523	11.339229	3.367377
2.708134485271211	11.0841465	3.329286
2.7256661596046325	10.887594	3.2996354
2.743197897749369	10.77913	3.2831585
2.760729700116486	10.625235	3.259637
2.778261567117063	10.356898	3.2182136
2.795793499162193	10.203668	3.194318
2.8133254966629817	10.091108	3.1766505
2.830857560030551	10.081677	3.1751657
2.8483896896760337	10.024425	3.1661372
2.865921886010578	9.83155	3.1355302
2.883454149445347	9.678091	3.110963
2.9009864803915177	9.507161	3.0833685
2.91851887926028	9.438647	3.0722382
2.9360513464628384	9.414674	3.068334
2.953583882410413	9.248057	3.0410619
2.9711164875142373	9.114843	3.01908
2.9886491621855606	8.753678	2.9586616
3.0061819068356455	8.584732	2.9299715
3.023714721875769	8.44841	2.9066148
3.041247607717225	8.402968	2.8987875
3.0587805647713213	8.312754	2.8831847
3.0763135934493806	8.273947	2.876447
3.0938466941627407	8.239006	2.8703668
3.1113798673227544	8.214269	2.8660545
3.1289131133407904	8.081258	2.8427553
3.1464464326282315	7.8559327	2.8028436
3.1639798255964786	7.867472	2.8049014
3.1815132926569443	7.7350426	2.7811944
3.1990468342210603	7.7699127	2.7874563
3.216580450700272	7.6158814	2.7596886
3.2341141425060416	7.476107	2.734247
3.251647910049847	7.43596	2.7268956
3.2691817537431813	7.343423	2.709875
3.286715673997555	7.2463927	2.6919124
3.3042496712244938	7.0561786	2.6563468
3.32178374583554	6.926755	2.631873
3.339317898242251	6.904435	2.6276293
3.3568521288562034	6.860978	2.6193469
3.3743864380889876	6.950888	2.6364536
3.3919208263522127	6.8673887	2.6205704
3.4094552940575023	6.7871842	2.6052225
3.4269898416164972	6.6597266	2.5806446
3.444524469440858	6.6910896	2.586714
3.4620591779422587	6.7246985	2.5932024
3.479593967532391	6.775831	2.6030426
3.4971288386229658	6.620724	2.5730767
3.5146637916257086	6.46439	2.5425165
3.5321988269523628	6.3622565	2.5223515
3.5497339450146903	6.3338757	2.5167193
3.5672691462244708	6.350794	2.5200782
3.5848044309934988	6.3509116	2.5201015
3.60233979973359	6.2502713	2.5000544
3.619875252856575	6.211326	2.4922533
3.6374107907743034	6.096951	2.4692004
3.6549464138986427	6.116269	2.4731092
3.6724821226414788	6.2314687	2.496291
3.690017917414714	6.339456	2.5178277
3.7075537986302702	6.4208145	2.5339327
3.7250897667000857	6.4413958	2.5379906
3.7426258220361235	6.5324893	2.5558734
3.7601619650503553	6.7149305	2.5913184
3.777698196154779	7.2273192	2.6883674
3.7952345157614067	8.187938	2.8614573
3.8127709242822716	8.979534	2.996587
3.830307422129425	11.304275	3.362183
3.847844009714936	30.164125	5.4921875
3.8653806874508954	97.71533	9.885107
3.882917455749409	96.96433	9.847047
3.900454315022606	96.918236	9.844706
3.917991265682631	41.55418	6.4462533
3.9355283081416506	11.21471	3.3488371
3.9530654428118495	8.953849	2.9922984
3.970602670105433	7.591357	2.7552419
3.9881399904346244	6.6387153	2.5765705
4.005677404211669	6.507521	2.5509844
4.023214911848827	6.4818254	2.545943
4.0407525137583855	6.455675	2.540802
4.058290210352644	6.4291444	2.5355759
4.075828002043927	6.3895636	2.5277586
4.0933658892445814	6.354714	2.520856
4.110903872366966	6.3573823	2.521385
4.128441951823468	6.3862157	2.5270963
4.145980128026488	6.267273	2.5034523
4.163518401388452	6.194388	2.4888527
4.181056772321807	6.0778995	2.4653397
4.1985952412390155	6.1435547	2.4786196
4.216133808552567	6.276036	2.5052018
4.233672474674966	6.418952	2.533565
4.251211240018741	6.587375	2.5665882
4.268750104996445	6.7678246	2.6015043
4.286289070020643	7.628196	2.7619188
4.303828135503928	9.262518	3.0434384
4.3213673018589125	29.508877	5.4322076
4.3389065694982305	90.821236	9.530018
4.356445938834537	166.25766	12.894094
4.3739854102805085	172.15503	13.120786
4.391524984248844	172.94266	13.150766
4.409064661152262	136.78624	11.695565
4.426604441403504	96.89606	9.843579
4.444144325415337	75.593765	8.694468
4.461684313600543	21.517023	4.6386447
4.47922440637193	21.823864	4.671602
4.496764604142329	20.23197	4.4979963
4.5143049073245916	18.623312	4.3154736
4.531845316331589	16.662947	4.0820274
4.5493858315762195	13.839105	3.7200947
4.566926453471405	11.40527	3.377169
4.584467182430081	9.388392	3.0640483
4.602008018865218	8.364906	2.8922148
4.619548963189798	7.6786113	2.7710307
4.637090015816834	7.07271	2.6594567
4.654631177159353	6.74626	2.5973563
4.672172447630417	6.4680934	2.5432446
4.689713827643102	6.314726	2.5129118
4.7072553176105085	6.13666	2.4772284
4.724796917945764	5.951032	2.4394736
4.742338629062015	5.8611507	2.4209814
4.759880451372434	5.7996626	2.408249
4.777422385290215	5.8345947	2.4154906
4.794964431228581	5.8149753	2.411426
4.812506589600768	5.758793	2.3997486
4.830048860820047	5.681257	2.3835387
4.847591245299709	5.6208005	2.3708227
4.8651337434530655	5.614086	2.3694062
4.882676355693457	5.5942516	2.365217
4.900219082434242	5.6012216	2.36669
4.917761924088813	5.5482583	2.3554742
4.935304881070575	5.5635285	2.3587134
4.952847953792969	5.5449853	2.3547792
4.970391142669449	5.499301	2.345059
4.9879344481135055	5.465134	2.3377626
5.005477870538642	5.444334	2.3333097
5.023021410358394	5.4372535	2.3317919
5.040565067986324	5.4617953	2.3370485
5.05810884383601	5.476889	2.3402755
5.075652738321066	5.479745	2.3408854
5.09319675185512	5.3915324	2.3219674
5.110740884851836	5.363664	2.3159585
5.128285137724894	5.334682	2.309693
5.145829510888007	5.3301296	2.3087072
5.163374004754908	5.400504	2.3238986
5.1809186197393595	5.413451	2.3266823
5.198463356255145	5.4214244	2.3283951
5.216008214716077	5.4078927	2.3254876
5.233553195535998	5.3530855	2.3136735
5.251098299128764	5.373114	2.317998
5.268643525908272	5.3510947	2.3132434
5.286188876288432	5.327934	2.3082318
5.3037343506831895	5.2875314	2.2994633
5.32127994950651	5.2699413	2.2956352
5.3388256731723915	5.3181458	2.3061106
5.356371522094851	5.2985697	2.3018622
5.373917496687938	5.207238	2.2819374
5.391463597365729	5.1757956	2.2750375
5.40900982454232	5.1099334	2.2605162
5.426556178631843	5.1306405	2.2650917
5.444102660048449	5.1080127	2.2600913
5.4616492692063225	5.1442065	2.2680843
5.479196006519669	5.181063	2.2761948
5.496742872402727	5.204516	2.2813408
5.514289867269756	5.241452	2.2894218
5.531836991535049	5.2068095	2.2818434
5.549384245612924	5.1762724	2.2751422
5.566931629917724	5.0993104	2.2581654
5.584479144863822	5.1022835	2.2588234
5.6020267908656205	5.109237	2.2603621
5.619574568337545	5.1627216	2.2721624
5.637122477694054	5.2014203	2.2806623
5.654670519349629	5.172563	2.274327
5.672218693718784	5.1544127	2.2703333
5.689767001216059	5.1982374	2.2799644
5.707315442256021	5.2506795	2.2914362
5.724864017253266	5.3285217	2.3083591
5.7424127266224225	5.3339047	2.3095248
5.75996157077814	5.27213	2.2961118
5.777510550135105	5.2544336	2.2922552
5.795059665108022	5.245715	2.2903526
5.812608916111639	5.231421	2.28723
5.830158303560715	5.3389535	2.3106174
5.847707827870055	5.36903	2.3171167
5.86525748945448	5.502022	2.345639
5.8828072887288485	5.585261	2.3633156
5.900357226108044	5.5573173	2.3573964
5.917907302006979	5.6352654	2.3738713
5.9354575168406	6.257828	2.5015652
5.9530078710238765	6.914829	2.6296062
5.970558364971812	7.4282365	2.7254791
5.988108999099438	7.723263	2.7790759
6.005659773821818	8.208596	2.8650649
6.023210689554039	7.9975786	2.827999
6.040761746711227	8.414765	2.9008214
6.058312945708531	7.819444	2.7963269
6.075864286961132	7.316504	2.7049036
6.093415770884244	6.6344047	2.575734
6.1109673978931065	6.110357	2.4719136
6.128519168402993	5.520713	2.3496196
6.146071082829204	5.3781967	2.319094
6.163623141587075	5.2696223	2.2955658
6.181175345091969	5.22764	2.2864034
6.198727693759281	5.257717	2.2929711
6.216280188004435	5.1882887	2.2777815
6.233832828242885	5.1088114	2.260268
6.251385614890126	5.134324	2.2659047
6.268938548361669	5.1868167	2.2774584
6.286491629073067	5.224474	2.2857108
6.304044857439898	5.1477947	2.2688751
6.321598233877777	5.0193286	2.2403858
6.339151758802344	5.035145	2.243913
6.356705432629277	5.082765	2.254499
6.37425925577428	5.1224008	2.263272
6.391813228653095	5.110073	2.2605472
6.409367351681486	5.053128	2.2479162
6.426921625275259	5.0392036	2.244817
6.44447604985025	5.0196176	2.2404504
6.46203062582232	5.0503182	2.2472913
6.47958535360737	5.0119867	2.2387466
6.497140233621328	4.9712977	2.2296407
6.514695266280161	4.999707	2.2360024
6.532250451999859	5.0228105	2.2411628
6.549805791196454	5.13836	2.2667952
6.567361284286002	5.12184	2.2631483
6.584916931684597	5.122501	2.2632942
6.602472733808367	5.0699935	2.2516646
6.6200286910734665	5.0333123	2.2435045
6.637584803896092	5.055259	2.2483904
6.655141072692462	4.9911017	2.2340775
6.672697497878842	5.0130935	2.238994
6.690254079871514	4.9518847	2.2252831
6.707810819086808	5.04082	2.245177
6.725367715941078	5.0642695	2.2503932
6.742924770850719	5.071044	2.2518978
6.760481984232151	5.12345	2.2635038
6.778039356501836	5.0796957	2.253818
6.795596888076266	5.101156	2.258574
6.813154579371963	5.0543394	2.2481859
6.830712430805492	5.0743876	2.2526402
6.84827044279344	5.0467663	2.246501
6.865828615752445	5.0004797	2.2361753
6.883386950099159	5.016776	2.2398162
6.900945446250287	5.026744	2.2420402
6.918504104622553	4.9910693	2.23407
6.936062925632727	5.062155	2.2499232
6.953621909697607	5.072721	2.2522702
6.971181057234028	5.1559896	2.2706804
6.988740368658859	5.1955056	2.279365
7.006299844389007	5.245801	2.2903714
7.023859484841407	5.34405	2.3117201
7.041419290433036	5.4709086	2.3389974
7.058979261580902	5.632542	2.3732977
7.0765393987020495	5.8631516	2.4213946
7.094099702213559	6.1900716	2.4879854
7.111660172532549	6.4795628	2.5454986
7.129220810076164	6.8152294	2.6105995
7.146781615261595	7.4627595	2.731805
7.16434258850606	7.667166	2.7689648
7.181903730226821	8.144135	2.8537931
7.1994650408411704	8.230068	2.8688095
7.217026520766437	8.435154	2.9043336
7.234588170419983	8.755664	2.958997
7.252149990219215	8.689204	2.9477456
7.269711980581568	8.594209	2.9315882
7.2872741419245175	8.262853	2.874518
7.304836474665574	7.834702	2.7990537
7.322398979222286	7.4714956	2.7334037
7.339961656012233	7.170981	2.6778688
7.357524505453039	6.904149	2.6275747
7.375087527962357	6.6517506	2.5790987
7.392650723957886	6.4061084	2.5310292
7.410214093857353	6.028992	2.4554007
7.427777638078528	5.8273535	2.4139912
7.445341357039213	5.6695848	2.381089
7.4629052511572525	5.5176334	2.3489642
7.480469320850524	5.466869	2.3381336
7.498033566536948	5.3958564	2.3228984
7.5155979886344735	5.339417	2.3107178
7.5331625875610975	5.254752	2.2923245
7.550727363734844	5.2064433	2.2817633
7.568292317573788	5.256086	2.2926154
7.585857449496025	5.291856	2.3004034
7.603422759919705	5.3591576	2.3149855
7.620988249263007	5.3596067	2.3150826
7.638553917944147	5.317478	2.3059657
7.656119766381391	5.3121324	2.3048065
7.673685794993023	5.281367	2.2981224
7.691252004197388	5.2823734	2.2983415
7.70881839441285	5.310346	2.3044188
7.726384966057826	5.2950373	2.3010948
7.743951719550762	5.2402444	2.289158
7.761518655310149	5.268492	2.2953196
7.779085773754511	5.284029	2.2987015
7.796653075302419	5.3108854	2.3045359
7.814220560372475	5.3575444	2.314637
7.831788229383323	5.3862247	2.3208241
7.8493560827536495	5.41096	2.326147
7.866924120902174	5.439286	2.3322277
7.884492344247663	5.4545693	2.335502
7.9020607532089135	5.4394116	2.3322546
7.919629348204771	5.3882303	2.3212562
7.937198129654115	5.3515086	2.3133328
7.954767097975865	5.3462276	2.312191
7.972336253588986	5.380938	2.319685
7.989905596912472	5.392218	2.322115
8.007475128365371	5.4901767	2.3431127
8.025044848366756	5.5663652	2.3593147
8.042614757335754	5.676841	2.3826122
8.060184855691523	5.697927	2.387033
8.07775514385327	5.8199153	2.41245
8.095325622240228	5.8771224	2.4242778
8.112896291271687	5.959622	2.4412336
8.130467151366968	5.976022	2.4445903
8.148038202945436	5.9723554	2.4438403
8.165609446426497	5.9656653	2.4424713
8.183180882229594	6.0422072	2.45809
8.200752510774217	6.0921097	2.46822
8.218324332479893	6.1150503	2.4728627
8.235896347766193	6.100564	2.469932
8.253468557052724	5.982341	2.4458823
8.27104096075914	5.9054213	2.4301074
8.288613559305137	5.952557	2.4397862
8.306186353110448	6.054944	2.4606795
8.32375934259485	6.1689043	2.483728
8.341332528178162	6.2251644	2.495028
8.358905910280246	6.2640176	2.502802
8.376479489321003	6.3402247	2.5179803
8.394053265720377	6.3940315	2.5286422
8.411627239898356	6.340248	2.5179849
8.42920141227497	6.39438	2.528711
8.44677578327029	6.3928447	2.5284076
8.464350353304427	6.3450418	2.5189366
8.48192512279754	6.2801523	2.5060232
8.499500092169827	6.1736913	2.4846914
8.51707526184153	6.2083926	2.4916646
8.534650632232934	6.295927	2.5091686
8.552226203764365	6.3150597	2.5129783
8.569801976856192	6.3183355	2.51363
8.587377951928834	6.278985	2.5057902
8.60495412940274	6.354563	2.5208259
8.622530509698416	6.391265	2.528095
8.6401070932364	6.524046	2.5542212
8.657683880437283	6.634845	2.5758193
8.675260871721695	6.8139086	2.6103466
8.692838067510303	6.949897	2.6362658
8.710415468223834	7.0968127	2.6639843
8.727993074283043	7.249469	2.6924837
8.745570886108737	7.254994	2.6935096
8.763148904121765	7.3248186	2.7064402
8.78072712874302	7.321387	2.705806
8.798305560393441	7.490245	2.7368312
8.815884199494006	7.601063	2.7570026
8.833463046465745	7.7378335	2.781696
8.851042101729728	7.8649116	2.804445
8.86862136570707	8.219627	2.8669891
8.886200838818924	8.410536	2.9000924
8.903780521486505	8.471491	2.9105825
8.921360414131055	8.5881815	2.9305599
8.938940517173874	8.713244	2.9518206
8.956520831036297	8.925036	2.98748
8.97410135613971	9.158732	3.0263398
8.99168209290554	9.311823	3.051528
9.009263041755265	9.560139	3.0919473
9.026844203110405	9.845585	3.1377676
9.044425577392525	10.064783	3.1725042
9.062007165023239	10.177925	3.1902862
9.079588966424197	10.396447	3.2243521
9.097170982017108	10.423322	3.228517
9.11475321222372	11.359958	3.3704536
9.132335657465825	12.272373	3.5031948
9.149918318165264	12.354654	3.5149188
9.167501194743924	12.937443	3.5968657
9.18508428762374	12.594884	3.548927
9.202667597226693	12.621784	3.552715
9.220251123974803	12.279816	3.5042567
9.237834868290143	11.972116	3.4600747
9.255418830594836	11.821068	3.438178
9.273003011311046	11.256894	3.3551295
9.290587410860985	11.043618	3.323194
9.308172029666911	10.3548355	3.2178931
9.32575686815113	10.103548	3.178608
9.343341926735997	8.848668	2.9746711
9.360927205843916	8.638313	2.9391007
9.378512705897327	8.471866	2.910647
9.396098427318728	8.204423	2.8643365
9.413684370530664	8.128324	2.8510215
9.431270535955722	8.005155	2.829338
9.448856924016539	7.9896617	2.826599
9.466443535135806	7.8952827	2.8098545
9.484030369736251	7.856423	2.802931
9.501617428240658	7.7519064	2.7842245
9.519204711071852	7.664668	2.7685137
9.536792218652714	7.715301	2.777643
9.55437995140617	7.8063016	2.7939758
9.571967909755191	7.8781214	2.8067992
9.589556094122802	7.9620323	2.8217072
9.60714450493207	8.031686	2.834023
9.624733142606116	8.033622	2.8343644
9.642322007568108	8.088953	2.8441086
9.659911100241267	8.107347	2.8473403
9.677500421048851	8.108466	2.8475368
9.695089970414175	8.157822	2.85619
9.712679748760609	8.102198	2.846436
9.730269756511557	8.1155405	2.8487787
9.747859994090492	8.131493	2.8515773
9.765450461920915	8.220432	2.8671296
9.78304116042639	8.326297	2.8855324
9.800632090030527	8.39313	2.89709
9.81822325115699	8.2978115	2.880592
9.835814644229481	8.250201	2.8723164
9.853406269671762	8.2508135	2.872423
9.870998127907646	8.311259	2.8829255
9.888590219360985	8.403714	2.898916
9.906182544455698	8.445246	2.9060705
9.923775103615734	8.408167	2.899684
9.941367897265108	8.336061	2.8872237
9.958960925827878	8.294961	2.8800974
9.97655418972816	8.355073	2.8905144
9.994147689390106	8.387425	2.8961053
10.011741425237934	8.3494215	2.8895366
10.029335397695904	8.29327	2.879804
10.04692960718833	8.276189	2.8768365
10.06452405413958	8.340756	2.8880367
10.082118738974064	8.355744	2.8906305
10.099713662116246	8.378177	2.8945081
10.117308823990651	8.311365	2.8829439
10.134904225021844	8.288335	2.8789468
10.152499865634445	8.2601795	2.8740528
10.170095746253125	8.289241	2.8791041
10.18769186730261	8.2725935	2.8762116
10.205288229207675	8.294354	2.879992
10.222884832393145	8.25813	2.8736963
10.2404816772839	8.220476	2.8671372
10.258078764304868	8.120848	2.8497102
10.275676093881035	8.124192	2.850297
10.293273666437438	8.159263	2.8564422
10.310871482399158	8.241369	2.8707786
10.32846954219134	8.248376	2.8719985
10.346067846239173	8.24606	2.8715954
10.363666394967908	8.2005415	2.8636587
10.38126518880283	8.161508	2.8568351
10.398864228169298	8.225106	2.8679447
10.416463513492713	8.220819	2.867197
10.434063045198531	8.1719055	2.8586545
10.451662823712262	8.118603	2.8493161
10.469262849459467	8.189801	2.8617828
10.486863122865758	8.248918	2.872093
10.504463644356806	8.271582	2.8760357
10.522064414358338	8.193878	2.8624952
10.539665433296118	8.085541	2.8435085
10.557266701595987	8.050796	2.8373923
10.574868219683818	7.953754	2.82024
10.592469987985552	7.842636	2.8004706
10.610072006927185	7.6735134	2.7701106
10.627674276934751	7.5249133	2.7431576
10.64527679843435	7.318907	2.7053478
10.662879571852143	7.194886	2.6823285
10.680482597614331	7.1811852	2.6797733
10.698085876147173	7.129337	2.6700819
10.715689407876988	7.031597	2.651716
10.733293193230146	6.9112244	2.6289208
10.750897232633072	6.781686	2.604167
10.76850152651225	6.7355413	2.595292
10.786106075294207	6.684587	2.5854568
10.803710879405534	6.6051793	2.5700543
10.821315939272877	6.461345	2.5419176
10.83892125532294	6.39694	2.5292172
10.856526827982472	6.3450994	2.518948
10.874132657678285	6.296428	2.5092685
10.891738744837243	6.273241	2.504644
10.909345089886271	6.2794557	2.5058842
10.926951693252343	6.25238	2.500476
10.944558555362494	6.1973977	2.4894574
10.96216567664381	6.118634	2.4735873
10.979773057523436	6.01128	2.4517913
10.997380698428573	5.928194	2.4347882
11.014988599786477	5.898566	2.4286964
11.032596762024461	5.844116	2.4174607
11.050205185569892	5.7551036	2.3989797
11.067813870850198	5.6175494	2.370137
11.085422818292859	5.6227183	2.3712273
11.10303202832541	5.5810328	2.362421
11.120641501375454	5.559507	2.3578606
11.138251237870636	5.411061	2.3261688
11.155861238238671	5.3358903	2.3099546
11.173471502907317	5.2930384	2.3006604
11.191082032304402	5.2991643	2.3019915
11.208692826857805	5.254385	2.2922444
11.226303886995465	5.208235	2.2821558
11.243915213145371	5.0873823	2.2555227
11.261526805735578	4.9525814	2.2254395
11.279138665194196	4.869073	2.2065976
11.296750791949393	4.832723	2.1983457
11.314363186429393	4.7920346	2.1890717
11.331975849062479	4.749572	2.1793513
11.34958878027699	4.7258024	2.173891
11.36720198050133	4.6351304	2.1529353
11.384815450163948	4.61999	2.1494162
11.402429189693366	4.499407	2.1211805
11.420043199518153	4.443047	2.1078537
11.437657480066942	63.37658	7.960941
11.455272031768422	85.10839	9.225421
11.472886855051353	107.5452	10.3704
11.490501950344528	99.15274	9.957547
11.508117318076819	84.508385	9.192844
11.52573295867715	45.8705	6.772776
11.543348872574514	4.174225	2.043092
11.560965060197946	4.152667	2.0378094
11.57858152197655	4.1491976	2.036958
11.59619825833949	4.0453568	2.0113072
11.613815269715985	3.9883065	1.9970745
11.631432556535323	38.469746	6.2023983
11.649050119226837	83.03935	9.112593
11.666667958219929	93.45708	9.66732
11.68428607394406	107.73558	10.379575
11.701904466828756	82.567665	9.086675
11.719523137303586	65.3795	8.085759
11.737142085798196	4.6043444	2.1457736
11.754761312742286	3.6909614	1.9211875
11.772380818565619	3.648126	1.9100068
11.790000603698015	3.657008	1.9123305
11.80762066856935	3.6190915	1.902391
11.825241013609572	3.5689445	1.889165
11.842861639248683	3.4949982	1.8694915
11.860482545916748	3.4832387	1.8663436
11.878103734043883	3.5159595	1.8750892
11.895725204060282	3.4604208	1.8602207
11.91334695639619	3.4626188	1.8608114
11.930968991481919	3.4039948	1.8449918
11.948591309747824	3.404017	1.8449979
11.966213911624347	3.3794153	1.8383186
11.98383679754198	3.3678808	1.8351787
12.001459967931268	3.3565414	1.8320867
12.019083423222835	3.3433805	1.8284913
12.036707163847352	3.3209984	1.8223606
12.05433119023556	3.315793	1.8209319
12.071955502818259	3.2990081	1.8163172
12.089580102026313	3.2956872	1.8154027
12.107204988290643	3.1920762	1.7866383
12.12483016204224	3.1419518	1.7725551
12.142455623712152	3.1009655	1.7609558
12.16008137373149	3.0932581	1.758766
12.177707412531431	3.0776987	1.7543371
12.19533374054321	3.0899968	1.7578387
12.212960358198126	3.026358	1.739643
12.230587265927545	3.0204656	1.7379487
12.248214464162889	3.0442576	1.7447801
12.265841953335649	3.067994	1.751569
12.283469733877375	3.0538995	1.747541
12.301097806219685	2.9688354	1.7230308
12.31872617079425	2.9012272	1.7032989
12.336354828032825	2.8735783	1.6951632
12.353983778367205	2.902955	1.703806
12.371613022229262	2.956607	1.7194787
12.389242560050928	2.9404895	1.7147856
12.406872392264201	2.9099293	1.7058514
12.424502519301143	2.8839238	1.6982119
12.442132941593874	2.9287703	1.711365
12.459763659574586	2.9500089	1.717559
12.477394673675532	2.9451575	1.7161461
12.49502598432903	2.902191	1.7035818
12.51265759196746	2.8525002	1.6889347
12.530289497023267	2.8238654	1.6804361
12.547921699928967	2.8108265	1.6765519
12.565554201117134	2.818462	1.6788275
12.583187001020404	2.8356762	1.6839466
12.600820100071486	2.8341885	1.6835048
12.618453498703152	2.80184	1.6738697
12.636087197348235	2.780644	1.6675262
12.65372119643964	2.7993433	1.6731238
12.671355496410326	2.8201687	1.6793358
12.68899009769333	2.8548174	1.6896205
12.706625000721749	2.8916585	1.7004877
12.724260205928752	2.9676666	1.7226917
12.741895713747551	2.981221	1.7266213
12.759531524611454	3.0470798	1.7455887
12.777167638953818	3.006857	1.734029
12.794804057208072	3.0234468	1.7388061
12.812440779807702	3.0061767	1.733833
12.830077807186271	3.1491802	1.774593
12.847715139777405	3.2207885	1.7946556
12.865352778014795	3.4651194	1.8614831
12.882990722332197	3.6254518	1.9040619
12.90062897316344	3.7186925	1.9283912
12.918267530942412	3.8030524	1.9501417
12.935906396103071	3.6814172	1.918702
12.953545569079449	3.8124442	1.9525481
12.971185050305628	3.602729	1.8980856
12.988824840215775	3.6131182	1.9008204
13.006464939244115	3.6383178	1.9074374
13.024105347824943	3.5064566	1.8725535
13.041746066392617	3.5639133	1.887833
13.05938709538157	3.3391886	1.8273447
13.077028435226296	3.3630102	1.8338512
13.094670086361363	3.2928095	1.81461
13.112312049221401	3.2461276	1.8017013
13.129954324241112	3.1764164	1.7822504
13.147596911855258	2.9578085	1.719828
13.165239812498685	2.8864055	1.6989424
13.182883026606293	2.7948039	1.6717666
13.200526554613058	2.7427278	1.6561183
13.218170396954017	2.6799364	1.6370511
13.235814554064284	2.6532664	1.628885
13.253459026379034	2.6843402	1.6383957
13.271103814333523	2.7243721	1.6505672
13.288748918363058	2.7404323	1.6554251
13.306394338903031	2.7565992	1.660301
13.32404007638889	2.7204428	1.6493765
13.341686131256164	2.721252	1.6496217
13.359332503940449	2.7203712	1.6493548
13.376979194877402	2.7171853	1.6483887
13.394626204502751	2.7488544	1.657967
13.412273533252307	2.7579355	1.6607033
13.429921181561937	2.7731915	1.6652902
13.447569149867581	2.7827282	1.6681511
13.465217438605247	2.7818084	1.6678754
13.482866048211022	2.7277005	1.6515752
13.500514979121052	2.6947439	1.6415675
13.518164231771568	2.703698	1.6442925
13.535813806598844	2.7181487	1.6486809
13.553463704039254	2.7098396	1.646159
13.571113924529229	2.667517	1.6332535
13.588764468505275	2.6590772	1.6306677
13.606415336403956	2.7066693	1.6451958
13.624066528661917	2.7749767	1.6658261
13.641718045715882	2.8324	1.6829736
13.659369888002635	2.8498528	1.6881508
13.67702205595903	2.9012144	1.7032951
13.694674550021993	3.0151143	1.7364085
13.712327370628532	3.0793688	1.7548131
13.729980518215713	3.1691158	1.7802011
13.747633993220681	3.2436914	1.8010252
13.765287796080647	3.2471259	1.8019783
13.7829419272329	3.2352087	1.7986686
13.800596387114801	3.231109	1.7975285
13.818251176163775	3.257205	1.8047729
13.835906294817324	3.3223493	1.8227313
13.853561743513023	3.4019437	1.8444359
13.871217522688525	3.4747756	1.864075
13.888873632781538	3.5186896	1.8758171
13.906530074229858	3.532252	1.8794286
13.92418684747135	3.5321171	1.8793927
13.941843952943948	3.490443	1.8682728
13.959501391085665	3.4157085	1.8481636
13.977159162334578	3.387088	1.8404043
13.994817267128846	3.4106402	1.8467919
14.012475705906693	3.3621676	1.8336215
14.030134479106424	3.259775	1.8054847
14.047793587166414	3.1248236	1.767717
14.065453030525108	3.0600314	1.7492945
14.083112809621026	2.9781606	1.7257348
14.100772924892766	2.9003444	1.7030398
14.118433376778997	2.8603082	1.6912446
14.136094165718458	2.823456	1.6803143
14.153755292149969	2.7423637	1.6560084
14.171416756512416	2.6814911	1.6375259
14.189078559244768	2.6326554	1.622546
14.20674070078606	2.642437	1.6255574
14.224403181575408	2.6002843	1.6125398
14.242066002051999	2.570235	1.6031953
14.259729162655093	2.537716	1.593021
14.277392663824022	2.516627	1.5863881
14.295056505998208	2.4725225	1.5724257
14.312720689617128	2.4405892	1.5622386
14.330385215120348	2.4191036	1.5553467
14.348050082947497	2.4131863	1.5534434
14.3657152935383	2.4290128	1.558529
14.383380847332528	2.4166727	1.5545651
14.401046744770051	2.3885767	1.5455021
14.418712986290798	2.3417313	1.5302716
14.436379572334793	2.3380303	1.5290619
14.454046503342123	2.3716488	1.5400158
14.471713779752946	2.3995397	1.5490447
14.489381402007504	2.394523	1.5474246
14.507049370546113	2.3502657	1.5330577
14.524717685809168	2.339587	1.5295708
14.542386348237134	2.3554254	1.5347395
14.560055358270553	2.3396695	1.5295978
14.577724716350051	2.3938887	1.5472196
14.595394422916325	2.3932076	1.5469996
14.61306447841015	2.4446628	1.5635418
14.63073488327237	2.4953163	1.579657
14.648405637943917	2.5441353	1.5950346
14.6660767428658	2.5636342	1.6011353
14.683748198479094	2.5747204	1.6045935
14.701420005224954	2.5872889	1.6085051
14.719092163544628	2.637261	1.6239645
14.73676467387942	2.6793623	1.6368757
14.754437536670727	2.688832	1.6397659
14.772110752360014	2.6712925	1.634409
14.78978432138882	2.6675043	1.6332496
14.807458244198777	2.6822052	1.637744
14.82513252123159	2.6949012	1.6416154
14.842807152929028	2.7137744	1.6473538
14.860482139732962	2.7079735	1.6455921
14.87815748208531	2.7273939	1.6514823
14.8958331804281	2.7115586	1.6466811
14.91350923520342	2.664255	1.6322546
14.931185646853438	2.66454	1.6323419
14.948862415820408	2.6298072	1.621668
14.966539542546656	2.6383224	1.6242913
14.98421702747459	2.5665298	1.6020392
15.001894871046696	2.569484	1.6029611
15.019573073705542	2.6013157	1.6128595
15.037251635893766	2.6311011	1.622067
15.054930558054092	2.691984	1.6407267
15.072609840629323	2.716255	1.6481065
15.090289484062351	2.8943403	1.7012761
15.107969488796124	3.1928277	1.7868485
15.125649855273691	3.630839	1.9054761
15.14333058393817	4.1252494	2.031071
15.161011675232768	5.1010385	2.2585478
15.17869312960076	6.450397	2.5397632
15.196374947485506	8.263707	2.8746665
15.214057129330447	11.254133	3.354718
15.231739675579114	15.792698	3.9740028
15.249422586675102	20.77595	4.5580645
15.267105863062092	23.944658	4.8933277
15.284789505183847	24.277714	4.927242
15.302473513484218	22.17666	4.7092104
15.320157888407127	18.529715	4.3046155
15.337842630396578	14.426889	3.7982745
15.355527739896656	11.243216	3.3530905
15.37321321735153	8.794053	2.965477
15.39089906320545	6.4955053	2.548628
15.408585277902748	4.860537	2.2046626
15.42627186188783	3.7682915	1.9412087
15.443958815605198	3.2363257	1.798979
15.461646139499424	2.952689	1.718339
15.479333834015168	2.7766306	1.6663225
15.497021899597165	2.7102933	1.6462969
15.514710336690234	2.6741173	1.6352729
15.53239914573928	2.6209097	1.6189224
15.550088327189297	2.5600803	1.600025
15.567777881485336	2.533005	1.5915416
15.58546780907256	2.5321217	1.5912641
15.6031581103962	2.5310857	1.5909387
15.620848785901568	2.5294108	1.5904121
15.638539836034063	2.5280476	1.5899835
15.656231261239173	2.5068135	1.583292
15.673923061962451	2.4625428	1.5692492
15.691615238649552	2.4653373	1.5701393
15.709307791746202	2.4595377	1.5682913
15.727000721698221	2.4654853	1.5701864
15.744694028951498	2.462421	1.5692103
15.76238771395202	2.442555	1.5628675
15.780081777145844	2.414224	1.5537773
15.797776218979125	2.3940792	1.5472813
15.815471039898094	2.3755825	1.5412924
15.833166240349064	2.3796036	1.5425963
15.850861820778437	2.3576713	1.5354711
15.868557781632699	2.3838499	1.5439721
15.886254123358412	2.416483	1.554504
15.903950846402232	2.4292579	1.5586077
15.921647951210897	2.4341629	1.5601804
15.939345438231225	2.4464152	1.564102
15.957043307910133	2.4407425	1.5622876
15.974741560694602	2.4046342	1.5506883
15.992440197031714	2.3842213	1.5440924
16.01013921736862	2.4196436	1.5555204
16.02783862215259	2.4097524	1.5523378
16.045538411830933	2.4103181	1.5525199
16.06323858685107	2.357422	1.5353899
16.080939147660512	2.3627448	1.5371222
16.09864009470684	2.3461766	1.5317234
16.11634142843774	2.33903	1.5293888
16.134043149300954	2.3636081	1.537403
16.15174525774433	2.412499	1.5532221
16.169447754215817	2.4429996	1.5630097
16.18715063916342	2.4390457	1.5617445
16.204853913035244	2.4304576	1.5589925
16.222557576279478	2.4560373	1.5671749
16.240261629344403	22.471413	4.740402
16.257966072678386	43.02402	6.55927
16.275670906729868	38.097446	6.1723127
16.293376131947387	2.481353	1.5752311
16.31108174877957	2.5177505	1.586742
16.328787757675133	2.5618248	1.6005702
16.34649415908287	2.5798788	1.6062001
16.364200953451657	2.567232	1.6022583
16.38190814123048	2.6138601	1.6167437
16.39961572286839	2.6518095	1.6284378
16.41732369881455	2.6703904	1.6341329
16.43503206951817	2.7006097	1.6433532
16.45274083542859	2.7502582	1.6583903
16.47044999699522	2.7920609	1.6709461
16.488159554667558	2.7967377	1.6723449
16.505869508895184	2.8602211	1.6912189
16.523579860127786	2.9299004	1.7116952
16.541290608815117	2.9784546	1.72582
16.559001755407035	3.0305564	1.7408494
16.57671330035348	3.0898654	1.7578013
16.59442524410448	3.168803	1.7801132
16.61213758711015	3.2499444	1.8027602
16.629850329820705	3.3127713	1.820102
16.647563472686436	3.3808932	1.8387206
16.665277016157724	3.4263334	1.8510357
16.682990960685053	3.4499414	1.8574017
16.70070530671898	3.4772363	1.8647349
16.718420054710155	3.5420797	1.8820413
16.736135205109335	3.59658	1.8964652
16.753850758367335	3.6253345	1.9040312
16.771566714935087	3.6260304	1.9042139
16.789283075263597	3.6449916	1.9091861
16.80699983980398	3.7078545	1.925579
16.82471700900741	3.8547869	1.9633611
16.84243458332518	3.9671717	1.991776
16.860152563208665	4.027407	2.00684
16.87787094910932	4.0715227	2.0178015
16.89558974147871	4.118278	2.029354
16.913308940768466	4.16196	2.0400882
16.931028547430333	4.1671777	2.0413666
16.94874856191613	4.1813426	2.0448332
16.966468984677785	4.2788086	2.0685282
16.98418981616729	4.3999267	2.0976002
17.00191105683676	4.5178037	2.1255126
17.019632707138374	4.5572224	2.1347651
17.03735476752442	4.554784	2.134194
17.05507723844728	4.578257	2.139686
17.072800120359403	4.6154795	2.1483667
17.090523413713353	4.655896	2.1577525
17.108247118961785	4.7355514	2.1761322
17.125971236557437	4.7329483	2.175534
17.143695766953133	4.6661906	2.1601367
17.161420710601806	4.593103	2.1431525
17.179146067956477	4.623555	2.1502454
17.19687183947025	4.6573706	2.1580942
17.21459802559634	4.677959	2.162859
17.232324626788028	4.6910734	2.1658885
17.25005164349871	4.6992593	2.1677775
17.267779076181863	4.6949615	2.166786
17.285506925291074	4.6670356	2.1603322
17.30323519127999	4.6237864	2.150299
17.320963874602384	4.5944724	2.143472
17.33869297571211	4.538045	2.1302688
17.356422495063114	4.481479	2.1169505
17.37415243310944	4.4448767	2.1082876
17.391882790305218	4.4713497	2.1145566
17.40961356710468	4.5136833	2.1245432
17.42734476396215	4.5338483	2.1292834
17.445076381332044	4.522812	2.1266904
17.462808419668868	4.6011763	2.1450353
17.48054087942723	4.7454853	2.1784134
17.498273761061835	5.049139	2.2470288
17.51600706502747	5.5242605	2.3503745
17.533740791779024	6.233211	2.49664
17.551474941771485	7.5973616	2.7563312
17.56920951545993	8.726711	2.9541008
17.586944513299528	10.884049	3.2990983
17.60467993574556	12.514619	3.5376008
17.622415783253373	14.080079	3.7523432
17.64015205627843	15.429124	3.9279923
17.657888755276293	16.47828	4.059345
17.675625880702604	16.917414	4.1130786
17.69336343301311	16.717304	4.08868
17.71110141266366	15.890498	3.9862888
17.728839820110178	15.058443	3.880521
17.746578655808705	14.357535	3.7891338
17.764317920215372	13.06978	3.615215
17.7820576137864	11.560748	3.40011
17.79979773697811	9.48801	3.0802615
17.81753829024692	7.6184044	2.7601457
17.835279274049356	5.9735346	2.4440815
17.85302068884201	4.964559	2.2281291
17.870762535081607	4.347401	2.0850422
17.888504813224934	3.963678	1.9908987
17.90624752372891	3.7483296	1.9360603
17.923990667050536	3.6546874	1.9117237
17.941734243646895	3.5942726	1.8958567
17.959478253975185	3.5055728	1.8723176
17.9772226984927	3.423307	1.850218
17.994967577656833	3.3845413	1.8397123
18.01271289192506	3.364549	1.8342707
18.030458641754965	3.328363	1.8243802
18.04820482760425	3.304122	1.8177243
18.06595144993067	3.310392	1.8194482
18.083698509192125	3.3385904	1.827181
18.101446005846576	3.3349075	1.826173
18.119193940352105	3.2925265	1.814532
18.136942313166887	3.2340922	1.7983582
18.1546911247492	3.1887004	1.7856933
18.1724403755574	3.2159667	1.7933117
18.19019006604997	3.215732	1.7932463
18.207940196685467	3.1901193	1.7860905
18.225690767922575	3.162623	1.7783765
18.243441780220046	3.1557465	1.776442
18.261193234036764	3.157088	1.7768196
18.278945129831676	3.1296828	1.7690909
18.29669746806386	3.1183944	1.7658976
18.314450249192483	3.0948708	1.7592245
18.3322034736768	3.0700643	1.75216
18.349957141976184	3.090379	1.7579473
18.3677112545501	3.0963893	1.7596561
18.385465811858108	3.10323	1.7615987
18.403220814359884	3.067609	1.7514591
18.420976262515172	3.0779753	1.754416
18.43873215678387	3.1492453	1.7746114
18.456488497625923	3.2055557	1.7904066
18.474245285501407	3.2831948	1.8119588
18.492002520870486	3.3108194	1.8195658
18.50976020419343	3.355477	1.8317962
18.527518335930615	3.6526623	1.911194
18.545276916542516	4.247876	2.0610375
18.563035946489688	4.467986	2.1137612
18.580795426232832	4.905616	2.2148626
18.598555356232698	4.7510147	2.1796823
18.616315736950185	5.1120343	2.2609808
18.63407656884626	4.815083	2.1943297
18.65183785238201	5.0362606	2.2441614
18.669599588018617	4.735753	2.1761785
18.68736177621737	4.6895	2.1655252
18.705124417439652	4.671214	2.1612992
18.72288751214696	4.520308	2.1261015
18.740651060800886	4.6467223	2.1556258
18.758415063863115	4.3683944	2.0900705
18.77617952179546	4.5222597	2.1265604
18.793944435059814	4.274977	2.067602
18.811709804118184	4.289112	2.0710173
18.829475629432675	4.2376614	2.058558
18.8472419114655	3.98934	1.9973333
18.86500865067897	4.065443	2.0162945
18.88277584753551	3.8123453	1.9525228
18.90054350249763	3.8745058	1.9683764
18.918311616027957	3.550587	1.8843001
18.936080188589226	3.3966866	1.8430102
18.953849220644265	3.0542443	1.7476397
18.971618712656007	2.8987496	1.7025715
18.9893886650875	2.84185	1.6857787
19.007159078401887	8.0142565	2.8309462
19.024929953062408	32.83987	5.730608
19.042701289532435	32.786156	5.7259197
19.060473088275405	25.351562	5.0350337
19.07824534975489	2.6320066	1.622346
19.096018074434568	2.6126971	1.6163839
19.113791262778197	2.6364167	1.6237047
19.13156491524966	2.6442444	1.6261133
19.149339032312945	2.604688	1.6139046
19.167113614432136	2.5460196	1.5956252
19.184888662071433	2.5429494	1.5946628
19.202664175695123	2.5414832	1.594203
19.220440155767623	2.548931	1.5965371
19.238216602753447	2.530079	1.5906222
19.2559935171172	2.528056	1.5899861
19.27377089932361	2.5062687	1.58312
19.291548749837514	2.4882514	1.5774193
19.309327069123835	2.5146122	1.5857528
19.32710585764763	2.5209756	1.5877581
19.344885115874032	2.5205555	1.5876257
19.362664844268313	2.502588	1.581957
19.380445043295822	2.4915266	1.578457
19.39822571342203	2.4817061	1.5753431
19.41600685511252	2.4547648	1.5667689
19.43378846883297	2.4762256	1.5736028
19.451570555049173	2.492378	1.5787266
19.469353114227037	2.5274138	1.5897843
19.48713614683254	2.4767668	1.5737747
19.50491965333182	2.483425	1.5758886
19.52270363419109	2.497577	1.5803725
19.540488089876686	2.5051677	1.5827721
19.55827302085503	2.4424264	1.5628264
19.576058427592674	2.456147	1.56721
19.593844310556282	2.4852738	1.5764751
19.611630670212598	2.526433	1.5894758
19.629417507028506	2.5055554	1.5828947
19.64720482147098	2.5071313	1.5833924
19.6649926140071	2.496147	1.5799199
19.682780885104084	2.5031798	1.582144
19.70056963522921	2.5138555	1.5855143
19.718358864849908	2.5385692	1.5932888
19.7361485744337	2.5486352	1.5964446
19.753938764448215	2.5368855	1.5927603
19.771729435361202	2.5077348	1.5835829
19.789520587640506	2.490149	1.5780206
19.807312221754092	2.5005028	1.5812979
19.825104338170043	2.4903448	1.5780827
19.842896937356517	2.4694283	1.5714415
19.860690019781824	2.5183632	1.5869352
19.87848358591436	2.4989996	1.5808225
19.896277636222635	2.4940584	1.5792588
19.914072171175278	2.452907	1.5661759
19.931867191241015	2.4584816	1.5679545
19.94966269688869	2.4843662	1.5761873
19.967458688587264	2.5144558	1.5857036
19.985255166805807	2.5002894	1.5812304
20.00305213201348	2.4805605	1.5749795
20.020849584679578	2.4462912	1.5640624
20.038647525273507	2.446965	1.5642778
20.05644595426477	2.4499774	1.5652404
20.07424487212299	2.4453135	1.5637498
20.092044279317903	2.436178	1.5608261
20.109844176319353	2.4328437	1.5597576
20.127644563597304	2.472077	1.572284
20.145445441621817	2.473611	1.5727718
20.16324681086307	2.469126	1.5713453
20.181048671791373	2.443457	1.563156
20.198851024877122	2.4228606	1.5565541
20.216653870590836	2.438172	1.5614648
20.234457209403146	2.4438357	1.5632772
20.252261041784802	2.4373744	1.5612092
20.270065368206662	2.4114296	1.5528779
20.287870189139685	2.3640163	1.5375358
20.305675505054968	2.3591182	1.5359421
20.323481316423702	2.3547792	1.534529
20.341287623717207	2.3809283	1.5430257
20.359094427406884	2.3896408	1.5458463
20.376901727964288	2.378769	1.5423259
20.39470952586107	2.3995728	1.5490555
20.41251782156899	2.3905575	1.5461428
20.430326615559935	2.3642004	1.5375956
20.448135908305886	2.3584666	1.53573
20.465945700278965	2.3591008	1.5359365
20.483755991951384	2.38103	1.5430586
20.50156678379548	2.3731163	1.5404922
20.519378076283708	2.3858697	1.5446261
20.537189869888635	2.3768184	1.5416933
20.55500216508294	2.3692355	1.5392321
20.572814962339415	2.3375018	1.5288891
20.59062826213098	2.318185	1.5225587
20.60844206493066	2.3526936	1.5338492
20.626256371211593	2.3354907	1.5282313
20.644071181447032	2.3245943	1.524662
20.66188649611036	2.306678	1.5187752
20.67970231567506	2.2942495	1.514678
20.697518640614742	2.2844846	1.5114511
20.715335471403122	2.2616048	1.5038633
20.73315280851404	2.2697098	1.5065556
20.750970652421447	2.2715306	1.5071598
20.768789003599412	2.2688496	1.50627
20.786607862522136	2.2879927	1.5126113
20.8044272296639	2.283741	1.5112052
20.82224710549913	2.2689185	1.5062929
20.84006749050237	2.2654796	1.505151
20.857888385148268	3.825346	1.9558492
20.8757097899116	45.92708	6.776952
20.893531705267254	64.784805	8.048901
20.911354131690224	83.81222	9.1549015
20.92917706965566	69.06817	8.310726
20.94700051963877	50.14266	7.081148
20.96482448211493	29.375494	5.4199166
20.982648957559622	4.1361685	2.0337572
21.00047394644843	2.2413898	1.4971272
21.01829944925707	2.2363412	1.4954401
21.036125466461375	2.243377	1.4977907
21.053951998537297	2.2563746	1.5021234
21.071779045960906	2.266283	1.505418
21.089606609208378	2.2628558	1.5042791
21.10743468875603	2.2498343	1.4999448
21.12526328508028	2.2677548	1.5059066
21.143092398657675	2.2664227	1.5054643
21.16092202996488	2.2764847	1.5088024
21.17875217947867	2.2469585	1.4989858
21.19658284767596	2.2304528	1.4934701
21.21441403503377	2.2325926	1.4941863
21.232245742029225	2.2442489	1.4980817
21.2500779691396	2.2422469	1.4974134
21.26791071684227	2.2078834	1.4858948
21.28574398561475	2.1585548	1.469202
21.30357777593465	2.158566	1.4692059
21.321412088279704	2.1661942	1.4717996
21.339246923127792	2.1745167	1.4746243
21.357082280956888	2.1492822	1.466043
21.3749181622451	2.109411	1.4523811
21.392754567470647	2.1090074	1.4522421
21.41059149711187	2.0953078	1.4475179
21.42842895164726	2.0912333	1.4461097
21.446266931555378	2.1151695	1.4543623
21.464105437314945	2.1357195	1.4614102
21.481944469404798	2.1373138	1.4619554
21.49978402830388	2.1395357	1.4627151
21.51762411449127	2.1255136	1.4579141
21.53546472844617	2.11512	1.4543452
21.553305870647876	2.1250565	1.4577574
21.571147541575865	2.133609	1.4606879
21.58898974170967	2.1185315	1.4555176
21.60683247152899	2.1163192	1.4547575
21.62467573151363	2.0706012	1.4389584
21.642519522143523	2.049527	1.4316169
21.660363843898722	2.039143	1.4279857
21.6782086972594	2.0506816	1.4320201
21.696054082705864	2.0657756	1.4372807
21.713900000718535	2.0374172	1.4273813
21.73174645177795	2.0415635	1.4288329
21.749593436364794	2.0609956	1.4356169
21.767440954959845	2.0598989	1.4352348
21.785289008044032	2.0352917	1.4266365
21.803137596098388	2.036995	1.4272333
21.820986719604086	2.058976	1.4349132
21.838836379042412	2.0558207	1.4338133
21.85668657489478	2.0474377	1.430887
21.87453730764273	2.0670877	1.437737
21.892388577767914	2.0531201	1.4328713
21.91024038575213	2.0199826	1.421261
21.928092732077285	1.9926234	1.4116031
21.945945617225426	1.9972439	1.4132388
21.963799041678694	2.0145664	1.4193542
21.981653005919398	31.338705	5.5980983
21.999507510429943	78.136986	8.839513
22.01736255569286	73.04814	8.546821
22.035218142190818	4.140156	2.0347373
22.05307427040661	1.9976939	1.413398
22.07093094082315	2.035424	1.4266828
22.088788153923474	2.029882	1.4247392
22.106645910190746	2.0294335	1.4245819
22.12450421010827	2.0016704	1.414804
22.142363054159464	1.9898822	1.4106319
22.16022244282787	2.013652	1.4190321
22.178082376597164	2.028156	1.4241334
22.195942855951145	2.024479	1.4228418
22.213803881373742	1.9835607	1.4083894
22.231665453349002	1.9625577	1.4009131
22.24952757236111	1.9577553	1.399198
22.26739023889438	1.9964914	1.4129726
22.28525345343323	2.00968	1.4176319
22.30311721646225	1.9886612	1.4101989
22.320981528466113	1.9612273	1.4004383
22.33884638992964	1.9445659	1.3944769
22.356711801337788	1.9332511	1.390414
22.37457776317561	1.9254764	1.3876153
22.392444275928337	1.9361954	1.3914723
22.410311340081282	1.9568974	1.3988914
22.428178956119904	1.9763832	1.405839
22.446047124529805	1.9748331	1.4052875
22.46391584579669	1.9672452	1.4025851
22.481785120406414	1.9860129	1.4092597
22.49965494884496	2.005855	1.4162822
22.51752533159841	2.0063436	1.4164546
22.53539626915302	1.9919043	1.4113483
22.553267761995137	1.9363945	1.3915439
22.571139810611264	1.9267088	1.3880594
22.589012415488025	1.9535508	1.3976948
22.60688557711216	1.9855193	1.4090846
22.624759295970566	1.9566138	1.3987901
22.642633572550263	1.9391726	1.3925418
22.660508407338362	1.9627227	1.400972
22.67838380082217	1.998031	1.4135172
22.696259753489077	2.0046031	1.41584
22.714136265826614	2.0072591	1.4167777
22.73201333832246	1.9834328	1.408344
22.74989097146439	1.9492124	1.396142
22.76776916574035	1.9156617	1.3840743
22.785647921638393	1.9263363	1.3879251
22.803527239646712	1.9551017	1.3982495
22.82140712025363	1.9658467	1.4020865
22.839287563947593	1.9555249	1.3984009
22.85716857121719	1.9412751	1.3932965
22.875050142551135	1.9040272	1.3798649
22.892932278438277	1.8813242	1.3716137
22.910814979367604	1.8715702	1.3680534
22.928698245828222	1.899754	1.3783157
22.946582078309387	1.8795494	1.3709666
22.96446647730047	1.8759596	1.3696568
22.98235144329098	1.89513	1.3766372
23.000236976770562	1.9089109	1.3816334
23.018123078229	1.9202583	1.3857338
23.03600974815619	1.9274031	1.3883095
23.053896987042194	1.9011968	1.3788389
23.071784795377173	1.8802437	1.3712198
23.08967317365145	1.8809447	1.3714753
23.10756212235546	1.8908297	1.3750744
23.125451641979787	1.9257443	1.3877119
23.143341733015134	1.9569296	1.398903
23.161232395952357	1.997929	1.4134811
23.179123631282426	2.0187194	1.4208164
23.197015439496468	1.9443226	1.3943896
23.214907821085717	1.8618714	1.3645041
23.23280077654157	1.8167301	1.3478613
23.250694306355538	1.8882172	1.3741242
23.268588411019277	1.9297824	1.3891661
23.28648309102458	1.9776801	1.4063002
23.304378346863356	1.9807583	1.4073942
23.322274179027676	1.9836661	1.4084268
23.340170588009723	1.9813837	1.4076163
23.358067574301852	1.9807934	1.4074066
23.37596513839651	2.0039194	1.4155986
23.39386328078629	1.942747	1.3938246
23.411762001963947	1.9398206	1.3927745
23.429661302422353	1.9251703	1.387505
23.4475611826545	1.9382467	1.3922093
23.46546164315356	1.935128	1.3910887
23.48336268441279	1.9295877	1.389096
23.501264306925638	1.9167095	1.3844528
23.51916651118564	1.9225048	1.3865442
23.537069297686497	1.9760804	1.4057313
23.554972666922037	1.9785743	1.406618
23.57287661938623	1.9465173	1.3951764
23.59078115557318	1.8831245	1.3722699
23.608686275977128	1.884814	1.3728853
23.62659198109246	1.8453591	1.3584399
23.6444982714137	1.8276818	1.3519179
23.66240514743549	1.8578464	1.3630284
23.68031260965263	1.9011033	1.378805
23.698220658560068	1.9335011	1.3905039
23.716129294652845	1.933701	1.3905758
23.7340385184262	1.9328009	1.3902521
23.75194833037546	1.9191381	1.3853296
23.769858730996123	1.9166523	1.3844321
23.78776972078382	1.9093924	1.3818077
23.80568130023431	1.9056704	1.3804603
23.823593469843495	1.9219779	1.3863542
23.841506230107424	1.9197798	1.3855612
23.859419581522275	1.9227105	1.3866184
23.87733352458438	1.8916457	1.3753711
23.89524805979019	1.8865334	1.3735113
23.913163187636318	1.8753144	1.3694211
23.931078908619508	1.8889366	1.374386
23.948995223236633	1.9318503	1.3899102
23.966912131984735	2.0032742	1.4153707
23.98482963536096	2.0773602	1.441305
24.002747733862616	2.0949345	1.4473889
24.020666427987155	2.1116781	1.4531615
24.038585718232156	2.07382	1.4400765
24.056505605095353	2.0430844	1.429365
24.074426089074617	2.0383952	1.4277238
24.092347170667946	2.047695	1.4309769
24.110268850373515	2.06046	1.4354303
24.128191128689586	2.0767257	1.4410849
24.146114006114626	2.0849605	1.4439392
24.164037483147187	2.0414317	1.4287868
24.181961560286005	2.0211086	1.421657
24.199886238029926	2.025535	1.423213
24.21781151687797	2.0439885	1.4296813
24.235737397329274	2.061716	1.4358677
24.253663879883135	2.0431309	1.4293813
24.271590965038975	2.0131953	1.4188712
24.289518653296376	2.0034795	1.4154432
24.30744694515505	2.0255682	1.4232246
24.32537584111486	2.0341935	1.4262515
24.34330534167581	2.046705	1.430631
24.361235447338046	2.1141732	1.4540197
24.379166158601876	2.1451428	1.4646306
24.39709747596772	2.1393127	1.462639
24.41502939993615	2.1292412	1.4591919
24.432961931007917	2.0969186	1.4480741
24.450895069683856	2.06005	1.4352875
24.468828816465	2.020591	1.4214749
24.4867631718525	2.0060334	1.4163451
24.504698136347656	1.9532398	1.3975836
24.52263371045192	1.9508222	1.3967184
24.540569894666874	1.9781208	1.4064568
24.558506689494266	1.9833343	1.408309
24.57644409543597	1.9590752	1.3996696
24.594382112994012	1.9232218	1.3868028
24.61232074267057	1.915349	1.3839613
24.630259984967953	1.945221	1.3947117
24.64819984038863	1.9951587	1.4125009
24.66614030943522	2.0249884	1.4230208
24.684081392610462	2.0332901	1.4259348
24.702023090417274	2.0281286	1.4241238
24.7199654033587	2.0292006	1.4245001
24.737908331937927	2.0166101	1.420074
24.755851876658305	2.0412376	1.4287188
24.773796038023324	2.0442529	1.4297737
24.79174081653661	2.0649376	1.4369891
24.809686212701962	2.0547333	1.4334341
24.827632227023294	2.0578685	1.4345273
24.8455788600047	2.072176	1.4395055
24.8635261121504	2.1095724	1.4524367
24.88147398396475	2.1575344	1.4688548
24.899422475952303	2.1994643	1.4830592
24.917371588617698	2.1883633	1.4793118
24.935321322465768	2.2131917	1.48768
24.953271678001478	2.2843652	1.5114117
24.97122265572994	2.4565046	1.567324
24.989174256156414	2.7372594	1.6544665
25.00712647978632	3.183229	1.7841606
25.02507932712521	3.7615721	1.9394773
25.043032798678798	4.29195	2.0717022
25.060986894952933	4.916535	2.2173262
25.078941616453637	5.6044555	2.3673732
25.096896963687055	6.4872684	2.5470116
25.114852937159508	7.5931153	2.7555609
25.132809537377444	8.090645	2.844406
25.150766764847468	8.18571	2.861068
25.168724620076347	7.664872	2.7685506
25.186683103570985	6.729119	2.5940545
25.204642215838426	5.6271	2.372151
25.222601957385894	4.294175	2.0722392
25.24056232872074	3.2174902	1.7937363
25.25852333035048	2.59448	1.610739
25.276484962782778	2.281508	1.5104661
25.294447226525435	2.1551147	1.4680309
25.312410122086423	2.069165	1.4384593
25.330373649973843	1.9745388	1.4051828
25.348337810695988	1.9646323	1.4016534
25.366302604761245	1.984545	1.4087389
25.384268032678207	1.9717201	1.4041795
25.40223409495558	1.9365017	1.3915825
25.420200792102257	1.9145443	1.3836706
25.438168124627246	1.9179131	1.3848873
25.45613609303974	1.9586402	1.3995143
25.474104697849057	1.9568069	1.3988591
25.492073939564698	1.9549174	1.3981836
25.510043818696285	1.9346414	1.3909138
25.528014335753614	1.9283078	1.3886353
25.54598549124664	1.9562868	1.3986732
25.56395728568544	1.8724158	1.3683624
25.58192971958028	1.8349218	1.3545929
25.59990279344156	1.8144637	1.3470203
25.617876507779833	1.8551341	1.3620331
25.635850863105826	1.8578626	1.3630344
25.653825859930386	1.858027	1.3630947
25.671801498764548	1.8345131	1.354442
25.68977778011949	1.7982495	1.3409883
25.707754704506524	1.8350865	1.3546536
25.725732272437153	1.869492	1.3672937
25.743710484423012	1.8902777	1.3748738
25.761689340975888	1.9031192	1.3795359
25.77966884260774	1.9124697	1.3829207
25.797648989830662	1.9336365	1.3905526
25.815629783156922	1.8900001	1.3747728
25.83361122309895	1.8620907	1.3645844
25.85159331016929	1.8465388	1.3588741
25.869576044880695	1.9004639	1.3785732
25.887559427746034	1.9086637	1.381544
25.90554345927836	1.9016378	1.3789989
25.92352813999086	1.8932375	1.3759496
25.94151347039689	1.8674753	1.366556
25.959499451009965	1.8706607	1.367721
25.97748608234374	1.8713	1.3679546
25.995473364912062	1.8822838	1.3719635
26.013461299228904	1.8380744	1.355756
26.03144988580839	1.8161716	1.3476541
26.04943912516483	1.8165855	1.3478076
26.067429017812675	1.8212752	1.3495463
26.085419564266537	1.8554459	1.3621476
26.103410765041186	1.8911654	1.3751965
26.12140262065155	1.8389004	1.3560606
26.139395131612723	1.8039305	1.3431048
26.157388298439948	1.8295007	1.3525903
26.17538212164861	1.846219	1.3587564
26.193376601754295	1.8244189	1.3507105
26.211371739272714	1.8378935	1.3556893
26.229367534719746	1.8340045	1.3542542
26.247363988611433	1.8272289	1.3517503
26.26536110146397	1.8893112	1.3745222
26.283358873793727	1.8732251	1.3686582
26.301357306117204	1.8556998	1.3622407
26.319356398951104	1.833844	1.354195
26.33735615281224	1.8411666	1.3568959
26.35535656821762	1.8470948	1.3590786
26.373357645684404	1.8572102	1.362795
26.39135938572991	1.8657835	1.3659369
26.409361788871614	1.8279405	1.3520135
26.427364855627165	1.8234183	1.35034
26.445368586514352	1.8226581	1.3500586
26.46337298205115	1.8101962	1.3454353
26.48137804275568	1.818767	1.3486167
26.499383769146217	1.8198398	1.3490144
26.517390161741215	1.8462679	1.3587744
26.53539722105928	1.8295262	1.3525997
26.553404947619182	1.8235021	1.3503711
26.571413341939856	1.8237981	1.3504807
26.589422404540397	1.8427593	1.3574827
26.60743213594006	1.7840264	1.3356745
26.62544253665827	1.7871052	1.3368266
26.64345360721459	1.772756	1.3314488
26.66146534812879	1.7560498	1.3251603
26.679477759920758	1.7912867	1.3383896
26.69749084311057	1.8137333	1.3467492
26.71550459821847	1.8017105	1.3422781
26.733519025764842	1.7825586	1.335125
26.751534126270258	1.7991414	1.3413208
26.769549900255434	1.8866673	1.3735601
26.787566348241267	1.8742584	1.3690356
26.80558347074881	1.830547	1.352977
26.823601268299267	1.7711884	1.33086
26.841619741414036	1.7271757	1.3142205
26.85963889061465	1.7290503	1.3149335
26.877658716422832	1.7431003	1.3202652
26.89567921936045	1.769854	1.3303586
26.913700399949544	1.7836351	1.335528
26.93172225871233	1.8025868	1.3426045
26.949744796171174	1.8288106	1.3523352
26.967768012848605	1.8252752	1.3510275
26.98579190926733	1.8476323	1.3592764
27.003816485950225	1.8725449	1.3684096
27.021841743420318	1.8727158	1.3684721
27.039867682200814	1.8437409	1.3578442
27.057894302815072	1.8145841	1.347065
27.07592160578664	1.7650679	1.3285586
27.0939495916392	1.7320544	1.3160753
27.111978260896635	1.8047348	1.3434042
27.13000761408296	1.8252403	1.3510145
27.148037651722397	1.8353362	1.3547459
27.166068374339304	1.8497826	1.3600671
27.184099782458215	1.8858773	1.3732724
27.20213187660384	1.8870612	1.3737035
27.22016465730105	1.8307685	1.3530589
27.23819812507487	1.8001888	1.3417112
27.256232280450533	1.8277144	1.3519299
27.274267123953383	1.8581498	1.3631396
27.292302656108987	1.8735257	1.368768
27.31033887744306	1.8681442	1.3668007
27.32837578848146	1.857767	1.3629993
27.34641338975026	1.8056324	1.3437382
27.364451681775673	1.8081219	1.3446642
27.382490665084074	1.8265948	1.3515158
27.400530340202046	1.835527	1.3548162
27.41857070765629	1.8746173	1.3691666
27.436611767973726	1.9009515	1.37875
27.454653521681404	1.8579599	1.36307
27.472695969306564	1.8442385	1.3580275
27.490739111376627	1.8011256	1.3420602
27.508782948419153	1.7794564	1.3339627
27.526827480961902	1.7487873	1.3224173
27.54487270953279	1.7523752	1.3237731
27.562918634659898	1.7559516	1.3251233
27.580965256871508	1.7845135	1.3358568
27.599012576696026	1.7619729	1.3273933
27.617060594662068	1.7654263	1.3286934
27.63510931129842	1.7886288	1.3373963
27.65315872713401	1.815301	1.347331
27.67120884269797	1.8009274	1.3419864
27.68925965851958	1.820043	1.3490896
27.707311175128307	1.8350222	1.3546299
27.725363393053787	1.891372	1.3752716
27.74341631282583	1.9101839	1.382094
27.7614699349744	1.882901	1.3721883
27.77952426002968	2.016141	1.4199088
27.797579288521973	2.0820577	1.4429337
27.815635020981784	2.574328	1.6044712
27.83369145793979	2.6580606	1.630356
27.85174859992682	2.5348806	1.5921309
27.869806447473923	2.4309561	1.5591524
27.887865001112267	2.085527	1.4441353
27.905924261373233	1.9556485	1.398445
27.92398422878836	1.8967997	1.3772435
27.94204490388936	1.8819983	1.3718594
27.96010628720813	1.8676058	1.3666037
27.978168379276728	1.8389449	1.3560771
27.9962311806274	1.8136327	1.3467119
28.014294691792568	1.831342	1.3532709
28.0323589133048	1.816476	1.347767
28.050423845696887	1.836092	1.3550247
28.068489489501758	1.8465081	1.3588628
28.086555845252523	1.8706334	1.367711
28.104622913482487	1.8577231	1.3629832
28.122690694725115	1.8628511	1.364863
28.14075918951405	1.8751978	1.3693786
28.15882839838312	1.8649715	1.3656396
28.176898321866304	1.8892361	1.3744948
28.1949689604978	1.9323477	1.390089
28.213040314811945	1.9428021	1.3938444
28.23111238534327	1.8954078	1.3767381
28.249185172626493	1.8868057	1.3736105
28.267258677196473	1.9161073	1.3842353
28.285332899588294	1.8624932	1.3647319
28.303407840337172	1.8533477	1.3613771
28.321483499978545	1.904829	1.3801554
28.33955987904799	1.9323721	1.3900979
28.357636978081285	1.9291481	1.3889377
28.37571479761439	1.9315956	1.3898185
28.393793338183425	1.9986745	1.4137448
28.41187260032469	2.041175	1.4286969
28.429952584574686	2.0276964	1.423972
28.448033291470065	1.9981433	1.4135569
28.46611472154769	1.9843328	1.4086635
28.484196875344566	1.9950418	1.4124595
28.502279753397914	2.054543	1.4333677
28.52036335624511	2.0676386	1.4379286
28.538447684423716	1.9654403	1.4019417
28.556532738471482	1.9544328	1.3980104
28.574618518926325	2.0263035	1.4234829
28.59270502632635	2.038998	1.4279349
28.61079226120985	1.9552464	1.3983012
28.628880224115274	1.9342088	1.3907584
28.646968915581287	1.979747	1.4070349
28.66505833614671	2.0162935	1.4199625
28.68314848635055	2.0132256	1.4188818
28.701239366732004	2.059326	1.4350351
28.71933097783044	2.0940619	1.4470874
28.737423320185403	2.084502	1.4437804
28.75551639433665	2.0961065	1.4477937
28.773610200824074	2.15844	1.4691631
28.791704740187793	2.175837	1.4750719
28.80980001296809	2.1661282	1.4717772
28.827896019705413	2.1329093	1.4604483
28.845992760940433	2.1125996	1.4534785
28.86409023721397	2.0913422	1.4461473
28.88218844906704	2.1296728	1.4593399
28.900287397040845	2.1906495	1.4800843
28.918387081676755	2.2387729	1.4962529
28.936487503516343	2.2597265	1.5032387
28.954588663101365	2.2852714	1.5117114
28.97269056097374	2.2909207	1.5135788
28.990793197675597	2.2761898	1.5087047
29.00889657374923	2.3000233	1.5165827
29.027000689737125	2.3287942	1.5260388
29.04510554618196	2.3823936	1.5435004
29.06321114362659	2.4492042	1.5649934
29.08131748261405	2.5084727	1.5838158
29.099424563687567	2.47381	1.572835
29.11753238739057	2.4695923	1.5714936
29.13564095426663	2.5151162	1.5859118
29.15375026485954	2.525257	1.5891057
29.171860319713275	2.5758147	1.6049345
29.18997111937199	2.6632543	1.631948
29.20808266438002	2.698515	1.6427157
29.226194955281898	2.750263	1.6583917
29.244307992622335	2.8103628	1.6764137
29.26242177694624	2.8160925	1.6781217
29.2805363087987	2.8447158	1.6866286
29.29865158872498	2.8537436	1.6893027
29.316767617270557	2.7953386	1.6719266
29.334884394981064	2.817644	1.6785839
29.353001922402367	2.8936985	1.7010875
29.37112020008047	3.0194142	1.7376462
29.389239228561596	3.1612308	1.7779851
29.407359008392152	3.3678339	1.8351659
29.42547954011872	3.6392796	1.9076896
29.44360082428809	4.228166	2.0562506
29.46172286144722	5.3215046	2.3068388
29.479845652143283	6.93962	2.634316
29.497969196923606	8.902483	2.983703
29.516093496335728	11.247636	3.3537495
29.5342185509274	14.007336	3.7426376
29.55234436124651	16.386816	4.0480633
29.570470927841175	17.760164	4.214281
29.588598251259686	17.539816	4.1880565
29.60672633205055	16.166697	4.020783
29.624855170762405	14.093726	3.7541611
29.642984767944146	11.519005	3.393966
29.66111512414481	8.892636	2.9820523
29.67924623991366	6.6596904	2.5806377
29.697378115800138	5.1254125	2.2639375
29.71551075235387	4.198777	2.0490918
29.733644150124675	3.7104535	1.9262538
29.751778309662576	3.5185137	1.8757702
29.769913231517766	3.4057148	1.8454579
29.78804891624066	3.3750165	1.8371217
29.806185364381818	3.367761	1.8351461
29.82432257649206	3.4151642	1.8480163
29.842460553122333	3.412314	1.847245
29.86059929482382	3.3167124	1.8211843
29.878738802147872	3.3160155	1.820993
29.896879075646048	3.3270414	1.8240179
29.915020115870114	3.2195807	1.794319
29.933161923371976	3.1459467	1.7736816
29.951304498703777	3.2357519	1.7988195
29.969447842417857	3.257621	1.8048881
29.987591955066733	3.2166252	1.7934953
30.005736837203123	3.1996233	1.7887491
30.023882489379943	3.229056	1.7969574
30.04202891215028	3.1985183	1.7884402
30.060176106067455	3.1862211	1.7849989
30.078324071684946	3.1445658	1.7732924
30.09647280955646	3.1161225	1.7652543
30.114622320235863	3.1039	1.7617888
30.132772604277257	3.1901047	1.7860864
30.1509236622349	3.2283132	1.7967508
30.16907549466328	3.1670964	1.7796338
30.18722810211705	3.0382962	1.743071
30.205381485151097	2.9986424	1.7316588
30.22353564432045	2.9933784	1.7301383
30.241690580180403	2.9612687	1.7208337
30.25984629328638	2.95707	1.7196133
30.278002784194037	3.0187516	1.7374555
30.296160053459246	3.0135837	1.7359676
30.314318101638033	2.998177	1.7315245
30.332476929286646	2.950662	1.7177491
30.35063653696153	2.9390042	1.7143524
30.368796925219307	2.8833487	1.6980426
30.386958094616844	2.8701801	1.6941606
30.40512004571115	2.8569329	1.6902463
30.423282779059463	2.8872142	1.6991805
30.441446295219233	2.9216397	1.7092805
30.459610594748067	2.874773	1.6955155
30.47777567820382	2.8261523	1.6811163
30.495941546144504	2.8060427	1.6751246
30.51410819912835	2.8249147	1.6807482
30.532275637713795	2.8623269	1.6918412
30.55044386245946	2.8270228	1.6813753
30.56861287392416	2.805739	1.675034
30.586782672666956	2.84885	1.6878537
30.604953259247047	2.8585064	1.6907119
30.623124634223885	2.825019	1.6807792
30.641296798157075	2.8305418	1.6824214
30.659469751606462	2.8087327	1.6759274
30.677643495132074	2.7824807	1.668077
30.695818029294152	2.805678	1.6750158
30.713993354653116	2.7745104	1.6656861
30.73216947176962	2.7081854	1.6456566
30.75034638120448	2.6485555	1.6274383
30.768524083518756	2.6923523	1.6408389
30.786702579273673	2.6668646	1.6330538
30.80488186903069	2.6994681	1.6430058
30.82306195335144	2.8728936	1.6949612
30.841242832797782	3.1217973	1.7668608
30.85942450793176	3.3929734	1.8420025
30.877606979315637	3.688159	1.920458
30.895790247511883	4.030974	2.0077286
30.913974313083134	4.4366455	2.1063347
30.932159176592283	4.6993566	2.1678
30.95034483860237	4.8641896	2.2054908
30.968531299676698	4.7208843	2.1727595
30.98671856037873	4.3295603	2.0807595
31.00490662127215	3.9098358	1.9773304
31.023095482920848	3.5455713	1.8829688
31.04128514588892	3.1690435	1.7801808
31.059475610740662	2.9138014	1.7069861
31.07766687804056	2.710147	1.6462524
31.09585894835335	2.5665424	1.6020432
31.11405182224393	2.4657788	1.5702798
31.132245500277417	2.4794643	1.5746315
31.15043998301914	2.4217768	1.5562059
31.168635271034628	2.4281418	1.5582496
31.18683136488964	2.3910842	1.546313
31.20502826515008	2.395263	1.5476637
31.223225972382135	2.3487487	1.5325627
31.241424487152155	2.3210652	1.5235043
31.259623810026692	2.3418643	1.5303152
31.27782394157253	2.3976667	1.5484401
31.296024882356644	2.423095	1.5566294
31.314226632946237	2.4791348	1.5745269
31.332429193908684	2.476551	1.5737062
31.350632565811598	2.457144	1.567528
31.368836749222787	2.478657	1.5743752
31.387041744710295	2.470983	1.5719361
31.40524755284232	2.439108	1.5617644
31.423454174187317	2.5194542	1.5872788
31.441661609313922	2.6517107	1.6284075
31.459869858791002	2.6480384	1.6272794
31.478078923187628	2.4819126	1.5754087
31.496288803073064	2.4096916	1.5523181
31.514499499016807	2.480791	1.5750527
31.532711011588546	2.4752195	1.5732831
31.550923341358178	2.4100385	1.5524299
31.56913648889584	2.3594935	1.5360643
31.587350454771844	2.3292696	1.5261945
31.605565239556732	2.3061366	1.5185969
31.62378084382127	2.2998319	1.5165197
31.641997268136382	2.26758	1.5058486
31.660214513073274	2.248889	1.4996296
31.67843257920331	2.2365649	1.4955149
31.6966514670981	2.2642295	1.5047357
31.71487117732944	2.3238509	1.5244182
31.733091710469346	2.3428435	1.530635
31.751313067090052	2.3229475	1.5241219
31.769535247764008	2.3416421	1.5302426
31.787758253063878	2.3044014	1.5180255
31.805982083562526	2.2495043	1.4998348
31.824206739833024	2.2275581	1.4925007
31.84243222244869	2.258257	1.5027498
31.860658531983013	2.279158	1.5096881
31.878885669009737	2.2817287	1.5105392
31.897113634102784	2.3213768	1.5236065
31.91534242783632	2.3205	1.5233188
31.933572050784694	2.2446737	1.4982235
31.951802503522508	2.2010102	1.4835802
31.970033786624548	2.2847242	1.5115304
31.988265900665834	2.2996979	1.5164754
32.006498846221575	2.2332983	1.4944224
32.02473262386724	2.2110686	1.4869663
32.04296723417845	2.2242668	1.4913976
32.0612026777311	2.147939	1.4655849
32.07943895510129	2.1298323	1.4593945
32.097676066865304	2.111918	1.453244
32.115914013599685	2.1401017	1.4629086
32.13415279588115	2.0633879	1.4364498
32.152392414286666	2.040389	1.4284219
32.1706328693934	2.1059172	1.4511778
32.18887416177875	2.1765115	1.4753004
32.20711629202032	2.2594929	1.503161
32.225359260695924	2.276539	1.5088204
32.243603068383614	2.1816378	1.4770368
32.26184771566166	2.114976	1.4542956
32.28009320310852	2.2681015	1.5060217
32.2983395313029	2.3251185	1.5248339
32.31658670082372	2.241835	1.497276
32.33483471225012	2.136076	1.4615321
32.35308356616143	2.1062424	1.4512899
32.371333263137245	2.125688	1.457974
32.38958380375734	2.1051145	1.4509013
32.407835188601744	2.100568	1.4493337
32.42608741825067	2.126362	1.4582051
32.444340493284585	2.1458437	1.4648699
32.46259441428416	2.1355479	1.4613514
32.48084918183028	2.1506631	1.466514
32.49910479650405	2.1107385	1.4528381
32.51736125888683	2.0021265	1.4149652
32.53561856956014	2.0053985	1.4161209
32.5538767291058	2.0440204	1.4296924
32.572135738105764	2.1345832	1.4610213
32.59039559714228	2.178982	1.4761375
32.608656306797776	2.10399	1.4505137
32.62691786765491	2.0291314	1.4244758
32.645180280296586	2.0414588	1.4287963
32.663443545305896	2.0129433	1.4187824
32.68170766326619	1.9841788	1.4086088
32.69997263476099	2.0719032	1.4394107
32.7182384603741	2.0920148	1.4463799
32.7365051406895	2.1426475	1.4637785
32.75477267629144	2.1250453	1.4577535
32.77304106776434	1.9855568	1.4090979
32.79131031569289	1.8794134	1.370917
32.809580420661966	1.82197	1.3498037
32.827851383256714	1.8182182	1.3484132
32.84612320406245	1.8673973	1.3665274
32.86439588366476	1.9026792	1.3793764
32.88266942264945	1.8919005	1.3754637
32.9009438216025	1.9112575	1.3824824
32.9192190811102	1.8993915	1.3781842
32.937495201758985	1.8917621	1.3754134
32.95577218413556	1.8796381	1.370999
32.974050028826866	1.9241339	1.3871316
32.992328736420035	2.0092971	1.4174968
33.010608307502444	2.0032802	1.4153728
33.02888874266169	1.9466264	1.3952155
33.047170042485604	1.9265245	1.387993
33.06545220756225	2.0303261	1.4248952
33.083735238479896	1.9920882	1.4114136
33.10201913582707	1.9395492	1.392677
33.12030390019248	1.9965992	1.4130107
33.138589532165135	2.0450814	1.4300634
33.15687603233419	1.9720638	1.4043019
33.17516340128909	1.9827893	1.4081155
33.19345163961947	2.0193965	1.4210547
33.211740747915215	1.999644	1.4140877
33.23003072676643	1.9630494	1.4010886
33.248321576763466	1.9775937	1.4062694
33.266613298496885	1.9770889	1.4060899
33.28490589255747	1.932669	1.3902047
33.30319935953626	1.8996114	1.378264
33.32149370002451	1.9970484	1.4131696
33.339788914613706	1.9910014	1.4110285
33.358085003895575	1.871371	1.3679806
33.376381968462034	1.8926171	1.3757242
33.39467980890529	2.078502	1.441701
33.41297852581774	2.076112	1.440872
33.43127811979204	1.9825126	1.4080173
33.44957859142105	1.9144657	1.3836422
33.467879941297866	1.8843558	1.3727183
33.486182170015844	1.964452	1.4015892
33.50448527816853	1.9824617	1.4079992
33.522789266349754	1.9273087	1.3882754
33.541094135153514	1.8883213	1.3741621
33.55939988517411	1.8872253	1.3737632
33.57770651700602	1.8743168	1.3690569
33.59601403124398	1.8751826	1.3693731
33.61432242848296	1.9326041	1.3901813
33.632631709318154	1.9900843	1.4107034
33.650941874344994	1.990798	1.4109564
33.66925292415916	1.944074	1.3943006
33.68756485935654	1.873669	1.3688203
33.70587768053328	1.88387	1.3725414
33.724191388285746	1.9066483	1.3808143
33.74250598321054	2.030972	1.4251218
33.760821465904506	1.9915115	1.4112092
33.77913783696474	1.8745811	1.3691534
33.79745509698852	1.9722872	1.4043814
33.815773246573414	2.0091136	1.4174321
33.8340922863172	1.8657677	1.365931
33.852412216817896	1.8334469	1.3540484
33.87073303867377	1.8171017	1.3479991
33.889054752483304	1.7749571	1.3322752
33.907377358845245	1.8065913	1.344095
33.92570085835853	1.8319763	1.3535051
33.94402525162239	1.855554	1.3621871
33.96235053923627	1.9908466	1.4109737
33.980676721799824	2.0012171	1.4146438
33.999003799912984	1.8462999	1.3587862
34.01733177417592	1.817104	1.348
34.03566064518901	1.9135789	1.3833216
34.0539904135529	1.9412739	1.3932961
34.07232107986846	1.9558274	1.398509
34.090652644736785	2.0347056	1.4264311
34.108985108759235	1.9807043	1.407375
34.12731847253742	1.9065765	1.3807883
34.14565273667313	2.082281	1.4430112
34.16398790176847	2.0484898	1.4312546
34.18232396842574	1.8989439	1.3780217
34.20066093724749	1.9039521	1.3798378
34.21899880883651	1.9663455	1.4022645
34.23733758379583	2.0288439	1.4243749
34.25567726272874	1.9589081	1.3996099
34.27401784623872	1.8019307	1.3423601
34.29235933492957	1.829227	1.3524892
34.31070172940526	1.9756693	1.405585
34.32904503027003	2.0381784	1.4276478
34.347389238128386	1.9765562	1.4059005
34.36573435358502	1.9365326	1.3915936
34.38408037724492	1.8815695	1.3717031
34.402427309713296	1.976434	1.4058571
34.42077515159559	2.111771	1.4531934
34.43912390349752	2.1642046	1.4711236
34.45747356602499	2.1361167	1.4615461
34.47582413978423	2.1440911	1.4642715
34.49417562538163	2.2211156	1.4903407
34.51252802342388	2.2759275	1.5086178
34.53088133451789	2.173333	1.4742228
34.54923555927084	2.0657234	1.4372624
34.567590698290104	1.9131527	1.3831676
34.58594675218336	1.8800802	1.3711601
34.6043037215585	1.9368892	1.3917216
34.62266160702365	1.9686688	1.4030926
34.641020409187234	2.074054	1.4401577
34.65938012865785	2.065379	1.4371426
34.677740766044394	1.9367801	1.3916825
34.69610232195598	1.9135965	1.3833281
34.714464797002016	2.0330784	1.4258606
34.73282819179208	2.2475922	1.4991972
34.751192506936064	2.2350748	1.4950167
34.76955774304408	2.0872464	1.4447305
34.7879239007265	2.170873	1.4733882
34.80629098059391	2.27355	1.5078295
34.824658983257194	2.2097604	1.4865263
34.843027909327446	1.9610547	1.4003767
34.86139775941603	1.8436579	1.3578136
34.879768534134534	1.9866128	1.4094725
34.89814023409483	2.0936317	1.4469388
34.91651285990901	2.086805	1.4445778
34.93488641218944	1.8932916	1.3759693
34.95326089154871	2.0272174	1.4238038
34.97163629859967	2.1366284	1.4617211
34.99001263395542	2.0845492	1.4437968
35.00838989822934	1.8711741	1.3679087
35.02676809203499	1.7749171	1.3322601
35.04514721598624	1.9165875	1.3844087
35.063527270697215	2.0409486	1.4286177
35.081908256782256	2.0355148	1.4267147
35.10029017485597	1.9086499	1.381539
35.11867302553321	1.8688667	1.367065
35.137056809429104	2.0199869	1.4212624
35.155441527159006	1.9591141	1.3996836
35.173827179338524	1.8318042	1.3534416
35.19221376658354	1.6805559	1.2963626
35.21060128951017	1.7835467	1.3354949
35.2289897487348	1.8784752	1.3705747
35.24737914487405	2.0992053	1.4488634
35.26576947854479	2.4404829	1.5622045
35.28416075036418	2.1720665	1.4737933
35.30255296094958	1.699853	1.3037841
35.32094611091867	1.9184775	1.3850912
35.33934020088932	2.4056852	1.5510272
35.35773523147969	2.4120073	1.5530639
35.3761312033082	2.1564295	1.4684787
35.394528116993506	2.282601	1.5108279
35.41292597315452	2.3797083	1.5426303
35.431324772410434	2.00373	1.4155318
35.449724515380666	1.8535353	1.361446
35.46812520268491	2.1062562	1.4512947
35.486526834943106	2.1198356	1.4559655
35.504929412775454	1.9130771	1.3831403
35.52333293680242	1.983397	1.4083313
35.54173740764471	2.1583064	1.4691175
35.560142825923286	2.3744123	1.5409129
35.5785491922594	2.7810123	1.6676368
35.59695650727454	2.7820785	1.6679564
35.61536477159042	2.4002655	1.549279
