0.008763373481513119	0.0	0.0
0.026290120649546365	0.0	0.0
0.043816868432600686	0.0	0.0
0.06134361724069026	0.0	0.0
0.07887036748382949	0.026025042	0.16132279
0.0963971195720331	0.14030997	0.37457973
0.11392387391531617	0.20658842	0.45452
0.1314506309236943	0.22116356	0.4702803
0.1489773910071836	0.20448801	0.4522035
0.16650415457580078	0.21009642	0.45836276
0.18403092203956356	0.25448003	0.50446016
0.20155769380849	0.21314165	0.46167266
0.2190844702925996	0.14958128	0.3867574
0.2366112519019124	0.13101986	0.36196667
0.2541380390464497	0.19050433	0.436468
0.27166483213623416	0.19116119	0.43721983
0.28919163158128947	0.18963143	0.43546692
0.3067184377916406	0.10645838	0.3262796
0.324245251177314	0.08450117	0.29069084
0.34177207214833777	0.07990623	0.2826769
0.3592989011147415	0.07684698	0.2772129
0.37682573848655654	0.10278975	0.3206084
0.39435258467381573	0.10420558	0.3228089
0.41187944008655414	0.13713114	0.3703122
0.42940630513480854	0.14114344	0.3756906
0.446933180228618	0.11324824	0.33652374
0.4644600657780234	0.09387403	0.30638868
0.48198696219306775	0.11153234	0.3339646
0.49951386988379676	0.13200499	0.3633249
0.5170407892602581	0.1563301	0.395386
0.5345677207325025	0.17475913	0.41804203
0.5520946647105822	0.18688773	0.43230513
0.5696216216045534	0.20612518	0.45401013
0.5871485918244737	0.18058789	0.42495632
0.6046755757804043	0.18317807	0.42799306
0.6222025738824094	0.2145095	0.4631517
0.6397295865405557	0.23274694	0.48243853
0.6572566141649129	0.23551443	0.4852983
0.6747836571655547	0.19691512	0.4437512
0.6923107159525568	0.17374536	0.41682774
0.7098377909359992	0.19037107	0.43631533
0.7273648825259653	0.22881018	0.47834107
0.7448919911325411	0.25801715	0.5079539
0.762419117165817	0.25546283	0.5054333
0.7799462610358868	0.20745943	0.45547715
0.7974734231528482	0.19494933	0.44153067
0.8150006039268024	0.21601962	0.4647791
0.8325278037678551	0.20845814	0.45657218
0.8500550230861152	0.23862198	0.48848948
0.8675822622916969	0.21515109	0.46384382
0.8851095217947171	0.20421103	0.45189714
0.9026368020052984	0.20959897	0.4578198
0.9201641033335665	0.20176451	0.44918203
0.9376914261896523	0.2107606	0.4590867
0.9552187709836915	0.18059024	0.4249591
0.9727461381258234	0.20709312	0.45507485
0.990273528026193	0.22311181	0.47234714
1.0078009410949496	0.27493638	0.5243438
1.0253283777422473	0.2920248	0.5403932
1.0428558383782454	0.30513358	0.55238897
1.0603833234131086	0.3158315	0.5619889
1.0779108332570058	0.34603393	0.58824646
1.0954383683201119	0.33465907	0.57849723
1.112965929012607	0.39290214	0.6268191
1.1304935157446763	0.5252301	0.72472763
1.1480211289265108	0.5545517	0.7446823
1.1655487689683062	1.2529355	1.119346
1.1830764362802655	1.4319942	1.1966596
1.200604131272596	1.8184723	1.3485074
1.2181318543555117	2.0810766	1.4425937
1.235659605939232	2.1800225	1.4764899
1.253187386433982	3.7957706	1.9482738
1.270715196249994	6.060887	2.461887
1.2882430357975057	11.322707	3.364923
1.3057709054867608	16.087837	4.0109644
1.3232988057280106	22.008736	4.691347
1.3408267369315112	27.084005	5.2042294
1.358354699507526	30.88465	5.557396
1.3758826938663256	34.9368	5.9107356
1.3934107204181858	37.074104	6.088851
1.410938779573391	37.207275	6.0997767
1.4284668717422309	37.924213	6.1582637
1.4459949973350033	37.56794	6.129269
1.4635231567620117	37.63304	6.1345778
1.4810513504335687	36.802002	6.0664654
1.4985795787599925	35.806995	5.983895
1.5161078421516088	35.2182	5.9344926
1.5336361410187505	34.73438	5.893588
1.5511644757717598	34.665882	5.887774
1.5686928468209842	34.97699	5.914135
1.58622125457678	35.48317	5.956775
1.6037496994495108	36.689083	6.0571513
1.621278181849548	36.85917	6.071175
1.6388067021872719	37.63991	6.1351376
1.6563352608730693	37.10948	6.0917554
1.673863858317336	36.273323	6.0227337
1.6913924949304753	35.561478	5.9633446
1.7089211711228998	34.443554	5.868863
1.7264498873050296	33.542004	5.791546
1.7439786438872935	32.539974	5.704382
1.7615074412801288	31.588713	5.6203837
1.779036279893981	31.180475	5.583948
1.796565160139305	30.429365	5.5162816
1.814094082426564	29.918646	5.469794
1.8316230471662298	29.313688	5.4142118
1.849152054768784	28.42055	5.331093
1.8666811056447168	27.451916	5.2394576
1.8842102002045273	26.355782	5.133788
1.901739338858724	25.568365	5.056517
1.9192685220178245	25.206207	5.0205784
1.9367977500923557	24.69139	4.9690433
1.9543270234928547	24.30502	4.930012
1.971856342629867	23.627817	4.860845
1.9893857079139496	23.08687	4.8048797
2.006915119755667	22.801512	4.775093
2.0244445785655945	22.217926	4.7135897
2.0419740847543175	21.750967	4.663793
2.0595036387324317	21.150734	4.598993
2.0770332409105414	20.696486	4.549339
2.094562891699263	20.319489	4.5077143
2.1120925915092217	19.735178	4.442429
2.129622340751053	19.543266	4.420777
2.1471521398354043	187.74176	13.701889
2.1646819891729323	444.1448	21.074743
2.182211889174303	440.4245	20.986294
2.1997418402501974	452.94147	21.282421
2.2172718428113023	432.95505	20.807571
2.234801897268317	320.78992	17.910608
2.2523320040319548	17.063726	4.1308265
2.269862163512935	16.748875	4.092539
2.287392376121992	16.344011	4.042773
2.304922642269869	16.100708	4.012569
2.322452962367322	15.729936	3.9660983
2.3399833368251164	15.615822	3.951686
2.357513766054032	15.518503	3.9393532
2.3750442504648586	15.416359	3.926367
2.3925747904683963	14.911502	3.8615413
2.410105386475459	14.499295	3.807794
2.4276360388968707	14.046236	3.7478309
2.445166748143469	13.938516	3.733432
2.4626975146261025	13.670553	3.697371
2.4802283387556323	13.580694	3.6851993
2.4977592209429305	13.517115	3.6765628
2.5152901615988825	13.415204	3.6626773
2.5328211611343865	13.223574	3.636423
2.5503522199603523	12.962453	3.6003406
2.5678833384877024	12.664457	3.5587156
2.5854145171273712	12.453986	3.5290205
2.6029457562903064	12.166092	3.4879925
2.620477056387469	11.948102	3.4566026
2.6380084178298326	11.682524	3.4179707
2.655539841028383	11.414612	3.3785517
2.673071326394119	11.230458	3.3511877
2.6906028743380523	10.966445	3.3115623
2.708134485271211	10.687365	3.2691536
2.7256661596046325	10.515149	3.242707
2.743197897749369	10.587169	3.253793
2.760729700116486	10.666823	3.2660103
2.778261567117063	10.608534	3.2570744
2.795793499162193	10.374654	3.2209709
2.8133254966629817	10.204972	3.1945221
2.830857560030551	10.043762	3.1691895
2.8483896896760337	9.971324	3.1577404
2.865921886010578	9.793956	3.1295297
2.883454149445347	9.567848	3.0931938
2.9009864803915177	9.447682	3.0737083
2.91851887926028	9.414861	3.0683646
2.9360513464628384	9.3326025	3.054931
2.953583882410413	9.172871	3.0286748
2.9711164875142373	8.889852	2.9815855
2.9886491621855606	8.8603	2.9766257
3.0061819068356455	8.71135	2.9514997
3.023714721875769	8.572997	2.927968
3.041247607717225	8.376504	2.8942192
3.0587805647713213	8.218404	2.8667758
3.0763135934493806	8.180911	2.8602293
3.0938466941627407	8.087904	2.843924
3.1113798673227544	7.9304175	2.8160996
3.1289131133407904	7.868347	2.8050575
3.1464464326282315	7.8478107	2.8013945
3.1639798255964786	7.7778416	2.7888782
3.1815132926569443	7.548155	2.7473905
3.1990468342210603	7.42989	2.7257824
3.216580450700272	7.223426	2.6876433
3.2341141425060416	7.1131854	2.6670556
3.251647910049847	7.0465713	2.654538
3.2691817537431813	7.0804973	2.6609204
3.286715673997555	7.1136656	2.6671455
3.3042496712244938	7.1139064	2.6671908
3.32178374583554	6.987741	2.6434336
3.339317898242251	6.946001	2.6355267
3.3568521288562034	6.9502954	2.6363413
3.3743864380889876	6.952591	2.6367767
3.3919208263522127	6.861631	2.6194715
3.4094552940575023	6.699713	2.5883803
3.4269898416164972	6.6666756	2.5819907
3.444524469440858	6.542057	2.5577445
3.4620591779422587	6.5270452	2.5548084
3.479593967532391	6.392837	2.5284061
3.4971288386229658	6.2679863	2.5035946
3.5146637916257086	6.284922	2.5069747
3.5321988269523628	6.3043	2.5108364
3.5497339450146903	6.31894	2.5137503
3.5672691462244708	6.205747	2.4911337
3.5848044309934988	6.168961	2.4837394
3.60233979973359	6.319505	2.5138626
3.619875252856575	6.316972	2.5133586
3.6374107907743034	6.3206825	2.5140967
3.6549464138986427	6.225418	2.4950788
3.6724821226414788	6.1845903	2.4868836
3.690017917414714	6.145492	2.4790103
3.7075537986302702	6.1761866	2.4851935
3.7250897667000857	6.282378	2.5064673
3.7426258220361235	6.4836283	2.546297
3.7601619650503553	6.772392	2.602382
3.777698196154779	7.236173	2.6900136
3.7952345157614067	8.259791	2.8739853
3.8127709242822716	9.158293	3.026267
3.830307422129425	11.535867	3.396449
3.847844009714936	30.33812	5.508005
3.8653806874508954	97.84487	9.891657
3.882917455749409	96.96925	9.847297
3.900454315022606	96.679405	9.832568
3.917991265682631	41.143917	6.4143524
3.9355283081416506	10.725812	3.2750285
3.9530654428118495	8.613452	2.9348683
3.970602670105433	7.494467	2.7376025
3.9881399904346244	6.629348	2.574752
4.005677404211669	6.5229397	2.5540047
4.023214911848827	6.4592457	2.5415046
4.0407525137583855	6.494707	2.5484715
4.058290210352644	6.450064	2.5396976
4.075828002043927	6.3676906	2.5234284
4.0933658892445814	6.277667	2.5055273
4.110903872366966	6.2082314	2.4916322
4.128441951823468	6.122792	2.4744275
4.145980128026488	6.1474533	2.4794059
4.163518401388452	6.0781326	2.4653869
4.181056772321807	6.081375	2.4660444
4.1985952412390155	6.141517	2.4782085
4.216133808552567	6.2297187	2.4959404
4.233672474674966	6.241247	2.4982488
4.251211240018741	6.4082847	2.531459
4.268750104996445	6.647674	2.5783083
4.286289070020643	7.616842	2.7598627
4.303828135503928	9.328975	3.054337
4.3213673018589125	29.553162	5.436282
4.3389065694982305	90.67117	9.522141
4.356445938834537	165.886	12.879674
4.3739854102805085	171.17514	13.083392
4.391524984248844	172.03265	13.116122
4.409064661152262	136.08179	11.66541
4.426604441403504	96.49051	9.822958
4.444144325415337	75.74088	8.702924
4.461684313600543	21.785439	4.6674876
4.47922440637193	22.13199	4.704465
4.496764604142329	20.444706	4.521582
4.5143049073245916	18.533081	4.3050065
4.531845316331589	16.419388	4.0520844
4.5493858315762195	13.4763365	3.671013
4.566926453471405	11.28623	3.3594985
4.584467182430081	9.236711	3.0391958
4.602008018865218	8.101051	2.8462346
4.619548963189798	7.4606366	2.7314167
4.637090015816834	6.9862876	2.6431587
4.654631177159353	6.6905446	2.5866086
4.672172447630417	6.393291	2.5284958
4.689713827643102	6.194558	2.4888868
4.7072553176105085	5.9147744	2.432031
4.724796917945764	5.69841	2.3871343
4.742338629062015	5.6101456	2.3685746
4.759880451372434	5.582693	2.3627722
4.777422385290215	5.6493926	2.3768451
4.794964431228581	5.652223	2.3774405
4.812506589600768	5.7074494	2.3890269
4.830048860820047	5.669761	2.381126
4.847591245299709	5.6296067	2.3726792
4.8651337434530655	5.5857406	2.3634171
4.882676355693457	5.5121665	2.3478003
4.900219082434242	5.5082903	2.3469746
4.917761924088813	5.515323	2.3484726
4.935304881070575	5.498528	2.344894
4.952847953792969	5.488017	2.3426516
4.970391142669449	5.4198637	2.3280602
4.9879344481135055	5.3818917	2.3198905
5.005477870538642	5.3687873	2.3170643
5.023021410358394	5.4014926	2.3241112
5.040565067986324	5.4886904	2.3427954
5.05810884383601	5.4340587	2.3311067
5.075652738321066	5.473166	2.33948
5.09319675185512	5.425428	2.3292549
5.110740884851836	5.4848733	2.3419807
5.128285137724894	5.4508963	2.3347154
5.145829510888007	5.3959455	2.3229175
5.163374004754908	5.375176	2.3184426
5.1809186197393595	5.3722897	2.31782
5.198463356255145	5.284732	2.2988544
5.216008214716077	5.264135	2.2943702
5.233553195535998	5.2226844	2.2853193
5.251098299128764	5.246009	2.2904167
5.268643525908272	5.24677	2.290583
5.286188876288432	5.2070823	2.2819033
5.3037343506831895	5.2462525	2.29047
5.32127994950651	5.249087	2.2910886
5.3388256731723915	5.2466383	2.290554
5.356371522094851	5.2137914	2.2833729
5.373917496687938	5.2620206	2.2939095
5.391463597365729	5.2695036	2.2955399
5.40900982454232	5.3128066	2.3049526
5.426556178631843	5.2839894	2.298693
5.444102660048449	5.2132697	2.2832587
5.4616492692063225	5.0918345	2.2565093
5.479196006519669	5.0001607	2.236104
5.496742872402727	4.902207	2.2140927
5.514289867269756	4.936957	2.2219265
5.531836991535049	4.9981976	2.2356648
5.549384245612924	5.04971	2.247156
5.566931629917724	5.0979986	2.2578747
5.584479144863822	5.0511174	2.2474692
5.6020267908656205	4.988955	2.2335968
5.619574568337545	5.002978	2.2367337
5.637122477694054	5.042127	2.2454681
5.654670519349629	5.14169	2.2675295
5.672218693718784	5.1157684	2.2618065
5.689767001216059	5.1396856	2.2670875
5.707315442256021	5.1278453	2.2644746
5.724864017253266	5.147498	2.2688098
5.7424127266224225	5.2141266	2.2834463
5.75996157077814	5.191695	2.2785292
5.777510550135105	5.329913	2.3086605
5.795059665108022	5.277321	2.297242
5.812608916111639	5.256549	2.2927165
5.830158303560715	5.322899	2.3071408
5.847707827870055	5.351833	2.313403
5.86525748945448	5.45159	2.3348641
5.8828072887288485	5.512045	2.3477745
5.900357226108044	5.4980073	2.344783
5.917907302006979	5.5093718	2.3472052
5.9354575168406	6.1044664	2.470722
5.9530078710238765	6.808416	2.6092942
5.970558364971812	7.492029	2.737157
5.988108999099438	7.829949	2.7982047
6.005659773821818	8.308619	2.8824675
6.023210689554039	7.983707	2.8255453
6.040761746711227	8.377161	2.8943326
6.058312945708531	7.826013	2.7975013
6.075864286961132	7.388433	2.7181673
6.093415770884244	6.699514	2.588342
6.1109673978931065	6.1476893	2.4794533
6.128519168402993	5.518423	2.3491323
6.146071082829204	5.415963	2.327222
6.163623141587075	5.2833614	2.2985563
6.181175345091969	5.240257	2.2891607
6.198727693759281	5.2029057	2.280988
6.216280188004435	5.188939	2.2779243
6.233832828242885	5.149082	2.2691588
6.251385614890126	5.1460257	2.2684853
6.268938548361669	5.09201	2.2565482
6.286491629073067	5.043646	2.2458062
6.304044857439898	5.055892	2.248531
6.321598233877777	4.970609	2.2294862
6.339151758802344	4.946393	2.2240489
6.356705432629277	4.9299674	2.220353
6.37425925577428	4.9824405	2.2321382
6.391813228653095	4.9924183	2.234372
6.409367351681486	5.0010157	2.236295
6.426921625275259	4.9769897	2.2309167
6.44447604985025	5.0417366	2.245381
6.46203062582232	5.0487533	2.246943
6.47958535360737	5.0565968	2.2486877
6.497140233621328	5.1014814	2.258646
6.514695266280161	5.086363	2.2552967
6.532250451999859	5.0925546	2.2566688
6.549805791196454	5.0711584	2.2519233
6.567361284286002	5.018872	2.240284
6.584916931684597	4.9780006	2.2311432
6.602472733808367	4.977025	2.2309246
6.6200286910734665	4.930461	2.2204642
6.637584803896092	4.957746	2.2265997
6.655141072692462	4.926815	2.2196429
6.672697497878842	4.984489	2.2325969
6.690254079871514	4.990389	2.2339177
6.707810819086808	5.0069103	2.2376127
6.725367715941078	5.011505	2.238639
6.742924770850719	5.0115633	2.2386522
6.760481984232151	4.9111557	2.2161129
6.778039356501836	4.9173193	2.2175028
6.795596888076266	4.920879	2.2183053
6.813154579371963	5.009027	2.2380855
6.830712430805492	5.000574	2.2361963
6.84827044279344	4.9263268	2.219533
6.865828615752445	4.8735776	2.207618
6.883386950099159	4.890226	2.2113855
6.900945446250287	4.922984	2.2187798
6.918504104622553	4.9044185	2.2145922
6.936062925632727	4.8844123	2.2100706
6.953621909697607	4.8750873	2.20796
6.971181057234028	4.9675694	2.2288043
6.988740368658859	5.0554056	2.2484229
7.006299844389007	5.1039815	2.2591994
7.023859484841407	5.239732	2.289046
7.041419290433036	5.3101335	2.3043728
7.058979261580902	5.4389744	2.332161
7.0765393987020495	5.6522856	2.3774536
7.094099702213559	5.9407706	2.4373696
7.111660172532549	6.2709312	2.5041828
7.129220810076164	6.5956583	2.5682013
7.146781615261595	7.103773	2.6652904
7.16434258850606	7.412204	2.7225363
7.181903730226821	7.935319	2.8169699
7.1994650408411704	8.145296	2.8539965
7.217026520766437	8.236917	2.870003
7.234588170419983	8.372915	2.893599
7.252149990219215	8.360765	2.8914988
7.269711980581568	8.273099	2.8762996
7.2872741419245175	8.143395	2.8536634
7.304836474665574	7.783608	2.7899117
7.322398979222286	7.545335	2.7468772
7.339961656012233	7.3453417	2.7102292
7.357524505453039	6.882629	2.6234765
7.375087527962357	6.514409	2.552334
7.392650723957886	6.175651	2.4850857
7.410214093857353	5.834304	2.4154303
7.427777638078528	5.5474606	2.3553047
7.445341357039213	5.39359	2.3224103
7.4629052511572525	5.3331156	2.3093538
7.480469320850524	5.2975316	2.3016367
7.498033566536948	5.233801	2.2877502
7.5155979886344735	5.145954	2.2684696
7.5331625875610975	5.1209674	2.2629554
7.550727363734844	5.1345344	2.2659512
7.568292317573788	5.144337	2.2681131
7.585857449496025	5.127967	2.2645016
7.603422759919705	5.0991426	2.2581282
7.620988249263007	5.1309466	2.2651594
7.638553917944147	5.20799	2.282102
7.656119766381391	5.2988214	2.3019168
7.673685794993023	5.2744355	2.296614
7.691252004197388	5.223711	2.285544
7.70881839441285	5.185275	2.2771199
7.726384966057826	5.191643	2.2785177
7.743951719550762	5.2777677	2.2973392
7.761518655310149	5.320307	2.306579
7.779085773754511	5.3537564	2.3138187
7.796653075302419	5.3202615	2.306569
7.814220560372475	5.2680564	2.2952247
7.831788229383323	5.2880588	2.299578
7.8493560827536495	5.321734	2.3068883
7.866924120902174	5.345864	2.3121123
7.884492344247663	5.3083873	2.3039937
7.9020607532089135	5.272961	2.296293
7.919629348204771	5.2266507	2.286187
7.937198129654115	5.3100333	2.3043509
7.954767097975865	5.398306	2.3234255
7.972336253588986	5.411363	2.3262336
7.989905596912472	5.3896747	2.3215673
8.007475128365371	5.4276323	2.329728
8.025044848366756	5.511264	2.347608
8.042614757335754	5.611979	2.3689616
8.060184855691523	5.6176705	2.3701625
8.07775514385327	5.718984	2.3914397
8.095325622240228	5.802857	2.408912
8.112896291271687	5.8917994	2.4273028
8.130467151366968	5.8931894	2.4275892
8.148038202945436	5.929692	2.4350958
8.165609446426497	5.899365	2.428861
8.183180882229594	5.9184546	2.4327874
8.200752510774217	5.897583	2.428494
8.218324332479893	5.889542	2.426838
8.235896347766193	5.9264817	2.4344366
8.253468557052724	5.920422	2.4331918
8.27104096075914	5.8885274	2.4266288
8.288613559305137	5.931058	2.4353764
8.306186353110448	6.038986	2.457435
8.32375934259485	6.143687	2.478646
8.341332528178162	6.2234197	2.4946783
8.358905910280246	6.2239347	2.4947815
8.376479489321003	6.2695093	2.5038989
8.394053265720377	6.3268313	2.5153193
8.411627239898356	6.35513	2.5209384
8.42920141227497	6.3576837	2.5214448
8.44677578327029	6.324028	2.514762
8.464350353304427	6.2873106	2.507451
8.48192512279754	6.2692814	2.5038533
8.499500092169827	6.2231064	2.4946156
8.51707526184153	6.2094193	2.4918706
8.534650632232934	6.2192063	2.4938338
8.552226203764365	6.203935	2.49077
8.569801976856192	6.239138	2.4978266
8.587377951928834	6.3302393	2.5159967
8.60495412940274	6.332615	2.5164688
8.622530509698416	6.3687415	2.5236366
8.6401070932364	6.3594565	2.5217962
8.657683880437283	6.441706	2.5380516
8.675260871721695	6.619431	2.5728254
8.692838067510303	6.8190584	2.6113327
8.710415468223834	7.0815773	2.6611233
8.727993074283043	7.2835317	2.698802
8.745570886108737	7.255726	2.6936455
8.763148904121765	7.207754	2.684726
8.78072712874302	7.2225695	2.6874838
8.798305560393441	7.431515	2.7260807
8.815884199494006	7.6262803	2.7615721
8.833463046465745	7.7575727	2.7852418
8.851042101729728	7.8822346	2.8075318
8.86862136570707	8.174852	2.85917
8.886200838818924	8.356771	2.890808
8.903780521486505	8.46229	2.9090016
8.921360414131055	8.572084	2.9278123
8.938940517173874	8.690765	2.9480104
8.956520831036297	8.817061	2.9693537
8.97410135613971	8.994699	2.9991162
8.99168209290554	9.065651	3.010922
9.009263041755265	9.32021	3.052902
9.026844203110405	9.59003	3.0967772
9.044425577392525	9.76193	3.1244087
9.062007165023239	9.832911	3.1357472
9.079588966424197	10.132435	3.1831486
9.097170982017108	10.232671	3.1988547
9.11475321222372	11.3121195	3.3633494
9.132335657465825	12.189026	3.4912786
9.149918318165264	12.379606	3.5184665
9.167501194743924	12.944371	3.5978286
9.18508428762374	12.651576	3.5569055
9.202667597226693	12.694126	3.5628817
9.220251123974803	12.360927	3.515811
9.237834868290143	11.957774	3.4580014
9.255418830594836	11.693423	3.4195647
9.273003011311046	11.107727	3.3328257
9.290587410860985	10.812986	3.2883105
9.308172029666911	10.227325	3.198019
9.32575686815113	10.067598	3.172948
9.343341926735997	8.879444	2.9798396
9.360927205843916	8.556524	2.9251537
9.378512705897327	8.295993	2.8802764
9.396098427318728	7.991859	2.8269875
9.413684370530664	7.961018	2.8215277
9.431270535955722	7.899258	2.810562
9.448856924016539	7.84598	2.8010676
9.466443535135806	7.723954	2.7792003
9.484030369736251	7.6780825	2.7709353
9.501617428240658	7.6898136	2.7730513
9.519204711071852	7.7381864	2.7817595
9.536792218652714	7.82102	2.7966087
9.55437995140617	7.869419	2.8052485
9.571967909755191	7.933652	2.816674
9.589556094122802	7.887338	2.8084404
9.60714450493207	7.892568	2.8093715
9.624733142606116	7.914116	2.8132038
9.642322007568108	7.94429	2.8185618
9.659911100241267	8.009408	2.8300898
9.677500421048851	8.041367	2.8357303
9.695089970414175	8.040751	2.8356218
9.712679748760609	8.0546055	2.8380637
9.730269756511557	8.089533	2.8442104
9.747859994090492	8.13525	2.852236
9.765450461920915	8.20068	2.863683
9.78304116042639	8.195888	2.8628461
9.800632090030527	8.235855	2.869818
9.81822325115699	8.241205	2.87075
9.835814644229481	8.25859	2.8737762
9.853406269671762	8.262314	2.874424
9.870998127907646	8.2333145	2.8693752
9.888590219360985	8.241355	2.870776
9.906182544455698	8.189307	2.8616965
9.923775103615734	8.222129	2.8674254
9.941367897265108	8.207759	2.8649187
9.958960925827878	8.290543	2.8793302
9.97655418972816	8.316035	2.8837538
9.994147689390106	8.37363	2.8937225
10.011741425237934	8.347905	2.8892741
10.029335397695904	8.347304	2.8891702
10.04692960718833	8.337019	2.8873897
10.06452405413958	8.284155	2.8782208
10.082118738974064	8.168846	2.8581192
10.099713662116246	8.126362	2.8506775
10.117308823990651	8.184701	2.8608916
10.134904225021844	8.242714	2.8710127
10.152499865634445	8.275781	2.8767657
10.170095746253125	8.229287	2.8686733
10.18769186730261	8.253862	2.8729537
10.205288229207675	8.242314	2.870943
10.222884832393145	8.26872	2.875538
10.2404816772839	8.216118	2.866377
10.258078764304868	8.109108	2.8476496
10.275676093881035	8.047988	2.8368976
10.293273666437438	7.976784	2.82432
10.310871482399158	8.023728	2.8326187
10.32846954219134	8.021608	2.8322444
10.346067846239173	8.100315	2.8461053
10.363666394967908	8.094533	2.8450892
10.38126518880283	8.068297	2.8404748
10.398864228169298	8.135129	2.8522148
10.416463513492713	8.212297	2.8657107
10.434063045198531	8.147613	2.8544023
10.451662823712262	8.0838375	2.843209
10.469262849459467	8.062044	2.8393738
10.486863122865758	8.06632	2.8401268
10.504463644356806	8.157852	2.8561954
10.522064414358338	8.093777	2.8449564
10.539665433296118	8.008378	2.829908
10.557266701595987	7.9151354	2.813385
10.574868219683818	7.858755	2.803347
10.592469987985552	7.749425	2.783779
10.610072006927185	7.5974274	2.7563431
10.627674276934751	7.4361925	2.7269382
10.64527679843435	7.3076205	2.7032611
10.662879571852143	7.253097	2.6931574
10.680482597614331	7.1907215	2.6815522
10.698085876147173	7.1332817	2.6708205
10.715689407876988	7.034773	2.6523147
10.733293193230146	6.912069	2.6290815
10.750897232633072	6.8216248	2.611824
10.76850152651225	6.67156	2.5829363
10.786106075294207	6.555809	2.5604315
10.803710879405534	6.4744806	2.5445
10.821315939272877	6.4051824	2.530846
10.83892125532294	6.3216615	2.5142915
10.856526827982472	6.229339	2.4958644
10.874132657678285	6.2061744	2.4912195
10.891738744837243	6.2148433	2.4929588
10.909345089886271	6.148537	2.4796245
10.926951693252343	6.0440273	2.4584603
10.944558555362494	5.941935	2.4376085
10.96216567664381	5.9106746	2.4311879
10.979773057523436	5.8735633	2.4235435
10.997380698428573	5.7812605	2.4044251
11.014988599786477	5.6545296	2.3779254
11.032596762024461	5.605544	2.367603
11.050205185569892	5.575372	2.3612225
11.067813870850198	5.5363607	2.3529472
11.085422818292859	5.4879107	2.342629
11.10303202832541	5.4384427	2.332047
11.120641501375454	5.4064226	2.3251715
11.138251237870636	5.378084	2.3190696
11.155861238238671	5.279905	2.2978044
11.173471502907317	5.1865582	2.2774017
11.191082032304402	5.1177874	2.2622528
11.208692826857805	5.058053	2.2490115
11.226303886995465	5.0305405	2.2428865
11.243915213145371	4.966142	2.2284844
11.261526805735578	4.973756	2.230192
11.279138665194196	4.9413548	2.222916
11.296750791949393	4.9039974	2.214497
11.314363186429393	4.7842083	2.1872833
11.331975849062479	4.673868	2.1619132
11.34958878027699	4.5945	2.1434784
11.36720198050133	4.5663247	2.1368961
11.384815450163948	4.5367703	2.1299696
11.402429189693366	4.535941	2.1297748
11.420043199518153	4.4735785	2.1150835
11.437657480066942	63.405613	7.9627643
11.455272031768422	85.13563	9.226897
11.472886855051353	107.49416	10.367939
11.490501950344528	99.14072	9.9569435
11.508117318076819	84.47731	9.191154
11.52573295867715	45.86846	6.772626
11.543348872574514	4.1536045	2.0380394
11.560965060197946	4.1311655	2.032527
11.57858152197655	4.085232	2.0211957
11.59619825833949	4.0557146	2.0138805
11.613815269715985	4.0370474	2.0092404
11.631432556535323	38.555603	6.209316
11.649050119226837	83.06961	9.114253
11.666667958219929	93.44829	9.666865
11.68428607394406	107.72965	10.37929
11.701904466828756	82.55523	9.085991
11.719523137303586	65.388084	8.08629
11.737142085798196	4.637444	2.1534727
11.754761312742286	3.7777562	1.9436451
11.772380818565619	3.7511902	1.9367989
11.790000603698015	3.676185	1.917338
11.80762066856935	3.6147752	1.9012562
11.825241013609572	3.5473711	1.8834466
11.842861639248683	3.4912217	1.8684812
11.860482545916748	3.488658	1.867795
11.878103734043883	3.464705	1.8613718
11.895725204060282	3.4303715	1.8521262
11.91334695639619	3.3780994	1.8379607
11.930968991481919	3.3557382	1.8318675
11.948591309747824	3.3248384	1.823414
11.966213911624347	3.3259413	1.8237164
11.98383679754198	3.3006291	1.8167634
12.001459967931268	3.3064227	1.8183571
12.019083423222835	3.280516	1.8112195
12.036707163847352	3.2215488	1.7948674
12.05433119023556	3.2165694	1.7934797
12.071955502818259	3.1987548	1.7885063
12.089580102026313	3.2138546	1.7927227
12.107204988290643	3.1707828	1.7806692
12.12483016204224	3.124966	1.7677573
12.142455623712152	3.105557	1.762259
12.16008137373149	3.1172533	1.7655745
12.177707412531431	3.1620228	1.7782078
12.19533374054321	3.1526797	1.7755787
12.212960358198126	3.1181247	1.7658212
12.230587265927545	3.0829961	1.7558463
12.248214464162889	3.0676017	1.751457
12.265841953335649	3.039409	1.7433901
12.283469733877375	2.9967327	1.7311074
12.301097806219685	2.98	1.7262677
12.31872617079425	2.948014	1.7169782
12.336354828032825	2.9555848	1.7191814
12.353983778367205	2.917615	1.7081027
12.371613022229262	2.9108975	1.7061353
12.389242560050928	2.8634553	1.6921747
12.406872392264201	2.832494	1.6830015
12.424502519301143	2.8345566	1.6836141
12.442132941593874	2.8404763	1.6853713
12.459763659574586	2.8748467	1.6955373
12.477394673675532	2.8595982	1.6910347
12.49502598432903	2.8637993	1.6922764
12.51265759196746	2.8229172	1.680154
12.530289497023267	2.8126304	1.6770898
12.547921699928967	2.7952328	1.6718949
12.565554201117134	2.7920349	1.6709384
12.583187001020404	2.7680805	1.6637549
12.600820100071486	2.7521803	1.6589696
12.618453498703152	2.7565277	1.6602794
12.636087197348235	2.7785912	1.6669106
12.65372119643964	2.7836657	1.6684321
12.671355496410326	2.7730854	1.6652583
12.68899009769333	2.7619433	1.6619096
12.706625000721749	2.8166943	1.678301
12.724260205928752	2.9218266	1.7093351
12.741895713747551	2.958272	1.7199628
12.759531524611454	2.9991045	1.7317923
12.777167638953818	2.963306	1.7214255
12.794804057208072	3.0114217	1.7353449
12.812440779807702	3.0611992	1.7496283
12.830077807186271	3.2182899	1.7939593
12.847715139777405	3.2393975	1.7998326
12.865352778014795	3.4669962	1.8619871
12.882990722332197	3.5698726	1.8894106
12.90062897316344	3.6872048	1.9202095
12.918267530942412	3.8058577	1.9508607
12.935906396103071	3.683902	1.9193494
12.953545569079449	3.8315532	1.9574354
12.971185050305628	3.574416	1.8906126
12.988824840215775	3.5935574	1.895668
13.006464939244115	3.5902202	1.8947877
13.024105347824943	3.4579868	1.8595663
13.041746066392617	3.5166955	1.8752854
13.05938709538157	3.3149395	1.8206975
13.077028435226296	3.3479228	1.829733
13.094670086361363	3.228652	1.796845
13.112312049221401	3.1333401	1.7701243
13.129954324241112	3.0518882	1.7469654
13.147596911855258	2.893576	1.7010514
13.165239812498685	2.846015	1.6870136
13.182883026606293	2.7808282	1.6675816
13.200526554613058	2.7362604	1.6541646
13.218170396954017	2.737824	1.6546371
13.235814554064284	2.730017	1.6522763
13.253459026379034	2.721563	1.649716
13.271103814333523	2.7165415	1.6481934
13.288748918363058	2.7229006	1.6501215
13.306394338903031	2.722295	1.6499379
13.32404007638889	2.7116258	1.6467015
13.341686131256164	2.6944146	1.6414672
13.359332503940449	2.6872463	1.6392822
13.376979194877402	2.6871896	1.639265
13.394626204502751	2.695821	1.6418955
13.412273533252307	2.7246084	1.6506388
13.429921181561937	2.7162194	1.6480957
13.447569149867581	2.7230148	1.650156
13.465217438605247	2.7134717	1.6472619
13.482866048211022	2.6916912	1.6406374
13.500514979121052	2.6623092	1.6316584
13.518164231771568	2.6702037	1.6340758
13.535813806598844	2.6680462	1.6334155
13.553463704039254	2.693747	1.6412638
13.571113924529229	2.6521099	1.62853
13.588764468505275	2.6428986	1.6256994
13.606415336403956	2.6585555	1.6305077
13.624066528661917	2.6866453	1.6390989
13.641718045715882	2.7462347	1.6571767
13.659369888002635	2.7779117	1.6667068
13.67702205595903	2.8320289	1.6828632
13.694674550021993	2.8782475	1.6965399
13.712327370628532	2.951835	1.7180905
13.729980518215713	3.0809796	1.7552719
13.747633993220681	3.1682827	1.7799671
13.765287796080647	3.236954	1.7991537
13.7829419272329	3.2812984	1.8114355
13.800596387114801	3.320278	1.822163
13.818251176163775	3.3126042	1.8200561
13.835906294817324	3.3631094	1.8338783
13.853561743513023	3.3516047	1.8307388
13.871217522688525	3.411956	1.8471481
13.888873632781538	3.4317622	1.8525016
13.906530074229858	3.4701128	1.8628238
13.92418684747135	3.5241113	1.8772616
13.941843952943948	3.5087209	1.873158
13.959501391085665	3.4464076	1.8564502
13.977159162334578	3.355568	1.831821
13.994817267128846	3.2972162	1.8158238
14.012475705906693	3.2329328	1.7980359
14.030134479106424	3.1861007	1.7849652
14.047793587166414	3.1195312	1.7662195
14.065453030525108	3.0758464	1.7538091
14.083112809621026	2.9923387	1.7298378
14.100772924892766	2.919833	1.7087519
14.118433376778997	2.8923123	1.7006799
14.136094165718458	2.8442945	1.6865036
14.153755292149969	2.7623432	1.6620299
14.171416756512416	2.6936893	1.6412463
14.189078559244768	2.6543617	1.6292212
14.20674070078606	2.6293705	1.6215334
14.224403181575408	2.5908983	1.6096268
14.242066002051999	2.556678	1.5989616
14.259729162655093	2.5158281	1.5861362
14.277392663824022	2.456078	1.5671879
14.295056505998208	2.3884878	1.5454733
14.312720689617128	2.3618886	1.5368438
14.330385215120348	2.375685	1.5413257
14.348050082947497	2.4379094	1.5613806
14.3657152935383	2.400348	1.5493057
14.383380847332528	2.3854573	1.5444926
14.401046744770051	2.366591	1.5383729
14.418712986290798	2.4069226	1.5514259
14.436379572334793	2.418935	1.5552926
14.454046503342123	2.384419	1.5441564
14.471713779752946	2.377397	1.541881
14.489381402007504	2.3954496	1.547724
14.507049370546113	2.4110107	1.552743
14.524717685809168	2.3960552	1.5479196
14.542386348237134	2.3819375	1.5433527
14.560055358270553	2.3602436	1.5363084
14.577724716350051	2.3952577	1.547662
14.595394422916325	2.3892965	1.545735
14.61306447841015	2.4500403	1.5652605
14.63073488327237	2.491057	1.5783082
14.648405637943917	2.547089	1.5959603
14.6660767428658	2.5412853	1.5941409
14.683748198479094	2.5545628	1.5983
14.701420005224954	2.569934	1.6031014
14.719092163544628	2.6487384	1.6274945
14.73676467387942	2.6805596	1.6372415
14.754437536670727	2.6888912	1.6397839
14.772110752360014	2.6747234	1.6354581
14.78978432138882	2.6689243	1.6336843
14.807458244198777	2.6827774	1.6379186
14.82513252123159	2.651256	1.6282678
14.842807152929028	2.6699724	1.6340051
14.860482139732962	2.6405025	1.6249623
14.87815748208531	2.6563387	1.6298279
14.8958331804281	2.6900878	1.6401488
14.91350923520342	2.6825569	1.6378512
14.931185646853438	2.7036164	1.6442677
14.948862415820408	2.633535	1.6228169
14.966539542546656	2.622096	1.6192888
14.98421702747459	2.5920863	1.6099957
15.001894871046696	2.6411674	1.6251669
15.019573073705542	2.6647105	1.6323941
15.037251635893766	2.6578166	1.6302812
15.054930558054092	2.669621	1.6338975
15.072609840629323	2.71555	1.6478926
15.090289484062351	2.825807	1.6810137
15.107969488796124	3.0707867	1.7523661
15.125649855273691	3.4334338	1.8529527
15.14333058393817	3.9308057	1.982626
15.161011675232768	4.9623723	2.2276382
15.17869312960076	6.355598	2.5210311
15.196374947485506	8.21284	2.8658054
15.214057129330447	11.378885	3.3732603
15.231739675579114	16.125584	4.0156674
15.249422586675102	21.228102	4.6073966
15.267105863062092	24.401407	4.939778
15.284789505183847	24.743515	4.9742856
15.302473513484218	22.664825	4.760759
15.320157888407127	19.051567	4.36481
15.337842630396578	14.840454	3.852331
15.355527739896656	11.556039	3.3994174
15.37321321735153	8.984919	2.9974854
15.39089906320545	6.5128827	2.552035
15.408585277902748	4.83118	2.1979945
15.42627186188783	3.7321546	1.9318786
15.443958815605198	3.1912894	1.7864181
15.461646139499424	2.909527	1.7057335
15.479333834015168	2.7825317	1.6680923
15.497021899597165	2.7274067	1.6514863
15.514710336690234	2.677123	1.6361916
15.53239914573928	2.5907433	1.6095786
15.550088327189297	2.5085716	1.583847
15.567777881485336	2.4894307	1.577793
15.58546780907256	2.4724233	1.5723941
15.6031581103962	2.4431646	1.5630625
15.620848785901568	2.4186502	1.555201
15.638539836034063	2.4307609	1.5590898
15.656231261239173	2.4661946	1.5704123
15.673923061962451	2.4887254	1.5775695
15.691615238649552	2.4444442	1.5634718
15.709307791746202	2.3918648	1.5465655
15.727000721698221	2.3652227	1.5379281
15.744694028951498	2.382116	1.5434105
15.76238771395202	2.3717248	1.5400405
15.780081777145844	2.3773715	1.5418727
15.797776218979125	2.3653512	1.5379698
15.815471039898094	2.3526332	1.5338296
15.833166240349064	2.3325565	1.5272709
15.850861820778437	2.3278522	1.52573
15.868557781632699	2.3333747	1.5275388
15.886254123358412	2.3158362	1.5217872
15.903950846402232	2.3043692	1.5180149
15.921647951210897	2.3127642	1.5207775
15.939345438231225	2.3391862	1.5294398
15.957043307910133	2.3422508	1.5304414
15.974741560694602	2.3545787	1.5344636
15.992440197031714	2.3516529	1.53351
16.01013921736862	2.3824544	1.5435201
16.02783862215259	2.3980107	1.5485512
16.045538411830933	2.3890088	1.5456419
16.06323858685107	2.3778741	1.5420357
16.080939147660512	2.3726718	1.5403479
16.09864009470684	2.3479822	1.5323126
16.11634142843774	2.3290942	1.526137
16.134043149300954	2.3307385	1.5266757
16.15174525774433	2.346843	1.5319409
16.169447754215817	2.3806918	1.5429491
16.18715063916342	2.402011	1.5498422
16.204853913035244	2.4423082	1.5627886
16.222557576279478	2.4607058	1.5686637
16.240261629344403	22.423143	4.735308
16.257966072678386	42.94727	6.5534167
16.275670906729868	38.036785	6.167397
16.293376131947387	2.4752626	1.5732968
16.31108174877957	2.5077329	1.5835823
16.328787757675133	2.5566802	1.5989622
16.34649415908287	2.5682242	1.602568
16.364200953451657	2.558858	1.5996431
16.38190814123048	2.5926092	1.6101581
16.39961572286839	2.6327763	1.6225832
16.41732369881455	2.6870198	1.6392132
16.43503206951817	2.767209	1.663493
16.45274083542859	2.75997	1.6613157
16.47044999699522	2.8044894	1.6746609
16.488159554667558	2.804479	1.6746578
16.505869508895184	2.8625824	1.6919168
16.523579860127786	2.90041	1.703059
16.541290608815117	2.9424138	1.7153466
16.559001755407035	2.9701586	1.7234148
16.57671330035348	3.0319858	1.7412598
16.59442524410448	3.1194026	1.766183
16.61213758711015	3.196362	1.7878373
16.629850329820705	3.2539182	1.803862
16.647563472686436	3.2971678	1.8158106
16.665277016157724	3.3455045	1.829072
16.682990960685053	3.3691256	1.8355178
16.70070530671898	3.4470286	1.8566176
16.718420054710155	3.5116546	1.873941
16.736135205109335	3.560233	1.886858
16.753850758367335	3.6020613	1.8979098
16.771566714935087	3.6334362	1.9061575
16.789283075263597	3.6851864	1.9196839
16.80699983980398	3.737758	1.9333282
16.82471700900741	3.7923589	1.947398
16.84243458332518	3.8516695	1.9625671
16.860152563208665	3.93538	1.9837792
16.87787094910932	4.070806	2.017624
16.89558974147871	4.1804557	2.0446162
16.913308940768466	4.2002444	2.0494497
16.931028547430333	4.2379603	2.0586307
16.94874856191613	4.238412	2.0587404
16.966468984677785	4.3008466	2.0738482
16.98418981616729	4.326603	2.0800488
17.00191105683676	4.364351	2.089103
17.019632707138374	4.410017	2.100004
17.03735476752442	4.4444666	2.1081903
17.05507723844728	4.4540234	2.1104558
17.072800120359403	4.4751673	2.1154592
17.090523413713353	4.5106378	2.1238263
17.108247118961785	4.5722494	2.1382818
17.125971236557437	4.6151505	2.1482902
17.143695766953133	4.6764646	2.1625135
17.161420710601806	4.781549	2.1866753
17.179146067956477	4.7628245	2.1823897
17.19687183947025	4.720632	2.1727016
17.21459802559634	4.680347	2.163411
17.232324626788028	4.7064066	2.1694255
17.25005164349871	4.697392	2.1673467
17.267779076181863	4.6491723	2.156194
17.285506925291074	4.6051	2.1459496
17.30323519127999	4.613349	2.1478708
17.320963874602384	4.584089	2.1410484
17.33869297571211	4.55428	2.1340759
17.356422495063114	4.5229077	2.1267128
17.37415243310944	4.522941	2.1267207
17.391882790305218	4.455331	2.1107655
17.40961356710468	4.404925	2.0987914
17.42734476396215	4.3925567	2.0958426
17.445076381332044	4.4398665	2.107099
17.462808419668868	4.511551	2.124041
17.48054087942723	4.6626997	2.1593285
17.498273761061835	4.9686956	2.229057
17.51600706502747	5.494962	2.3441336
17.533740791779024	6.2116604	2.4923203
17.551474941771485	7.6405993	2.7641635
17.56920951545993	8.75466	2.9588275
17.586944513299528	10.999729	3.3165839
17.60467993574556	12.610108	3.5510714
17.622415783253373	14.300935	3.7816577
17.64015205627843	15.772366	3.9714437
17.657888755276293	16.963575	4.118686
17.675625880702604	17.544054	4.1885624
17.69336343301311	17.294338	4.158646
17.71110141266366	16.411057	4.0510564
17.728839820110178	15.504111	3.937526
17.746578655808705	14.547716	3.8141468
17.764317920215372	13.103915	3.6199331
17.7820576137864	11.55905	3.3998601
17.79979773697811	9.493737	3.0811908
17.81753829024692	7.535312	2.7450523
17.835279274049356	5.854007	2.4195056
17.85302068884201	4.829958	2.1977165
17.870762535081607	4.188974	2.0466983
17.888504813224934	3.8814402	1.9701371
17.90624752372891	3.690049	1.92095
17.923990667050536	3.6017792	1.8978354
17.941734243646895	3.510038	1.8735095
17.959478253975185	3.4685698	1.8624097
17.9772226984927	3.418516	1.8489228
17.994967577656833	3.3625138	1.8337158
18.01271289192506	3.3361075	1.8265015
18.030458641754965	3.316531	1.8211346
18.04820482760425	3.3362222	1.8265328
18.06595144993067	3.358479	1.8326154
18.083698509192125	3.3462982	1.829289
18.101446005846576	3.3247037	1.823377
18.119193940352105	3.2788594	1.810762
18.136942313166887	3.259314	1.8053571
18.1546911247492	3.2275105	1.7965274
18.1724403755574	3.1978981	1.7882668
18.19019006604997	3.1698267	1.7804008
18.207940196685467	3.1227527	1.7671312
18.225690767922575	3.108186	1.7630048
18.243441780220046	3.0844824	1.7562695
18.261193234036764	3.036592	1.742582
18.278945129831676	3.0072172	1.734133
18.29669746806386	3.0400913	1.7435857
18.314450249192483	3.0275826	1.739995
18.3322034736768	2.9923327	1.729836
18.349957141976184	2.9534397	1.7185575
18.3677112545501	2.9452374	1.7161694
18.385465811858108	2.970651	1.7235576
18.403220814359884	3.0092685	1.7347243
18.420976262515172	3.0601037	1.7493151
18.43873215678387	3.119262	1.7661432
18.456488497625923	3.1789126	1.7829505
18.474245285501407	3.2802343	1.8111417
18.492002520870486	3.3178308	1.8214914
18.50976020419343	3.342297	1.828195
18.527518335930615	3.6183736	1.9022024
18.545276916542516	4.2375813	2.0585387
18.563035946489688	4.448537	2.1091554
18.580795426232832	4.9372153	2.2219846
18.598555356232698	4.813667	2.194007
18.616315736950185	5.0829873	2.254548
18.63407656884626	4.6556773	2.157702
18.65183785238201	4.8247385	2.1965287
18.669599588018617	4.5938606	2.1433294
18.68736177621737	4.56143	2.1357505
18.705124417439652	4.574975	2.138919
18.72288751214696	4.390466	2.0953438
18.740651060800886	4.576006	2.1391602
18.758415063863115	4.306339	2.075172
18.77617952179546	4.5167665	2.1252687
18.793944435059814	4.2808266	2.0690157
18.811709804118184	4.22991	2.0566745
18.829475629432675	4.196262	2.048478
18.8472419114655	4.0063667	2.001591
18.86500865067897	4.1480246	2.03667
18.88277584753551	3.8148208	1.9531566
18.90054350249763	3.8662827	1.9662865
18.918311616027957	3.5134177	1.8744113
18.936080188589226	3.3945718	1.8424363
18.953849220644265	3.0781686	1.7544711
18.971618712656007	2.909427	1.7057042
18.9893886650875	2.8122666	1.6769814
19.007159078401887	7.9714265	2.8233714
19.024929953062408	32.87655	5.7338076
19.042701289532435	32.833237	5.7300296
19.060473088275405	25.39279	5.039126
19.07824534975489	2.6570666	1.6300511
19.096018074434568	2.6119509	1.6161531
19.113791262778197	2.6128948	1.6164451
19.13156491524966	2.6133745	1.6165935
19.149339032312945	2.5810637	1.6065689
19.167113614432136	2.5360165	1.5924875
19.184888662071433	2.548176	1.5963007
19.202664175695123	2.5434878	1.5948316
19.220440155767623	2.5493622	1.5966722
19.238216602753447	2.5274317	1.5897899
19.2559935171172	2.5424025	1.5944912
19.27377089932361	2.5267751	1.5895833
19.291548749837514	2.5086472	1.583871
19.309327069123835	2.5101497	1.5843452
19.32710585764763	2.4986515	1.5807123
19.344885115874032	2.4549522	1.5668287
19.362664844268313	2.428779	1.558454
19.380445043295822	2.4369829	1.5610839
19.39822571342203	2.433342	1.5599173
19.41600685511252	2.4276965	1.5581067
19.43378846883297	2.4629066	1.569365
19.451570555049173	2.4999087	1.58111
19.469353114227037	2.4889164	1.57763
19.48713614683254	2.4309518	1.559151
19.50491965333182	2.3914487	1.546431
19.52270363419109	2.4271865	1.557943
19.540488089876686	2.466382	1.5704719
19.55827302085503	2.5144424	1.5856993
19.576058427592674	2.49037	1.5780907
19.593844310556282	2.523535	1.5885638
19.611630670212598	2.5222917	1.5881724
19.629417507028506	2.47235	1.5723708
19.64720482147098	2.4331524	1.5598565
19.6649926140071	2.4513845	1.5656898
19.682780885104084	2.4904747	1.5781238
19.70056963522921	2.476328	1.5736352
19.718358864849908	2.5038114	1.5823436
19.7361485744337	2.5150023	1.5858759
19.753938764448215	2.5186977	1.5870405
19.771729435361202	2.517453	1.5866483
19.789520587640506	2.507569	1.5835305
19.807312221754092	2.493421	1.579057
19.825104338170043	2.5079935	1.5836645
19.842896937356517	2.5132535	1.5853244
19.860690019781824	2.530635	1.5907971
19.87848358591436	2.5100648	1.5843184
19.896277636222635	2.4847596	1.5763121
19.914072171175278	2.4843185	1.5761721
19.931867191241015	2.4654503	1.5701753
19.94966269688869	2.4359157	1.560742
19.967458688587264	2.4245727	1.557104
19.985255166805807	2.463576	1.5695783
20.00305213201348	2.4630532	1.5694118
20.020849584679578	2.3873384	1.5451014
20.038647525273507	2.3590927	1.5359339
20.05644595426477	2.3769186	1.5417259
20.07424487212299	2.4293172	1.5586268
20.092044279317903	2.4187586	1.5552359
20.109844176319353	2.3998704	1.5491515
20.127644563597304	2.4099565	1.5524035
20.145445441621817	2.441628	1.5625709
20.16324681086307	2.4344478	1.5602717
20.181048671791373	2.4127243	1.5532947
20.198851024877122	2.4262574	1.5576448
20.216653870590836	2.4271817	1.5579416
20.234457209403146	2.4099686	1.5524074
20.252261041784802	2.3837574	1.5439421
20.270065368206662	2.3750498	1.5411197
20.287870189139685	2.3341732	1.5278001
20.305675505054968	2.3187506	1.5227444
20.323481316423702	2.3309646	1.5267497
20.341287623717207	2.341166	1.5300869
20.359094427406884	2.304635	1.5181024
20.376901727964288	2.2823572	1.5107472
20.39470952586107	2.2927973	1.5141985
20.41251782156899	2.3323202	1.5271935
20.430326615559935	2.3448145	1.5312787
20.448135908305886	2.3151393	1.5215582
20.465945700278965	2.2779827	1.5092988
20.483755991951384	2.2637596	1.5045795
20.50156678379548	2.2904344	1.5134181
20.519378076283708	2.3088593	1.5194931
20.537189869888635	2.324144	1.5245143
20.55500216508294	2.2930226	1.5142729
20.572814962339415	2.3164544	1.5219903
20.59062826213098	2.3311737	1.5268182
20.60844206493066	2.3374941	1.5288866
20.626256371211593	2.3192601	1.5229117
20.644071181447032	2.301038	1.5169172
20.66188649611036	2.2958262	1.5151983
20.67970231567506	2.3010783	1.5169306
20.697518640614742	2.3425121	1.5305268
20.715335471403122	2.3395953	1.5295736
20.73315280851404	2.294318	1.5147007
20.750970652421447	2.2416015	1.4971979
20.768789003599412	2.2446744	1.4982238
20.786607862522136	2.2724977	1.5074806
20.8044272296639	2.2978222	1.515857
20.82224710549913	2.300181	1.5166347
20.84006749050237	2.2793617	1.5097555
20.857888385148268	3.8676293	1.9666289
20.8757097899116	45.96703	6.779899
20.893531705267254	64.80454	8.050127
20.911354131690224	83.79755	9.1541
20.92917706965566	69.0638	8.310463
20.94700051963877	50.14854	7.0815635
20.96482448211493	29.392265	5.4214635
20.982648957559622	4.1341276	2.0332553
21.00047394644843	2.2559812	1.5019925
21.01829944925707	2.2629027	1.5042948
21.036125466461375	2.2392328	1.4964067
21.053951998537297	2.225197	1.4917095
21.071779045960906	2.2411127	1.4970347
21.089606609208378	2.2592907	1.5030937
21.10743468875603	2.2459981	1.4986655
21.12526328508028	2.2071025	1.4856321
21.143092398657675	2.154788	1.4679196
21.16092202996488	2.1638513	1.4710035
21.17875217947867	2.2064347	1.4854072
21.19658284767596	2.2446876	1.4982282
21.21441403503377	2.2225933	1.4908365
21.232245742029225	2.1771388	1.4755131
21.2500779691396	2.1076932	1.4517896
21.26791071684227	2.138745	1.4624449
21.28574398561475	2.1700447	1.4731071
21.30357777593465	2.1670756	1.4720991
21.321412088279704	2.158664	1.4692392
21.339246923127792	2.1468513	1.4652138
21.357082280956888	2.14963	1.4661617
21.3749181622451	2.1140072	1.4539626
21.392754567470647	2.1392503	1.4626176
21.41059149711187	2.1326828	1.4603708
21.42842895164726	2.120379	1.4561521
21.446266931555378	2.112584	1.4534731
21.464105437314945	2.1562622	1.4684217
21.481944469404798	2.179771	1.4764048
21.49978402830388	2.1512368	1.4667095
21.51762411449127	2.1001089	1.4491752
21.53546472844617	2.0751722	1.4405458
21.553305870647876	2.0710044	1.4390985
21.571147541575865	2.1165342	1.4548314
21.58898974170967	2.1100676	1.4526072
21.60683247152899	2.0595396	1.4351096
21.62467573151363	2.024867	1.4229783
21.642519522143523	2.0233595	1.4224484
21.660363843898722	2.0355635	1.4267317
21.6782086972594	2.0515296	1.4323162
21.696054082705864	2.051808	1.4324133
21.713900000718535	2.0531697	1.4328886
21.73174645177795	2.065732	1.4372655
21.749593436364794	2.0449667	1.4300233
21.767440954959845	2.0353117	1.4266435
21.785289008044032	2.0399995	1.4282855
21.803137596098388	2.0556822	1.433765
21.820986719604086	2.0432467	1.4294218
21.838836379042412	2.0331666	1.4258915
21.85668657489478	2.01166	1.4183301
21.87453730764273	2.0099318	1.4177207
21.892388577767914	2.005203	1.4160519
21.91024038575213	2.017172	1.4202719
21.928092732077285	2.009508	1.4175711
21.945945617225426	1.9905012	1.4108512
21.963799041678694	1.9636222	1.401293
21.981653005919398	31.292986	5.594013
21.999507510429943	78.104866	8.837696
22.01736255569286	73.06868	8.548022
22.035218142190818	4.1799307	2.044488
22.05307427040661	2.0139937	1.4191525
22.07093094082315	2.026211	1.4234504
22.088788153923474	2.0149677	1.4194956
22.106645910190746	1.978255	1.4065045
22.12450421010827	1.9815494	1.4076751
22.142363054159464	1.9696082	1.4034272
22.16022244282787	1.9699191	1.4035381
22.178082376597164	1.9713557	1.4040498
22.195942855951145	1.9637402	1.4013351
22.213803881373742	1.9647074	1.4016802
22.231665453349002	1.9862921	1.4093587
22.24952757236111	1.9759493	1.4056846
22.26739023889438	1.9487761	1.3959857
22.28525345343323	1.9216282	1.3862281
22.30311721646225	1.9413654	1.3933289
22.320981528466113	1.9873838	1.409746
22.33884638992964	1.9887091	1.410216
22.356711801337788	1.973138	1.4046843
22.37457776317561	1.953671	1.3977379
22.392444275928337	1.9479063	1.3956741
22.410311340081282	1.9747418	1.4052551
22.428178956119904	1.9831946	1.4082594
22.446047124529805	1.9844159	1.408693
22.46391584579669	1.973111	1.4046746
22.481785120406414	1.9295483	1.3890818
22.49965494884496	1.903026	1.379502
22.51752533159841	1.9018757	1.3790851
22.53539626915302	1.9022864	1.379234
22.553267761995137	1.9079977	1.381303
22.571139810611264	1.9253725	1.3875779
22.589012415488025	1.9533094	1.3976085
22.60688557711216	1.9352349	1.3911272
22.624759295970566	1.9322928	1.3900694
22.642633572550263	1.9030545	1.3795124
22.660508407338362	1.9103701	1.3821614
22.67838380082217	1.9460791	1.3950194
22.696259753489077	1.9855849	1.4091078
22.714136265826614	1.9868273	1.4095486
22.73201333832246	1.9617003	1.4006071
22.74989097146439	1.9609629	1.4003439
22.76776916574035	1.9448179	1.3945673
22.785647921638393	1.9408686	1.3931506
22.803527239646712	1.9367582	1.3916746
22.82140712025363	1.9434627	1.3940814
22.839287563947593	1.9388108	1.3924118
22.85716857121719	1.9240294	1.3870939
22.875050142551135	1.9103296	1.3821467
22.892932278438277	1.9300125	1.3892488
22.910814979367604	1.9630903	1.4011033
22.928698245828222	2.0015476	1.4147606
22.946582078309387	1.9665828	1.402349
22.96446647730047	1.9316742	1.3898468
22.98235144329098	1.9153907	1.3839765
23.000236976770562	1.9107255	1.3822899
23.018123078229	1.910232	1.3821114
23.03600974815619	1.9464912	1.3951671
23.053896987042194	1.9437486	1.3941839
23.071784795377173	1.9254655	1.3876114
23.08967317365145	1.9336137	1.3905444
23.10756212235546	1.9682072	1.4029281
23.125451641979787	1.9405833	1.3930482
23.143341733015134	1.9217938	1.3862878
23.161232395952357	1.9422697	1.3936534
23.179123631282426	1.9718009	1.4042083
23.197015439496468	1.9652658	1.4018793
23.214907821085717	1.9114141	1.382539
23.23280077654157	1.9133879	1.3832526
23.250694306355538	1.8994241	1.378196
23.268588411019277	1.9267153	1.3880616
23.28648309102458	1.9328325	1.3902634
23.304378346863356	1.9334345	1.3904799
23.322274179027676	1.9488802	1.396023
23.340170588009723	1.9332566	1.390416
23.358067574301852	1.9402411	1.3929254
23.37596513839651	1.9204025	1.3857859
23.39386328078629	1.906334	1.3807006
23.411762001963947	1.8726665	1.3684541
23.429661302422353	1.8718346	1.3681501
23.4475611826545	1.851355	1.360645
23.46546164315356	1.8800272	1.3711408
23.48336268441279	1.8937156	1.3761234
23.501264306925638	1.9074398	1.3811009
23.51916651118564	1.91022	1.3821071
23.537069297686497	1.9111011	1.3824258
23.554972666922037	1.8942504	1.3763177
23.57287661938623	1.8833005	1.372334
23.59078115557318	1.8640687	1.365309
23.608686275977128	1.8690835	1.3671443
23.62659198109246	1.8602519	1.3639106
23.6444982714137	1.8951263	1.3766359
23.66240514743549	1.9216886	1.3862498
23.68031260965263	1.9745393	1.405183
23.698220658560068	1.9566	1.3987851
23.716129294652845	1.9100755	1.3820548
23.7340385184262	1.8613255	1.3643041
23.75194833037546	1.8846061	1.3728095
23.769858730996123	1.8673487	1.3665097
23.78776972078382	1.8653392	1.3657742
23.80568130023431	1.8719035	1.3681753
23.823593469843495	1.8665073	1.3662018
23.841506230107424	1.8922788	1.3756013
23.859419581522275	1.922024	1.3863708
23.87733352458438	1.916964	1.3845447
23.89524805979019	1.8965776	1.3771629
23.913163187636318	1.8851388	1.3730036
23.931078908619508	1.9153543	1.3839632
23.948995223236633	1.9589344	1.3996193
23.966912131984735	2.017511	1.4203911
23.98482963536096	2.0617363	1.4358748
24.002747733862616	2.028515	1.4242595
24.020666427987155	2.008944	1.4173722
24.038585718232156	2.0101566	1.4178
24.056505605095353	2.024559	1.42287
24.074426089074617	2.045403	1.4301759
24.092347170667946	2.0353456	1.4266554
24.110268850373515	2.0095792	1.4175962
24.128191128689586	1.9930886	1.4117678
24.146114006114626	1.9979528	1.4134896
24.164037483147187	2.002659	1.4151534
24.181961560286005	2.018728	1.4208195
24.199886238029926	2.043353	1.429459
24.21781151687797	2.0582738	1.4346685
24.235737397329274	2.0708208	1.4390347
24.253663879883135	2.0640516	1.4366808
24.271590965038975	2.0658522	1.4373072
24.289518653296376	2.0924535	1.4465315
24.30744694515505	2.1227973	1.4569823
24.32537584111486	2.1487803	1.4658719
24.34330534167581	2.1050346	1.4508737
24.361235447338046	2.0473576	1.430859
24.379166158601876	2.0053632	1.4161085
24.39709747596772	2.0047102	1.4158779
24.41502939993615	2.0093608	1.4175192
24.432961931007917	1.9992546	1.41395
24.450895069683856	2.0225806	1.4221746
24.468828816465	2.0429823	1.4293293
24.4867631718525	1.9893423	1.4104404
24.504698136347656	1.9337592	1.3905967
24.52263371045192	1.9050734	1.380244
24.540569894666874	1.9418789	1.3935132
24.558506689494266	1.9462692	1.3950875
24.57644409543597	1.943172	1.393977
24.594382112994012	1.9499527	1.3964071
24.61232074267057	1.932569	1.3901687
24.630259984967953	1.911893	1.3827122
24.64819984038863	1.9181471	1.3849719
24.66614030943522	1.9667991	1.4024261
24.684081392610462	2.0081222	1.4170823
24.702023090417274	2.0180342	1.4205753
24.7199654033587	2.0284445	1.4242347
24.737908331937927	2.0031562	1.415329
24.755851876658305	2.0014722	1.414734
24.773796038023324	2.0148509	1.4194545
24.79174081653661	2.0288775	1.4243867
24.809686212701962	2.063802	1.4365939
24.827632227023294	2.1090112	1.4522434
24.8455788600047	2.1346622	1.4610484
24.8635261121504	2.0947318	1.4473188
24.88147398396475	2.0916176	1.4462426
24.899422475952303	2.1071584	1.4516054
24.917371588617698	2.1230972	1.4570851
24.935321322465768	2.2019155	1.4838853
24.953271678001478	2.2816746	1.5105213
24.97122265572994	2.498332	1.5806112
24.989174256156414	2.836756	1.6842672
25.00712647978632	3.250395	1.8028852
25.02507932712521	3.8032937	1.9502035
25.043032798678798	4.3208227	2.0786588
25.060986894952933	4.9824	2.232129
25.078941616453637	5.6838636	2.3840854
25.096896963687055	6.654193	2.5795722
25.114852937159508	7.8238983	2.7971232
25.132809537377444	8.380292	2.8948734
25.150766764847468	8.408239	2.8996964
25.168724620076347	7.786091	2.7903569
25.186683103570985	6.683873	2.5853188
25.204642215838426	5.506272	2.3465447
25.222601957385894	4.2015424	2.0497663
25.24056232872074	3.187662	1.7854024
25.25852333035048	2.5561316	1.5987906
25.276484962782778	2.2099192	1.4865797
25.294447226525435	2.0550494	1.4335444
25.312410122086423	1.971604	1.4041382
25.330373649973843	1.9054612	1.3803844
25.348337810695988	1.8734565	1.3687427
25.366302604761245	1.85528	1.3620867
25.384268032678207	1.8416082	1.3570586
25.40223409495558	1.8902292	1.3748561
25.420200792102257	1.942982	1.3939089
25.438168124627246	1.9471983	1.3954204
25.45613609303974	1.9328974	1.3902868
25.474104697849057	1.8962691	1.3770509
25.492073939564698	1.8614018	1.364332
25.510043818696285	1.8308755	1.3530985
25.528014335753614	1.8415699	1.3570446
25.54598549124664	1.8888073	1.3743389
25.56395728568544	1.8890189	1.3744159
25.58192971958028	1.8289833	1.3523991
25.59990279344156	1.7884827	1.3373417
25.617876507779833	1.8164555	1.3477595
25.635850863105826	1.8359327	1.3549659
25.653825859930386	1.8360648	1.3550147
25.671801498764548	1.8599731	1.3638083
25.68977778011949	1.8891873	1.3744771
25.707754704506524	1.8445998	1.3581605
25.725732272437153	1.8226405	1.350052
25.743710484423012	1.8579497	1.3630663
25.761689340975888	1.8668433	1.3663248
25.77966884260774	1.8744177	1.3690938
25.797648989830662	1.8617862	1.3644729
25.815629783156922	1.8771098	1.3700765
25.83361122309895	1.8760235	1.36968
25.85159331016929	1.874788	1.369229
25.869576044880695	1.8467681	1.3589585
25.887559427746034	1.8407835	1.3567548
25.90554345927836	1.8469539	1.3590268
25.92352813999086	1.826978	1.3516575
25.94151347039689	1.8137678	1.346762
25.959499451009965	1.8080088	1.3446221
25.97748608234374	1.8136733	1.3467269
25.995473364912062	1.8105263	1.3455579
26.013461299228904	1.8229734	1.3501753
26.03144988580839	1.8363314	1.355113
26.04943912516483	1.8793297	1.3708864
26.067429017812675	1.8646424	1.365519
26.085419564266537	1.8448405	1.3582491
26.103410765041186	1.8079052	1.3445836
26.12140262065155	1.8464024	1.3588239
26.139395131612723	1.8560435	1.3623669
26.157388298439948	1.8481803	1.359478
26.17538212164861	1.8467463	1.3589505
26.193376601754295	1.8636879	1.3651695
26.211371739272714	1.8225127	1.3500047
26.229367534719746	1.7740308	1.3319274
26.247363988611433	1.7890409	1.3375504
26.26536110146397	1.8510436	1.3605306
26.283358873793727	1.8247516	1.3508337
26.301357306117204	1.8040932	1.3431654
26.319356398951104	1.7917873	1.3385766
26.33735615281224	1.8173617	1.3480955
26.35535656821762	1.8073901	1.3443921
26.373357645684404	1.8429743	1.357562
26.39135938572991	1.8748492	1.3692514
26.409361788871614	1.877994	1.3703992
26.427364855627165	1.8657013	1.3659067
26.445368586514352	1.8071969	1.3443202
26.46337298205115	1.7914215	1.33844
26.48137804275568	1.7838877	1.3356225
26.499383769146217	1.8221433	1.3498679
26.517390161741215	1.7878865	1.3371187
26.53539722105928	1.7942998	1.3395147
26.553404947619182	1.7881863	1.3372308
26.571413341939856	1.7841055	1.3357041
26.589422404540397	1.7773635	1.333178
26.60743213594006	1.8025709	1.3425986
26.62544253665827	1.8490279	1.3597896
26.64345360721459	1.8524106	1.3610328
26.66146534812879	1.8195865	1.3489205
26.679477759920758	1.8296878	1.3526596
26.69749084311057	1.8099841	1.3453565
26.71550459821847	1.7667195	1.32918
26.733519025764842	1.7968348	1.3404607
26.751534126270258	1.7729384	1.3315173
26.769549900255434	1.7720903	1.3311988
26.787566348241267	1.8181754	1.3483974
26.80558347074881	1.825011	1.3509297
26.823601268299267	1.7765929	1.332889
26.841619741414036	1.7281451	1.3145894
26.85963889061465	1.7568758	1.3254719
26.877658716422832	1.793366	1.3391662
26.89567921936045	1.7776421	1.3332825
26.913700399949544	1.7733935	1.3316882
26.93172225871233	1.7896205	1.337767
26.949744796171174	1.8048394	1.3434432
26.967768012848605	1.8174031	1.3481109
26.98579190926733	1.8189627	1.3486892
27.003816485950225	1.7981116	1.3409368
27.021841743420318	1.7747637	1.3322026
27.039867682200814	1.772061	1.3311878
27.057894302815072	1.7753596	1.3324262
27.07592160578664	1.7903374	1.3380349
27.0939495916392	1.8301412	1.3528271
27.111978260896635	1.8427118	1.3574653
27.13000761408296	1.8095124	1.3451812
27.148037651722397	1.7970654	1.3405467
27.166068374339304	1.791119	1.3383269
27.184099782458215	1.8242956	1.3506649
27.20213187660384	1.7743795	1.3320583
27.22016465730105	1.7623243	1.3275256
27.23819812507487	1.7402822	1.3191975
27.256232280450533	1.7621514	1.3274605
27.274267123953383	1.7446942	1.3208687
27.292302656108987	1.7482228	1.3222038
27.31033887744306	1.7375787	1.3181725
27.32837578848146	1.7720138	1.3311701
27.34641338975026	1.767621	1.3295192
27.364451681775673	1.7703158	1.3305322
27.382490665084074	1.8027266	1.3426566
27.400530340202046	1.8294797	1.3525826
27.41857070765629	1.8305719	1.3529863
27.436611767973726	1.7840378	1.3356788
27.454653521681404	1.7349979	1.3171932
27.472695969306564	1.7690594	1.3300599
27.490739111376627	1.7884312	1.3373224
27.508782948419153	1.7405827	1.3193115
27.526827480961902	1.7453972	1.3211348
27.54487270953279	1.808457	1.3447888
27.562918634659898	1.8180531	1.348352
27.580965256871508	1.8011123	1.3420552
27.599012576696026	1.8347567	1.3545319
27.617060594662068	1.8649148	1.3656188
27.63510931129842	1.8276635	1.3519111
27.65315872713401	1.7514421	1.3234206
27.67120884269797	1.767728	1.3295593
27.68925965851958	1.8106686	1.3456109
27.707311175128307	1.8446763	1.3581886
27.725363393053787	1.9164926	1.3843744
27.74341631282583	1.9764116	1.4058491
27.7614699349744	1.9187444	1.3851875
27.77952426002968	2.0372486	1.4273221
27.797579288521973	2.0818608	1.4428655
27.815635020981784	2.4593134	1.5682198
27.83369145793979	2.5739286	1.6043468
27.85174859992682	2.5261183	1.5893767
27.869806447473923	2.3613656	1.5366735
27.887865001112267	2.0056868	1.4162227
27.905924261373233	1.8871313	1.373729
27.92398422878836	1.8786365	1.3706336
27.94204490388936	1.8238473	1.3504989
27.96010628720813	1.7933499	1.3391601
27.978168379276728	1.8125851	1.3463228
27.9962311806274	1.8646708	1.3655294
28.014294691792568	1.8892972	1.3745171
28.0323589133048	1.8685805	1.3669603
28.050423845696887	1.8446258	1.35817
28.068489489501758	1.8456168	1.3585348
28.086555845252523	1.8488761	1.3597338
28.104622913482487	1.850411	1.3602982
28.122690694725115	1.8674511	1.3665471
28.14075918951405	1.881659	1.3717358
28.15882839838312	1.864751	1.3655589
28.176898321866304	1.8675137	1.36657
28.1949689604978	1.8457671	1.3585901
28.213040314811945	1.7794368	1.3339553
28.23111238534327	1.810388	1.3455065
28.249185172626493	1.8515505	1.3607169
28.267258677196473	1.8622504	1.364643
28.285332899588294	1.8766035	1.3698918
28.303407840337172	1.9043996	1.3799999
28.321483499978545	1.9399585	1.3928239
28.33955987904799	1.9592289	1.3997246
28.357636978081285	1.9084699	1.3814738
28.37571479761439	1.8752728	1.369406
28.393793338183425	1.8999037	1.3783699
28.41187260032469	1.9748156	1.4052813
28.429952584574686	1.9966912	1.4130433
28.448033291470065	1.9443139	1.3943865
28.46611472154769	1.9442904	1.3943782
28.484196875344566	1.9365877	1.3916134
28.502279753397914	1.9447343	1.3945373
28.52036335624511	1.9473436	1.3954725
28.538447684423716	1.9523661	1.3972709
28.556532738471482	1.9659733	1.4021317
28.574618518926325	1.9502077	1.3964983
28.59270502632635	1.9334683	1.3904921
28.61079226120985	1.9117161	1.3826482
28.628880224115274	1.9423964	1.3936988
28.646968915581287	1.9671444	1.4025493
28.66505833614671	2.0404122	1.42843
28.68314848635055	2.0491552	1.4314871
28.701239366732004	2.0478485	1.4310305
28.71933097783044	2.0483873	1.4312189
28.737423320185403	2.0831642	1.443317
28.75551639433665	2.1452916	1.4646814
28.773610200824074	2.1420834	1.4635859
28.791704740187793	2.1552305	1.4680704
28.80980001296809	2.1710973	1.4734644
28.827896019705413	2.1464758	1.4650856
28.845992760940433	2.1748457	1.4747359
28.86409023721397	2.2129757	1.4876074
28.88218844906704	2.2361412	1.4953732
28.900287397040845	2.2307987	1.4935858
28.918387081676755	2.1954632	1.4817096
28.936487503516343	2.2484736	1.4994911
28.954588663101365	2.3285282	1.5259515
28.97269056097374	2.3219047	1.5237797
28.990793197675597	2.2938569	1.5145484
29.00889657374923	2.3114529	1.5203463
29.027000689737125	2.3511627	1.5333501
29.04510554618196	2.3749418	1.5410846
29.06321114362659	2.4524844	1.566041
29.08131748261405	2.4821656	1.575489
29.099424563687567	2.4575317	1.5676516
29.11753238739057	2.5042708	1.5824888
29.13564095426663	2.587263	1.6084971
29.15375026485954	2.6064358	1.6144459
29.171860319713275	2.57176	1.6036707
29.18997111937199	2.6077979	1.6148678
29.20808266438002	2.6485417	1.6274341
29.226194955281898	2.7125268	1.646975
29.244307992622335	2.77034	1.6644338
29.26242177694624	2.8813639	1.697458
29.2805363087987	2.9302757	1.7118047
29.29865158872498	2.9204736	1.7089393
29.316767617270557	2.853812	1.689323
29.334884394981064	2.842496	1.6859703
29.353001922402367	2.8806849	1.697258
29.37112020008047	2.9758039	1.7250519
29.389239228561596	3.193919	1.7871538
29.407359008392152	3.3654277	1.8345102
29.42547954011872	3.691193	1.9212478
29.44360082428809	4.302831	2.0743268
29.46172286144722	5.3501735	2.3130443
29.479845652143283	6.8332787	2.614054
29.497969196923606	9.068338	3.0113683
29.516093496335728	11.749539	3.4277601
29.5342185509274	14.635505	3.8256378
29.55234436124651	16.995344	4.122541
29.570470927841175	18.36102	4.284976
29.588598251259686	18.134417	4.2584524
29.60672633205055	16.740124	4.09147
29.624855170762405	14.483019	3.8056562
29.642984767944146	11.739838	3.4263446
29.66111512414481	8.969011	2.9948308
29.67924623991366	6.6417365	2.5771568
29.697378115800138	5.135848	2.2662408
29.71551075235387	4.1324067	2.0328321
29.733644150124675	3.660401	1.9132174
29.751778309662576	3.478828	1.8651617
29.769913231517766	3.4498827	1.857386
29.78804891624066	3.3694654	1.8356104
29.806185364381818	3.322386	1.8227414
29.82432257649206	3.2549434	1.8041462
29.842460553122333	3.2495282	1.8026447
29.86059929482382	3.1951215	1.7874902
29.878738802147872	3.194442	1.7873002
29.896879075646048	3.2118807	1.7921721
29.915020115870114	3.243225	1.8008957
29.933161923371976	3.255125	1.8041965
29.951304498703777	3.2231534	1.7953143
29.969447842417857	3.2032712	1.7897685
29.987591955066733	3.2221777	1.7950425
30.005736837203123	3.2555451	1.804313
30.023882489379943	3.247349	1.8020402
30.04202891215028	3.2054205	1.7903688
30.060176106067455	3.1642277	1.7788277
30.078324071684946	3.1595073	1.7775003
30.09647280955646	3.1472936	1.7740613
30.114622320235863	3.1668458	1.7795634
30.132772604277257	3.0973587	1.7599314
30.1509236622349	3.067251	1.7513568
30.16907549466328	3.046184	1.7453321
30.18722810211705	2.9937956	1.7302588
30.205381485151097	3.0097353	1.7348589
30.22353564432045	3.0579665	1.7487042
30.241690580180403	3.0529413	1.7472668
30.25984629328638	3.0493062	1.7462263
30.278002784194037	2.9983838	1.7315842
30.296160053459246	2.9592526	1.7202479
30.314318101638033	2.9126856	1.7066592
30.332476929286646	2.9077573	1.7052147
30.35063653696153	2.8691301	1.6938506
30.368796925219307	2.881268	1.6974298
30.386958094616844	2.8937857	1.7011131
30.40512004571115	2.9144824	1.7071855
30.423282779059463	2.873539	1.6951516
30.441446295219233	2.8289256	1.681941
30.459610594748067	2.7890706	1.6700511
30.47777567820382	2.7655163	1.6629841
30.495941546144504	2.780008	1.6673356
30.51410819912835	2.767241	1.6635026
30.532275637713795	2.7796936	1.6672413
30.55044386245946	2.8350616	1.6837641
30.56861287392416	2.8909957	1.7002928
30.586782672666956	2.8554204	1.689799
30.604953259247047	2.7720733	1.6649544
30.623124634223885	2.752978	1.6592101
30.641296798157075	2.771052	1.6646477
30.659469751606462	2.7576833	1.6606274
30.677643495132074	2.7303932	1.6523901
30.695818029294152	2.7223523	1.6499553
30.713993354653116	2.7549796	1.6598132
30.73216947176962	2.813549	1.6773638
30.75034638120448	2.771561	1.6648005
30.768524083518756	2.704437	1.6445173
30.786702579273673	2.7017124	1.6436887
30.80488186903069	2.7356567	1.653982
30.82306195335144	2.9084501	1.7054179
30.841242832797782	3.1560807	1.7765361
30.85942450793176	3.4945207	1.8693637
30.877606979315637	3.8683915	1.9668227
30.895790247511883	4.2441344	2.0601296
30.913974313083134	4.633934	2.1526575
30.932159176592283	4.889084	2.2111273
30.95034483860237	4.8705707	2.2069368
30.968531299676698	4.6605706	2.1588354
30.98671856037873	4.4459147	2.1085339
31.00490662127215	4.0178905	2.0044677
31.023095482920848	3.5081763	1.8730127
31.04128514588892	3.076334	1.7539481
31.059475610740662	2.752847	1.6591705
31.07766687804056	2.5723073	1.6038414
31.09585894835335	2.565251	1.6016401
31.11405182224393	2.6354606	1.6234102
31.132245500277417	2.5220826	1.5881066
31.15043998301914	2.3952003	1.5476434
31.168635271034628	2.3778167	1.5420171
31.18683136488964	2.4854388	1.5765275
31.20502826515008	2.5517633	1.5974239
31.223225972382135	2.5476274	1.596129
31.241424487152155	2.5219555	1.5880666
31.259623810026692	2.5064993	1.5831927
31.27782394157253	2.4944227	1.5793742
31.296024882356644	2.5034964	1.5822442
31.314226632946237	2.4095128	1.5522605
31.332429193908684	2.3414679	1.5301856
31.350632565811598	2.3542137	1.5343447
31.368836749222787	2.3950112	1.5475824
31.387041744710295	2.4458807	1.5639311
31.40524755284232	2.4939315	1.5792186
31.423454174187317	2.565105	1.6015944
31.441661609313922	2.5189211	1.587111
31.459869858791002	2.4438157	1.5632708
31.478078923187628	2.4251318	1.5572835
31.496288803073064	2.408266	1.5518589
31.514499499016807	2.3182395	1.5225766
31.532711011588546	2.2515547	1.5005182
31.550923341358178	2.2762284	1.5087175
31.56913648889584	2.3353922	1.5281991
31.587350454771844	2.348565	1.5325029
31.605565239556732	2.3009784	1.5168977
31.62378084382127	2.3303182	1.526538
31.641997268136382	2.4265633	1.557743
31.660214513073274	2.4251654	1.5572942
31.67843257920331	2.3325155	1.5272576
31.6966514670981	2.2806966	1.5101975
31.71487117732944	2.247783	1.4992608
31.733091710469346	2.2380455	1.4960098
31.751313067090052	2.2368135	1.4955981
31.769535247764008	2.242794	1.4975961
31.787758253063878	2.2391663	1.4963844
31.805982083562526	2.2539334	1.5013106
31.824206739833024	2.2169042	1.4889271
31.84243222244869	2.2245734	1.4915004
31.860658531983013	2.2964776	1.5154133
31.878885669009737	2.2987924	1.5161769
31.897113634102784	2.2538338	1.5012773
31.91534242783632	2.2507994	1.5002664
31.933572050784694	2.3155494	1.5216929
31.951802503522508	2.2788892	1.509599
31.970033786624548	2.2293134	1.4930885
31.988265900665834	2.1867807	1.4787768
32.006498846221575	2.221418	1.4904422
32.02473262386724	2.2152307	1.488365
32.04296723417845	2.167208	1.472144
32.0612026777311	2.0805914	1.4424255
32.07943895510129	2.079628	1.4420916
32.097676066865304	2.073467	1.4399538
32.115914013599685	2.0786123	1.4417393
32.13415279588115	2.1167684	1.4549118
32.152392414286666	2.1623971	1.4705092
32.1706328693934	2.2176182	1.489167
32.18887416177875	2.1719453	1.4737521
32.20711629202032	2.1451867	1.4646456
32.225359260695924	2.1310012	1.4597949
32.243603068383614	2.13887	1.4624876
32.26184771566166	2.1194022	1.4558166
32.28009320310852	2.053659	1.4330593
32.2983395313029	2.0345898	1.4263904
32.31658670082372	2.0909984	1.4460285
32.33483471225012	2.0763216	1.4409447
32.35308356616143	2.0135467	1.4189949
32.371333263137245	2.0396147	1.4281508
32.38958380375734	2.0602126	1.4353441
32.407835188601744	2.0669153	1.437677
32.42608741825067	2.1088839	1.4521997
32.444340493284585	2.087681	1.444881
32.46259441428416	2.1193867	1.4558114
32.48084918183028	2.0608633	1.4355707
32.49910479650405	2.000029	1.4142238
32.51736125888683	2.0447736	1.4299558
32.53561856956014	2.05141	1.4322743
32.5538767291058	2.0020676	1.4149444
32.572135738105764	1.9866096	1.4094714
32.59039559714228	2.0664048	1.4374995
32.608656306797776	2.0942445	1.4471505
32.62691786765491	2.0952017	1.4474812
32.645180280296586	2.0676363	1.4379277
32.663443545305896	2.0744057	1.4402797
32.68170766326619	2.0815918	1.4427723
32.69997263476099	2.0201232	1.4213104
32.7182384603741	1.9649401	1.4017632
32.7365051406895	2.022567	1.4221698
32.75477267629144	2.102181	1.44989
32.77304106776434	2.153782	1.4675769
32.79131031569289	2.129739	1.4593625
32.809580420661966	2.0651248	1.4370542
32.827851383256714	2.0689156	1.4383726
32.84612320406245	1.9960338	1.4128106
32.86439588366476	1.9778247	1.4063516
32.88266942264945	1.9713923	1.4040627
32.9009438216025	2.055617	1.4337423
32.9192190811102	2.0849297	1.4439286
32.937495201758985	2.1042001	1.4505861
32.95577218413556	2.0742679	1.4402319
32.974050028826866	2.0574324	1.4343753
32.992328736420035	2.0265574	1.4235721
33.010608307502444	1.9854693	1.4090668
33.02888874266169	1.9492906	1.39617
33.047170042485604	1.9900072	1.4106761
33.06545220756225	1.9996094	1.4140755
33.083735238479896	1.9492556	1.3961574
33.10201913582707	1.934194	1.390753
33.12030390019248	2.018551	1.4207572
33.138589532165135	2.0144615	1.4193172
33.15687603233419	1.9410607	1.3932196
33.17516340128909	1.9246186	1.3873062
33.19345163961947	1.9491309	1.3961128
33.211740747915215	1.9958047	1.4127295
33.23003072676643	2.0532284	1.432909
33.248321576763466	2.012895	1.4187653
33.266613298496885	1.9547689	1.3981305
33.28490589255747	1.8965399	1.3771492
33.30319935953626	1.9199197	1.3856117
33.32149370002451	1.9045428	1.3800517
33.339788914613706	1.8879956	1.3740435
33.358085003895575	1.8179402	1.3483101
33.376381968462034	1.8095188	1.3451836
33.39467980890529	1.8180773	1.348361
33.41297852581774	1.7787882	1.3337122
33.43127811979204	1.8648252	1.365586
33.44957859142105	1.9575449	1.399123
33.467879941297866	1.9807601	1.4073948
33.486182170015844	2.0150476	1.4195237
33.50448527816853	2.0181177	1.4206047
33.522789266349754	1.9746866	1.4052354
33.541094135153514	1.9481429	1.3957589
33.55939988517411	1.9423681	1.3936887
33.57770651700602	1.9932657	1.4118307
33.59601403124398	2.0143611	1.419282
33.61432242848296	1.9567968	1.3988556
33.632631709318154	1.9390999	1.3925157
33.650941874344994	1.9384524	1.3922832
33.66925292415916	1.9589581	1.3996278
33.68756485935654	1.9996471	1.4140888
33.70587768053328	1.9868219	1.4095467
33.724191388285746	1.836513	1.35518
33.74250598321054	1.7462773	1.3214679
33.760821465904506	1.7778498	1.3333603
33.77913783696474	1.8391119	1.3561386
33.79745509698852	1.9705608	1.4037666
33.815773246573414	1.9782805	1.4065136
33.8340922863172	1.930083	1.3892742
33.852412216817896	1.9432737	1.3940135
33.87073303867377	2.034947	1.4265157
33.889054752483304	1.9643381	1.4015485
33.907377358845245	1.9425714	1.3937616
33.92570085835853	1.9469227	1.3953217
33.94402525162239	2.0539153	1.4331487
33.96235053923627	1.9911222	1.4110713
33.980676721799824	1.947125	1.3953942
33.999003799912984	1.9776794	1.4062998
34.01733177417592	2.1334112	1.4606202
34.03566064518901	2.1379282	1.4621656
34.0539904135529	1.9915553	1.4112247
34.07232107986846	1.8655518	1.365852
34.090652644736785	1.8616754	1.3644322
34.108985108759235	1.9334564	1.3904878
34.12731847253742	1.9349433	1.3910224
34.14565273667313	2.0145757	1.4193575
34.16398790176847	2.071093	1.4391292
34.18232396842574	1.938072	1.3921466
34.20066093724749	1.8412408	1.3569232
34.21899880883651	1.8748231	1.3692418
34.23733758379583	2.081561	1.4427617
34.25567726272874	2.083897	1.443571
34.27401784623872	1.9330231	1.390332
34.29235933492957	1.9244978	1.3872627
34.31070172940526	2.0363612	1.4270113
34.32904503027003	2.1221511	1.4567605
34.347389238128386	2.1078224	1.4518342
34.36573435358502	2.0629082	1.4362828
34.38408037724492	2.0092309	1.4174734
34.402427309713296	2.0402324	1.428367
34.42077515159559	2.0981362	1.4484944
34.43912390349752	2.0319376	1.4254605
34.45747356602499	2.0960312	1.4477676
34.47582413978423	2.1523206	1.4670789
34.49417562538163	2.2012298	1.4836543
34.51252802342388	2.1956844	1.4817842
34.53088133451789	2.2086089	1.4861389
34.54923555927084	2.1854634	1.4783313
34.567590698290104	2.0134413	1.4189578
34.58594675218336	1.9998887	1.4141742
34.6043037215585	2.1036463	1.4503952
34.62266160702365	2.0966141	1.447969
34.641020409187234	1.9962891	1.4129009
34.65938012865785	1.9976299	1.4133754
34.677740766044394	2.097036	1.4481146
34.69610232195598	2.0824072	1.4430548
34.714464797002016	1.8893834	1.3745484
34.73282819179208	1.9337853	1.390606
34.751192506936064	1.9702137	1.403643
34.76955774304408	2.1133497	1.4537364
34.7879239007265	2.0814123	1.44271
34.80629098059391	1.7703159	1.3305322
34.824658983257194	1.8145481	1.3470516
34.843027909327446	1.9558473	1.398516
34.86139775941603	1.9245188	1.3872703
34.879768534134534	1.9816397	1.4077072
34.89814023409483	2.206088	1.4852905
34.91651285990901	2.164908	1.4713626
34.93488641218944	1.962078	1.4007419
34.95326089154871	1.838867	1.3560482
34.97163629859967	1.6862786	1.2985679
34.99001263395542	1.7721868	1.331235
35.00838989822934	1.9812595	1.4075722
35.02676809203499	1.9538487	1.3978014
35.04514721598624	1.7825286	1.3351138
35.063527270697215	1.8639903	1.3652803
35.081908256782256	1.9639426	1.4014074
35.10029017485597	1.9978254	1.4134445
35.11867302553321	2.0410845	1.4286653
35.137056809429104	2.1395395	1.4627165
35.155441527159006	2.0426478	1.4292123
35.173827179338524	1.8609973	1.3641838
35.19221376658354	1.9426401	1.3937862
35.21060128951017	2.0174618	1.4203738
35.2289897487348	1.9549371	1.3981906
35.24737914487405	1.9121774	1.382815
35.26576947854479	1.9669098	1.4024656
35.28416075036418	1.8974873	1.3774931
35.30255296094958	1.9487443	1.3959743
35.32094611091867	2.1547308	1.4679002
35.33934020088932	2.1686988	1.4726503
35.35773523147969	1.7710836	1.3308207
35.3761312033082	1.8561676	1.3624125
35.394528116993506	2.0642638	1.4367546
35.41292597315452	1.9376172	1.3919832
35.431324772410434	1.9341339	1.3907315
35.449724515380666	2.1521928	1.4670354
35.46812520268491	2.043272	1.4294306
35.486526834943106	2.1298032	1.4593846
35.504929412775454	2.2418947	1.4972959
35.52333293680242	2.169618	1.4729623
35.54173740764471	1.9427923	1.3938408
35.560142825923286	1.8630109	1.3649216
35.5785491922594	1.939178	1.3925437
35.59695650727454	1.9768221	1.405995
35.61536477159042	1.8569168	1.3626873
