0.008763373481513119	0.3822274	0.6182454
0.026290120649546365	0.3426002	0.5853206
0.043816868432600686	0.26197764	0.51183754
0.06134361724069026	0.24779238	0.49778748
0.07887036748382949	0.2768453	0.5261609
0.0963971195720331	0.27757552	0.52685434
0.11392387391531617	0.33002424	0.5744774
0.1314506309236943	0.2889586	0.5375487
0.1489773910071836	0.18893191	0.434663
0.16650415457580078	0.13149281	0.36261937
0.18403092203956356	0.044984404	0.21209528
0.20155769380849	0.038603164	0.19647688
0.2190844702925996	0.069716	0.26403788
0.2366112519019124	0.081452124	0.2853982
0.2541380390464497	0.131384	0.36246932
0.27166483213623416	0.1141864	0.3379148
0.28919163158128947	0.14144711	0.37609455
0.3067184377916406	0.13837622	0.37198955
0.324245251177314	0.11395287	0.33756906
0.34177207214833777	0.089660235	0.2994332
0.3592989011147415	0.05814056	0.24112354
0.37682573848655654	0.077023506	0.2775311
0.39435258467381573	0.0759098	0.27551734
0.41187944008655414	0.08030521	0.28338173
0.42940630513480854	0.101368435	0.3183841
0.446933180228618	0.16897267	0.41106287
0.4644600657780234	0.23863068	0.4884984
0.48198696219306775	0.26604086	0.5157915
0.49951386988379676	0.24301983	0.4929704
0.5170407892602581	0.22661476	0.47604072
0.5345677207325025	0.19724518	0.44412294
0.5520946647105822	0.1847875	0.42986917
0.5696216216045534	0.16407523	0.405062
0.5871485918244737	0.13351148	0.36539224
0.6046755757804043	0.10755643	0.327958
0.6222025738824094	0.12469899	0.35312745
0.6397295865405557	0.12411218	0.35229558
0.6572566141649129	0.11221386	0.33498338
0.6747836571655547	0.1274315	0.3569755
0.6923107159525568	0.14607733	0.38220066
0.7098377909359992	0.14099574	0.375494
0.7273648825259653	0.1442052	0.3797436
0.7448919911325411	0.13793723	0.37139902
0.762419117165817	0.15152648	0.38926402
0.7799462610358868	0.17391497	0.41703114
0.7974734231528482	0.19170542	0.43784177
0.8150006039268024	0.2099837	0.4582398
0.8325278037678551	0.20381041	0.45145366
0.8500550230861152	0.2239865	0.47327211
0.8675822622916969	0.19761263	0.44453642
0.8851095217947171	0.20405357	0.4517229
0.9026368020052984	0.261597	0.51146555
0.9201641033335665	0.26875752	0.5184183
0.9376914261896523	0.2498429	0.49984288
0.9552187709836915	0.23360837	0.4833305
0.9727461381258234	0.26077354	0.51065993
0.990273528026193	0.2790297	0.52823263
1.0078009410949496	0.26736498	0.51707345
1.0253283777422473	0.27037624	0.51997715
1.0428558383782454	0.29582137	0.54389465
1.0603833234131086	0.30444732	0.55176747
1.0779108332570058	0.31258485	0.5590929
1.0954383683201119	0.34530964	0.5876305
1.112965929012607	0.38696942	0.62206864
1.1304935157446763	0.49698386	0.70497084
1.1480211289265108	0.55542856	0.7452708
1.1655487689683062	1.4165637	1.1901948
1.1830764362802655	1.737188	1.3180243
1.200604131272596	2.1502848	1.4663849
1.2181318543555117	2.377645	1.5419614
1.235659605939232	2.4690416	1.5713184
1.253187386433982	3.9761217	1.9940215
1.270715196249994	6.3620815	2.5223167
1.2882430357975057	11.79735	3.434727
1.3057709054867608	16.56754	4.0703244
1.3232988057280106	22.287523	4.7209663
1.3408267369315112	26.653996	5.1627507
1.358354699507526	30.355665	5.509598
1.3758826938663256	34.189533	5.847182
1.3934107204181858	36.341637	6.0284023
1.410938779573391	36.962463	6.079676
1.4284668717422309	37.59569	6.1315327
1.4459949973350033	37.54766	6.1276145
1.4635231567620117	37.650085	6.135967
1.4810513504335687	37.39123	6.114837
1.4985795787599925	36.72916	6.0604587
1.5161078421516088	35.980595	5.9983826
1.5336361410187505	34.99455	5.915619
1.5511644757717598	34.965977	5.9132037
1.5686928468209842	35.23543	5.935944
1.58622125457678	35.921276	5.993436
1.6037496994495108	37.272343	6.105108
1.621278181849548	37.650276	6.135982
1.6388067021872719	38.521202	6.206545
1.6563352608730693	37.502567	6.123934
1.673863858317336	36.342205	6.0284495
1.6913924949304753	35.491146	5.9574447
1.7089211711228998	34.377934	5.86327
1.7264498873050296	33.874672	5.820195
1.7439786438872935	33.002415	5.744773
1.7615074412801288	31.841187	5.6427994
1.779036279893981	30.875729	5.5565934
1.796565160139305	29.989212	5.4762406
1.814094082426564	29.483822	5.4299006
1.8316230471662298	28.64519	5.35212
1.849152054768784	28.007387	5.2922006
1.8666811056447168	27.32504	5.227336
1.8842102002045273	26.419275	5.1399684
1.901739338858724	25.766964	5.076117
1.9192685220178245	25.097326	5.009723
1.9367977500923557	24.537973	4.953582
1.9543270234928547	24.278826	4.927355
1.971856342629867	23.668211	4.8649983
1.9893857079139496	23.39999	4.8373537
2.006915119755667	23.012897	4.797176
2.0244445785655945	22.299988	4.722286
2.0419740847543175	21.687794	4.6570153
2.0595036387324317	21.440657	4.630406
2.0770332409105414	21.006	4.5832305
2.094562891699263	20.712814	4.551133
2.1120925915092217	20.08756	4.481915
2.129622340751053	19.546873	4.4211845
2.1471521398354043	187.58907	13.696316
2.1646819891729323	443.8251	21.067158
2.182211889174303	440.1695	20.980217
2.1997418402501974	452.7738	21.278482
2.2172718428113023	432.80383	20.803938
2.234801897268317	320.87415	17.91296
2.2523320040319548	17.47467	4.1802716
2.269862163512935	17.24025	4.1521378
2.287392376121992	16.945553	4.1164975
2.304922642269869	16.300472	4.0373845
2.322452962367322	15.782872	3.9727664
2.3399833368251164	15.209041	3.899877
2.357513766054032	14.976816	3.8699892
2.3750442504648586	14.686923	3.8323522
2.3925747904683963	14.573306	3.8174999
2.410105386475459	14.454392	3.8018932
2.4276360388968707	14.391336	3.7935915
2.445166748143469	14.172151	3.7645917
2.4626975146261025	13.769068	3.7106695
2.4802283387556323	13.465054	3.669476
2.4977592209429305	13.387164	3.6588473
2.5152901615988825	13.13601	3.6243634
2.5328211611343865	12.952238	3.5989218
2.5503522199603523	12.684807	3.5615737
2.5678833384877024	12.589495	3.5481677
2.5854145171273712	12.357345	3.5153015
2.6029457562903064	12.047342	3.4709282
2.620477056387469	11.82529	3.438792
2.6380084178298326	11.672811	3.4165494
2.655539841028383	11.479603	3.3881562
2.673071326394119	11.327727	3.365669
2.6906028743380523	10.979484	3.3135304
2.708134485271211	10.745341	3.2780087
2.7256661596046325	10.724381	3.27481
2.743197897749369	10.7745075	3.2824545
2.760729700116486	10.815834	3.2887435
2.778261567117063	10.460631	3.23429
2.795793499162193	10.173205	3.1895463
2.8133254966629817	9.974774	3.1582866
2.830857560030551	9.902406	3.1468089
2.8483896896760337	9.873431	3.1422017
2.865921886010578	9.70491	3.1152706
2.883454149445347	9.503797	3.0828228
2.9009864803915177	9.333076	3.0550082
2.91851887926028	9.124248	3.020637
2.9360513464628384	9.038653	3.0064354
2.953583882410413	8.882379	2.980332
2.9711164875142373	8.776032	2.962437
2.9886491621855606	8.611544	2.9345431
3.0061819068356455	8.509704	2.9171395
3.023714721875769	8.479128	2.9118943
3.041247607717225	8.571506	2.9277134
3.0587805647713213	8.487313	2.9132993
3.0763135934493806	8.294832	2.880075
3.0938466941627407	8.107898	2.8474371
3.1113798673227544	7.995361	2.827607
3.1289131133407904	7.940885	2.8179576
3.1464464326282315	7.88655	2.8083003
3.1639798255964786	7.8033037	2.7934394
3.1815132926569443	7.6396704	2.7639954
3.1990468342210603	7.565651	2.750573
3.216580450700272	7.462863	2.7318242
3.2341141425060416	7.293538	2.7006552
3.251647910049847	7.2153277	2.6861362
3.2691817537431813	7.0564666	2.6564012
3.286715673997555	7.1671505	2.6771533
3.3042496712244938	7.136551	2.6714323
3.32178374583554	7.0968394	2.6639893
3.339317898242251	7.059099	2.6568966
3.3568521288562034	6.9431086	2.6349778
3.3743864380889876	6.965721	2.6392653
3.3919208263522127	6.9513335	2.6365383
3.4094552940575023	6.7659416	2.6011424
3.4269898416164972	6.6000657	2.5690594
3.444524469440858	6.469388	2.5434992
3.4620591779422587	6.4829464	2.546163
3.479593967532391	6.5445137	2.5582247
3.4971288386229658	6.495512	2.5486295
3.5146637916257086	6.492195	2.5479786
3.5321988269523628	6.434008	2.5365348
3.5497339450146903	6.402481	2.5303125
3.5672691462244708	6.3867273	2.5271976
3.5848044309934988	6.3220735	2.5143733
3.60233979973359	6.2637973	2.502758
3.619875252856575	6.2684546	2.503688
3.6374107907743034	6.2553086	2.5010614
3.6549464138986427	6.307934	2.51156
3.6724821226414788	6.2959247	2.5091681
3.690017917414714	6.2942524	2.5088348
3.7075537986302702	6.1879416	2.4875574
3.7250897667000857	6.216231	2.493237
3.7426258220361235	6.415402	2.5328643
3.7601619650503553	6.791127	2.6059792
3.777698196154779	7.3889246	2.7182577
3.7952345157614067	8.412918	2.9005032
3.8127709242822716	9.229402	3.037993
3.830307422129425	11.457716	3.384925
3.847844009714936	30.211575	5.4965057
3.8653806874508954	97.66631	9.882627
3.882917455749409	96.97353	9.847514
3.900454315022606	96.9022	9.843891
3.917991265682631	41.58761	6.4488454
3.9355283081416506	11.164509	3.3413334
3.9530654428118495	8.888698	2.981392
3.970602670105433	7.50332	2.739219
3.9881399904346244	6.6336403	2.5755854
4.005677404211669	6.5267234	2.5547452
4.023214911848827	6.470929	2.543802
4.0407525137583855	6.4870152	2.546962
4.058290210352644	6.4425526	2.5382185
4.075828002043927	6.313586	2.512685
4.0933658892445814	6.280975	2.5061872
4.110903872366966	6.225892	2.4951737
4.128441951823468	6.2471085	2.4994216
4.145980128026488	6.2346206	2.4969223
4.163518401388452	6.180917	2.486145
4.181056772321807	6.072168	2.464177
4.1985952412390155	6.1134477	2.4725387
4.216133808552567	6.1365714	2.4772105
4.233672474674966	6.2583094	2.5016613
4.251211240018741	6.3977532	2.529378
4.268750104996445	6.643572	2.5775127
4.286289070020643	7.5226426	2.7427437
4.303828135503928	9.172617	3.0286329
4.3213673018589125	29.632963	5.443617
4.3389065694982305	90.89359	9.533813
4.356445938834537	166.20425	12.892023
4.3739854102805085	171.52864	13.096894
4.391524984248844	172.34602	13.128062
4.409064661152262	136.35112	11.676949
4.426604441403504	96.64059	9.830594
4.444144325415337	75.73124	8.70237
4.461684313600543	21.814312	4.6705794
4.47922440637193	22.142345	4.7055655
4.496764604142329	20.365408	4.512805
4.5143049073245916	18.445631	4.294838
4.531845316331589	16.36667	4.045574
4.5493858315762195	13.383942	3.658407
4.566926453471405	11.16109	3.3408217
4.584467182430081	9.121976	3.0202608
4.602008018865218	8.071555	2.8410482
4.619548963189798	7.4028616	2.72082
4.637090015816834	6.923265	2.6312099
4.654631177159353	6.7507186	2.5982144
4.672172447630417	6.510554	2.5515788
4.689713827643102	6.3268995	2.515333
4.7072553176105085	6.089872	2.4677665
4.724796917945764	5.938378	2.4368787
4.742338629062015	5.758064	2.3995967
4.759880451372434	5.7044907	2.3884075
4.777422385290215	5.6743684	2.3820932
4.794964431228581	5.659363	2.3789415
4.812506589600768	5.661336	2.3793561
4.830048860820047	5.6004486	2.3665266
4.847591245299709	5.6062226	2.3677464
4.8651337434530655	5.548503	2.355526
4.882676355693457	5.5589123	2.3577347
4.900219082434242	5.5458364	2.35496
4.917761924088813	5.524454	2.3504157
4.935304881070575	5.5625157	2.3584986
4.952847953792969	5.4805465	2.3410566
4.970391142669449	5.4159966	2.3272293
4.9879344481135055	5.3208685	2.3067007
5.005477870538642	5.2717295	2.2960248
5.023021410358394	5.3275447	2.3081474
5.040565067986324	5.370249	2.3173797
5.05810884383601	5.4087205	2.3256657
5.075652738321066	5.382076	2.31993
5.09319675185512	5.359766	2.315117
5.110740884851836	5.317206	2.3059068
5.128285137724894	5.268136	2.295242
5.145829510888007	5.2712855	2.295928
5.163374004754908	5.3366413	2.3101172
5.1809186197393595	5.36382	2.3159924
5.198463356255145	5.4769278	2.3402836
5.216008214716077	5.4326253	2.3307993
5.233553195535998	5.419296	2.327938
5.251098299128764	5.345624	2.3120606
5.268643525908272	5.278969	2.2976007
5.286188876288432	5.2323356	2.2874298
5.3037343506831895	5.2326846	2.287506
5.32127994950651	5.2058496	2.2816331
5.3388256731723915	5.2167273	2.2840157
5.356371522094851	5.220283	2.2847939
5.373917496687938	5.213733	2.28336
5.391463597365729	5.230014	2.2869225
5.40900982454232	5.213905	2.2833977
5.426556178631843	5.211494	2.2828696
5.444102660048449	5.195279	2.2793155
5.4616492692063225	5.158993	2.2713416
5.479196006519669	5.1561313	2.2707117
5.496742872402727	5.0832505	2.2546065
5.514289867269756	5.033255	2.2434916
5.531836991535049	5.0544853	2.2482183
5.549384245612924	4.9761305	2.230724
5.566931629917724	4.9815516	2.231939
5.584479144863822	4.989619	2.2337456
5.6020267908656205	5.1162033	2.2619026
5.619574568337545	5.1989474	2.2801201
5.637122477694054	5.2285337	2.2865987
5.654670519349629	5.1678123	2.2732823
5.672218693718784	5.1240363	2.2636335
5.689767001216059	4.9958196	2.235133
5.707315442256021	4.9548426	2.2259476
5.724864017253266	4.938945	2.2223737
5.7424127266224225	5.030484	2.2428741
5.75996157077814	5.1330442	2.2656224
5.777510550135105	5.137081	2.266513
5.795059665108022	5.0984507	2.2579749
5.812608916111639	5.126714	2.2642248
5.830158303560715	5.29136	2.3002956
5.847707827870055	5.307423	2.3037846
5.86525748945448	5.41707	2.32746
5.8828072887288485	5.528845	2.3513496
5.900357226108044	5.5729194	2.3607032
5.917907302006979	5.6338043	2.3735635
5.9354575168406	6.249815	2.499963
5.9530078710238765	6.9231086	2.63118
5.970558364971812	7.463639	2.731966
5.988108999099438	7.8753858	2.8063118
6.005659773821818	8.279877	2.8774774
6.023210689554039	7.9873276	2.826186
6.040761746711227	8.390594	2.8966522
6.058312945708531	7.7864785	2.7904263
6.075864286961132	7.36438	2.7137392
6.093415770884244	6.725058	2.5932717
6.1109673978931065	6.159522	2.4818385
6.128519168402993	5.4768834	2.3402743
6.146071082829204	5.37902	2.3192716
6.163623141587075	5.2906938	2.3001509
6.181175345091969	5.253331	2.2920146
6.198727693759281	5.2280936	2.2865026
6.216280188004435	5.1289186	2.2647116
6.233832828242885	5.1111684	2.2607894
6.251385614890126	5.122405	2.263273
6.268938548361669	5.08088	2.2540808
6.286491629073067	5.071851	2.252077
6.304044857439898	5.069485	2.2515516
6.321598233877777	5.0325093	2.2433255
6.339151758802344	5.0060635	2.2374234
6.356705432629277	4.9764395	2.2307935
6.37425925577428	4.927043	2.2196944
6.391813228653095	4.9669023	2.2286549
6.409367351681486	4.9947014	2.2348828
6.426921625275259	5.010061	2.2383165
6.44447604985025	4.97959	2.2314994
6.46203062582232	4.9971037	2.2354202
6.47958535360737	5.0358706	2.2440746
6.497140233621328	5.033569	2.2435617
6.514695266280161	5.026072	2.2418902
6.532250451999859	5.028402	2.24241
6.549805791196454	4.9886436	2.2335272
6.567361284286002	5.0232244	2.241255
6.584916931684597	5.035688	2.2440338
6.602472733808367	5.0281863	2.2423618
6.6200286910734665	4.993781	2.2346768
6.637584803896092	4.9726586	2.229946
6.655141072692462	4.9270525	2.2196965
6.672697497878842	4.9016414	2.2139652
6.690254079871514	4.871024	2.2070396
6.707810819086808	4.8594775	2.2044222
6.725367715941078	4.8562493	2.20369
6.742924770850719	4.8829784	2.2097461
6.760481984232151	4.913734	2.2166944
6.778039356501836	4.9537754	2.2257078
6.795596888076266	4.9662156	2.2285008
6.813154579371963	4.937659	2.2220843
6.830712430805492	4.9598	2.2270608
6.84827044279344	4.952587	2.225441
6.865828615752445	4.9507203	2.2250214
6.883386950099159	4.952396	2.2253978
6.900945446250287	4.990223	2.2338808
6.918504104622553	5.056232	2.2486067
6.936062925632727	5.079565	2.253789
6.953621909697607	5.071944	2.2520978
6.971181057234028	5.1030264	2.258988
6.988740368658859	5.161924	2.2719867
7.006299844389007	5.2028155	2.2809682
7.023859484841407	5.2343173	2.287863
7.041419290433036	5.2519555	2.2917144
7.058979261580902	5.3869467	2.3209796
7.0765393987020495	5.5855255	2.3633716
7.094099702213559	5.9986343	2.449211
7.111660172532549	6.3804235	2.52595
7.129220810076164	6.703564	2.5891242
7.146781615261595	7.257832	2.6940365
7.16434258850606	7.477541	2.7345092
7.181903730226821	7.9428244	2.8183017
7.1994650408411704	8.169128	2.8581686
7.217026520766437	8.353273	2.890203
7.234588170419983	8.580725	2.9292874
7.252149990219215	8.539232	2.9221964
7.269711980581568	8.40419	2.898998
7.2872741419245175	8.1728325	2.8588166
7.304836474665574	7.6984677	2.7746112
7.322398979222286	7.3362637	2.7085538
7.339961656012233	7.0636673	2.657756
7.357524505453039	6.787522	2.6052873
7.375087527962357	6.529646	2.5553172
7.392650723957886	6.2509623	2.5001924
7.410214093857353	5.916264	2.432337
7.427777638078528	5.69044	2.3854644
7.445341357039213	5.54138	2.3540137
7.4629052511572525	5.3884673	2.3213072
7.480469320850524	5.3358583	2.3099477
7.498033566536948	5.2682714	2.2952716
7.5155979886344735	5.2218533	2.2851374
7.5331625875610975	5.2006574	2.280495
7.550727363734844	5.12771	2.2644448
7.568292317573788	5.1344724	2.2659373
7.585857449496025	5.1450553	2.2682714
7.603422759919705	5.1632175	2.2722714
7.620988249263007	5.20288	2.2809823
7.638553917944147	5.2625675	2.2940288
7.656119766381391	5.2575	2.292924
7.673685794993023	5.213029	2.2832057
7.691252004197388	5.1038704	2.2591748
7.70881839441285	5.07904	2.2536726
7.726384966057826	5.0507326	2.2473836
7.743951719550762	5.104093	2.259224
7.761518655310149	5.1744337	2.274738
7.779085773754511	5.216496	2.2839649
7.796653075302419	5.2440376	2.2899864
7.814220560372475	5.1877384	2.2776608
7.831788229383323	5.193157	2.27885
7.8493560827536495	5.236865	2.2884197
7.866924120902174	5.314657	2.305354
7.884492344247663	5.321864	2.3069165
7.9020607532089135	5.2800527	2.2978365
7.919629348204771	5.2442136	2.2900248
7.937198129654115	5.268273	2.2952719
7.954767097975865	5.295638	2.3012254
7.972336253588986	5.28496	2.298904
7.989905596912472	5.2556257	2.292515
8.007475128365371	5.2464166	2.2905056
8.025044848366756	5.3110785	2.3045778
8.042614757335754	5.4653	2.337798
8.060184855691523	5.5542808	2.3567522
8.07775514385327	5.6700706	2.381191
8.095325622240228	5.7380877	2.3954306
8.112896291271687	5.806424	2.4096522
8.130467151366968	5.855706	2.4198565
8.148038202945436	5.840882	2.4167917
8.165609446426497	5.892677	2.4274836
8.183180882229594	5.9307566	2.4353144
8.200752510774217	5.9287586	2.4349043
8.218324332479893	5.9459176	2.4384253
8.235896347766193	5.8980246	2.4285848
8.253468557052724	5.9308233	2.4353282
8.27104096075914	5.948939	2.4390447
8.288613559305137	6.0712447	2.4639895
8.306186353110448	6.1409845	2.478101
8.32375934259485	6.20137	2.4902549
8.341332528178162	6.1099405	2.4718294
8.358905910280246	6.1810637	2.4861746
8.376479489321003	6.156227	2.4811745
8.394053265720377	6.2295775	2.495912
8.411627239898356	6.206309	2.4912465
8.42920141227497	6.2468057	2.499361
8.44677578327029	6.2384477	2.4976885
8.464350353304427	6.2931566	2.5086164
8.48192512279754	6.255205	2.5010407
8.499500092169827	6.2349653	2.4969912
8.51707526184153	6.195161	2.489008
8.534650632232934	6.1877394	2.4875166
8.552226203764365	6.2369323	2.497385
8.569801976856192	6.241492	2.4982977
8.587377951928834	6.307302	2.5114343
8.60495412940274	6.2970114	2.5093846
8.622530509698416	6.3057675	2.5111287
8.6401070932364	6.3924084	2.5283213
8.657683880437283	6.4989047	2.549295
8.675260871721695	6.6462793	2.578038
8.692838067510303	6.837121	2.614789
8.710415468223834	7.0173616	2.6490302
8.727993074283043	7.1531405	2.6745355
8.745570886108737	7.115581	2.6675045
8.763148904121765	7.0895634	2.6626234
8.78072712874302	7.1090097	2.6662726
8.798305560393441	7.3038774	2.7025688
8.815884199494006	7.4312987	2.7260408
8.833463046465745	7.625085	2.7613556
8.851042101729728	7.779565	2.7891872
8.86862136570707	8.114184	2.8485408
8.886200838818924	8.264507	2.8748057
8.903780521486505	8.240966	2.8707082
8.921360414131055	8.259809	2.8739882
8.938940517173874	8.507535	2.9167678
8.956520831036297	8.746056	2.9573731
8.97410135613971	9.022611	3.003766
8.99168209290554	9.113605	3.0188746
9.009263041755265	9.317176	3.0524049
9.026844203110405	9.5288315	3.0868804
9.044425577392525	9.73404	3.1199424
9.062007165023239	9.930308	3.1512392
9.079588966424197	10.260763	3.2032425
9.097170982017108	10.365225	3.219507
9.11475321222372	11.380753	3.373537
9.132335657465825	12.2453575	3.4993367
9.149918318165264	12.368096	3.5168304
9.167501194743924	13.002802	3.6059399
9.18508428762374	12.713444	3.5655916
9.202667597226693	12.7447815	3.5699835
9.220251123974803	12.386251	3.5194106
9.237834868290143	12.005761	3.4649332
9.255418830594836	11.77383	3.4313016
9.273003011311046	11.201275	3.3468306
9.290587410860985	10.938431	3.30733
9.308172029666911	10.30402	3.2099876
9.32575686815113	10.085226	3.1757245
9.343341926735997	8.886833	2.981079
9.360927205843916	8.580835	2.9293063
9.378512705897327	8.294502	2.8800178
9.396098427318728	7.94731	2.8190973
9.413684370530664	7.830264	2.798261
9.431270535955722	7.7901754	2.7910886
9.448856924016539	7.7929187	2.79158
9.466443535135806	7.7768435	2.7886992
9.484030369736251	7.780386	2.7893343
9.501617428240658	7.7264633	2.7796516
9.519204711071852	7.782051	2.7896328
9.536792218652714	7.7777915	2.7888691
9.55437995140617	7.846829	2.8012192
9.571967909755191	7.8404984	2.8000891
9.589556094122802	7.9116178	2.8127599
9.60714450493207	7.924041	2.8149674
9.624733142606116	7.881285	2.8073626
9.642322007568108	7.824701	2.7972667
9.659911100241267	7.853126	2.802343
9.677500421048851	7.98194	2.8252327
9.695089970414175	8.061914	2.8393512
9.712679748760609	8.040644	2.835603
9.730269756511557	7.9510674	2.8197637
9.747859994090492	7.9699264	2.8231058
9.765450461920915	7.9938745	2.8273442
9.78304116042639	8.128921	2.8511262
9.800632090030527	8.193164	2.8623703
9.81822325115699	8.301996	2.8813186
9.835814644229481	8.249102	2.872125
9.853406269671762	8.208795	2.8650994
9.870998127907646	8.176729	2.859498
9.888590219360985	8.226481	2.8681843
9.906182544455698	8.208055	2.8649702
9.923775103615734	8.277057	2.8769875
9.941367897265108	8.299538	2.8808918
9.958960925827878	8.344324	2.8886545
9.97655418972816	8.254172	2.8730075
9.994147689390106	8.182278	2.8604681
10.011741425237934	8.183313	2.860649
10.029335397695904	8.23342	2.8693938
10.04692960718833	8.287104	2.878733
10.06452405413958	8.315952	2.8837392
10.082118738974064	8.273719	2.8764074
10.099713662116246	8.193009	2.8623433
10.117308823990651	8.189341	2.8617024
10.134904225021844	8.15006	2.854831
10.152499865634445	8.163703	2.8572195
10.170095746253125	8.148941	2.854635
10.18769186730261	8.227297	2.8683264
10.205288229207675	8.228229	2.8684888
10.222884832393145	8.170784	2.8584583
10.2404816772839	8.075324	2.8417115
10.258078764304868	8.087579	2.8438668
10.275676093881035	8.085921	2.8435755
10.293273666437438	8.034048	2.8344398
10.310871482399158	8.076439	2.8419075
10.32846954219134	8.096014	2.8453496
10.346067846239173	8.192875	2.86232
10.363666394967908	8.253261	2.8728487
10.38126518880283	8.297355	2.880513
10.398864228169298	8.38308	2.8953547
10.416463513492713	8.350641	2.8897476
10.434063045198531	8.30333	2.88155
10.451662823712262	8.231955	2.8691382
10.469262849459467	8.135817	2.8523352
10.486863122865758	8.078115	2.8422027
10.504463644356806	8.07407	2.8414907
10.522064414358338	8.027182	2.833228
10.539665433296118	7.944655	2.8186264
10.557266701595987	7.845984	2.8010683
10.574868219683818	7.7529697	2.7844155
10.592469987985552	7.743872	2.7827814
10.610072006927185	7.644221	2.7648184
10.627674276934751	7.4738455	2.7338336
10.64527679843435	7.293574	2.7006617
10.662879571852143	7.1354675	2.6712296
10.680482597614331	7.12591	2.66944
10.698085876147173	7.1202164	2.6683733
10.715689407876988	7.0682645	2.6586208
10.733293193230146	6.930166	2.632521
10.750897232633072	6.7701807	2.601957
10.76850152651225	6.6591287	2.5805287
10.786106075294207	6.5553803	2.5603478
10.803710879405534	6.513162	2.5520897
10.821315939272877	6.4610777	2.541865
10.83892125532294	6.4138308	2.5325541
10.856526827982472	6.3284225	2.5156357
10.874132657678285	6.3231683	2.514591
10.891738744837243	6.2249413	2.4949832
10.909345089886271	6.12398	2.4746675
10.926951693252343	6.06958	2.463652
10.944558555362494	5.9709654	2.4435558
10.96216567664381	5.962006	2.441722
10.979773057523436	5.8750067	2.4238412
10.997380698428573	5.7806206	2.404292
11.014988599786477	5.6876187	2.384873
11.032596762024461	5.621189	2.3709047
11.050205185569892	5.6111836	2.3687937
11.067813870850198	5.578896	2.3619688
11.085422818292859	5.550701	2.3559926
11.10303202832541	5.512681	2.34791
11.120641501375454	5.494491	2.344033
11.138251237870636	5.4039316	2.3246357
11.155861238238671	5.2385054	2.288778
11.173471502907317	5.122759	2.2633512
11.191082032304402	5.0881505	2.255693
11.208692826857805	5.0830603	2.2545643
11.226303886995465	5.032122	2.2432392
11.243915213145371	4.9499035	2.2248378
11.261526805735578	4.859394	2.2044034
11.279138665194196	4.8226185	2.196046
11.296750791949393	4.75573	2.1807637
11.314363186429393	4.7206335	2.1727018
11.331975849062479	4.6257424	2.150754
11.34958878027699	4.609706	2.1470225
11.36720198050133	4.596338	2.143907
11.384815450163948	4.587588	2.1418655
11.402429189693366	4.5350685	2.12957
11.420043199518153	4.444336	2.1081593
11.437657480066942	63.374344	7.9608006
11.455272031768422	85.12384	9.226258
11.472886855051353	107.53122	10.369726
11.490501950344528	99.13859	9.956837
11.508117318076819	84.43943	9.189093
11.52573295867715	45.775608	6.7657676
11.543348872574514	4.0937414	2.0232997
11.560965060197946	4.0540695	2.013472
11.57858152197655	4.060167	2.0149856
11.59619825833949	4.048618	2.0121179
11.613815269715985	4.057716	2.0143774
11.631432556535323	38.53618	6.2077513
11.649050119226837	83.068886	9.114213
11.666667958219929	93.49421	9.66924
11.68428607394406	107.76413	10.38095
11.701904466828756	82.5773	9.087205
11.719523137303586	65.36129	8.084633
11.737142085798196	4.5418334	2.1311579
11.754761312742286	3.6373248	1.9071772
11.772380818565619	3.612859	1.9007522
11.790000603698015	3.64457	1.9090757
11.80762066856935	3.6138947	1.9010247
11.825241013609572	3.564281	1.8879304
11.842861639248683	3.479263	1.8652782
11.860482545916748	3.4825222	1.8661517
11.878103734043883	3.4887302	1.8678143
11.895725204060282	3.4567485	1.8592333
11.91334695639619	3.4394534	1.8545763
11.930968991481919	3.4399567	1.854712
11.948591309747824	3.4028363	1.8446778
11.966213911624347	3.3341095	1.8259544
11.98383679754198	3.2790575	1.8108168
12.001459967931268	3.2577043	1.8049111
12.019083423222835	3.2592025	1.8053261
12.036707163847352	3.254807	1.8041084
12.05433119023556	3.2266433	1.796286
12.071955502818259	3.2258363	1.7960613
12.089580102026313	3.2353292	1.7987021
12.107204988290643	3.2144578	1.7928909
12.12483016204224	3.1693	1.7802528
12.142455623712152	3.1374357	1.7712808
12.16008137373149	3.1141443	1.7646939
12.177707412531431	3.075191	1.7536223
12.19533374054321	3.0639856	1.7504244
12.212960358198126	3.0554295	1.7479787
12.230587265927545	3.0650556	1.75073
12.248214464162889	3.0062435	1.7338521
12.265841953335649	3.0002627	1.7321266
12.283469733877375	2.9709837	1.7236542
12.301097806219685	3.0003693	1.7321575
12.31872617079425	3.0177522	1.7371678
12.336354828032825	2.9677262	1.722709
12.353983778367205	2.9503913	1.7176703
12.371613022229262	2.9309216	1.7119935
12.389242560050928	2.9389045	1.7143234
12.406872392264201	2.9052548	1.7044808
12.424502519301143	2.8596308	1.6910443
12.442132941593874	2.8673234	1.6933173
12.459763659574586	2.8271894	1.6814249
12.477394673675532	2.8066783	1.6753144
12.49502598432903	2.7703614	1.6644403
12.51265759196746	2.8284762	1.6818074
12.530289497023267	2.8303056	1.6823512
12.547921699928967	2.82049	1.6794314
12.565554201117134	2.775245	1.6659067
12.583187001020404	2.7536323	1.6594073
12.600820100071486	2.7524755	1.6590586
12.618453498703152	2.7697468	1.6642556
12.636087197348235	2.7260923	1.6510882
12.65372119643964	2.7142692	1.647504
12.671355496410326	2.7345726	1.6536543
12.68899009769333	2.816975	1.6783847
12.706625000721749	2.8690164	1.6938171
12.724260205928752	2.939338	1.7144498
12.741895713747551	2.9079103	1.7052596
12.759531524611454	2.9169838	1.7079179
12.777167638953818	2.894538	1.7013341
12.794804057208072	2.939795	1.714583
12.812440779807702	3.0273027	1.7399145
12.830077807186271	3.2319586	1.7977649
12.847715139777405	3.2536783	1.8037956
12.865352778014795	3.4547431	1.858694
12.882990722332197	3.5644906	1.8879858
12.90062897316344	3.6775424	1.917692
12.918267530942412	3.7415726	1.9343145
12.935906396103071	3.5970404	1.8965865
12.953545569079449	3.7546093	1.9376814
12.971185050305628	3.6060472	1.8989595
12.988824840215775	3.6190557	1.9023815
13.006464939244115	3.6198711	1.9025959
13.024105347824943	3.4337919	1.8530494
13.041746066392617	3.551792	1.8846198
13.05938709538157	3.353461	1.8312458
13.077028435226296	3.359011	1.8327605
13.094670086361363	3.248517	1.8023643
13.112312049221401	3.1368346	1.7711111
13.129954324241112	3.0497851	1.7463634
13.147596911855258	2.8404112	1.685352
13.165239812498685	2.8296971	1.6821704
13.182883026606293	2.7756736	1.6660353
13.200526554613058	2.7476466	1.6576027
13.218170396954017	2.7048383	1.6446393
13.235814554064284	2.6913302	1.6405274
13.253459026379034	2.686506	1.6390564
13.271103814333523	2.6787837	1.636699
13.288748918363058	2.6477513	1.6271912
13.306394338903031	2.6379993	1.6241919
13.32404007638889	2.6201193	1.6186782
13.341686131256164	2.666752	1.6330193
13.359332503940449	2.632182	1.6224
13.376979194877402	2.633584	1.6228321
13.394626204502751	2.6663003	1.6328809
13.412273533252307	2.7174122	1.6484575
13.429921181561937	2.7487648	1.6579399
13.447569149867581	2.7371633	1.6544374
13.465217438605247	2.7580025	1.6607234
13.482866048211022	2.6892707	1.6398996
13.500514979121052	2.669679	1.6339152
13.518164231771568	2.6210804	1.6189752
13.535813806598844	2.6159425	1.6173875
13.553463704039254	2.631983	1.6223388
13.571113924529229	2.6455102	1.6265024
13.588764468505275	2.6866286	1.6390939
13.606415336403956	2.7240608	1.6504729
13.624066528661917	2.7680638	1.6637499
13.641718045715882	2.8129363	1.677181
13.659369888002635	2.9128337	1.7067026
13.67702205595903	2.9896762	1.729068
13.694674550021993	3.0094166	1.734767
13.712327370628532	3.009017	1.7346518
13.729980518215713	3.0554724	1.747991
13.747633993220681	3.15567	1.7764206
13.765287796080647	3.2026362	1.7895911
13.7829419272329	3.2963448	1.8155838
13.800596387114801	3.3306565	1.8250086
13.818251176163775	3.4008768	1.8441466
13.835906294817324	3.431768	1.8525032
13.853561743513023	3.478516	1.8650781
13.871217522688525	3.5174892	1.8754971
13.888873632781538	3.5359302	1.8804069
13.906530074229858	3.518982	1.875895
13.92418684747135	3.489584	1.8680428
13.941843952943948	3.463093	1.8609388
13.959501391085665	3.4337897	1.8530488
13.977159162334578	3.3734007	1.836682
13.994817267128846	3.350915	1.8305504
14.012475705906693	3.2683907	1.8078691
14.030134479106424	3.1923306	1.7867094
14.047793587166414	3.1348526	1.7705516
14.065453030525108	3.1169176	1.7654794
14.083112809621026	3.0556924	1.7480539
14.100772924892766	2.9683006	1.7228757
14.118433376778997	2.891423	1.7004185
14.136094165718458	2.8405159	1.685383
14.153755292149969	2.7746437	1.6657262
14.171416756512416	2.7067382	1.6452168
14.189078559244768	2.6606545	1.6311513
14.20674070078606	2.6165683	1.617581
14.224403181575408	2.534525	1.5920191
14.242066002051999	2.5101526	1.584346
14.259729162655093	2.4842167	1.5761398
14.277392663824022	2.475184	1.5732718
14.295056505998208	2.4295907	1.5587144
14.312720689617128	2.4060156	1.5511336
14.330385215120348	2.4184327	1.5551311
14.348050082947497	2.4414556	1.5625157
14.3657152935383	2.4247553	1.5571626
14.383380847332528	2.4518447	1.5658368
14.401046744770051	2.433265	1.5598927
14.418712986290798	2.4049158	1.5507791
14.436379572334793	2.3654625	1.5380061
14.454046503342123	2.3510227	1.5333045
14.471713779752946	2.3837426	1.5439373
14.489381402007504	2.4038541	1.5504367
14.507049370546113	2.3453484	1.531453
14.524717685809168	2.3580532	1.5355954
14.542386348237134	2.3551452	1.5346482
14.560055358270553	2.4106307	1.5526206
14.577724716350051	2.441362	1.5624858
14.595394422916325	2.457211	1.5675493
14.61306447841015	2.4979916	1.5805036
14.63073488327237	2.4911637	1.5783421
14.648405637943917	2.5281646	1.5900203
14.6660767428658	2.527159	1.589704
14.683748198479094	2.5446925	1.5952092
14.701420005224954	2.5485668	1.5964231
14.719092163544628	2.6111424	1.615903
14.73676467387942	2.6858325	1.6388509
14.754437536670727	2.664304	1.6322696
14.772110752360014	2.616988	1.6177107
14.78978432138882	2.5949106	1.6108726
14.807458244198777	2.6132548	1.6165564
14.82513252123159	2.6423578	1.6255331
14.842807152929028	2.6708026	1.634259
14.860482139732962	2.6489847	1.6275702
14.87815748208531	2.6293392	1.6215237
14.8958331804281	2.6086679	1.6151371
14.91350923520342	2.581079	1.6065737
14.931185646853438	2.5992513	1.6122193
14.948862415820408	2.589516	1.6091973
14.966539542546656	2.6507473	1.6281116
14.98421702747459	2.665528	1.6326445
15.001894871046696	2.7119987	1.6468147
15.019573073705542	2.7094233	1.6460326
15.037251635893766	2.679457	1.6369047
15.054930558054092	2.6489131	1.6275482
15.072609840629323	2.7070544	1.6453129
15.090289484062351	2.8294547	1.6820983
15.107969488796124	3.1555738	1.7763935
15.125649855273691	3.5713692	1.8898066
15.14333058393817	4.030312	2.0075638
15.161011675232768	4.982331	2.2321136
15.17869312960076	6.29655	2.5092926
15.196374947485506	8.162365	2.8569853
15.214057129330447	11.2024145	3.3470008
15.231739675579114	16.012552	4.001569
15.249422586675102	21.243412	4.6090574
15.267105863062092	24.53453	4.953234
15.284789505183847	24.891737	4.989162
15.302473513484218	22.863754	4.7816057
15.320157888407127	19.212082	4.3831587
15.337842630396578	14.8955	3.859469
15.355527739896656	11.544224	3.397679
15.37321321735153	8.91376	2.9855921
15.39089906320545	6.4514785	2.5399761
15.408585277902748	4.8064876	2.1923704
15.42627186188783	3.6849964	1.9196345
15.443958815605198	3.1442153	1.7731936
15.461646139499424	2.8584285	1.6906887
15.479333834015168	2.7232823	1.6502371
15.497021899597165	2.6928012	1.6409757
15.514710336690234	2.6275156	1.6209613
15.53239914573928	2.5813115	1.6066461
15.550088327189297	2.5636995	1.6011556
15.567777881485336	2.5344408	1.5919927
15.58546780907256	2.4899008	1.577942
15.6031581103962	2.4599423	1.5684203
15.620848785901568	2.4583907	1.5679256
15.638539836034063	2.4845054	1.5762314
15.656231261239173	2.5111876	1.5846727
15.673923061962451	2.498953	1.5808077
15.691615238649552	2.4651196	1.5700699
15.709307791746202	2.4006023	1.5493877
15.727000721698221	2.3442512	1.5310948
15.744694028951498	2.314834	1.5214579
15.76238771395202	2.362235	1.5369564
15.780081777145844	2.3847947	1.544278
15.797776218979125	2.389204	1.5457051
15.815471039898094	2.3665707	1.5383662
15.833166240349064	2.370688	1.5397038
15.850861820778437	2.3775573	1.541933
15.868557781632699	2.3821187	1.5434114
15.886254123358412	2.382511	1.5435385
15.903950846402232	2.372549	1.5403081
15.921647951210897	2.3890917	1.5456687
15.939345438231225	2.390011	1.545966
15.957043307910133	2.3551683	1.5346558
15.974741560694602	2.366918	1.5384791
15.992440197031714	2.3913527	1.5464
16.01013921736862	2.4147868	1.5539584
16.02783862215259	2.4019563	1.5498246
16.045538411830933	2.413665	1.5535975
16.06323858685107	2.3991122	1.5489068
16.080939147660512	2.3794947	1.542561
16.09864009470684	2.3709774	1.5397979
16.11634142843774	2.3749194	1.5410774
16.134043149300954	2.3903155	1.5460645
16.15174525774433	2.3658783	1.5381413
16.169447754215817	2.3850002	1.5443445
16.18715063916342	2.4422095	1.562757
16.204853913035244	2.4849582	1.576375
16.222557576279478	2.495108	1.579591
16.240261629344403	22.432087	4.7362523
16.257966072678386	42.952995	6.5538535
16.275670906729868	38.06924	6.1700277
16.293376131947387	2.5181544	1.5868694
16.31108174877957	2.5282996	1.5900627
16.328787757675133	2.6007516	1.6126846
16.34649415908287	2.6191258	1.6183714
16.364200953451657	2.6060762	1.6143346
16.38190814123048	2.5966182	1.6114025
16.39961572286839	2.6332726	1.6227362
16.41732369881455	2.681424	1.6375054
16.43503206951817	2.7078238	1.6455467
16.45274083542859	2.7124388	1.6469483
16.47044999699522	2.7321148	1.652911
16.488159554667558	2.7722235	1.6649995
16.505869508895184	2.8358355	1.6839939
16.523579860127786	2.9129095	1.7067248
16.541290608815117	2.9412715	1.7150136
16.559001755407035	2.975901	1.72508
16.57671330035348	3.025409	1.7393702
16.59442524410448	3.0882032	1.7573284
16.61213758711015	3.1461341	1.7737346
16.629850329820705	3.2176182	1.7937721
16.647563472686436	3.31218	1.8199396
16.665277016157724	3.3847177	1.8397602
16.682990960685053	3.401772	1.8443893
16.70070530671898	3.430298	1.8521065
16.718420054710155	3.4724681	1.863456
16.736135205109335	3.5247858	1.8774413
16.753850758367335	3.5825524	1.8927631
16.771566714935087	3.638328	1.9074402
16.789283075263597	3.6989682	1.9232702
16.80699983980398	3.733096	1.9321221
16.82471700900741	3.7894614	1.9466538
16.84243458332518	3.8209836	1.9547336
16.860152563208665	3.8663082	1.966293
16.87787094910932	3.970764	1.9926776
16.89558974147871	4.067279	2.0167496
16.913308940768466	4.148043	2.0366745
16.931028547430333	4.1958804	2.048385
16.94874856191613	4.2272015	2.056016
16.966468984677785	4.294773	2.0723834
16.98418981616729	4.3740683	2.0914273
17.00191105683676	4.436706	2.106349
17.019632707138374	4.49202	2.1194386
17.03735476752442	4.5209594	2.1262548
17.05507723844728	4.571568	2.1381226
17.072800120359403	4.588393	2.1420536
17.090523413713353	4.5903735	2.1425157
17.108247118961785	4.609686	2.147018
17.125971236557437	4.6480336	2.1559298
17.143695766953133	4.6428084	2.1547177
17.161420710601806	4.633265	2.152502
17.179146067956477	4.6510077	2.1566195
17.19687183947025	4.6559997	2.1577766
17.21459802559634	4.611869	2.1475263
17.232324626788028	4.581131	2.1403577
17.25005164349871	4.598672	2.1444514
17.267779076181863	4.6174145	2.148817
17.285506925291074	4.6442795	2.155059
17.30323519127999	4.647614	2.1558325
17.320963874602384	4.625312	2.1506538
17.33869297571211	4.5645056	2.1364703
17.356422495063114	4.4777884	2.1160786
17.37415243310944	4.4109845	2.1002345
17.391882790305218	4.37041	2.0905526
17.40961356710468	4.42002	2.1023843
17.42734476396215	4.49725	2.120672
17.445076381332044	4.534471	2.1294298
17.462808419668868	4.5801325	2.1401243
17.48054087942723	4.7062716	2.1693943
17.498273761061835	4.9797363	2.2315323
17.51600706502747	5.410527	2.326054
17.533740791779024	6.0948234	2.4687696
17.551474941771485	7.5571103	2.7490199
17.56920951545993	8.70787	2.9509099
17.586944513299528	10.956589	3.3100739
17.60467993574556	12.694192	3.562891
17.622415783253373	14.595169	3.8203623
17.64015205627843	16.14794	4.01845
17.657888755276293	17.271936	4.155952
17.675625880702604	17.8129	4.2205334
17.69336343301311	17.588093	4.193816
17.71110141266366	16.715715	4.0884857
17.728839820110178	15.604349	3.9502342
17.746578655808705	14.627649	3.824611
17.764317920215372	13.109193	3.620662
17.7820576137864	11.531101	3.3957474
17.79979773697811	9.408158	3.0672722
17.81753829024692	7.390961	2.7186322
17.835279274049356	5.7554274	2.3990471
17.85302068884201	4.74877	2.1791673
17.870762535081607	4.1480117	2.0366669
17.888504813224934	3.8515065	1.9625255
17.90624752372891	3.727328	1.9306289
17.923990667050536	3.6443222	1.9090108
17.941734243646895	3.6044405	1.8985364
17.959478253975185	3.5592136	1.8865879
17.9772226984927	3.5232131	1.8770224
17.994967577656833	3.4688077	1.8624735
18.01271289192506	3.3738053	1.8367921
18.030458641754965	3.3088834	1.8190336
18.04820482760425	3.2865305	1.8128791
18.06595144993067	3.311485	1.8197486
18.083698509192125	3.3167617	1.8211979
18.101446005846576	3.2880554	1.8132995
18.119193940352105	3.258344	1.8050884
18.136942313166887	3.2619748	1.8060938
18.1546911247492	3.2131584	1.7925285
18.1724403755574	3.1852086	1.7847153
18.19019006604997	3.1491213	1.7745764
18.207940196685467	3.1468587	1.7739388
18.225690767922575	3.131949	1.7697313
18.243441780220046	3.1186216	1.7659619
18.261193234036764	3.1092634	1.7633103
18.278945129831676	3.0974655	1.7599618
18.29669746806386	3.0944207	1.7590965
18.314450249192483	3.0954766	1.7593967
18.3322034736768	3.1064239	1.7625049
18.349957141976184	3.115458	1.765066
18.3677112545501	3.1076221	1.7628449
18.385465811858108	3.1246529	1.7676687
18.403220814359884	3.0857577	1.7566324
18.420976262515172	3.11449	1.7647917
18.43873215678387	3.1377413	1.7713671
18.456488497625923	3.2105813	1.7918096
18.474245285501407	3.269101	1.8080655
18.492002520870486	3.3240442	1.8231962
18.50976020419343	3.3221164	1.8226674
18.527518335930615	3.6174698	1.9019647
18.545276916542516	4.245672	2.060503
18.563035946489688	4.450757	2.1096818
18.580795426232832	4.831282	2.1980178
18.598555356232698	4.6239777	2.1503437
18.616315736950185	4.9408617	2.222805
18.63407656884626	4.6376653	2.153524
18.65183785238201	4.8619766	2.204989
18.669599588018617	4.6528735	2.157052
18.68736177621737	4.6300955	2.1517656
18.705124417439652	4.605732	2.146097
18.72288751214696	4.430102	2.1047807
18.740651060800886	4.525104	2.1272292
18.758415063863115	4.178872	2.044229
18.77617952179546	4.3003187	2.073721
18.793944435059814	4.0929623	2.023107
18.811709804118184	4.166608	2.041227
18.829475629432675	4.22209	2.0547724
18.8472419114655	4.0409565	2.0102131
18.86500865067897	4.066025	2.0164387
18.88277584753551	3.7266028	1.9304411
18.90054350249763	3.7452793	1.9352725
18.918311616027957	3.4219606	1.8498542
18.936080188589226	3.319375	1.8219153
18.953849220644265	3.0221052	1.7384204
18.971618712656007	2.8841476	1.6982778
18.9893886650875	2.8679414	1.6934997
19.007159078401887	8.039705	2.8354373
19.024929953062408	32.884537	5.734504
19.042701289532435	32.8016	5.727268
19.060473088275405	25.344387	5.034321
19.07824534975489	2.6228244	1.6195136
19.096018074434568	2.609306	1.6153346
19.113791262778197	2.621512	1.6191083
19.13156491524966	2.633441	1.6227881
19.149339032312945	2.6377566	1.6241171
19.167113614432136	2.5796473	1.6061281
19.184888662071433	2.5579674	1.5993646
19.202664175695123	2.5564525	1.598891
19.220440155767623	2.5510483	1.5972002
19.238216602753447	2.551018	1.5971906
19.2559935171172	2.5129538	1.5852299
19.27377089932361	2.5254655	1.5891713
19.291548749837514	2.5215871	1.5879506
19.309327069123835	2.5238318	1.5886573
19.32710585764763	2.5504029	1.5969981
19.344885115874032	2.5357895	1.5924163
19.362664844268313	2.4997528	1.5810606
19.380445043295822	2.474716	1.573123
19.39822571342203	2.4865425	1.5768775
19.41600685511252	2.4936535	1.5791306
19.43378846883297	2.4939947	1.5792387
19.451570555049173	2.476982	1.5738431
19.469353114227037	2.4788406	1.5744334
19.48713614683254	2.499489	1.5809772
19.50491965333182	2.5257769	1.5892693
19.52270363419109	2.5460846	1.5956455
19.540488089876686	2.5128455	1.5851958
19.55827302085503	2.455499	1.5670031
19.576058427592674	2.4233623	1.5567153
19.593844310556282	2.429817	1.558787
19.611630670212598	2.4689848	1.5713004
19.629417507028506	2.5122924	1.5850213
19.64720482147098	2.564928	1.6015393
19.6649926140071	2.5595782	1.5998682
19.682780885104084	2.5312574	1.5909926
19.70056963522921	2.50131	1.5815531
19.718358864849908	2.4635694	1.5695761
19.7361485744337	2.445588	1.5638376
19.753938764448215	2.4627979	1.5693303
19.771729435361202	2.510102	1.5843302
19.789520587640506	2.51852	1.5869846
19.807312221754092	2.493999	1.57924
19.825104338170043	2.4865794	1.5768892
19.842896937356517	2.4949675	1.5795466
19.860690019781824	2.5138242	1.5855044
19.87848358591436	2.5301614	1.590648
19.896277636222635	2.4918523	1.5785602
19.914072171175278	2.4731069	1.5726115
19.931867191241015	2.473508	1.572739
19.94966269688869	2.5207162	1.5876764
19.967458688587264	2.5278714	1.5899282
19.985255166805807	2.5270214	1.5896608
20.00305213201348	2.4682884	1.5710788
20.020849584679578	2.4454126	1.5637815
20.038647525273507	2.4770107	1.5738522
20.05644595426477	2.5234604	1.5885403
20.07424487212299	2.502577	1.5819535
20.092044279317903	2.4340646	1.560149
20.109844176319353	2.4117455	1.5529796
20.127644563597304	2.4372141	1.561158
20.145445441621817	2.455721	1.567074
20.16324681086307	2.4385087	1.5615726
20.181048671791373	2.4340453	1.5601428
20.198851024877122	2.4316168	1.5593642
20.216653870590836	2.4120722	1.5530847
20.234457209403146	2.392933	1.5469108
20.252261041784802	2.3801622	1.5427774
20.270065368206662	2.4019694	1.5498289
20.287870189139685	2.3968337	1.548171
20.305675505054968	2.3864741	1.5448217
20.323481316423702	2.341981	1.5303532
20.341287623717207	2.3083255	1.5193175
20.359094427406884	2.2989693	1.5162352
20.376901727964288	2.3095498	1.5197203
20.39470952586107	2.328973	1.5260973
20.41251782156899	2.3262239	1.5251963
20.430326615559935	2.320553	1.5233362
20.448135908305886	2.3265853	1.5253148
20.465945700278965	2.3580232	1.5355856
20.483755991951384	2.3452766	1.5314296
20.50156678379548	2.3185833	1.5226895
20.519378076283708	2.3183298	1.5226063
20.537189869888635	2.3442779	1.5311035
20.55500216508294	2.3465495	1.5318451
20.572814962339415	2.3030298	1.5175736
20.59062826213098	2.2751205	1.5083503
20.60844206493066	2.2783043	1.5094053
20.626256371211593	2.3577554	1.5354984
20.644071181447032	2.368102	1.5388639
20.66188649611036	2.3697574	1.5394017
20.67970231567506	2.3529043	1.533918
20.697518640614742	2.3470807	1.5320185
20.715335471403122	2.3163147	1.5219444
20.73315280851404	2.2878351	1.5125592
20.750970652421447	2.2726111	1.5075182
20.768789003599412	2.263296	1.5044254
20.786607862522136	2.27527	1.5083998
20.8044272296639	2.2784755	1.509462
20.82224710549913	2.2691503	1.50637
20.84006749050237	2.2331383	1.4943689
20.857888385148268	3.7847774	1.9454504
20.8757097899116	45.883106	6.773707
20.893531705267254	64.74418	8.046377
20.911354131690224	83.76785	9.152478
20.92917706965566	69.02281	8.307997
20.94700051963877	50.06432	7.0756145
20.96482448211493	29.323755	5.415141
20.982648957559622	4.07722	2.0192127
21.00047394644843	2.216739	1.4888717
21.01829944925707	2.2473235	1.4991076
21.036125466461375	2.2694747	1.5064776
21.053951998537297	2.2538698	1.5012894
21.071779045960906	2.2173634	1.4890814
21.089606609208378	2.2133286	1.487726
21.10743468875603	2.2214336	1.4904475
21.12526328508028	2.2128074	1.4875509
21.143092398657675	2.181843	1.4771063
21.16092202996488	2.171978	1.4737632
21.17875217947867	2.1640153	1.4710592
21.19658284767596	2.195521	1.4817291
21.21441403503377	2.2265348	1.4921578
21.232245742029225	2.245177	1.4983915
21.2500779691396	2.2003474	1.4833568
21.26791071684227	2.165868	1.4716889
21.28574398561475	2.1548176	1.4679297
21.30357777593465	2.139196	1.462599
21.321412088279704	2.160712	1.469936
21.339246923127792	2.187988	1.4791849
21.357082280956888	2.1858983	1.4784784
21.3749181622451	2.210609	1.4868116
21.392754567470647	2.1811256	1.4768635
21.41059149711187	2.155194	1.4680579
21.42842895164726	2.1489053	1.4659145
21.446266931555378	2.1639001	1.4710201
21.464105437314945	2.1699684	1.4730812
21.481944469404798	2.1608129	1.4699703
21.49978402830388	2.1269436	1.4584044
21.51762411449127	2.1137981	1.4538907
21.53546472844617	2.1105287	1.4527658
21.553305870647876	2.0807638	1.4424853
21.571147541575865	2.0641866	1.4367278
21.58898974170967	2.0430226	1.4293435
21.60683247152899	2.0672655	1.4377989
21.62467573151363	2.0879784	1.4449838
21.642519522143523	2.126867	1.4583782
21.660363843898722	2.1186738	1.4555665
21.6782086972594	2.1110404	1.452942
21.696054082705864	2.0733163	1.4399015
21.713900000718535	2.0470347	1.4307462
21.73174645177795	2.035252	1.4266226
21.749593436364794	2.0361686	1.4269438
21.767440954959845	2.0140455	1.4191707
21.785289008044032	2.0246203	1.4228915
21.803137596098388	2.055682	1.4337649
21.820986719604086	2.0609727	1.4356089
21.838836379042412	2.0293703	1.4245597
21.85668657489478	2.0183482	1.4206858
21.87453730764273	2.0179148	1.4205333
21.892388577767914	2.0357416	1.4267942
21.91024038575213	2.0264246	1.4235255
21.928092732077285	2.0126555	1.4186809
21.945945617225426	2.0002346	1.4142965
21.963799041678694	1.9823496	1.4079593
21.981653005919398	31.308336	5.595385
21.999507510429943	78.09461	8.837115
22.01736255569286	73.06482	8.547796
22.035218142190818	4.179066	2.0442765
22.05307427040661	1.9611661	1.4004164
22.07093094082315	1.9597697	1.3999177
22.088788153923474	1.9734977	1.4048123
22.106645910190746	2.0327988	1.4257625
22.12450421010827	2.021402	1.4217601
22.142363054159464	1.9989836	1.4138541
22.16022244282787	2.017625	1.4204313
22.178082376597164	2.005633	1.4162037
22.195942855951145	1.9787674	1.4066867
22.213803881373742	1.9475896	1.3955607
22.231665453349002	1.9579717	1.3992754
22.24952757236111	1.9672068	1.4025716
22.26739023889438	1.9842716	1.4086418
22.28525345343323	2.0162868	1.4199601
22.30311721646225	2.0253363	1.4231431
22.320981528466113	2.0015557	1.4147635
22.33884638992964	2.0107822	1.4180205
22.356711801337788	1.9895041	1.4104978
22.37457776317561	1.975122	1.4053904
22.392444275928337	1.96481	1.4017168
22.410311340081282	1.9368436	1.3917053
22.428178956119904	1.9167973	1.3844845
22.446047124529805	1.8900998	1.374809
22.46391584579669	1.8893508	1.3745365
22.481785120406414	1.8864174	1.3734691
22.49965494884496	1.9165784	1.3844055
22.51752533159841	1.9640996	1.4014634
22.53539626915302	1.976154	1.4057574
22.553267761995137	1.972844	1.4045796
22.571139810611264	1.9617043	1.4006085
22.589012415488025	1.9564645	1.3987367
22.60688557711216	1.9407436	1.3931057
22.624759295970566	1.917186	1.3846248
22.642633572550263	1.8981082	1.3777184
22.660508407338362	1.9199786	1.3856329
22.67838380082217	1.9240446	1.3870994
22.696259753489077	1.8913091	1.3752488
22.714136265826614	1.8780982	1.3704373
22.73201333832246	1.879491	1.3709453
22.74989097146439	1.894531	1.3764197
22.76776916574035	1.8685876	1.3669629
22.785647921638393	1.8752245	1.3693883
22.803527239646712	1.8839563	1.3725729
22.82140712025363	1.9215642	1.386205
22.839287563947593	1.9289929	1.3888819
22.85716857121719	1.9600751	1.4000268
22.875050142551135	1.9465524	1.395189
22.892932278438277	1.9355748	1.3912493
22.910814979367604	1.8860039	1.3733186
22.928698245828222	1.8854235	1.3731073
22.946582078309387	1.8691792	1.3671793
22.96446647730047	1.8812495	1.3715866
22.98235144329098	1.850032	1.3601588
23.000236976770562	1.8743227	1.3690591
23.018123078229	1.8813889	1.3716373
23.03600974815619	1.9113249	1.3825067
23.053896987042194	1.8780066	1.3704038
23.071784795377173	1.8800964	1.3711661
23.08967317365145	1.8717166	1.368107
23.10756212235546	1.8719069	1.3681765
23.125451641979787	1.8407426	1.3567396
23.143341733015134	1.876757	1.3699478
23.161232395952357	1.9320986	1.3899995
23.179123631282426	1.9946651	1.4123261
23.197015439496468	1.9763011	1.4058098
23.214907821085717	1.944758	1.3945458
23.23280077654157	1.9296386	1.3891144
23.250694306355538	1.9258825	1.3877617
23.268588411019277	1.9607507	1.4002681
23.28648309102458	1.9726835	1.4045225
23.304378346863356	1.9520487	1.3971573
23.322274179027676	1.9113201	1.382505
23.340170588009723	1.9278729	1.3884786
23.358067574301852	1.9656351	1.402011
23.37596513839651	1.9775361	1.4062489
23.39386328078629	1.932032	1.3899755
23.411762001963947	1.9100997	1.3820636
23.429661302422353	1.8823934	1.3720034
23.4475611826545	1.925073	1.38747
23.46546164315356	1.9388033	1.3924092
23.48336268441279	1.9527131	1.3973951
23.501264306925638	1.9001673	1.3784655
23.51916651118564	1.8752184	1.3693862
23.537069297686497	1.9009159	1.3787371
23.554972666922037	1.9371974	1.3918324
23.57287661938623	1.9747297	1.4052508
23.59078115557318	1.9408069	1.3931284
23.608686275977128	1.9287919	1.3888096
23.62659198109246	1.9109261	1.3823625
23.6444982714137	1.9390341	1.392492
23.66240514743549	1.9262638	1.387899
23.68031260965263	1.9242389	1.3871694
23.698220658560068	1.8761955	1.3697429
23.716129294652845	1.8886011	1.3742639
23.7340385184262	1.8826228	1.372087
23.75194833037546	1.9353974	1.3911856
23.769858730996123	1.9287213	1.3887842
23.78776972078382	1.9169308	1.3845327
23.80568130023431	1.927298	1.3882716
23.823593469843495	1.9092461	1.3817548
23.841506230107424	1.9121213	1.3827947
23.859419581522275	1.8856363	1.3731847
23.87733352458438	1.8801454	1.371184
23.89524805979019	1.875429	1.3694631
23.913163187636318	1.8976486	1.3775517
23.931078908619508	1.94987	1.3963774
23.948995223236633	1.991555	1.4112246
23.966912131984735	1.9971076	1.4131906
23.98482963536096	1.9915742	1.4112314
24.002747733862616	1.9870536	1.4096289
24.020666427987155	2.0035489	1.4154677
24.038585718232156	1.9956802	1.4126855
24.056505605095353	1.9981163	1.4135474
24.074426089074617	2.048717	1.431334
24.092347170667946	2.0610383	1.4356316
24.110268850373515	2.0959084	1.4477253
24.128191128689586	2.0666628	1.4375892
24.146114006114626	2.0382776	1.4276826
24.164037483147187	2.0557168	1.4337771
24.181961560286005	2.084186	1.443671
24.199886238029926	2.0663226	1.4374709
24.21781151687797	2.0227773	1.4222437
24.235737397329274	2.0203092	1.4213759
24.253663879883135	2.0332258	1.4259123
24.271590965038975	2.0239842	1.422668
24.289518653296376	2.0180771	1.4205904
24.30744694515505	1.9896339	1.4105438
24.32537584111486	1.9715488	1.4041185
24.34330534167581	1.9719788	1.4042716
24.361235447338046	2.0005684	1.4144145
24.379166158601876	2.0172694	1.4203061
24.39709747596772	2.0136435	1.4190291
24.41502939993615	1.9839052	1.4085116
24.432961931007917	1.9441376	1.3943233
24.450895069683856	1.922856	1.3866708
24.468828816465	1.938691	1.3923688
24.4867631718525	1.9703825	1.4037031
24.504698136347656	1.9789698	1.4067587
24.52263371045192	1.9891227	1.4103626
24.540569894666874	1.9695616	1.4034107
24.558506689494266	1.991454	1.4111888
24.57644409543597	1.9740604	1.4050126
24.594382112994012	1.9384414	1.3922793
24.61232074267057	1.9648492	1.4017308
24.630259984967953	2.0271692	1.4237869
24.64819984038863	2.0415235	1.428819
24.66614030943522	1.9948772	1.4124012
24.684081392610462	1.9983945	1.4136459
24.702023090417274	2.0025122	1.4151015
24.7199654033587	2.0071611	1.4167432
24.737908331937927	1.9557463	1.3984799
24.755851876658305	1.9876446	1.4098384
24.773796038023324	1.9922844	1.411483
24.79174081653661	2.0611057	1.4356551
24.809686212701962	2.08594	1.4442784
24.827632227023294	2.1265876	1.4582825
24.8455788600047	2.0936613	1.446949
24.8635261121504	2.0516348	1.4323529
24.88147398396475	2.0271819	1.4237914
24.899422475952303	2.0682907	1.4381553
24.917371588617698	2.1062071	1.4512777
24.935321322465768	2.1510334	1.4666402
24.953271678001478	2.2409077	1.4969661
24.97122265572994	2.4968996	1.5801581
24.989174256156414	2.8641448	1.6923784
25.00712647978632	3.348121	1.8297871
25.02507932712521	3.796081	1.9483534
25.043032798678798	4.3346267	2.0819767
25.060986894952933	5.0526524	2.2478106
25.078941616453637	5.9510827	2.4394841
25.096896963687055	6.9094815	2.6285892
25.114852937159508	8.028395	2.8334422
25.132809537377444	8.523336	2.9194753
25.150766764847468	8.594753	2.931681
25.168724620076347	7.9812756	2.8251152
25.186683103570985	6.8404727	2.6154296
25.204642215838426	5.578591	2.3619041
25.222601957385894	4.200323	2.049469
25.24056232872074	3.1879694	1.7854886
25.25852333035048	2.5901985	1.6094093
25.276484962782778	2.2790887	1.5096651
25.294447226525435	2.1288278	1.4590503
25.312410122086423	1.9688514	1.4031577
25.330373649973843	1.9051276	1.3802636
25.348337810695988	1.9006412	1.3786374
25.366302604761245	1.932029	1.3899745
25.384268032678207	1.9289827	1.3888782
25.40223409495558	1.9011912	1.3788369
25.420200792102257	1.8400173	1.3564724
25.438168124627246	1.8360267	1.3550006
25.45613609303974	1.8851528	1.3730087
25.474104697849057	1.9048115	1.3801491
25.492073939564698	1.8964351	1.3771112
25.510043818696285	1.9029089	1.3794596
25.528014335753614	1.8930038	1.3758647
25.54598549124664	1.8848486	1.3728979
25.56395728568544	1.8692584	1.3672082
25.58192971958028	1.8792304	1.3708502
25.59990279344156	1.8752779	1.3694079
25.617876507779833	1.8870336	1.3736935
25.635850863105826	1.9050953	1.3802519
25.653825859930386	1.8725502	1.3684115
25.671801498764548	1.821463	1.3496158
25.68977778011949	1.7966759	1.3404014
25.707754704506524	1.8191963	1.3487759
25.725732272437153	1.8612988	1.3642943
25.743710484423012	1.8460115	1.35868
25.761689340975888	1.8047904	1.3434249
25.77966884260774	1.8072798	1.344351
25.797648989830662	1.8811126	1.3715366
25.815629783156922	1.8716719	1.3680906
25.83361122309895	1.876033	1.3696835
25.85159331016929	1.8395923	1.3563157
25.869576044880695	1.8160995	1.3476274
25.887559427746034	1.7804284	1.334327
25.90554345927836	1.8057226	1.3437718
25.92352813999086	1.8585594	1.36329
25.94151347039689	1.8955648	1.3767952
25.959499451009965	1.8741896	1.3690104
25.97748608234374	1.9028872	1.3794518
25.995473364912062	1.9143806	1.3836114
26.013461299228904	1.8979189	1.3776498
26.03144988580839	1.8702722	1.367579
26.04943912516483	1.8641734	1.3653474
26.067429017812675	1.8731889	1.368645
26.085419564266537	1.8737922	1.3688653
26.103410765041186	1.8515992	1.3607348
26.12140262065155	1.7921237	1.3387022
26.139395131612723	1.7720771	1.3311938
26.157388298439948	1.7754253	1.3324509
26.17538212164861	1.8050113	1.343507
26.193376601754295	1.8203775	1.3492136
26.211371739272714	1.8351033	1.3546598
26.229367534719746	1.7946502	1.3396455
26.247363988611433	1.7907073	1.3381732
26.26536110146397	1.8491539	1.359836
26.283358873793727	1.8701706	1.3675418
26.301357306117204	1.8476048	1.3592663
26.319356398951104	1.8102686	1.3454622
26.33735615281224	1.8387198	1.355994
26.35535656821762	1.8848408	1.372895
26.373357645684404	1.8668044	1.3663105
26.39135938572991	1.8344599	1.3544223
26.409361788871614	1.8161271	1.3476375
26.427364855627165	1.8025904	1.3426058
26.445368586514352	1.7984473	1.341062
26.46337298205115	1.7993726	1.341407
26.48137804275568	1.8172216	1.3480437
26.499383769146217	1.7808217	1.3344743
26.517390161741215	1.7879411	1.3371391
26.53539722105928	1.7830536	1.3353103
26.553404947619182	1.8009586	1.341998
26.571413341939856	1.7871199	1.336832
26.589422404540397	1.816451	1.3477577
26.60743213594006	1.7963382	1.3402754
26.62544253665827	1.7861785	1.3364799
26.64345360721459	1.8256122	1.3511522
26.66146534812879	1.8635217	1.3651087
26.679477759920758	1.8188546	1.3486491
26.69749084311057	1.8018355	1.3423247
26.71550459821847	1.831514	1.3533344
26.733519025764842	1.8306459	1.3530136
26.751534126270258	1.7859436	1.336392
26.769549900255434	1.7928333	1.3389672
26.787566348241267	1.8271557	1.3517232
26.80558347074881	1.8208913	1.3494041
26.823601268299267	1.789216	1.3376158
26.841619741414036	1.7869024	1.3367507
26.85963889061465	1.7985442	1.3410981
26.877658716422832	1.8176595	1.348206
26.89567921936045	1.8271252	1.351712
26.913700399949544	1.797835	1.3408337
26.93172225871233	1.7969316	1.3404968
26.949744796171174	1.8239597	1.3505405
26.967768012848605	1.8160163	1.3475965
26.98579190926733	1.8126762	1.3463566
27.003816485950225	1.8390349	1.3561102
27.021841743420318	1.8586755	1.3633325
27.039867682200814	1.8148221	1.3471533
27.057894302815072	1.7974435	1.3406878
27.07592160578664	1.8196641	1.3489493
27.0939495916392	1.8367373	1.3552628
27.111978260896635	1.7973825	1.340665
27.13000761408296	1.791782	1.3385746
27.148037651722397	1.8352634	1.3547189
27.166068374339304	1.8668499	1.3663272
27.184099782458215	1.8523916	1.3610259
27.20213187660384	1.8203918	1.349219
27.22016465730105	1.8218533	1.3497604
27.23819812507487	1.836666	1.3552365
27.256232280450533	1.8286909	1.352291
27.274267123953383	1.8763323	1.3697928
27.292302656108987	1.8644534	1.3654499
27.31033887744306	1.8618833	1.3645084
27.32837578848146	1.8116715	1.3459835
27.34641338975026	1.801586	1.3422318
27.364451681775673	1.7728866	1.3314979
27.382490665084074	1.8116297	1.3459679
27.400530340202046	1.8309311	1.353119
27.41857070765629	1.824951	1.3509074
27.436611767973726	1.8033941	1.342905
27.454653521681404	1.8169389	1.3479388
27.472695969306564	1.8332498	1.3539755
27.490739111376627	1.8119578	1.3460898
27.508782948419153	1.825943	1.3512746
27.526827480961902	1.8310558	1.353165
27.54487270953279	1.8405482	1.356668
27.562918634659898	1.8060333	1.3438873
27.580965256871508	1.8237928	1.3504788
27.599012576696026	1.7887444	1.3374395
27.617060594662068	1.751454	1.323425
27.63510931129842	1.776308	1.332782
27.65315872713401	1.8031161	1.3428016
27.67120884269797	1.8264943	1.3514786
27.68925965851958	1.8691506	1.3671688
27.707311175128307	1.8535522	1.3614522
27.725363393053787	1.7905998	1.338133
27.74341631282583	1.8006581	1.341886
27.7614699349744	1.864937	1.3656269
27.77952426002968	2.0405486	1.4284778
27.797579288521973	2.1105223	1.4527637
27.815635020981784	2.4431748	1.5630659
27.83369145793979	2.5254514	1.5891669
27.85174859992682	2.4204428	1.5557772
27.869806447473923	2.2533028	1.5011005
27.887865001112267	1.9867301	1.4095142
27.905924261373233	1.8973721	1.3774513
27.92398422878836	1.8657937	1.3659406
27.94204490388936	1.868771	1.36703
27.96010628720813	1.8950639	1.3766131
27.978168379276728	1.8943259	1.3763452
27.9962311806274	1.8598757	1.3637726
28.014294691792568	1.8801036	1.3711687
28.0323589133048	1.8815482	1.3716954
28.050423845696887	1.8122805	1.3462096
28.068489489501758	1.8236595	1.3504294
28.086555845252523	1.8862932	1.3734239
28.104622913482487	1.9472483	1.3954384
28.122690694725115	1.8859957	1.3733156
28.14075918951405	1.8835156	1.3724123
28.15882839838312	1.9069834	1.3809357
28.176898321866304	1.9022541	1.3792223
28.1949689604978	1.9007165	1.3786647
28.213040314811945	1.8885815	1.3742567
28.23111238534327	1.8604358	1.3639779
28.249185172626493	1.8083705	1.3447566
28.267258677196473	1.7909976	1.3382816
28.285332899588294	1.8752576	1.3694005
28.303407840337172	1.9725906	1.4044894
28.321483499978545	1.9542711	1.3979524
28.33955987904799	1.8794384	1.3709261
28.357636978081285	1.8428673	1.3575225
28.37571479761439	1.879174	1.3708297
28.393793338183425	1.9455379	1.3948255
28.41187260032469	1.9765165	1.4058864
28.429952584574686	1.991396	1.4111683
28.448033291470065	2.0000384	1.4142271
28.46611472154769	2.0306847	1.4250209
28.484196875344566	2.0248988	1.4229894
28.502279753397914	1.9795039	1.4069484
28.52036335624511	1.9601091	1.400039
28.538447684423716	1.960048	1.4000171
28.556532738471482	1.9437562	1.3941866
28.574618518926325	1.981917	1.4078058
28.59270502632635	1.9702696	1.4036629
28.61079226120985	2.023274	1.4224184
28.628880224115274	2.092416	1.4465185
28.646968915581287	2.055551	1.4337193
28.66505833614671	2.0385587	1.4277811
28.68314848635055	2.081014	1.442572
28.701239366732004	2.0825188	1.4430935
28.71933097783044	2.082778	1.4431833
28.737423320185403	2.0220966	1.4220045
28.75551639433665	2.0631864	1.4363797
28.773610200824074	2.1460607	1.4649439
28.791704740187793	2.1658812	1.4716933
28.80980001296809	2.1719074	1.4737393
28.827896019705413	2.2023358	1.4840269
28.845992760940433	2.1809766	1.476813
28.86409023721397	2.1688087	1.4726876
28.88218844906704	2.2397277	1.496572
28.900287397040845	2.2980325	1.5159262
28.918387081676755	2.2757185	1.5085485
28.936487503516343	2.2512393	1.5004131
28.954588663101365	2.2688148	1.5062585
28.97269056097374	2.2505765	1.5001922
28.990793197675597	2.3053446	1.5183362
29.00889657374923	2.3237665	1.5243906
29.027000689737125	2.3185537	1.5226798
29.04510554618196	2.3240886	1.5244962
29.06321114362659	2.3658102	1.5381191
29.08131748261405	2.4529552	1.5661913
29.099424563687567	2.4807596	1.5750427
29.11753238739057	2.4699678	1.5716132
29.13564095426663	2.4985857	1.5806916
29.15375026485954	2.514541	1.5857304
29.171860319713275	2.5266025	1.589529
29.18997111937199	2.6066973	1.614527
29.20808266438002	2.6640666	1.6321969
29.226194955281898	2.7431953	1.6562594
29.244307992622335	2.7997212	1.6732367
29.26242177694624	2.7947402	1.6717477
29.2805363087987	2.830267	1.6823397
29.29865158872498	2.8217785	1.679815
29.316767617270557	2.7813773	1.6677462
29.334884394981064	2.8961897	1.7018195
29.353001922402367	3.0304477	1.7408181
29.37112020008047	3.0766885	1.7540492
29.389239228561596	3.113139	1.764409
29.407359008392152	3.2909017	1.8140843
29.42547954011872	3.6429224	1.9086441
29.44360082428809	4.24399	2.0600946
29.46172286144722	5.2592645	2.2933087
29.479845652143283	6.931717	2.6328154
29.497969196923606	9.208785	3.034598
29.516093496335728	12.016857	3.466534
29.5342185509274	14.907297	3.860997
29.55234436124651	17.435776	4.1756167
29.570470927841175	18.910078	4.348572
29.588598251259686	18.468773	4.297531
29.60672633205055	17.010622	4.1243935
29.624855170762405	14.866981	3.8557723
29.642984767944146	12.073671	3.4747188
29.66111512414481	9.223958	3.037097
29.67924623991366	6.7033467	2.5890822
29.697378115800138	5.0974045	2.2577431
29.71551075235387	4.1760297	2.0435336
29.733644150124675	3.7590618	1.93883
29.751778309662576	3.533148	1.879667
29.769913231517766	3.440835	1.8549488
29.78804891624066	3.4276521	1.8513919
29.806185364381818	3.3565433	1.8320872
29.82432257649206	3.305126	1.8180006
29.842460553122333	3.2713432	1.8086855
29.86059929482382	3.3013992	1.8169754
29.878738802147872	3.3420029	1.8281145
29.896879075646048	3.307354	1.8186132
29.915020115870114	3.339563	1.827447
29.933161923371976	3.2776713	1.810434
29.951304498703777	3.1727693	1.7812269
29.969447842417857	3.0939808	1.7589716
29.987591955066733	3.0688348	1.751809
30.005736837203123	3.1522455	1.7754564
30.023882489379943	3.177924	1.7826732
30.04202891215028	3.2197633	1.7943699
30.060176106067455	3.1655045	1.7791865
30.078324071684946	3.1319294	1.7697258
30.09647280955646	3.182491	1.7839538
30.114622320235863	3.1883218	1.7855872
30.132772604277257	3.1418753	1.7725335
30.1509236622349	3.0815575	1.7554365
30.16907549466328	3.0403736	1.7436666
30.18722810211705	3.0248313	1.7392042
30.205381485151097	3.1128035	1.7643139
30.22353564432045	3.0506155	1.7466011
30.241690580180403	2.9570475	1.7196068
30.25984629328638	2.9116144	1.7063453
30.278002784194037	2.9554102	1.7191306
30.296160053459246	2.8988948	1.7026141
30.314318101638033	2.923587	1.7098501
30.332476929286646	2.946449	1.7165223
30.35063653696153	2.9424095	1.7153453
30.368796925219307	2.9156342	1.7075229
30.386958094616844	2.8857749	1.6987568
30.40512004571115	2.9451947	1.716157
30.423282779059463	2.8764217	1.6960016
30.441446295219233	2.8002114	1.6733832
30.459610594748067	2.8554876	1.6898189
30.47777567820382	2.887241	1.6991884
30.495941546144504	2.8441417	1.6864583
30.51410819912835	2.786334	1.6692315
30.532275637713795	2.817071	1.6784133
30.55044386245946	2.8031156	1.6742507
30.56861287392416	2.7667959	1.6633688
30.586782672666956	2.856204	1.6900308
30.604953259247047	2.8941333	1.7012153
30.623124634223885	2.765762	1.663058
30.641296798157075	2.6996217	1.6430526
30.659469751606462	2.763065	1.6622471
30.677643495132074	2.7853267	1.6689298
30.695818029294152	2.6808207	1.6373212
30.713993354653116	2.721874	1.6498103
30.73216947176962	2.7737696	1.6654638
30.75034638120448	2.7852042	1.6688931
30.768524083518756	2.7748723	1.6657948
30.786702579273673	2.7442892	1.6565896
30.80488186903069	2.773941	1.6655153
30.82306195335144	2.8826728	1.6978436
30.841242832797782	3.108044	1.7629645
30.85942450793176	3.430543	1.8521725
30.877606979315637	3.7053463	1.9249276
30.895790247511883	3.9589796	1.9897184
30.913974313083134	4.392982	2.0959442
30.932159176592283	4.8730173	2.2074912
30.95034483860237	5.0432477	2.2457175
30.968531299676698	4.743019	2.1778474
30.98671856037873	4.3208895	2.078675
31.00490662127215	3.93871	1.9846183
31.023095482920848	3.404832	1.8452187
31.04128514588892	3.0725317	1.7528639
31.059475610740662	2.7932878	1.6713132
31.07766687804056	2.5957384	1.6111295
31.09585894835335	2.4142714	1.5537926
31.11405182224393	2.3589363	1.535883
31.132245500277417	2.4139123	1.5536771
31.15043998301914	2.4724896	1.5724152
31.168635271034628	2.5558643	1.5987071
31.18683136488964	2.5731637	1.6041085
31.20502826515008	2.5043907	1.5825267
31.223225972382135	2.4173331	1.5547775
31.241424487152155	2.430838	1.5591146
31.259623810026692	2.4705083	1.5717851
31.27782394157253	2.426573	1.5577462
31.296024882356644	2.3524098	1.5337567
31.314226632946237	2.3444045	1.5311449
31.332429193908684	2.3389552	1.5293643
31.350632565811598	2.3723047	1.5402287
31.368836749222787	2.4664147	1.5704823
31.387041744710295	2.535117	1.592205
31.40524755284232	2.5974538	1.6116618
31.423454174187317	2.6502233	1.6279507
31.441661609313922	2.648403	1.6273915
31.459869858791002	2.6069887	1.6146172
31.478078923187628	2.5633156	1.6010358
31.496288803073064	2.4325469	1.5596625
31.514499499016807	2.3879435	1.5452973
31.532711011588546	2.344645	1.5312234
31.550923341358178	2.2943194	1.5147011
31.56913648889584	2.2396462	1.4965447
31.587350454771844	2.2391171	1.4963679
31.605565239556732	2.321895	1.5237765
31.62378084382127	2.4039629	1.5504718
31.641997268136382	2.4287055	1.5584304
31.660214513073274	2.351925	1.5335987
31.67843257920331	2.2715948	1.507181
31.6966514670981	2.198546	1.4827495
31.71487117732944	2.2471077	1.4990356
31.733091710469346	2.3057601	1.5184729
31.751313067090052	2.3512006	1.5333625
31.769535247764008	2.3453908	1.5314668
31.787758253063878	2.32294	1.5241195
31.805982083562526	2.2682106	1.506058
31.824206739833024	2.1939442	1.4811969
31.84243222244869	2.2012186	1.4836504
31.860658531983013	2.2360685	1.4953489
31.878885669009737	2.1981716	1.4826232
31.897113634102784	2.1622446	1.4704573
31.91534242783632	2.1858866	1.4784744
31.933572050784694	2.1410651	1.4632379
31.951802503522508	2.1563087	1.4684374
31.970033786624548	2.2199836	1.4899609
31.988265900665834	2.274603	1.5081787
32.006498846221575	2.26969	1.506549
32.02473262386724	2.2650807	1.5050185
32.04296723417845	2.2324426	1.4941361
32.0612026777311	2.1658456	1.4716812
32.07943895510129	2.0935192	1.4468999
32.097676066865304	2.0342598	1.4262748
32.115914013599685	2.0776908	1.4414197
32.13415279588115	2.2481792	1.499393
32.152392414286666	2.2956948	1.5151551
32.1706328693934	2.1492627	1.4660364
32.18887416177875	2.026587	1.4235824
32.20711629202032	2.0778103	1.4414612
32.225359260695924	2.1395404	1.4627168
32.243603068383614	2.1203382	1.4561381
32.26184771566166	2.0688913	1.4383641
32.28009320310852	2.063375	1.4364452
32.2983395313029	2.123972	1.4573853
32.31658670082372	2.2121959	1.4873452
32.33483471225012	2.1836743	1.4777261
32.35308356616143	2.1496058	1.4661534
32.371333263137245	2.084787	1.4438791
32.38958380375734	2.1034007	1.4503106
32.407835188601744	2.1356592	1.4613894
32.42608741825067	2.1311884	1.459859
32.444340493284585	2.0374084	1.4273782
32.46259441428416	1.9721017	1.4043154
32.48084918183028	2.0463233	1.4304975
32.49910479650405	2.1536272	1.4675242
32.51736125888683	2.122472	1.4568707
32.53561856956014	2.0630724	1.43634
32.5538767291058	2.003428	1.4154251
32.572135738105764	2.0317526	1.4253956
32.59039559714228	2.0901508	1.4457355
32.608656306797776	2.1860225	1.4785204
32.62691786765491	2.0577157	1.434474
32.645180280296586	1.9482411	1.395794
32.663443545305896	1.9191478	1.3853331
32.68170766326619	1.9578003	1.3992141
32.69997263476099	1.9995574	1.414057
32.7182384603741	2.048331	1.4311992
32.7365051406895	2.048604	1.4312946
32.75477267629144	1.9334322	1.3904791
32.77304106776434	1.8753353	1.3694289
32.79131031569289	1.8875493	1.3738811
32.809580420661966	1.890435	1.3749309
32.827851383256714	1.9312696	1.3897012
32.84612320406245	1.9589949	1.3996409
32.86439588366476	1.951776	1.3970598
32.88266942264945	1.9488119	1.3959985
32.9009438216025	1.931889	1.3899242
32.9192190811102	1.9606174	1.4002205
32.937495201758985	1.9762398	1.405788
32.95577218413556	1.9252925	1.387549
32.974050028826866	1.9354408	1.3912013
32.992328736420035	2.0356066	1.4267468
33.010608307502444	2.10031	1.4492446
33.02888874266169	2.071861	1.439396
33.047170042485604	2.0716562	1.439325
33.06545220756225	2.0328903	1.4257946
33.083735238479896	2.0320508	1.4255002
33.10201913582707	1.99793	1.4134816
33.12030390019248	1.9782612	1.4065068
33.138589532165135	1.8957537	1.3768637
33.15687603233419	1.9524826	1.3973126
33.17516340128909	1.9775075	1.4062388
33.19345163961947	1.9717484	1.4041896
33.211740747915215	1.9451464	1.394685
33.23003072676643	1.8825918	1.3720758
33.248321576763466	1.8866074	1.3735383
33.266613298496885	1.9822999	1.4079417
33.28490589255747	2.0767124	1.4410803
33.30319935953626	2.0649498	1.4369934
33.32149370002451	1.9220736	1.3863887
33.339788914613706	1.8659644	1.366003
33.358085003895575	1.9838802	1.4085028
33.376381968462034	2.022553	1.4221649
33.39467980890529	1.9379059	1.3920869
33.41297852581774	1.8995962	1.3782583
33.43127811979204	1.883071	1.3722503
33.44957859142105	1.9000939	1.378439
33.467879941297866	1.9006169	1.3786286
33.486182170015844	1.8626341	1.3647835
33.50448527816853	1.8820422	1.3718754
33.522789266349754	2.0014443	1.4147241
33.541094135153514	1.9630904	1.4011033
33.55939988517411	1.8982627	1.3777746
33.57770651700602	1.9411861	1.3932645
33.59601403124398	1.9574182	1.3990777
33.61432242848296	1.9042052	1.3799294
33.632631709318154	1.8712986	1.3679541
33.650941874344994	1.7589384	1.3262497
33.66925292415916	1.7986541	1.3411391
33.68756485935654	1.8487097	1.3596727
33.70587768053328	1.8693919	1.3672571
33.724191388285746	1.7925475	1.3388605
33.74250598321054	1.8118949	1.3460665
33.760821465904506	1.8838934	1.37255
33.77913783696474	1.9662914	1.4022452
33.79745509698852	2.0429368	1.4293134
33.815773246573414	2.0277622	1.4239951
33.8340922863172	1.901683	1.3790152
33.852412216817896	1.8861903	1.3733864
33.87073303867377	1.9755492	1.4055424
33.889054752483304	2.002195	1.4149894
33.907377358845245	1.9232632	1.3868177
33.92570085835853	1.8506993	1.3604041
33.94402525162239	1.834211	1.3543304
33.96235053923627	1.8982183	1.3777584
33.980676721799824	1.9776334	1.4062835
33.999003799912984	1.9426337	1.3937839
34.01733177417592	1.8878495	1.3739903
34.03566064518901	1.8636945	1.365172
34.0539904135529	1.8226007	1.3500373
34.07232107986846	1.8812758	1.3715961
34.090652644736785	1.9604696	1.4001677
34.108985108759235	2.0253632	1.4231526
34.12731847253742	2.0290735	1.4244555
34.14565273667313	1.9648737	1.4017395
34.16398790176847	1.9164028	1.3843421
34.18232396842574	1.9710706	1.4039482
34.20066093724749	1.997347	1.4132752
34.21899880883651	1.9577954	1.3992124
34.23733758379583	1.8390794	1.3561267
34.25567726272874	1.8413513	1.356964
34.27401784623872	1.9392135	1.3925564
34.29235933492957	1.9466939	1.3952397
34.31070172940526	1.8120503	1.3461242
34.32904503027003	1.8121917	1.3461767
34.347389238128386	1.9622012	1.4007859
34.36573435358502	2.020778	1.4215407
34.38408037724492	1.9710389	1.403937
34.402427309713296	2.0302818	1.4248796
34.42077515159559	2.0900793	1.4457107
34.43912390349752	1.934721	1.3909425
34.45747356602499	1.8006905	1.3418981
34.47582413978423	1.7216159	1.3121036
34.49417562538163	1.8195578	1.3489099
34.51252802342388	1.9473906	1.3954893
34.53088133451789	1.9916133	1.4112453
34.54923555927084	2.045535	1.430222
34.567590698290104	1.9655287	1.4019731
34.58594675218336	1.8959489	1.3769346
34.6043037215585	1.8998156	1.378338
34.62266160702365	1.9688219	1.4031471
34.641020409187234	2.0396893	1.4281769
34.65938012865785	2.161236	1.4701144
34.677740766044394	2.1156368	1.4545228
34.69610232195598	2.134329	1.4609343
34.714464797002016	2.124368	1.4575212
34.73282819179208	2.077977	1.441519
34.751192506936064	1.8057197	1.3437707
34.76955774304408	1.8038124	1.3430609
34.7879239007265	2.123678	1.4572845
34.80629098059391	2.1262429	1.4581642
34.824658983257194	1.996319	1.4129115
34.843027909327446	1.9558151	1.3985046
34.86139775941603	1.9751734	1.4054086
34.879768534134534	1.9505581	1.3966238
34.89814023409483	1.9525173	1.397325
34.91651285990901	1.8900613	1.374795
34.93488641218944	1.7554278	1.3249255
34.95326089154871	1.7586029	1.3261232
34.97163629859967	1.8515083	1.3607014
34.99001263395542	1.9042124	1.379932
35.00838989822934	1.9621091	1.400753
35.02676809203499	2.0333858	1.4259684
35.04514721598624	2.1994648	1.4830593
35.063527270697215	2.1178439	1.4552814
35.081908256782256	2.0104878	1.4179167
35.10029017485597	2.0338202	1.4261206
35.11867302553321	1.87816	1.3704598
35.137056809429104	1.763314	1.3278984
35.155441527159006	1.8876023	1.3739004
35.173827179338524	1.8988324	1.3779813
35.19221376658354	2.09169	1.4462676
35.21060128951017	2.2623096	1.5040976
35.2289897487348	2.3153656	1.5216326
35.24737914487405	2.0898619	1.4456354
35.26576947854479	2.0807362	1.4424757
35.28416075036418	2.0707464	1.4390088
35.30255296094958	1.9176121	1.3847787
35.32094611091867	1.9128901	1.3830727
35.33934020088932	1.7671814	1.3293538
35.35773523147969	1.8630912	1.364951
35.3761312033082	1.9146605	1.3837125
35.394528116993506	1.9750252	1.4053559
35.41292597315452	2.0373473	1.4273567
35.431324772410434	2.0998569	1.4490883
35.449724515380666	2.2149208	1.488261
35.46812520268491	2.4179482	1.5549753
35.486526834943106	2.2364528	1.4954774
35.504929412775454	1.8412093	1.3569117
35.52333293680242	1.5269243	1.2356877
35.54173740764471	1.2605845	1.1227576
35.560142825923286	1.5205411	1.2331022
35.5785491922594	1.6512748	1.2850194
35.59695650727454	1.5939056	1.2624997
35.61536477159042	1.8569168	1.3626873
