0.008763373481513119	0.0	0.0
0.026290120649546365	0.11242709	0.3353015
0.043816868432600686	0.121336736	0.34833422
0.06134361724069026	0.08375415	0.2894031
0.07887036748382949	0.08485419	0.29129744
0.0963971195720331	0.16918133	0.41131657
0.11392387391531617	0.31437102	0.56068796
0.1314506309236943	0.30331042	0.55073625
0.1489773910071836	0.2100161	0.45827514
0.16650415457580078	0.114266485	0.33803326
0.18403092203956356	0.13218978	0.36357912
0.20155769380849	0.15729094	0.3965992
0.2190844702925996	0.21279061	0.46129233
0.2366112519019124	0.28502363	0.53387606
0.2541380390464497	0.28460073	0.5334798
0.27166483213623416	0.23770906	0.48755416
0.28919163158128947	0.17784418	0.42171577
0.3067184377916406	0.12759633	0.35720628
0.324245251177314	0.12992059	0.360445
0.34177207214833777	0.10650275	0.3263476
0.3592989011147415	0.121651754	0.34878612
0.37682573848655654	0.10589587	0.32541645
0.39435258467381573	0.12105897	0.3479353
0.41187944008655414	0.105591975	0.32494918
0.42940630513480854	0.115534656	0.3399039
0.446933180228618	0.12510593	0.35370317
0.4644600657780234	0.14912756	0.3861704
0.48198696219306775	0.13079241	0.36165234
0.49951386988379676	0.1315569	0.36270773
0.5170407892602581	0.18993019	0.4358098
0.5345677207325025	0.20373179	0.45136657
0.5520946647105822	0.18864635	0.43433437
0.5696216216045534	0.16849583	0.41048244
0.5871485918244737	0.17893906	0.4230119
0.6046755757804043	0.20069651	0.44799164
0.6222025738824094	0.18943575	0.43524218
0.6397295865405557	0.16535297	0.40663618
0.6572566141649129	0.20302479	0.4505827
0.6747836571655547	0.18944658	0.43525463
0.6923107159525568	0.20151408	0.4489032
0.7098377909359992	0.19053936	0.43650815
0.7273648825259653	0.14190643	0.3767047
0.7448919911325411	0.15454176	0.393118
0.762419117165817	0.15603898	0.3950177
0.7799462610358868	0.179429	0.4235906
0.7974734231528482	0.19691347	0.44374934
0.8150006039268024	0.22529377	0.47465122
0.8325278037678551	0.258072	0.5080079
0.8500550230861152	0.27982616	0.528986
0.8675822622916969	0.2677766	0.5174714
0.8851095217947171	0.26225823	0.51211154
0.9026368020052984	0.22550778	0.47487658
0.9201641033335665	0.24247834	0.4924209
0.9376914261896523	0.24235931	0.49230003
0.9552187709836915	0.26221684	0.51207113
0.9727461381258234	0.31366193	0.5600553
0.990273528026193	0.29057142	0.53904676
1.0078009410949496	0.2630265	0.5128611
1.0253283777422473	0.26314485	0.51297647
1.0428558383782454	0.26489037	0.514675
1.0603833234131086	0.26585704	0.51561326
1.0779108332570058	0.2594872	0.5093989
1.0954383683201119	0.25264725	0.5026403
1.112965929012607	0.31243786	0.5589614
1.1304935157446763	0.47033167	0.6858073
1.1480211289265108	0.50454557	0.71031374
1.1655487689683062	1.400515	1.1834335
1.1830764362802655	1.6821469	1.2969761
1.200604131272596	2.0721936	1.4395115
1.2181318543555117	2.3567882	1.5351834
1.235659605939232	2.4705915	1.5718116
1.253187386433982	4.006871	2.001717
1.270715196249994	6.579196	2.5649943
1.2882430357975057	12.263687	3.5019548
1.3057709054867608	17.327545	4.1626368
1.3232988057280106	23.010601	4.7969365
1.3408267369315112	27.68166	5.2613363
1.358354699507526	31.05424	5.5726333
1.3758826938663256	35.023285	5.9180474
1.3934107204181858	36.86343	6.071526
1.410938779573391	37.273277	6.1051846
1.4284668717422309	37.811443	6.149101
1.4459949973350033	37.48586	6.1225696
1.4635231567620117	37.51664	6.125083
1.4810513504335687	36.854588	6.070798
1.4985795787599925	36.046764	6.0038958
1.5161078421516088	35.769753	5.980782
1.5336361410187505	34.98152	5.914518
1.5511644757717598	34.80174	5.8992996
1.5686928468209842	35.137127	5.9276576
1.58622125457678	35.571148	5.964155
1.6037496994495108	36.6826	6.056616
1.621278181849548	37.076294	6.0890307
1.6388067021872719	38.071934	6.1702456
1.6563352608730693	37.531204	6.1262717
1.673863858317336	36.520374	6.043209
1.6913924949304753	35.561882	5.9633784
1.7089211711228998	34.484505	5.8723507
1.7264498873050296	33.90343	5.822665
1.7439786438872935	33.041878	5.7482066
1.7615074412801288	32.203304	5.6747956
1.779036279893981	31.240877	5.589354
1.796565160139305	30.45161	5.5182977
1.814094082426564	29.67289	5.447283
1.8316230471662298	28.727827	5.3598347
1.849152054768784	27.52488	5.246416
1.8666811056447168	26.965786	5.192859
1.8842102002045273	26.472296	5.1451235
1.901739338858724	26.439749	5.1419597
1.9192685220178245	26.264572	5.1248975
1.9367977500923557	25.793375	5.0787177
1.9543270234928547	25.27518	5.027443
1.971856342629867	24.64054	4.963924
1.9893857079139496	23.631897	4.861265
2.006915119755667	22.881693	4.783481
2.0244445785655945	22.299656	4.722251
2.0419740847543175	22.03989	4.6946664
2.0595036387324317	21.59485	4.647026
2.0770332409105414	21.103638	4.5938697
2.094562891699263	20.782743	4.5588093
2.1120925915092217	20.118618	4.4853783
2.129622340751053	19.784912	4.4480233
2.1471521398354043	187.92802	13.708684
2.1646819891729323	444.30502	21.078545
2.182211889174303	440.4598	20.987135
2.1997418402501974	452.875	21.280859
2.2172718428113023	432.9509	20.807472
2.234801897268317	321.04843	17.917824
2.2523320040319548	17.483332	4.1813073
2.269862163512935	16.842419	4.1039515
2.287392376121992	16.217304	4.0270715
2.304922642269869	15.825431	3.978119
2.322452962367322	15.623427	3.9526482
2.3399833368251164	15.26507	3.907054
2.357513766054032	15.132873	3.8900993
2.3750442504648586	14.961647	3.8680289
2.3925747904683963	14.786761	3.8453557
2.410105386475459	14.603978	3.821515
2.4276360388968707	14.326677	3.7850597
2.445166748143469	14.231219	3.7724288
2.4626975146261025	13.7637005	3.7099462
2.4802283387556323	13.46584	3.669583
2.4977592209429305	13.336876	3.6519687
2.5152901615988825	13.117077	3.6217506
2.5328211611343865	12.914326	3.5936508
2.5503522199603523	12.57941	3.5467463
2.5678833384877024	12.360818	3.5157955
2.5854145171273712	12.161487	3.4873323
2.6029457562903064	12.067853	3.4738815
2.620477056387469	11.835879	3.4403312
2.6380084178298326	11.759582	3.4292247
2.655539841028383	11.554437	3.3991818
2.673071326394119	11.267306	3.3566809
2.6906028743380523	11.021093	3.3198032
2.708134485271211	10.796153	3.28575
2.7256661596046325	10.840017	3.2924182
2.743197897749369	10.679484	3.2679482
2.760729700116486	10.678396	3.2677815
2.778261567117063	10.408621	3.2262394
2.795793499162193	10.347352	3.21673
2.8133254966629817	10.249427	3.2014725
2.830857560030551	10.228956	3.198274
2.8483896896760337	10.037907	3.1682656
2.865921886010578	9.841177	3.137065
2.883454149445347	9.660793	3.1081817
2.9009864803915177	9.464587	3.076457
2.91851887926028	9.281308	3.046524
2.9360513464628384	9.240602	3.0398357
2.953583882410413	9.101788	3.016917
2.9711164875142373	8.774685	2.9622095
2.9886491621855606	8.590211	2.930906
3.0061819068356455	8.349642	2.8895748
3.023714721875769	8.42285	2.9022145
3.041247607717225	8.302962	2.8814862
3.0587805647713213	8.258058	2.8736837
3.0763135934493806	8.169744	2.8582764
3.0938466941627407	8.0996475	2.845988
3.1113798673227544	7.992822	2.827158
3.1289131133407904	7.9921603	2.827041
3.1464464326282315	7.9293313	2.8159068
3.1639798255964786	7.818768	2.796206
3.1815132926569443	7.607651	2.758197
3.1990468342210603	7.558772	2.7493222
3.216580450700272	7.4838576	2.7356641
3.2341141425060416	7.3801384	2.716641
3.251647910049847	7.2341676	2.6896408
3.2691817537431813	7.0794163	2.6607172
3.286715673997555	6.9542484	2.637091
3.3042496712244938	7.0285835	2.6511476
3.32178374583554	7.0695157	2.6588562
3.339317898242251	7.040982	2.6534848
3.3568521288562034	7.0681095	2.6585917
3.3743864380889876	6.9959807	2.6449916
3.3919208263522127	6.937203	2.633857
3.4094552940575023	6.829411	2.6133142
3.4269898416164972	6.6958547	2.587635
3.444524469440858	6.6374097	2.576317
3.4620591779422587	6.4484487	2.5393796
3.479593967532391	6.295801	2.5091436
3.4971288386229658	6.1997285	2.4899254
3.5146637916257086	6.163791	2.4826984
3.5321988269523628	6.250484	2.5000968
3.5497339450146903	6.2441764	2.498835
3.5672691462244708	6.268275	2.5036523
3.5848044309934988	6.2780724	2.505608
3.60233979973359	6.229437	2.495884
3.619875252856575	6.25798	2.5015955
3.6374107907743034	6.1958756	2.4891515
3.6549464138986427	6.158674	2.4816675
3.6724821226414788	6.1283145	2.4755433
3.690017917414714	6.1562767	2.4811845
3.7075537986302702	6.2729635	2.5045886
3.7250897667000857	6.4016004	2.5301385
3.7426258220361235	6.579535	2.5650604
3.7601619650503553	6.871665	2.621386
3.777698196154779	7.403151	2.720873
3.7952345157614067	8.193898	2.8624985
3.8127709242822716	9.07454	3.0123978
3.830307422129425	11.137464	3.3372838
3.847844009714936	30.006544	5.477823
3.8653806874508954	97.43699	9.871017
3.882917455749409	96.52669	9.8248
3.900454315022606	96.28444	9.812464
3.917991265682631	40.953392	6.3994837
3.9355283081416506	10.849965	3.2939286
3.9530654428118495	8.881876	2.9802477
3.970602670105433	7.769496	2.7873816
3.9881399904346244	6.814722	2.6105022
4.005677404211669	6.6012535	2.5692904
4.023214911848827	6.472215	2.544055
4.0407525137583855	6.4515476	2.5399897
4.058290210352644	6.5049095	2.5504725
4.075828002043927	6.4461646	2.5389297
4.0933658892445814	6.244407	2.498881
4.110903872366966	6.0546746	2.460625
4.128441951823468	5.969641	2.443285
4.145980128026488	6.079685	2.4657018
4.163518401388452	6.210031	2.4919934
4.181056772321807	6.183659	2.4866965
4.1985952412390155	6.148366	2.47959
4.216133808552567	6.1352034	2.4769342
4.233672474674966	6.30752	2.5114777
4.251211240018741	6.609286	2.5708532
4.268750104996445	6.8517604	2.6175869
4.286289070020643	7.801779	2.7931664
4.303828135503928	9.330031	3.05451
4.3213673018589125	29.512152	5.432509
4.3389065694982305	90.50538	9.513432
4.356445938834537	165.67033	12.871299
4.3739854102805085	171.30556	13.088375
4.391524984248844	172.191	13.122156
4.409064661152262	136.2865	11.674181
4.426604441403504	96.83341	9.840397
4.444144325415337	75.734566	8.70256
4.461684313600543	21.678028	4.6559668
4.47922440637193	21.811632	4.6702924
4.496764604142329	20.002495	4.472415
4.5143049073245916	18.29861	4.2776875
4.531845316331589	16.303375	4.037744
4.5493858315762195	13.574427	3.6843488
4.566926453471405	11.215511	3.3489568
4.584467182430081	9.258279	3.042742
4.602008018865218	8.200641	2.863676
4.619548963189798	7.5409937	2.746087
4.637090015816834	7.118914	2.6681294
4.654631177159353	6.8285537	2.6131501
4.672172447630417	6.5917416	2.5674386
4.689713827643102	6.3768263	2.5252378
4.7072553176105085	6.106622	2.471158
4.724796917945764	5.987023	2.4468393
4.742338629062015	5.852835	2.4192634
4.759880451372434	5.7511935	2.3981645
4.777422385290215	5.7743955	2.4029973
4.794964431228581	5.783359	2.4048615
4.812506589600768	5.759537	2.3999035
4.830048860820047	5.7011895	2.3877163
4.847591245299709	5.62387	2.37147
4.8651337434530655	5.6247597	2.3716576
4.882676355693457	5.58002	2.3622067
4.900219082434242	5.548856	2.3556008
4.917761924088813	5.4595447	2.336567
4.935304881070575	5.495567	2.3442626
4.952847953792969	5.46377	2.3374708
4.970391142669449	5.516774	2.3487813
4.9879344481135055	5.591256	2.3645837
5.005477870538642	5.6045	2.3673825
5.023021410358394	5.5294714	2.3514829
5.040565067986324	5.3986273	2.3234947
5.05810884383601	5.4302783	2.3302958
5.075652738321066	5.497464	2.3446672
5.09319675185512	5.426085	2.3293958
5.110740884851836	5.357012	2.314522
5.128285137724894	5.23896	2.2888775
5.145829510888007	5.235609	2.2881453
5.163374004754908	5.2282486	2.2865365
5.1809186197393595	5.2342286	2.2878437
5.198463356255145	5.300858	2.3023593
5.216008214716077	5.348157	2.3126082
5.233553195535998	5.256317	2.292666
5.251098299128764	5.21059	2.2826717
5.268643525908272	5.1812224	2.2762299
5.286188876288432	5.161613	2.2719183
5.3037343506831895	5.201859	2.2807584
5.32127994950651	5.1135073	2.2613065
5.3388256731723915	5.159126	2.271371
5.356371522094851	5.132226	2.2654417
5.373917496687938	5.148065	2.2689347
5.391463597365729	5.1100464	2.2605412
5.40900982454232	5.1206837	2.2628927
5.426556178631843	5.157247	2.2709572
5.444102660048449	5.2055297	2.281563
5.4616492692063225	5.236715	2.288387
5.479196006519669	5.224068	2.2856221
5.496742872402727	5.1435103	2.2679307
5.514289867269756	5.145771	2.2684293
5.531836991535049	5.1429696	2.2678115
5.549384245612924	5.141601	2.26751
5.566931629917724	5.183691	2.276772
5.584479144863822	5.1988335	2.280095
5.6020267908656205	5.234645	2.2879345
5.619574568337545	5.187263	2.2775564
5.637122477694054	5.168976	2.273538
5.654670519349629	5.1311893	2.2652128
5.672218693718784	5.108012	2.2600913
5.689767001216059	5.1200304	2.2627485
5.707315442256021	5.1751075	2.2748864
5.724864017253266	5.2195334	2.2846298
5.7424127266224225	5.181602	2.2763133
5.75996157077814	5.1763167	2.275152
5.777510550135105	5.150235	2.269413
5.795059665108022	5.114422	2.2615087
5.812608916111639	5.130306	2.2650177
5.830158303560715	5.1831646	2.2766564
5.847707827870055	5.2437096	2.2899148
5.86525748945448	5.351695	2.313373
5.8828072887288485	5.463017	2.3373098
5.900357226108044	5.5415206	2.3540435
5.917907302006979	5.552989	2.356478
5.9354575168406	6.0539713	2.460482
5.9530078710238765	6.576765	2.5645204
5.970558364971812	7.1402817	2.6721306
5.988108999099438	7.5650477	2.7504632
6.005659773821818	8.111076	2.847995
6.023210689554039	7.917531	2.8138108
6.040761746711227	8.233506	2.8694086
6.058312945708531	7.6249547	2.761332
6.075864286961132	7.132565	2.6706862
6.093415770884244	6.481774	2.5459328
6.1109673978931065	5.9392796	2.4370637
6.128519168402993	5.3829947	2.3201282
6.146071082829204	5.2678785	2.295186
6.163623141587075	5.251894	2.291701
6.181175345091969	5.2154512	2.2837362
6.198727693759281	5.2085824	2.2822318
6.216280188004435	5.160676	2.271712
6.233832828242885	5.1066794	2.2597964
6.251385614890126	5.047415	2.2466452
6.268938548361669	5.0082154	2.2379043
6.286491629073067	5.0192037	2.2403579
6.304044857439898	5.05986	2.2494133
6.321598233877777	5.0141816	2.2392368
6.339151758802344	4.9347034	2.2214193
6.356705432629277	4.8537807	2.2031298
6.37425925577428	4.8357244	2.199028
6.391813228653095	4.864545	2.2055714
6.409367351681486	4.958225	2.2267072
6.426921625275259	5.0176673	2.240015
6.44447604985025	5.077295	2.2532854
6.46203062582232	5.044252	2.2459412
6.47958535360737	5.045888	2.2463055
6.497140233621328	5.0645103	2.2504468
6.514695266280161	5.087883	2.2556336
6.532250451999859	5.061882	2.2498627
6.549805791196454	4.968586	2.2290325
6.567361284286002	4.9756894	2.2306254
6.584916931684597	5.0068674	2.237603
6.602472733808367	4.9615545	2.2274547
6.6200286910734665	4.897828	2.2131038
6.637584803896092	4.8838606	2.209946
6.655141072692462	4.972007	2.2297997
6.672697497878842	4.992585	2.2344093
6.690254079871514	4.9526973	2.2254655
6.707810819086808	4.9845	2.2325993
6.725367715941078	4.9551353	2.2260134
6.742924770850719	4.974726	2.2304094
6.760481984232151	4.948187	2.224452
6.778039356501836	4.964465	2.228108
6.795596888076266	4.986437	2.2330332
6.813154579371963	5.0098343	2.238266
6.830712430805492	4.9677024	2.2288344
6.84827044279344	4.893597	2.2121477
6.865828615752445	4.874845	2.207905
6.883386950099159	4.932116	2.2208369
6.900945446250287	4.9838243	2.232448
6.918504104622553	4.9621696	2.2275927
6.936062925632727	4.9815407	2.2319365
6.953621909697607	4.9464483	2.2240613
6.971181057234028	5.019334	2.240387
6.988740368658859	5.1078143	2.2600474
7.006299844389007	5.21908	2.2845306
7.023859484841407	5.256188	2.2926378
7.041419290433036	5.288866	2.2997534
7.058979261580902	5.416884	2.32742
7.0765393987020495	5.6097884	2.3684993
7.094099702213559	5.9847026	2.446365
7.111660172532549	6.3740187	2.5246818
7.129220810076164	6.723098	2.5928936
7.146781615261595	7.3329296	2.7079382
7.16434258850606	7.597108	2.7562852
7.181903730226821	8.08595	2.8435805
7.1994650408411704	8.315254	2.8836184
7.217026520766437	8.413928	2.9006772
7.234588170419983	8.582105	2.929523
7.252149990219215	8.466891	2.9097924
7.269711980581568	8.250498	2.872368
7.2872741419245175	8.025009	2.8328447
7.304836474665574	7.5969563	2.7562578
7.322398979222286	7.3396177	2.709173
7.339961656012233	7.1502924	2.6740031
7.357524505453039	6.8182464	2.6111772
7.375087527962357	6.5680695	2.5628245
7.392650723957886	6.271831	2.5043623
7.410214093857353	5.956687	2.4406326
7.427777638078528	5.7508283	2.3980885
7.445341357039213	5.5317354	2.3519642
7.4629052511572525	5.369232	2.3171604
7.480469320850524	5.224265	2.285665
7.498033566536948	5.1533403	2.270097
7.5155979886344735	5.1366887	2.2664263
7.5331625875610975	5.1176763	2.2622283
7.550727363734844	5.1550446	2.2704723
7.568292317573788	5.1625023	2.272114
7.585857449496025	5.131733	2.265333
7.603422759919705	5.122655	2.2633283
7.620988249263007	5.1459546	2.2684696
7.638553917944147	5.1888876	2.277913
7.656119766381391	5.231654	2.287281
7.673685794993023	5.208882	2.2822976
7.691252004197388	5.2817335	2.2982023
7.70881839441285	5.3185186	2.3061914
7.726384966057826	5.3013496	2.302466
7.743951719550762	5.213994	2.2834172
7.761518655310149	5.2434363	2.289855
7.779085773754511	5.2671194	2.2950206
7.796653075302419	5.3237443	2.3073242
7.814220560372475	5.3129725	2.3049886
7.831788229383323	5.297116	2.3015463
7.8493560827536495	5.213651	2.2833421
7.866924120902174	5.1870785	2.277516
7.884492344247663	5.23418	2.287833
7.9020607532089135	5.2723207	2.2961535
7.919629348204771	5.38226	2.31997
7.937198129654115	5.404169	2.3246868
7.954767097975865	5.408254	2.3255653
7.972336253588986	5.3800554	2.3194947
7.989905596912472	5.3505545	2.3131266
8.007475128365371	5.3306518	2.3088205
8.025044848366756	5.42055	2.3282075
8.042614757335754	5.6024065	2.3669403
8.060184855691523	5.7572136	2.3994195
8.07775514385327	5.897642	2.4285061
8.095325622240228	5.8911805	2.4271755
8.112896291271687	5.824882	2.4134793
8.130467151366968	5.8296537	2.4144676
8.148038202945436	5.8672466	2.42224
8.165609446426497	5.8633375	2.421433
8.183180882229594	5.9260273	2.4343433
8.200752510774217	5.930127	2.4351852
8.218324332479893	6.0210433	2.4537814
8.235896347766193	6.0751877	2.4647896
8.253468557052724	6.1141906	2.472689
8.27104096075914	6.1059856	2.4710293
8.288613559305137	6.079987	2.465763
8.306186353110448	6.1390266	2.477706
8.32375934259485	6.17248	2.4844477
8.341332528178162	6.202214	2.4904244
8.358905910280246	6.194504	2.488876
8.376479489321003	6.208038	2.4915934
8.394053265720377	6.2431574	2.498631
8.411627239898356	6.2252555	2.4950461
8.42920141227497	6.1844583	2.4868572
8.44677578327029	6.1728115	2.4845142
8.464350353304427	6.1506066	2.4800417
8.48192512279754	6.106629	2.4711595
8.499500092169827	6.094145	2.4686322
8.51707526184153	6.0642095	2.4625616
8.534650632232934	6.12472	2.4748173
8.552226203764365	6.181315	2.4862251
8.569801976856192	6.1874995	2.4874685
8.587377951928834	6.2586665	2.5017326
8.60495412940274	6.292124	2.5084107
8.622530509698416	6.4179006	2.5333576
8.6401070932364	6.5209928	2.5536234
8.657683880437283	6.595234	2.5681188
8.675260871721695	6.707854	2.5899525
8.692838067510303	6.8417025	2.6156647
8.710415468223834	6.989537	2.6437733
8.727993074283043	7.130183	2.6702404
8.745570886108737	7.147971	2.673569
8.763148904121765	7.2468233	2.6919925
8.78072712874302	7.2950687	2.7009385
8.798305560393441	7.5155034	2.741442
8.815884199494006	7.619806	2.7603996
8.833463046465745	7.7917595	2.7913723
8.851042101729728	7.9167686	2.8136752
8.86862136570707	8.214373	2.8660727
8.886200838818924	8.405876	2.899289
8.903780521486505	8.440874	2.9053183
8.921360414131055	8.514621	2.9179823
8.938940517173874	8.648929	2.940906
8.956520831036297	8.831278	2.9717467
8.97410135613971	9.1350765	3.022429
8.99168209290554	9.237468	3.0393202
9.009263041755265	9.5235	3.086017
9.026844203110405	9.738968	3.1207318
9.044425577392525	9.867102	3.1411943
9.062007165023239	9.89953	3.1463518
9.079588966424197	10.13712	3.1838844
9.097170982017108	10.243801	3.200594
9.11475321222372	11.147566	3.338797
9.132335657465825	11.995205	3.4634094
9.149918318165264	12.035605	3.469237
9.167501194743924	12.506668	3.5364769
9.18508428762374	12.226497	3.4966407
9.202667597226693	12.214001	3.4948535
9.220251123974803	11.879524	3.4466686
9.237834868290143	11.638396	3.4115093
9.255418830594836	11.367347	3.3715496
9.273003011311046	10.895146	3.3007796
9.290587410860985	10.720429	3.2742066
9.308172029666911	10.166544	3.1885018
9.32575686815113	9.896227	3.1458268
9.343341926735997	8.692501	2.948305
9.360927205843916	8.470298	2.9103775
9.378512705897327	8.316426	2.8838215
9.396098427318728	8.129584	2.8512425
9.413684370530664	8.091478	2.8445525
9.431270535955722	7.9912467	2.8268793
9.448856924016539	7.911951	2.812819
9.466443535135806	7.7221737	2.77888
9.484030369736251	7.7399673	2.7820797
9.501617428240658	7.854489	2.802586
9.519204711071852	7.8954678	2.8098874
9.536792218652714	7.8933744	2.809515
9.55437995140617	7.7841883	2.790016
9.571967909755191	7.7887273	2.7908292
9.589556094122802	7.7763224	2.788606
9.60714450493207	7.7981663	2.7925198
9.624733142606116	7.8124995	2.795085
9.642322007568108	7.858935	2.8033793
9.659911100241267	7.906078	2.811775
9.677500421048851	7.9197574	2.8142064
9.695089970414175	7.9849505	2.8257654
9.712679748760609	8.017515	2.8315217
9.730269756511557	8.098366	2.8457627
9.747859994090492	8.101997	2.8464007
9.765450461920915	8.056271	2.838357
9.78304116042639	8.092472	2.844727
9.800632090030527	8.116331	2.8489175
9.81822325115699	8.21008	2.8653238
9.835814644229481	8.288935	2.879051
9.853406269671762	8.280797	2.8776374
9.870998127907646	8.250891	2.8724363
9.888590219360985	8.169249	2.8581898
9.906182544455698	8.1903715	2.8618824
9.923775103615734	8.244706	2.8713596
9.941367897265108	8.306729	2.8821397
9.958960925827878	8.278429	2.8772259
9.97655418972816	8.244777	2.871372
9.994147689390106	8.206874	2.8647642
10.011741425237934	8.20273	2.8640409
10.029335397695904	8.218966	2.8668737
10.04692960718833	8.247079	2.8717728
10.06452405413958	8.247663	2.8718743
10.082118738974064	8.301149	2.8811715
10.099713662116246	8.264917	2.874877
10.117308823990651	8.234212	2.8695316
10.134904225021844	8.210448	2.865388
10.152499865634445	8.1813965	2.8603141
10.170095746253125	8.196736	2.8629942
10.18769186730261	8.207264	2.8648322
10.205288229207675	8.206492	2.8646977
10.222884832393145	8.189404	2.8617134
10.2404816772839	8.114451	2.8485875
10.258078764304868	8.05936	2.838901
10.275676093881035	8.028251	2.8334167
10.293273666437438	8.062263	2.8394125
10.310871482399158	8.123263	2.850134
10.32846954219134	8.121016	2.8497396
10.346067846239173	8.149113	2.854665
10.363666394967908	8.081469	2.8427923
10.38126518880283	8.057372	2.838551
10.398864228169298	8.097611	2.8456302
10.416463513492713	8.076759	2.841964
10.434063045198531	8.059329	2.8388958
10.451662823712262	8.0595045	2.8389266
10.469262849459467	8.09892	2.8458602
10.486863122865758	8.123	2.8500876
10.504463644356806	8.086544	2.843685
10.522064414358338	8.085468	2.8434958
10.539665433296118	8.02299	2.8324883
10.557266701595987	7.926904	2.815476
10.574868219683818	7.79487	2.7919295
10.592469987985552	7.609328	2.758501
10.610072006927185	7.429237	2.7256627
10.627674276934751	7.275671	2.6973453
10.64527679843435	7.1901846	2.681452
10.662879571852143	7.1859565	2.6806633
10.680482597614331	7.1948614	2.682324
10.698085876147173	7.1035357	2.6652458
10.715689407876988	7.0100217	2.6476445
10.733293193230146	6.842718	2.615859
10.750897232633072	6.7319775	2.5946054
10.76850152651225	6.6220303	2.5733306
10.786106075294207	6.5437307	2.5580716
10.803710879405534	6.4715824	2.5439305
10.821315939272877	6.386808	2.5272136
10.83892125532294	6.3288856	2.5157278
10.856526827982472	6.239015	2.497802
10.874132657678285	6.2054453	2.4910731
10.891738744837243	6.0971785	2.4692466
10.909345089886271	5.9691467	2.4431837
10.926951693252343	5.9118114	2.4314218
10.944558555362494	5.9615564	2.44163
10.96216567664381	6.0337143	2.456362
10.979773057523436	5.9830737	2.4460323
10.997380698428573	5.863477	2.4214618
11.014988599786477	5.738643	2.3955464
11.032596762024461	5.663288	2.3797665
11.050205185569892	5.61023	2.3685925
11.067813870850198	5.5504594	2.3559413
11.085422818292859	5.54089	2.3539095
11.10303202832541	5.498927	2.344979
11.120641501375454	5.4890575	2.3428738
11.138251237870636	5.359599	2.315081
11.155861238238671	5.2168384	2.28404
11.173471502907317	5.1108613	2.2607214
11.191082032304402	5.0748215	2.2527363
11.208692826857805	5.0633183	2.250182
11.226303886995465	4.9782395	2.2311969
11.243915213145371	4.9856777	2.2328632
11.261526805735578	4.902005	2.2140472
11.279138665194196	4.8149056	2.1942892
11.296750791949393	4.694568	2.166695
11.314363186429393	4.6161685	2.1485271
11.331975849062479	4.633765	2.1526182
11.34958878027699	4.6581836	2.1582825
11.36720198050133	4.638709	2.1537662
11.384815450163948	4.580973	2.1403208
11.402429189693366	4.5138507	2.1245825
11.420043199518153	4.4399123	2.10711
11.437657480066942	63.390865	7.9618382
11.455272031768422	85.133156	9.226763
11.472886855051353	107.594475	10.372776
11.490501950344528	99.20872	9.960358
11.508117318076819	84.514496	9.193176
11.52573295867715	45.862865	6.772213
11.543348872574514	4.1863165	2.0460489
11.560965060197946	4.1229186	2.030497
11.57858152197655	4.0204515	2.0051064
11.59619825833949	3.9643652	1.9910713
11.613815269715985	3.9706573	1.9926509
11.631432556535323	38.52531	6.2068763
11.649050119226837	83.05677	9.113548
11.666667958219929	93.45553	9.66724
11.68428607394406	107.684166	10.377098
11.701904466828756	82.50987	9.083494
11.719523137303586	65.35819	8.084441
11.737142085798196	4.5814877	2.140441
11.754761312742286	3.6688702	1.9154295
11.772380818565619	3.5701303	1.8894788
11.790000603698015	3.529236	1.8786261
11.80762066856935	3.5225315	1.8768408
11.825241013609572	3.537041	1.8807023
11.842861639248683	3.5394776	1.8813499
11.860482545916748	3.4907398	1.8683522
11.878103734043883	3.4587824	1.8597802
11.895725204060282	3.4510562	1.8577019
11.91334695639619	3.4366312	1.8538153
11.930968991481919	3.41772	1.8487077
11.948591309747824	3.3799407	1.8384615
11.966213911624347	3.319943	1.8220711
11.98383679754198	3.2772036	1.8103049
12.001459967931268	3.2741704	1.8094668
12.019083423222835	3.269474	1.8081686
12.036707163847352	3.259592	1.805434
12.05433119023556	3.1924906	1.7867543
12.071955502818259	3.1829774	1.78409
12.089580102026313	3.1653922	1.7791549
12.107204988290643	3.2202597	1.7945082
12.12483016204224	3.2192163	1.7942175
12.142455623712152	3.202659	1.7895974
12.16008137373149	3.135279	1.7706718
12.177707412531431	3.078197	1.7544792
12.19533374054321	2.996408	1.7310135
12.212960358198126	2.9999669	1.7320412
12.230587265927545	3.0221844	1.7384431
12.248214464162889	3.0550222	1.7478622
12.265841953335649	3.0424805	1.7442708
12.283469733877375	2.997027	1.7311924
12.301097806219685	2.9648075	1.7218616
12.31872617079425	2.95828	1.7199651
12.336354828032825	2.977998	1.7256877
12.353983778367205	2.953051	1.7184443
12.371613022229262	2.9462955	1.7164776
12.389242560050928	2.9177098	1.7081305
12.406872392264201	2.8906343	1.7001865
12.424502519301143	2.9042566	1.704188
12.442132941593874	2.9061744	1.7047505
12.459763659574586	2.9375107	1.7139168
12.477394673675532	2.941712	1.7151419
12.49502598432903	2.9132633	1.7068285
12.51265759196746	2.8895419	1.6998652
12.530289497023267	2.868883	1.6937777
12.547921699928967	2.8756118	1.6957629
12.565554201117134	2.8412278	1.6855942
12.583187001020404	2.809118	1.6760423
12.600820100071486	2.763338	1.6623291
12.618453498703152	2.758565	1.6608928
12.636087197348235	2.7790983	1.6670628
12.65372119643964	2.7651272	1.6628672
12.671355496410326	2.746595	1.6572855
12.68899009769333	2.7646897	1.6627356
12.706625000721749	2.7855043	1.668983
12.724260205928752	2.8430028	1.6861206
12.741895713747551	2.8887932	1.699645
12.759531524611454	2.9145787	1.7072138
12.777167638953818	2.8981743	1.7024025
12.794804057208072	2.9099052	1.7058444
12.812440779807702	3.0366752	1.7426059
12.830077807186271	3.204008	1.7899743
12.847715139777405	3.2390223	1.7997284
12.865352778014795	3.423584	1.8502929
12.882990722332197	3.532756	1.8795627
12.90062897316344	3.5833309	1.8929688
12.918267530942412	3.6645606	1.9143041
12.935906396103071	3.5954852	1.8961765
12.953545569079449	3.7572782	1.93837
12.971185050305628	3.567983	1.8889105
12.988824840215775	3.563904	1.8878305
13.006464939244115	3.5660975	1.8884114
13.024105347824943	3.4409657	1.854984
13.041746066392617	3.4890652	1.867904
13.05938709538157	3.2663069	1.8072927
13.077028435226296	3.257017	1.8047208
13.094670086361363	3.2304564	1.7973471
13.112312049221401	3.1828246	1.7840472
13.129954324241112	3.0823882	1.7556732
13.147596911855258	2.8947442	1.7013948
13.165239812498685	2.8480167	1.6876068
13.182883026606293	2.7968059	1.6723653
13.200526554613058	2.7347822	1.6537176
13.218170396954017	2.7012653	1.6435527
13.235814554064284	2.6990724	1.6428853
13.253459026379034	2.7276018	1.6515453
13.271103814333523	2.7207382	1.649466
13.288748918363058	2.7336829	1.6533853
13.306394338903031	2.7153888	1.6478437
13.32404007638889	2.6931162	1.6410717
13.341686131256164	2.6740599	1.6352553
13.359332503940449	2.630149	1.6217734
13.376979194877402	2.5915148	1.6098182
13.394626204502751	2.624934	1.6201648
13.412273533252307	2.6977484	1.6424824
13.429921181561937	2.7167625	1.6482605
13.447569149867581	2.6999667	1.6431575
13.465217438605247	2.645359	1.626456
13.482866048211022	2.6597538	1.6308751
13.500514979121052	2.67359	1.6351116
13.518164231771568	2.6873221	1.6393054
13.535813806598844	2.6871147	1.6392422
13.553463704039254	2.6817992	1.63762
13.571113924529229	2.680092	1.6370987
13.588764468505275	2.6505365	1.6280469
13.606415336403956	2.671876	1.6345874
13.624066528661917	2.6979632	1.6425478
13.641718045715882	2.813452	1.6773348
13.659369888002635	2.8463676	1.6871182
13.67702205595903	2.8849056	1.698501
13.694674550021993	2.9417534	1.715154
13.712327370628532	3.008383	1.734469
13.729980518215713	3.0896447	1.7577385
13.747633993220681	3.1322107	1.7698053
13.765287796080647	3.1529944	1.7756673
13.7829419272329	3.1939015	1.787149
13.800596387114801	3.2245507	1.7957034
13.818251176163775	3.2836397	1.8120816
13.835906294817324	3.359015	1.8327615
13.853561743513023	3.399164	1.8436822
13.871217522688525	3.414845	1.84793
13.888873632781538	3.447363	1.8567076
13.906530074229858	3.4798925	1.865447
13.92418684747135	3.4517715	1.8578944
13.941843952943948	3.4145336	1.8478457
13.959501391085665	3.3749635	1.8371074
13.977159162334578	3.3160353	1.8209984
13.994817267128846	3.272794	1.8090866
14.012475705906693	3.2277305	1.7965885
14.030134479106424	3.1816163	1.7837086
14.047793587166414	3.084336	1.7562277
14.065453030525108	3.0043743	1.7333131
14.083112809621026	2.9167883	1.7078607
14.100772924892766	2.8666046	1.693105
14.118433376778997	2.8359137	1.6840171
14.136094165718458	2.786699	1.6693408
14.153755292149969	2.7292445	1.6520425
14.171416756512416	2.6884694	1.6396552
14.189078559244768	2.6565652	1.6298972
14.20674070078606	2.6063154	1.6144087
14.224403181575408	2.5443459	1.5951005
14.242066002051999	2.5010045	1.5814564
14.259729162655093	2.47853	1.5743347
14.277392663824022	2.452238	1.5659623
14.295056505998208	2.4546578	1.5667348
14.312720689617128	2.4511547	1.5656164
14.330385215120348	2.438899	1.5616975
14.348050082947497	2.3679335	1.5388092
14.3657152935383	2.3194237	1.5229654
14.383380847332528	2.294175	1.5146534
14.401046744770051	2.3330324	1.5274267
14.418712986290798	2.3419616	1.5303469
14.436379572334793	2.393348	1.5470449
14.454046503342123	2.4039483	1.5504671
14.471713779752946	2.395476	1.5477326
14.489381402007504	2.366562	1.5383633
14.507049370546113	2.3603518	1.5363437
14.524717685809168	2.366055	1.5381986
14.542386348237134	2.394549	1.547433
14.560055358270553	2.4357972	1.5607041
14.577724716350051	2.4858832	1.5766684
14.595394422916325	2.4762738	1.573618
14.61306447841015	2.4449172	1.5636231
14.63073488327237	2.4300663	1.558867
14.648405637943917	2.4505234	1.5654148
14.6660767428658	2.4447818	1.5635798
14.683748198479094	2.4963734	1.5799916
14.701420005224954	2.5385492	1.5932825
14.719092163544628	2.5918186	1.6099126
14.73676467387942	2.6412103	1.6251801
14.754437536670727	2.6805444	1.6372368
14.772110752360014	2.6630185	1.6318758
14.78978432138882	2.6379693	1.6241827
14.807458244198777	2.640911	1.625088
14.82513252123159	2.6370275	1.6238927
14.842807152929028	2.6287134	1.6213307
14.860482139732962	2.5618322	1.6005725
14.87815748208531	2.564402	1.6013751
14.8958331804281	2.6053207	1.6141006
14.91350923520342	2.6075199	1.6147816
14.931185646853438	2.66247	1.6317077
14.948862415820408	2.6584356	1.630471
14.966539542546656	2.6849499	1.6385816
14.98421702747459	2.6322243	1.6224132
15.001894871046696	2.6126199	1.6163601
15.019573073705542	2.61652	1.6175661
15.037251635893766	2.6222043	1.6193222
15.054930558054092	2.6678658	1.6333603
15.072609840629323	2.7321916	1.6529342
15.090289484062351	2.9034302	1.7039455
15.107969488796124	3.224176	1.7955991
15.125649855273691	3.6478715	1.9099401
15.14333058393817	4.16173	2.040032
15.161011675232768	5.1217165	2.263121
15.17869312960076	6.4682307	2.5432715
15.196374947485506	8.282707	2.8779693
15.214057129330447	11.190769	3.3452606
15.231739675579114	15.618677	3.952047
15.249422586675102	20.36572	4.5128393
15.267105863062092	23.262337	4.8231044
15.284789505183847	23.429155	4.8403673
15.302473513484218	21.285479	4.613619
15.320157888407127	17.859884	4.2260957
15.337842630396578	13.860817	3.7230117
15.355527739896656	10.802373	3.2866964
15.37321321735153	8.465309	2.9095204
15.39089906320545	6.326939	2.5153408
15.408585277902748	4.8964233	2.2127864
15.42627186188783	3.8230944	1.9552735
15.443958815605198	3.2859867	1.8127291
15.461646139499424	2.95796	1.719872
15.479333834015168	2.8242328	1.6805454
15.497021899597165	2.7751212	1.6658695
15.514710336690234	2.7358313	1.6540349
15.53239914573928	2.6375437	1.6240516
15.550088327189297	2.5719578	1.6037325
15.567777881485336	2.5218103	1.5880209
15.58546780907256	2.4877253	1.5772524
15.6031581103962	2.4646595	1.5699234
15.620848785901568	2.423305	1.5566969
15.638539836034063	2.3785756	1.5422632
15.656231261239173	2.3453763	1.5314621
15.673923061962451	2.3514712	1.5334507
15.691615238649552	2.3716774	1.5400251
15.709307791746202	2.4092295	1.5521693
15.727000721698221	2.368995	1.5391539
15.744694028951498	2.3538086	1.5342127
15.76238771395202	2.3525882	1.5338149
15.780081777145844	2.380589	1.5429157
15.797776218979125	2.3639755	1.5375226
15.815471039898094	2.3253446	1.5249081
15.833166240349064	2.3173292	1.5222776
15.850861820778437	2.3290799	1.5261323
15.868557781632699	2.3582	1.5356432
15.886254123358412	2.3623161	1.5369828
15.903950846402232	2.3819315	1.5433507
15.921647951210897	2.3590171	1.5359092
15.939345438231225	2.3720987	1.5401618
15.957043307910133	2.3746867	1.5410018
15.974741560694602	2.3851044	1.5443783
15.992440197031714	2.3757946	1.5413613
16.01013921736862	2.3493574	1.5327613
16.02783862215259	2.317005	1.5221711
16.045538411830933	2.3288093	1.5260437
16.06323858685107	2.334475	1.5278989
16.080939147660512	2.3355777	1.5282598
16.09864009470684	2.3563592	1.5350437
16.11634142843774	2.4126382	1.5532669
16.134043149300954	2.4406035	1.5622431
16.15174525774433	2.4581537	1.56785
16.169447754215817	2.43092	1.5591408
16.18715063916342	2.406423	1.551265
16.204853913035244	2.4201756	1.5556914
16.222557576279478	2.442126	1.5627303
16.240261629344403	22.446041	4.7377253
16.257966072678386	42.96319	6.554631
16.275670906729868	38.059708	6.1692553
16.293376131947387	2.5046113	1.5825964
16.31108174877957	2.5587301	1.599603
16.328787757675133	2.587302	1.6085092
16.34649415908287	2.5733223	1.6041578
16.364200953451657	2.567602	1.6023738
16.38190814123048	2.5830474	1.6071862
16.39961572286839	2.6267784	1.6207339
16.41732369881455	2.6457212	1.6265674
16.43503206951817	2.6478167	1.6272113
16.45274083542859	2.653829	1.6290578
16.47044999699522	2.739437	1.6551245
16.488159554667558	2.7974918	1.6725705
16.505869508895184	2.829344	1.6820654
16.523579860127786	2.852699	1.6889935
16.541290608815117	2.8894477	1.6998376
16.559001755407035	2.9705696	1.723534
16.57671330035348	3.0374904	1.7428397
16.59442524410448	3.076505	1.7539968
16.61213758711015	3.0706272	1.7523205
16.629850329820705	3.0785313	1.7545744
16.647563472686436	3.1943748	1.7872814
16.665277016157724	3.332514	1.8255174
16.682990960685053	3.4556847	1.8589472
16.70070530671898	3.4932873	1.8690338
16.718420054710155	3.5087478	1.8731651
16.736135205109335	3.525221	1.8775573
16.753850758367335	3.5506155	1.8843077
16.771566714935087	3.6224551	1.9032749
16.789283075263597	3.685467	1.919757
16.80699983980398	3.7400331	1.9339166
16.82471700900741	3.7727575	1.9423587
16.84243458332518	3.8692577	1.9670429
16.860152563208665	3.9660642	1.991498
16.87787094910932	4.0378437	2.0094388
16.89558974147871	4.0791483	2.01969
16.913308940768466	4.1572714	2.0389388
16.931028547430333	4.188386	2.0465546
16.94874856191613	4.2496834	2.061476
16.966468984677785	4.270454	2.0665076
16.98418981616729	4.3503013	2.0857375
17.00191105683676	4.386927	2.0944993
17.019632707138374	4.447209	2.1088407
17.03735476752442	4.4981065	2.120874
17.05507723844728	4.556145	2.134513
17.072800120359403	4.58876	2.1421392
17.090523413713353	4.583543	2.140921
17.108247118961785	4.575797	2.1391113
17.125971236557437	4.5735626	2.138589
17.143695766953133	4.5679193	2.137269
17.161420710601806	4.5950165	2.143599
17.179146067956477	4.6533294	2.1571577
17.19687183947025	4.6746373	2.162091
17.21459802559634	4.6375456	2.153496
17.232324626788028	4.594283	2.1434278
17.25005164349871	4.5635014	2.1362352
17.267779076181863	4.505704	2.1226645
17.285506925291074	4.5483317	2.1326818
17.30323519127999	4.5697823	2.1377048
17.320963874602384	4.626227	2.1508665
17.33869297571211	4.5851407	2.1412942
17.356422495063114	4.571964	2.138215
17.37415243310944	4.5527525	2.133718
17.391882790305218	4.5475206	2.1324916
17.40961356710468	4.5129375	2.1243675
17.42734476396215	4.4623394	2.112425
17.445076381332044	4.466198	2.113338
17.462808419668868	4.5206246	2.126176
17.48054087942723	4.645908	2.1554368
17.498273761061835	4.964293	2.2280693
17.51600706502747	5.522836	2.3500714
17.533740791779024	6.287563	2.5075014
17.551474941771485	7.681649	2.7715788
17.56920951545993	8.70768	2.950878
17.586944513299528	10.722356	3.2745008
17.60467993574556	12.200883	3.4929762
17.622415783253373	13.668705	3.6971211
17.64015205627843	14.876136	3.8569593
17.657888755276293	15.856442	3.982015
17.675625880702604	16.321775	4.040022
17.69336343301311	16.200663	4.025005
17.71110141266366	15.545213	3.9427419
17.728839820110178	14.706067	3.834849
17.746578655808705	13.919055	3.730825
17.764317920215372	12.549102	3.5424712
17.7820576137864	11.17146	3.3423734
17.79979773697811	9.259224	3.0428972
17.81753829024692	7.484257	2.735737
17.835279274049356	5.836613	2.4159083
17.85302068884201	4.864549	2.2055724
17.870762535081607	4.225746	2.055662
17.888504813224934	3.9370556	1.9842016
17.90624752372891	3.7161083	1.927721
17.923990667050536	3.591963	1.8952475
17.941734243646895	3.494492	1.869356
17.959478253975185	3.4687903	1.8624688
17.9772226984927	3.4713137	1.8631462
17.994967577656833	3.4276729	1.8513975
18.01271289192506	3.4116795	1.8470732
18.030458641754965	3.3827739	1.8392318
18.04820482760425	3.361073	1.833323
18.06595144993067	3.3000314	1.8165989
18.083698509192125	3.2366803	1.7990776
18.101446005846576	3.2036867	1.7898846
18.119193940352105	3.2108934	1.7918966
18.136942313166887	3.2074115	1.7909248
18.1546911247492	3.1803036	1.7833406
18.1724403755574	3.1572998	1.7768792
18.19019006604997	3.1175504	1.7656586
18.207940196685467	3.1288023	1.7688421
18.225690767922575	3.1051052	1.7621309
18.243441780220046	3.1101358	1.7635577
18.261193234036764	3.074396	1.7533956
18.278945129831676	3.0887504	1.7574841
18.29669746806386	3.0490944	1.7461656
18.314450249192483	3.0430634	1.7444378
18.3322034736768	3.0199192	1.7377914
18.349957141976184	3.052936	1.7472653
18.3677112545501	3.0652502	1.7507856
18.385465811858108	3.0699341	1.7521228
18.403220814359884	3.016984	1.7369467
18.420976262515172	3.043856	1.744665
18.43873215678387	3.1137843	1.7645918
18.456488497625923	3.2254605	1.7959567
18.474245285501407	3.2838106	1.8121288
18.492002520870486	3.305985	1.8182368
18.50976020419343	3.380545	1.8386258
18.527518335930615	3.6753063	1.9171089
18.545276916542516	4.273904	2.0673423
18.563035946489688	4.4839106	2.1175246
18.580795426232832	5.0003057	2.2361364
18.598555356232698	4.9209185	2.2183144
18.616315736950185	5.2328978	2.2875528
18.63407656884626	4.8298626	2.1976948
18.65183785238201	4.9754753	2.2305772
18.669599588018617	4.6896915	2.1655695
18.68736177621737	4.7184777	2.1722057
18.705124417439652	4.723481	2.173357
18.72288751214696	4.4835744	2.1174452
18.740651060800886	4.59996	2.1447518
18.758415063863115	4.3082786	2.0756392
18.77617952179546	4.516022	2.1250935
18.793944435059814	4.200147	2.049426
18.811709804118184	4.2531776	2.0623233
18.829475629432675	4.2116394	2.052228
18.8472419114655	4.0295177	2.007366
18.86500865067897	4.094462	2.0234778
18.88277584753551	3.783771	1.9451917
18.90054350249763	3.8241484	1.955543
18.918311616027957	3.490172	1.8682002
18.936080188589226	3.3487139	1.8299491
18.953849220644265	3.001008	1.7323418
18.971618712656007	2.8526514	1.6889794
18.9893886650875	2.793227	1.671295
19.007159078401887	7.9531794	2.8201382
19.024929953062408	32.86401	5.732714
19.042701289532435	32.84045	5.730659
19.060473088275405	25.37718	5.0375767
19.07824534975489	2.5972655	1.6116034
19.096018074434568	2.5648067	1.6015013
19.113791262778197	2.5577648	1.5993013
19.13156491524966	2.5556464	1.5986389
19.149339032312945	2.5618315	1.6005722
19.167113614432136	2.571108	1.6034676
19.184888662071433	2.5585895	1.5995592
19.202664175695123	2.537856	1.593065
19.220440155767623	2.510254	1.5843781
19.238216602753447	2.4800484	1.574817
19.2559935171172	2.4695456	1.5714788
19.27377089932361	2.4574254	1.5676178
19.291548749837514	2.462803	1.569332
19.309327069123835	2.4655874	1.5702189
19.32710585764763	2.4536402	1.56641
19.344885115874032	2.4542446	1.566603
19.362664844268313	2.475481	1.5733662
19.380445043295822	2.5058982	1.5830029
19.39822571342203	2.5353174	1.592268
19.41600685511252	2.5049353	1.5826987
19.43378846883297	2.4773889	1.5739723
19.451570555049173	2.4708045	1.5718793
19.469353114227037	2.503531	1.582255
19.48713614683254	2.4941452	1.5792863
19.50491965333182	2.431721	1.5593976
19.52270363419109	2.4159887	1.5543451
19.540488089876686	2.3980756	1.5485721
19.55827302085503	2.3971853	1.5482846
19.576058427592674	2.414181	1.5537635
19.593844310556282	2.4525952	1.5660764
19.611630670212598	2.497935	1.5804857
19.629417507028506	2.5076404	1.5835531
19.64720482147098	2.4739044	1.572865
19.6649926140071	2.4487333	1.5648429
19.682780885104084	2.4585612	1.5679799
19.70056963522921	2.495404	1.5796847
19.718358864849908	2.5590897	1.5997155
19.7361485744337	2.539603	1.5936131
19.753938764448215	2.5092394	1.5840579
19.771729435361202	2.4762254	1.5736027
19.789520587640506	2.5282822	1.5900573
19.807312221754092	2.5249314	1.5890033
19.825104338170043	2.4725924	1.5724479
19.842896937356517	2.43624	1.5608459
19.860690019781824	2.4278846	1.5581671
19.87848358591436	2.4444935	1.5634876
19.896277636222635	2.4338145	1.5600687
19.914072171175278	2.4545636	1.5667048
19.931867191241015	2.4637337	1.5696285
19.94966269688869	2.4747677	1.5731394
19.967458688587264	2.4950361	1.5795684
19.985255166805807	2.4965494	1.5800472
20.00305213201348	2.4808838	1.5750822
20.020849584679578	2.4785223	1.5743324
20.038647525273507	2.4756892	1.5734323
20.05644595426477	2.4763954	1.5736567
20.07424487212299	2.4737303	1.5728097
20.092044279317903	2.463891	1.5696787
20.109844176319353	2.4174309	1.554809
20.127644563597304	2.4046803	1.5507032
20.145445441621817	2.3948166	1.5475196
20.16324681086307	2.3910933	1.546316
20.181048671791373	2.3823707	1.543493
20.198851024877122	2.411161	1.5527914
20.216653870590836	2.4067402	1.5513672
20.234457209403146	2.362017	1.5368855
20.252261041784802	2.336149	1.5284466
20.270065368206662	2.305711	1.5184568
20.287870189139685	2.2864006	1.5120848
20.305675505054968	2.2753532	1.5084274
20.323481316423702	2.2685766	1.5061795
20.341287623717207	2.3112533	1.5202807
20.359094427406884	2.345423	1.5314773
20.376901727964288	2.3718724	1.5400884
20.39470952586107	2.3695333	1.5393288
20.41251782156899	2.370327	1.5395867
20.430326615559935	2.3601062	1.5362637
20.448135908305886	2.3503807	1.5330951
20.465945700278965	2.332083	1.527116
20.483755991951384	2.3256965	1.5250235
20.50156678379548	2.334543	1.5279211
20.519378076283708	2.3035674	1.5177507
20.537189869888635	2.2926922	1.5141639
20.55500216508294	2.273485	1.507808
20.572814962339415	2.2843635	1.5114111
20.59062826213098	2.284766	1.5115442
20.60844206493066	2.3220377	1.5238234
20.626256371211593	2.3524048	1.5337552
20.644071181447032	2.3470395	1.5320051
20.66188649611036	2.3419452	1.5303415
20.67970231567506	2.3450367	1.5313513
20.697518640614742	2.3413162	1.530136
20.715335471403122	2.3270774	1.5254761
20.73315280851404	2.3002622	1.5166615
20.750970652421447	2.2772212	1.5090464
20.768789003599412	2.2556355	1.5018773
20.786607862522136	2.226447	1.4921284
20.8044272296639	2.1951683	1.4816101
20.82224710549913	2.1998916	1.4832032
20.84006749050237	2.202329	1.4840245
20.857888385148268	3.7676084	1.9410328
20.8757097899116	45.908318	6.7755675
20.893531705267254	64.77692	8.04841
20.911354131690224	83.78241	9.153274
20.92917706965566	69.028534	8.308341
20.94700051963877	50.09245	7.077602
20.96482448211493	29.353546	5.4178915
20.982648957559622	4.1380987	2.0342317
21.00047394644843	2.2601724	1.503387
21.01829944925707	2.1966903	1.4821236
21.036125466461375	2.170448	1.4732441
21.053951998537297	2.1452396	1.4646636
21.071779045960906	2.1836588	1.4777209
21.089606609208378	2.2189255	1.4896058
21.10743468875603	2.2464185	1.4988056
21.12526328508028	2.209113	1.4863085
21.143092398657675	2.20311	1.4842877
21.16092202996488	2.1944757	1.4813763
21.17875217947867	2.1698604	1.4730446
21.19658284767596	2.159939	1.4696732
21.21441403503377	2.1436305	1.4641142
21.232245742029225	2.146949	1.4652472
21.2500779691396	2.173434	1.4742571
21.26791071684227	2.1820934	1.4771911
21.28574398561475	2.1696887	1.4729863
21.30357777593465	2.1612716	1.4701264
21.321412088279704	2.1841846	1.4778987
21.339246923127792	2.1634798	1.4708772
21.357082280956888	2.1395898	1.4627336
21.3749181622451	2.0942042	1.4471365
21.392754567470647	2.0785425	1.4417151
21.41059149711187	2.0946949	1.447306
21.42842895164726	2.1223972	1.4568449
21.446266931555378	2.107555	1.451742
21.464105437314945	2.0796633	1.4421037
21.481944469404798	2.0627155	1.4362156
21.49978402830388	2.0635903	1.4365202
21.51762411449127	2.079008	1.4418766
21.53546472844617	2.0821683	1.4429721
21.553305870647876	2.0753517	1.4406081
21.571147541575865	2.0687997	1.4383323
21.58898974170967	2.0885863	1.4451942
21.60683247152899	2.092023	1.4463826
21.62467573151363	2.0538142	1.4331135
21.642519522143523	2.0052662	1.4160743
21.660363843898722	2.0187666	1.4208331
21.6782086972594	2.0611682	1.4356769
21.696054082705864	2.058898	1.4348861
21.713900000718535	2.0446558	1.4299146
21.73174645177795	2.0429971	1.4293345
21.749593436364794	2.0879505	1.4449742
21.767440954959845	2.097711	1.4483477
21.785289008044032	2.0494618	1.4315941
21.803137596098388	1.9908578	1.4109776
21.820986719604086	2.027699	1.423973
21.838836379042412	2.0510004	1.4321314
21.85668657489478	2.0536942	1.4330716
21.87453730764273	2.0397809	1.428209
21.892388577767914	2.0027628	1.41519
21.91024038575213	1.9751579	1.4054031
21.928092732077285	1.9527953	1.3974245
21.945945617225426	1.9590933	1.3996762
21.963799041678694	1.963809	1.4013597
21.981653005919398	31.298956	5.594547
21.999507510429943	78.133484	8.839314
22.01736255569286	73.11313	8.550622
22.035218142190818	4.1917553	2.0473776
22.05307427040661	1.9807252	1.4073824
22.07093094082315	1.9893559	1.4104453
22.088788153923474	1.9612974	1.4004632
22.106645910190746	1.9363688	1.3915347
22.12450421010827	1.939446	1.3926399
22.142363054159464	1.9609323	1.4003329
22.16022244282787	1.9869533	1.4095933
22.178082376597164	1.9971318	1.4131992
22.195942855951145	2.0053353	1.4160986
22.213803881373742	1.960156	1.4000556
22.231665453349002	1.9249934	1.3874413
22.24952757236111	1.9162399	1.3842832
22.26739023889438	1.9223062	1.3864726
22.28525345343323	1.916634	1.3844255
22.30311721646225	1.936641	1.3916324
22.320981528466113	1.9564471	1.3987305
22.33884638992964	1.9454608	1.3947978
22.356711801337788	1.9217287	1.3862643
22.37457776317561	1.8951777	1.3766545
22.392444275928337	1.9185293	1.3851098
22.410311340081282	1.9267431	1.3880718
22.428178956119904	1.934753	1.390954
22.446047124529805	1.9564254	1.3987228
22.46391584579669	1.9364709	1.3915714
22.481785120406414	1.9141747	1.383537
22.49965494884496	1.914273	1.3835726
22.51752533159841	1.929451	1.3890468
22.53539626915302	1.8906902	1.3750237
22.553267761995137	1.90425	1.3799456
22.571139810611264	1.9061141	1.380621
22.589012415488025	1.8914844	1.3753124
22.60688557711216	1.8588309	1.3633895
22.624759295970566	1.8762857	1.3697758
22.642633572550263	1.9075656	1.3811464
22.660508407338362	1.9110725	1.3824154
22.67838380082217	1.9275151	1.3883498
22.696259753489077	1.9459686	1.3949798
22.714136265826614	1.938167	1.3921807
22.73201333832246	1.902754	1.3794035
22.74989097146439	1.8864506	1.3734813
22.76776916574035	1.901249	1.3788579
22.785647921638393	1.9205414	1.385836
22.803527239646712	1.8835062	1.3724089
22.82140712025363	1.8490592	1.3598012
22.839287563947593	1.8243299	1.3506776
22.85716857121719	1.8330462	1.3539003
22.875050142551135	1.8466939	1.3589312
22.892932278438277	1.8741562	1.3689983
22.910814979367604	1.9007653	1.3786825
22.928698245828222	1.9175788	1.3847667
22.946582078309387	1.9337538	1.3905948
22.96446647730047	1.949849	1.3963699
22.98235144329098	1.9365628	1.3916044
23.000236976770562	1.910368	1.3821607
23.018123078229	1.8899328	1.3747482
23.03600974815619	1.9016054	1.3789871
23.053896987042194	1.9006214	1.3786303
23.071784795377173	1.9137868	1.3833969
23.08967317365145	1.8971025	1.3773534
23.10756212235546	1.8733582	1.3687068
23.125451641979787	1.8981661	1.3777394
23.143341733015134	1.918911	1.3852476
23.161232395952357	1.9157435	1.3841039
23.179123631282426	1.8919395	1.3754779
23.197015439496468	1.8754137	1.3694575
23.214907821085717	1.8858988	1.3732803
23.23280077654157	1.8978102	1.3776103
23.250694306355538	1.9304197	1.3893955
23.268588411019277	1.9575038	1.3991082
23.28648309102458	1.9626446	1.4009442
23.304378346863356	1.9483626	1.3958375
23.322274179027676	1.9455764	1.3948392
23.340170588009723	1.8922384	1.3755865
23.358067574301852	1.8734236	1.3687307
23.37596513839651	1.8966752	1.3771983
23.39386328078629	1.9066454	1.3808134
23.411762001963947	1.8888903	1.374369
23.429661302422353	1.8979021	1.3776437
23.4475611826545	1.9522296	1.3972222
23.46546164315356	1.9748638	1.4052985
23.48336268441279	1.9783446	1.4065363
23.501264306925638	1.9701798	1.403631
23.51916651118564	1.9457676	1.3949077
23.537069297686497	1.908685	1.3815516
23.554972666922037	1.908002	1.3813045
23.57287661938623	1.8887612	1.374322
23.59078115557318	1.9118267	1.3826883
23.608686275977128	1.9361212	1.3914458
23.62659198109246	1.9287549	1.3887962
23.6444982714137	1.8998868	1.3783638
23.66240514743549	1.8486215	1.3596402
23.68031260965263	1.8408204	1.3567684
23.698220658560068	1.8350573	1.3546429
23.716129294652845	1.8302212	1.3528566
23.7340385184262	1.8799219	1.3711025
23.75194833037546	1.921019	1.3860083
23.769858730996123	1.9292613	1.3889785
23.78776972078382	1.9001454	1.3784577
23.80568130023431	1.8835963	1.3724418
23.823593469843495	1.8587204	1.363349
23.841506230107424	1.8823665	1.3719937
23.859419581522275	1.8640031	1.3652849
23.87733352458438	1.8523542	1.3610122
23.89524805979019	1.8491793	1.3598453
23.913163187636318	1.876603	1.3698916
23.931078908619508	1.9052695	1.380315
23.948995223236633	1.9394276	1.3926333
23.966912131984735	1.9880036	1.4099659
23.98482963536096	1.9908102	1.4109607
24.002747733862616	1.9881681	1.4100242
24.020666427987155	1.9933826	1.411872
24.038585718232156	2.022568	1.4221702
24.056505605095353	1.985717	1.4091548
24.074426089074617	2.0294156	1.4245756
24.092347170667946	2.073151	1.4398441
24.110268850373515	2.0842884	1.4437065
24.128191128689586	2.0236132	1.4225376
24.146114006114626	1.9807814	1.4074024
24.164037483147187	2.024891	1.4229866
24.181961560286005	2.0596044	1.4351321
24.199886238029926	2.070228	1.4388287
24.21781151687797	2.1172915	1.4550916
24.235737397329274	2.10178	1.4497517
24.253663879883135	2.0456128	1.4302492
24.271590965038975	1.9765327	1.4058921
24.289518653296376	2.0272288	1.4238079
24.30744694515505	2.0653448	1.4371308
24.32537584111486	2.0888927	1.4453002
24.34330534167581	2.062817	1.436251
24.361235447338046	2.0309086	1.4250995
24.379166158601876	2.0120232	1.418458
24.39709747596772	2.0311275	1.4251763
24.41502939993615	2.0229306	1.4222976
24.432961931007917	2.0030339	1.4152858
24.450895069683856	1.9992099	1.4139342
24.468828816465	1.9912198	1.4111059
24.4867631718525	1.9827613	1.4081056
24.504698136347656	1.9547892	1.3981377
24.52263371045192	1.9379128	1.3920894
24.540569894666874	1.9354116	1.3911906
24.558506689494266	1.9056236	1.3804432
24.57644409543597	1.9203413	1.3857638
24.594382112994012	1.9199269	1.3856143
24.61232074267057	1.9221238	1.3864068
24.630259984967953	1.9213299	1.3861204
24.64819984038863	1.9379985	1.3921201
24.66614030943522	1.9333345	1.390444
24.684081392610462	1.9023396	1.3792533
24.702023090417274	1.902722	1.3793919
24.7199654033587	1.9003873	1.3785454
24.737908331937927	1.9434043	1.3940604
24.755851876658305	1.982119	1.4078774
24.773796038023324	2.0054994	1.4161565
24.79174081653661	2.0068078	1.4166185
24.809686212701962	2.0232706	1.4224172
24.827632227023294	2.0475588	1.4309293
24.8455788600047	2.0348556	1.4264836
24.8635261121504	2.0356658	1.4267676
24.88147398396475	2.0456955	1.4302782
24.899422475952303	2.0765138	1.4410114
24.917371588617698	2.048502	1.4312589
24.935321322465768	2.1154451	1.454457
24.953271678001478	2.2231655	1.4910283
24.97122265572994	2.430698	1.5590695
24.989174256156414	2.7612302	1.661695
25.00712647978632	3.1767359	1.78234
25.02507932712521	3.653989	1.911541
25.043032798678798	4.1081195	2.0268497
25.060986894952933	4.7351356	2.1760366
25.078941616453637	5.4424453	2.3329048
25.096896963687055	6.3524942	2.5204155
25.114852937159508	7.4287825	2.7255793
25.132809537377444	7.834069	2.7989407
25.150766764847468	7.8314013	2.798464
25.168724620076347	7.3845363	2.7174504
25.186683103570985	6.487672	2.5470908
25.204642215838426	5.438168	2.331988
25.222601957385894	4.1885295	2.0465896
25.24056232872074	3.241876	1.800521
25.25852333035048	2.6840212	1.6382983
25.276484962782778	2.311073	1.5202214
25.294447226525435	2.0860064	1.4443014
25.312410122086423	1.9366475	1.3916348
25.330373649973843	1.8742554	1.3690345
25.348337810695988	1.8968021	1.3772444
25.366302604761245	1.916642	1.3844284
25.384268032678207	1.8987055	1.3779352
25.40223409495558	1.901546	1.3789655
25.420200792102257	1.9143981	1.3836178
25.438168124627246	1.9091233	1.3817103
25.45613609303974	1.9205582	1.3858421
25.474104697849057	1.9210386	1.3860154
25.492073939564698	1.8794923	1.3709458
25.510043818696285	1.8474908	1.3592243
25.528014335753614	1.8703113	1.3675933
25.54598549124664	1.8584191	1.3632385
25.56395728568544	1.857715	1.3629802
25.58192971958028	1.8302292	1.3528596
25.59990279344156	1.8322959	1.3536233
25.617876507779833	1.8300006	1.3527752
25.635850863105826	1.8241755	1.3506204
25.653825859930386	1.782441	1.3350809
25.671801498764548	1.7749115	1.3322581
25.68977778011949	1.8105085	1.3455514
25.707754704506524	1.8593978	1.3635974
25.725732272437153	1.8777618	1.3703145
25.743710484423012	1.8688722	1.367067
25.761689340975888	1.8369043	1.3553244
25.77966884260774	1.7912992	1.3383943
25.797648989830662	1.8033288	1.3428807
25.815629783156922	1.8569968	1.3627167
25.83361122309895	1.8522898	1.3609885
25.85159331016929	1.8266063	1.35152
25.869576044880695	1.8320688	1.3535393
25.887559427746034	1.8490785	1.3598083
25.90554345927836	1.8203001	1.349185
25.92352813999086	1.7862931	1.3365228
25.94151347039689	1.8044775	1.3433084
25.959499451009965	1.8414968	1.3570176
25.97748608234374	1.849046	1.3597963
25.995473364912062	1.8066461	1.3441154
26.013461299228904	1.7789481	1.3337721
26.03144988580839	1.7677335	1.3295614
26.04943912516483	1.7994088	1.3414204
26.067429017812675	1.774464	1.3320901
26.085419564266537	1.8183558	1.3484643
26.103410765041186	1.8257226	1.3511931
26.12140262065155	1.8481612	1.359471
26.139395131612723	1.8285351	1.3522334
26.157388298439948	1.8296087	1.3526303
26.17538212164861	1.8323476	1.3536423
26.193376601754295	1.8039329	1.3431057
26.211371739272714	1.8032774	1.3428617
26.229367534719746	1.7981354	1.3409457
26.247363988611433	1.789512	1.3377265
26.26536110146397	1.7532288	1.3240955
26.283358873793727	1.7472783	1.3218466
26.301357306117204	1.7895333	1.3377343
26.319356398951104	1.823535	1.3503833
26.33735615281224	1.8281659	1.3520968
26.35535656821762	1.8097697	1.3452768
26.373357645684404	1.7923275	1.3387784
26.39135938572991	1.8039684	1.3431189
26.409361788871614	1.7212605	1.3119682
26.427364855627165	1.7034625	1.3051676
26.445368586514352	1.7173917	1.310493
26.46337298205115	1.7494026	1.3226498
26.48137804275568	1.7640263	1.3281665
26.499383769146217	1.7581786	1.3259633
26.517390161741215	1.7440672	1.3206314
26.53539722105928	1.740788	1.3193892
26.553404947619182	1.7595209	1.3264693
26.571413341939856	1.8180228	1.3483407
26.589422404540397	1.7990675	1.3412932
26.60743213594006	1.8156563	1.3474629
26.62544253665827	1.8019749	1.3423766
26.64345360721459	1.8371325	1.3554085
26.66146534812879	1.8301959	1.3528473
26.679477759920758	1.8002775	1.3417442
26.69749084311057	1.7710171	1.3307956
26.71550459821847	1.7710551	1.33081
26.733519025764842	1.7982712	1.3409964
26.751534126270258	1.77676	1.3329515
26.769549900255434	1.7890202	1.3375425
26.787566348241267	1.7924871	1.338838
26.80558347074881	1.7632438	1.3278719
26.823601268299267	1.748307	1.3222356
26.841619741414036	1.7711424	1.3308427
26.85963889061465	1.7601689	1.3267136
26.877658716422832	1.7480586	1.3221416
26.89567921936045	1.7928029	1.3389559
26.913700399949544	1.8263896	1.3514398
26.93172225871233	1.8134462	1.3466425
26.949744796171174	1.7793376	1.3339182
26.967768012848605	1.7719496	1.331146
26.98579190926733	1.7508333	1.3231906
27.003816485950225	1.7622043	1.3274804
27.021841743420318	1.8410492	1.3568527
27.039867682200814	1.8892221	1.3744898
27.057894302815072	1.8694161	1.3672659
27.07592160578664	1.8467818	1.3589635
27.0939495916392	1.8545623	1.3618232
27.111978260896635	1.8350061	1.354624
27.13000761408296	1.829481	1.352583
27.148037651722397	1.8422483	1.3572944
27.166068374339304	1.822467	1.3499877
27.184099782458215	1.8144614	1.3470194
27.20213187660384	1.8012668	1.3421128
27.22016465730105	1.7610877	1.3270597
27.23819812507487	1.7779332	1.3333917
27.256232280450533	1.7706453	1.3306559
27.274267123953383	1.7344129	1.3169711
27.292302656108987	1.7294698	1.315093
27.31033887744306	1.7698504	1.3303572
27.32837578848146	1.8002685	1.3417408
27.34641338975026	1.8062112	1.3439536
27.364451681775673	1.8194232	1.3488599
27.382490665084074	1.8168216	1.3478953
27.400530340202046	1.7659895	1.3289053
27.41857070765629	1.8165569	1.347797
27.436611767973726	1.8658667	1.3659673
27.454653521681404	1.8469067	1.3590094
27.472695969306564	1.814219	1.3469294
27.490739111376627	1.8048049	1.3434303
27.508782948419153	1.7646238	1.3283914
27.526827480961902	1.7599821	1.3266432
27.54487270953279	1.7882218	1.3372442
27.562918634659898	1.8165138	1.3477811
27.580965256871508	1.7515048	1.3234442
27.599012576696026	1.7564461	1.3253099
27.617060594662068	1.7516676	1.3235058
27.63510931129842	1.7691753	1.3301035
27.65315872713401	1.797902	1.3408587
27.67120884269797	1.8392606	1.3561934
27.68925965851958	1.8640088	1.3652871
27.707311175128307	1.8908151	1.3750691
27.725363393053787	1.8746988	1.3691964
27.74341631282583	1.8969452	1.3772963
27.7614699349744	1.84825	1.3595036
27.77952426002968	2.0136368	1.4190267
27.797579288521973	2.048623	1.4313012
27.815635020981784	2.5780761	1.6056389
27.83369145793979	2.6955202	1.641804
27.85174859992682	2.5382211	1.5931796
27.869806447473923	2.386651	1.544879
27.887865001112267	2.0104988	1.4179206
27.905924261373233	1.8678609	1.3666971
27.92398422878836	1.849804	1.360075
27.94204490388936	1.8696753	1.3673607
27.96010628720813	1.8620014	1.3645518
27.978168379276728	1.8410393	1.3568491
27.9962311806274	1.7984223	1.3410527
28.014294691792568	1.7790675	1.3338169
28.0323589133048	1.7784878	1.3335996
28.050423845696887	1.8031932	1.3428303
28.068489489501758	1.8431574	1.3576293
28.086555845252523	1.8653884	1.3657923
28.104622913482487	1.87355	1.3687768
28.122690694725115	1.9021037	1.3791678
28.14075918951405	1.8637987	1.3652102
28.15882839838312	1.8779887	1.3703973
28.176898321866304	1.8718487	1.3681552
28.1949689604978	1.8693098	1.3672271
28.213040314811945	1.8390299	1.3561084
28.23111238534327	1.8801112	1.3711715
28.249185172626493	1.9127145	1.3830092
28.267258677196473	1.9256475	1.3876771
28.285332899588294	1.8854884	1.3731309
28.303407840337172	1.883417	1.3723764
28.321483499978545	1.8966792	1.3771998
28.33955987904799	1.9296938	1.3891342
28.357636978081285	1.9612957	1.4004626
28.37571479761439	1.9343704	1.3908165
28.393793338183425	1.910576	1.3822359
28.41187260032469	1.9528131	1.3974309
28.429952584574686	1.9861562	1.4093106
28.448033291470065	1.9820192	1.407842
28.46611472154769	2.0122533	1.4185392
28.484196875344566	2.0053349	1.4160985
28.502279753397914	1.9305016	1.3894249
28.52036335624511	1.8467577	1.3589547
28.538447684423716	1.8704411	1.3676407
28.556532738471482	1.929391	1.3890252
28.574618518926325	1.9771209	1.4061013
28.59270502632635	1.9622263	1.4007949
28.61079226120985	1.9685334	1.4030443
28.628880224115274	2.0087647	1.4173089
28.646968915581287	2.0403934	1.4284234
28.66505833614671	2.0337627	1.4261005
28.68314848635055	2.0519428	1.4324604
28.701239366732004	2.101466	1.4496434
28.71933097783044	2.0997186	1.4490405
28.737423320185403	2.0363834	1.427019
28.75551639433665	2.0611117	1.4356573
28.773610200824074	2.0631936	1.436382
28.791704740187793	2.0217304	1.4218757
28.80980001296809	1.9896879	1.410563
28.827896019705413	2.0701973	1.438818
28.845992760940433	2.1319985	1.4601365
28.86409023721397	2.0991516	1.4488449
28.88218844906704	2.1211789	1.4564267
28.900287397040845	2.1881945	1.4792547
28.918387081676755	2.2184575	1.4894487
28.936487503516343	2.2251348	1.4916886
28.954588663101365	2.2021134	1.4839519
28.97269056097374	2.1461535	1.4649756
28.990793197675597	2.1846733	1.4780641
29.00889657374923	2.336095	1.5284289
29.027000689737125	2.3631082	1.5372404
29.04510554618196	2.29298	1.5142589
29.06321114362659	2.3392632	1.529465
29.08131748261405	2.3655138	1.5380226
29.099424563687567	2.3774614	1.541902
29.11753238739057	2.4123085	1.5531608
29.13564095426663	2.443525	1.5631778
29.15375026485954	2.477946	1.5741493
29.171860319713275	2.5561893	1.5988088
29.18997111937199	2.6442692	1.6261209
29.20808266438002	2.7001674	1.6432186
29.226194955281898	2.698265	1.6426396
29.244307992622335	2.6913285	1.6405269
29.26242177694624	2.7894952	1.6701782
29.2805363087987	2.881329	1.6974478
29.29865158872498	2.897665	1.702253
29.316767617270557	2.8833983	1.6980572
29.334884394981064	2.9178367	1.7081677
29.353001922402367	2.8941212	1.7012117
29.37112020008047	2.9390762	1.7143734
29.389239228561596	3.074765	1.7535008
29.407359008392152	3.283861	1.8121426
29.42547954011872	3.674324	1.9168526
29.44360082428809	4.261719	2.0643933
29.46172286144722	5.3156977	2.3055797
29.479845652143283	6.757747	2.5995667
29.497969196923606	8.717879	2.9526055
29.516093496335728	10.846968	3.2934735
29.5342185509274	13.374425	3.6571062
29.55234436124651	15.403156	3.9246855
29.570470927841175	16.629261	4.077899
29.588598251259686	16.221697	4.027617
29.60672633205055	15.02954	3.876795
29.624855170762405	13.166461	3.6285617
29.642984767944146	10.820181	3.2894044
29.66111512414481	8.366272	2.8924508
29.67924623991366	6.3443623	2.5188017
29.697378115800138	5.0380125	2.2445517
29.71551075235387	4.177923	2.0439968
29.733644150124675	3.6765428	1.9174312
29.751778309662576	3.453043	1.8582366
29.769913231517766	3.3704252	1.8358718
29.78804891624066	3.2788637	1.8107632
29.806185364381818	3.2483096	1.8023068
29.82432257649206	3.2812984	1.8114355
29.842460553122333	3.2584162	1.8051083
29.86059929482382	3.1959171	1.7877128
29.878738802147872	3.1499484	1.7748094
29.896879075646048	3.2049775	1.790245
29.915020115870114	3.2599263	1.8055266
29.933161923371976	3.2277102	1.7965829
29.951304498703777	3.2006562	1.7890378
29.969447842417857	3.2123036	1.7922901
29.987591955066733	3.222511	1.7951354
30.005736837203123	3.2391794	1.799772
30.023882489379943	3.1960282	1.7877439
30.04202891215028	3.1600475	1.7776523
30.060176106067455	3.1199625	1.7663416
30.078324071684946	3.076146	1.7538944
30.09647280955646	3.0841434	1.7561729
30.114622320235863	3.1093886	1.7633458
30.132772604277257	3.0979383	1.7600961
30.1509236622349	3.076176	1.753903
30.16907549466328	3.023385	1.7387884
30.18722810211705	2.9648085	1.721862
30.205381485151097	2.9765394	1.725265
30.22353564432045	3.0414617	1.7439787
30.241690580180403	3.1020756	1.761271
30.25984629328638	3.0526192	1.7471746
30.278002784194037	3.039595	1.7434434
30.296160053459246	2.9495208	1.7174169
30.314318101638033	2.9133077	1.7068415
30.332476929286646	2.8803477	1.6971587
30.35063653696153	2.8627932	1.691979
30.368796925219307	2.8641264	1.692373
30.386958094616844	2.8342395	1.68352
30.40512004571115	2.8266888	1.681276
30.423282779059463	2.8520617	1.6888049
30.441446295219233	2.8479033	1.6875732
30.459610594748067	2.8106594	1.6765021
30.47777567820382	2.7974384	1.6725545
30.495941546144504	2.7513893	1.6587312
30.51410819912835	2.7192593	1.6490177
30.532275637713795	2.7284224	1.6517937
30.55044386245946	2.7645783	1.6627021
30.56861287392416	2.8386042	1.6848158
30.586782672666956	2.777859	1.6666911
30.604953259247047	2.735392	1.653902
30.623124634223885	2.7331338	1.6532192
30.641296798157075	2.758721	1.6609398
30.659469751606462	2.7470994	1.6574376
30.677643495132074	2.7585125	1.660877
30.695818029294152	2.7814963	1.6677818
30.713993354653116	2.7690363	1.6640421
30.73216947176962	2.7048914	1.6446555
30.75034638120448	2.6467268	1.6268764
30.768524083518756	2.6649437	1.6324655
30.786702579273673	2.718645	1.6488315
30.80488186903069	2.8198833	1.6792508
30.82306195335144	2.9024987	1.7036722
30.841242832797782	3.0843647	1.756236
30.85942450793176	3.3479688	1.8297455
30.877606979315637	3.6014128	1.8977388
30.895790247511883	3.8780332	1.9692723
30.913974313083134	4.3482065	2.0852354
30.932159176592283	4.69385	2.1665294
30.95034483860237	4.6778393	2.1628313
30.968531299676698	4.484176	2.1175873
30.98671856037873	4.1941347	2.0479586
31.00490662127215	3.8314028	1.957397
31.023095482920848	3.4382396	1.854249
31.04128514588892	3.0179687	1.7372302
31.059475610740662	2.7087817	1.6458377
31.07766687804056	2.5774984	1.605459
31.09585894835335	2.4643188	1.5698149
31.11405182224393	2.4075942	1.5516424
31.132245500277417	2.4064763	1.5512822
31.15043998301914	2.498298	1.5806005
31.168635271034628	2.4647088	1.5699391
31.18683136488964	2.3714402	1.5399481
31.20502826515008	2.3521922	1.5336858
31.223225972382135	2.3641584	1.537582
31.241424487152155	2.3714085	1.5399379
31.259623810026692	2.367977	1.5388232
31.27782394157253	2.3885303	1.545487
31.296024882356644	2.4484127	1.5647404
31.314226632946237	2.446954	1.5642743
31.332429193908684	2.4597373	1.568355
31.350632565811598	2.469735	1.571539
31.368836749222787	2.414217	1.5537751
31.387041744710295	2.433822	1.5600711
31.40524755284232	2.4566007	1.5673547
31.423454174187317	2.4859064	1.5766758
31.441661609313922	2.500056	1.5811565
31.459869858791002	2.504168	1.5824564
31.478078923187628	2.426303	1.5576594
31.496288803073064	2.2947233	1.5148344
31.514499499016807	2.293693	1.5144943
31.532711011588546	2.3484116	1.5324528
31.550923341358178	2.376821	1.5416942
31.56913648889584	2.3945441	1.5474315
31.587350454771844	2.3466794	1.5318875
31.605565239556732	2.2820752	1.5106539
31.62378084382127	2.2029	1.4842169
31.641997268136382	2.1770663	1.4754885
31.660214513073274	2.1509485	1.4666113
31.67843257920331	2.1555278	1.4681716
31.6966514670981	2.210017	1.4866126
31.71487117732944	2.238737	1.496241
31.733091710469346	2.2917297	1.513846
31.751313067090052	2.360743	1.536471
31.769535247764008	2.3429751	1.530678
31.787758253063878	2.2528667	1.5009552
31.805982083562526	2.2463858	1.4987948
31.824206739833024	2.2538958	1.5012981
31.84243222244869	2.2806942	1.5101968
31.860658531983013	2.2794738	1.5097927
31.878885669009737	2.2576416	1.502545
31.897113634102784	2.2668638	1.5056108
31.91534242783632	2.2285638	1.4928375
31.933572050784694	2.1225555	1.4568993
31.951802503522508	2.1046982	1.4507577
31.970033786624548	2.1956637	1.4817772
31.988265900665834	2.1320627	1.4601585
32.006498846221575	2.0487761	1.4313546
32.02473262386724	2.0823143	1.4430226
32.04296723417845	2.1455066	1.4647548
32.0612026777311	2.2183316	1.4894065
32.07943895510129	2.2510448	1.5003482
32.097676066865304	2.156267	1.4684232
32.115914013599685	2.0491407	1.431482
32.13415279588115	2.0062246	1.4164126
32.152392414286666	2.0793247	1.4419863
32.1706328693934	2.1271377	1.4584711
32.18887416177875	2.1396062	1.4627393
32.20711629202032	2.121109	1.4564028
32.225359260695924	2.138752	1.4624473
32.243603068383614	2.1803021	1.4765847
32.26184771566166	2.1435862	1.464099
32.28009320310852	2.072144	1.4394944
32.2983395313029	2.1404622	1.4630319
32.31658670082372	2.2049732	1.4849153
32.33483471225012	2.1858928	1.4784765
32.35308356616143	2.086916	1.4446162
32.371333263137245	1.9930242	1.4117451
32.38958380375734	1.9417758	1.3934761
32.407835188601744	1.9052855	1.3803208
32.42608741825067	1.9401982	1.39291
32.444340493284585	2.009592	1.4176008
32.46259441428416	1.9981046	1.4135432
32.48084918183028	1.987291	1.409713
32.49910479650405	2.0045977	1.4158381
32.51736125888683	2.0420954	1.4290191
32.53561856956014	2.1032534	1.4502598
32.5538767291058	2.0400426	1.4283006
32.572135738105764	1.86405	1.3653022
32.59039559714228	1.9529308	1.397473
32.608656306797776	2.0512452	1.4322169
32.62691786765491	1.9958799	1.4127561
32.645180280296586	1.9977561	1.41342
32.663443545305896	1.9587222	1.3995435
32.68170766326619	2.0552757	1.4336233
32.69997263476099	2.084587	1.4438099
32.7182384603741	2.0753052	1.4405919
32.7365051406895	1.99692	1.4131242
32.75477267629144	1.9445909	1.394486
32.77304106776434	1.9829123	1.4081591
32.79131031569289	1.9426848	1.3938023
32.809580420661966	1.9180957	1.3849534
32.827851383256714	2.0528262	1.4327687
32.84612320406245	2.0455096	1.4302131
32.86439588366476	1.9354181	1.391193
32.88266942264945	1.9464206	1.3951417
32.9009438216025	1.977726	1.4063164
32.9192190811102	1.9501617	1.3964819
32.937495201758985	1.9485775	1.3959146
32.95577218413556	1.9704226	1.4037174
32.974050028826866	1.9113871	1.3825293
32.992328736420035	1.9289379	1.3888621
33.010608307502444	1.9731393	1.4046848
33.02888874266169	1.9940785	1.4121184
33.047170042485604	2.0779078	1.441495
33.06545220756225	2.0160713	1.4198842
33.083735238479896	1.9705977	1.4037799
33.10201913582707	1.9539502	1.3978376
33.12030390019248	2.003712	1.4155253
33.138589532165135	2.0158446	1.4198045
33.15687603233419	2.0269315	1.4237034
33.17516340128909	1.9365288	1.3915921
33.19345163961947	1.9304636	1.3894112
33.211740747915215	1.9150158	1.3838409
33.23003072676643	1.9596913	1.3998897
33.248321576763466	1.9694266	1.4033626
33.266613298496885	1.9179903	1.3849152
33.28490589255747	1.9720682	1.4043034
33.30319935953626	1.9428796	1.3938721
33.32149370002451	1.8262571	1.3513908
33.339788914613706	1.8750495	1.3693244
33.358085003895575	1.9300706	1.3892698
33.376381968462034	1.9722577	1.4043709
33.39467980890529	1.9543566	1.3979831
33.41297852581774	1.9913311	1.4111453
33.43127811979204	1.9810616	1.4075019
33.44957859142105	1.9337444	1.3905914
33.467879941297866	1.8105679	1.3455734
33.486182170015844	1.806491	1.3440577
33.50448527816853	1.8225595	1.3500221
33.522789266349754	1.8148732	1.3471723
33.541094135153514	1.8419071	1.3571688
33.55939988517411	1.8765206	1.3698615
33.57770651700602	1.8403176	1.3565831
33.59601403124398	1.8133861	1.3466202
33.61432242848296	1.7723668	1.3313026
33.632631709318154	1.8129234	1.3464484
33.650941874344994	1.7730176	1.3315471
33.66925292415916	1.837284	1.3554645
33.68756485935654	1.8191413	1.3487555
33.70587768053328	1.8384273	1.3558862
33.724191388285746	1.8444251	1.3580961
33.74250598321054	1.8556963	1.3622395
33.760821465904506	1.8010473	1.342031
33.77913783696474	1.820583	1.3492898
33.79745509698852	1.7735628	1.3317518
33.815773246573414	1.8448552	1.3582544
33.8340922863172	1.9255646	1.3876472
33.852412216817896	1.8748864	1.369265
33.87073303867377	1.9081228	1.3813481
33.889054752483304	1.9919704	1.4113718
33.907377358845245	2.01183	1.4183899
33.92570085835853	1.9023534	1.3792583
33.94402525162239	1.9317806	1.3898851
33.96235053923627	1.9462901	1.395095
33.980676721799824	1.9030132	1.3794974
33.999003799912984	1.8381383	1.3557796
34.01733177417592	1.8364718	1.3551649
34.03566064518901	1.9000106	1.3784087
34.0539904135529	1.946859	1.3952988
34.07232107986846	1.9162928	1.3843023
34.090652644736785	1.8744341	1.3690997
34.108985108759235	1.8286313	1.3522689
34.12731847253742	1.8235086	1.3503735
34.14565273667313	1.8214893	1.3496256
34.16398790176847	1.8649732	1.3656402
34.18232396842574	1.9510279	1.3967919
34.20066093724749	2.047668	1.4309675
34.21899880883651	2.0836058	1.44347
34.23733758379583	2.0848198	1.4438905
34.25567726272874	2.12219	1.4567739
34.27401784623872	1.9898818	1.4106317
34.29235933492957	1.8370801	1.3553892
34.31070172940526	1.8943592	1.3763572
34.32904503027003	1.9513363	1.3969023
34.347389238128386	2.0745428	1.4403273
34.36573435358502	2.1094892	1.4524081
34.38408037724492	1.9005033	1.3785874
34.402427309713296	1.8001372	1.3416919
34.42077515159559	1.8118105	1.3460351
34.43912390349752	1.7834485	1.3354582
34.45747356602499	1.8984995	1.3778604
34.47582413978423	1.9712418	1.4040092
34.49417562538163	1.9534994	1.3976765
34.51252802342388	1.9286668	1.3887645
34.53088133451789	1.9024701	1.3793006
34.54923555927084	1.9156533	1.3840714
34.567590698290104	1.9976197	1.4133718
34.58594675218336	2.1110973	1.4529616
34.6043037215585	2.1140182	1.4539664
34.62266160702365	2.193599	1.4810803
34.641020409187234	2.0581958	1.4346414
34.65938012865785	1.8999289	1.3783791
34.677740766044394	1.8009032	1.3419774
34.69610232195598	1.8115124	1.3459244
34.714464797002016	1.9499038	1.3963896
34.73282819179208	2.0182402	1.4206479
34.751192506936064	2.0374374	1.4273883
34.76955774304408	1.9915595	1.4112263
34.7879239007265	2.002166	1.4149792
34.80629098059391	2.0199728	1.4212575
34.824658983257194	1.9475673	1.3955528
34.843027909327446	1.9052365	1.380303
34.86139775941603	1.9145774	1.3836825
34.879768534134534	1.7739449	1.3318952
34.89814023409483	1.7438283	1.3205409
34.91651285990901	1.822426	1.3499726
34.93488641218944	1.8783066	1.3705133
34.95326089154871	1.800483	1.3418207
34.97163629859967	1.8565769	1.3625627
34.99001263395542	1.9812882	1.4075824
35.00838989822934	1.9174844	1.3847326
35.02676809203499	1.8702667	1.367577
35.04514721598624	1.9644898	1.4016026
35.063527270697215	1.9515095	1.3969644
35.081908256782256	1.9278346	1.3884648
35.10029017485597	2.0406227	1.4285036
35.11867302553321	2.3063133	1.5186551
35.137056809429104	2.4470236	1.5642965
35.155441527159006	2.0865517	1.4444901
35.173827179338524	1.8414733	1.3570089
35.19221376658354	1.876503	1.369855
35.21060128951017	1.9173592	1.3846874
35.2289897487348	1.8458112	1.3586063
35.24737914487405	1.7904053	1.3380603
35.26576947854479	1.915119	1.3838782
35.28416075036418	2.2543733	1.5014571
35.30255296094958	2.1086438	1.452117
35.32094611091867	1.6926761	1.3010288
35.33934020088932	1.6509643	1.2848985
35.35773523147969	1.8732854	1.3686801
35.3761312033082	2.0389688	1.4279246
35.394528116993506	2.3413417	1.5301443
35.41292597315452	2.1600237	1.4697019
35.431324772410434	2.1358683	1.4614611
35.449724515380666	2.1335883	1.4606807
35.46812520268491	2.192973	1.4808689
35.486526834943106	2.1855173	1.4783496
35.504929412775454	2.2343652	1.4947793
35.52333293680242	1.9873636	1.4097388
35.54173740764471	2.2326038	1.49419
35.560142825923286	1.9475836	1.3955585
35.5785491922594	1.684114	1.2977341
35.59695650727454	1.577291	1.2559024
35.61536477159042	1.1140177	1.0554703
