0.008763373481513119	0.61777776	0.7859884
0.026290120649546365	0.373186	0.6108895
0.043816868432600686	0.27468514	0.5241041
0.06134361724069026	0.16828571	0.4102264
0.07887036748382949	0.084755346	0.2911277
0.0963971195720331	0.08242481	0.28709722
0.11392387391531617	0.08224399	0.28678212
0.1314506309236943	0.19293153	0.4392397
0.1489773910071836	0.22073038	0.46981952
0.16650415457580078	0.2094038	0.45760658
0.18403092203956356	0.18092571	0.42535365
0.20155769380849	0.16460426	0.4057145
0.2190844702925996	0.16685854	0.4084832
0.2366112519019124	0.13572258	0.36840546
0.2541380390464497	0.08975406	0.2995898
0.27166483213623416	0.09171091	0.3028381
0.28919163158128947	0.059739463	0.24441658
0.3067184377916406	0.070473336	0.26546815
0.324245251177314	0.09938274	0.31525028
0.34177207214833777	0.107460566	0.32781178
0.3592989011147415	0.07443037	0.2728193
0.37682573848655654	0.105245866	0.3244162
0.39435258467381573	0.090325154	0.30054143
0.41187944008655414	0.11611033	0.34074965
0.42940630513480854	0.116705954	0.34162253
0.446933180228618	0.1454885	0.38142955
0.4644600657780234	0.14165364	0.37636903
0.48198696219306775	0.14842488	0.3852595
0.49951386988379676	0.18467462	0.42973787
0.5170407892602581	0.21684492	0.4656661
0.5345677207325025	0.20313756	0.45070785
0.5520946647105822	0.19195582	0.43812764
0.5696216216045534	0.17206384	0.4148058
0.5871485918244737	0.1290567	0.35924464
0.6046755757804043	0.10826076	0.32903004
0.6222025738824094	0.102513805	0.32017776
0.6397295865405557	0.11242171	0.33529347
0.6572566141649129	0.15859967	0.39824575
0.6747836571655547	0.20071205	0.44800898
0.6923107159525568	0.18782489	0.4333877
0.7098377909359992	0.18032543	0.42464742
0.7273648825259653	0.122714	0.3503056
0.7448919911325411	0.10660409	0.32650283
0.762419117165817	0.14349027	0.3788011
0.7799462610358868	0.19661759	0.44341582
0.7974734231528482	0.23868074	0.48854962
0.8150006039268024	0.2512905	0.50128883
0.8325278037678551	0.22970657	0.47927713
0.8500550230861152	0.23277931	0.4824721
0.8675822622916969	0.2225605	0.47176316
0.8851095217947171	0.20208678	0.44954062
0.9026368020052984	0.24168275	0.4916124
0.9201641033335665	0.24330671	0.4932613
0.9376914261896523	0.253995	0.50397915
0.9552187709836915	0.22438747	0.47369555
0.9727461381258234	0.23032995	0.47992703
0.990273528026193	0.25779045	0.50773066
1.0078009410949496	0.25793427	0.5078723
1.0253283777422473	0.2582948	0.5082271
1.0428558383782454	0.25911492	0.5090333
1.0603833234131086	0.24669006	0.49667904
1.0779108332570058	0.29986623	0.54760045
1.0954383683201119	0.30520883	0.5524571
1.112965929012607	0.36384204	0.6031932
1.1304935157446763	0.5258405	0.7251486
1.1480211289265108	0.5564759	0.7459731
1.1655487689683062	1.5246462	1.2347656
1.1830764362802655	1.8263546	1.3514268
1.200604131272596	2.2774596	1.5091255
1.2181318543555117	2.5510292	1.5971942
1.235659605939232	2.5723507	1.603855
1.253187386433982	4.0618215	2.015396
1.270715196249994	6.314917	2.51295
1.2882430357975057	11.881351	3.4469337
1.3057709054867608	16.65499	4.0810523
1.3232988057280106	22.524908	4.7460413
1.3408267369315112	27.17152	5.2126307
1.358354699507526	30.463526	5.519377
1.3758826938663256	34.477028	5.871714
1.3934107204181858	36.764812	6.0633993
1.410938779573391	37.25701	6.1038523
1.4284668717422309	38.080925	6.1709743
1.4459949973350033	37.364037	6.1126127
1.4635231567620117	37.342022	6.1108117
1.4810513504335687	36.743057	6.061605
1.4985795787599925	35.977013	5.998084
1.5161078421516088	35.799496	5.983268
1.5336361410187505	35.153652	5.9290514
1.5511644757717598	35.348934	5.945497
1.5686928468209842	35.559223	5.9631553
1.58622125457678	35.92094	5.993408
1.6037496994495108	36.802944	6.066543
1.621278181849548	37.177616	6.097345
1.6388067021872719	38.48057	6.203271
1.6563352608730693	38.26692	6.186026
1.673863858317336	37.3975	6.1153493
1.6913924949304753	36.34411	6.0286074
1.7089211711228998	34.656204	5.886952
1.7264498873050296	33.617325	5.7980447
1.7439786438872935	32.508144	5.7015915
1.7615074412801288	31.577127	5.619353
1.779036279893981	31.18582	5.5844264
1.796565160139305	30.24767	5.4997883
1.814094082426564	29.75622	5.454926
1.8316230471662298	29.049118	5.3897233
1.849152054768784	28.143698	5.3050632
1.8666811056447168	27.63209	5.2566233
1.8842102002045273	27.053564	5.201304
1.901739338858724	26.600918	5.1576076
1.9192685220178245	26.175972	5.1162457
1.9367977500923557	25.490128	5.0487747
1.9543270234928547	24.941042	4.9941006
1.971856342629867	24.029718	4.902012
1.9893857079139496	23.272255	4.8241324
2.006915119755667	22.825756	4.777631
2.0244445785655945	22.257866	4.7178245
2.0419740847543175	21.921394	4.682029
2.0595036387324317	21.23915	4.608595
2.0770332409105414	20.942791	4.576329
2.094562891699263	20.86173	4.5674644
2.1120925915092217	20.641432	4.5432844
2.129622340751053	20.315346	4.5072546
2.1471521398354043	188.43427	13.727136
2.1646819891729323	444.61328	21.085855
2.182211889174303	440.64648	20.991581
2.1997418402501974	452.91434	21.281784
2.2172718428113023	432.91888	20.806704
2.234801897268317	321.0252	17.917177
2.2523320040319548	17.468689	4.179556
2.269862163512935	17.121824	4.1378527
2.287392376121992	16.750767	4.09277
2.304922642269869	16.52058	4.064552
2.322452962367322	16.009779	4.001222
2.3399833368251164	15.671632	3.9587412
2.357513766054032	15.550718	3.94344
2.3750442504648586	15.557606	3.944313
2.3925747904683963	15.248037	3.9048736
2.410105386475459	15.098817	3.8857195
2.4276360388968707	14.695867	3.8335187
2.445166748143469	14.605699	3.8217402
2.4626975146261025	14.069664	3.750955
2.4802283387556323	13.637579	3.6929092
2.4977592209429305	13.334663	3.651666
2.5152901615988825	13.066937	3.614822
2.5328211611343865	12.989026	3.6040292
2.5503522199603523	12.618624	3.5522702
2.5678833384877024	12.374524	3.517744
2.5854145171273712	12.191134	3.4915805
2.6029457562903064	11.979354	3.4611204
2.620477056387469	11.891032	3.4483376
2.6380084178298326	11.679339	3.4175048
2.655539841028383	11.508836	3.3924675
2.673071326394119	11.275046	3.3578336
2.6906028743380523	11.010693	3.3182364
2.708134485271211	10.864598	3.296149
2.7256661596046325	10.679868	3.2680068
2.743197897749369	10.537378	3.2461329
2.760729700116486	10.414344	3.2271264
2.778261567117063	10.323314	3.2129915
2.795793499162193	10.245955	3.2009304
2.8133254966629817	10.133164	3.183263
2.830857560030551	9.889953	3.1448295
2.8483896896760337	9.65101	3.1066074
2.865921886010578	9.467598	3.0769463
2.883454149445347	9.407865	3.0672243
2.9009864803915177	9.270474	3.0447454
2.91851887926028	9.115751	3.0192301
2.9360513464628384	8.960495	2.9934087
2.953583882410413	8.939196	2.9898489
2.9711164875142373	9.017827	3.0029697
2.9886491621855606	8.962417	2.9937296
3.0061819068356455	8.860371	2.9766374
3.023714721875769	8.595381	2.931788
3.041247607717225	8.318993	2.8842664
3.0587805647713213	8.137058	2.852553
3.0763135934493806	8.084272	2.8432856
3.0938466941627407	8.000827	2.8285732
3.1113798673227544	8.123899	2.8502455
3.1289131133407904	8.120859	2.8497121
3.1464464326282315	8.097247	2.8455663
3.1639798255964786	7.917382	2.8137844
3.1815132926569443	7.725541	2.7794857
3.1990468342210603	7.7057753	2.7759278
3.216580450700272	7.5663443	2.7506988
3.2341141425060416	7.3978496	2.7198987
3.251647910049847	7.3019767	2.702217
3.2691817537431813	7.203271	2.683891
3.286715673997555	7.1873794	2.6809287
3.3042496712244938	7.132281	2.670633
3.32178374583554	7.0313215	2.651664
3.339317898242251	6.932388	2.632943
3.3568521288562034	6.80461	2.6085646
3.3743864380889876	6.747119	2.5975218
3.3919208263522127	6.781505	2.6041324
3.4094552940575023	6.7238026	2.5930295
3.4269898416164972	6.673893	2.5833879
3.444524469440858	6.5521398	2.5597148
3.4620591779422587	6.4217887	2.5341249
3.479593967532391	6.4658957	2.5428126
3.4971288386229658	6.460078	2.5416684
3.5146637916257086	6.4540834	2.5404887
3.5321988269523628	6.456511	2.5409665
3.5497339450146903	6.4188585	2.5335467
3.5672691462244708	6.47301	2.5442111
3.5848044309934988	6.3366323	2.5172668
3.60233979973359	6.374457	2.5247686
3.619875252856575	6.384306	2.5267184
3.6374107907743034	6.365663	2.5230265
3.6549464138986427	6.316471	2.5132592
3.6724821226414788	6.217927	2.4935772
3.690017917414714	6.168962	2.4837396
3.7075537986302702	6.2169447	2.49338
3.7250897667000857	6.3033013	2.5106375
3.7426258220361235	6.5168934	2.5528207
3.7601619650503553	6.802364	2.6081343
3.777698196154779	7.3011737	2.7020683
3.7952345157614067	8.360257	2.8914108
3.8127709242822716	9.265531	3.0439334
3.830307422129425	11.600769	3.4059901
3.847844009714936	30.56562	5.5286183
3.8653806874508954	97.97381	9.898172
3.882917455749409	97.20095	9.859055
3.900454315022606	96.90122	9.843842
3.917991265682631	41.392735	6.4337187
3.9355283081416506	10.983212	3.314093
3.9530654428118495	8.7101345	2.9512937
3.970602670105433	7.4403906	2.7277079
3.9881399904346244	6.514726	2.552396
4.005677404211669	6.425747	2.5349057
4.023214911848827	6.331763	2.5162995
4.0407525137583855	6.339018	2.5177407
4.058290210352644	6.3271017	2.515373
4.075828002043927	6.2324247	2.4964824
4.0933658892445814	6.1626587	2.4824703
4.110903872366966	6.14884	2.4796855
4.128441951823468	6.080328	2.465832
4.145980128026488	6.1854815	2.487063
4.163518401388452	6.194725	2.4889205
4.181056772321807	6.191072	2.4881866
4.1985952412390155	6.203005	2.4905832
4.216133808552567	6.2129836	2.4925857
4.233672474674966	6.2166624	2.4933236
4.251211240018741	6.2901096	2.5080092
4.268750104996445	6.4700804	2.5436354
4.286289070020643	7.452514	2.7299294
4.303828135503928	9.1986885	3.032934
4.3213673018589125	29.616829	5.4421344
4.3389065694982305	90.716606	9.524527
4.356445938834537	165.97179	12.883004
4.3739854102805085	171.34218	13.089774
4.391524984248844	172.33151	13.12751
4.409064661152262	136.32022	11.675625
4.426604441403504	96.65994	9.831579
4.444144325415337	75.62922	8.6965065
4.461684313600543	21.767096	4.665522
4.47922440637193	22.194984	4.7111554
4.496764604142329	20.527395	4.530717
4.5143049073245916	18.681665	4.3222294
4.531845316331589	16.459946	4.057086
4.5493858315762195	13.51361	3.6760862
4.566926453471405	11.173141	3.342625
4.584467182430081	9.160298	3.0265985
4.602008018865218	8.065144	2.8399196
4.619548963189798	7.494049	2.7375262
4.637090015816834	7.0493984	2.6550703
4.654631177159353	6.7163258	2.5915875
4.672172447630417	6.5104375	2.5515559
4.689713827643102	6.292473	2.50848
4.7072553176105085	6.040451	2.457733
4.724796917945764	5.899463	2.4288812
4.742338629062015	5.74763	2.3974216
4.759880451372434	5.737203	2.395246
4.777422385290215	5.6255894	2.3718326
4.794964431228581	5.615713	2.3697495
4.812506589600768	5.6054573	2.3675847
4.830048860820047	5.5355268	2.35277
4.847591245299709	5.5657296	2.35918
4.8651337434530655	5.6090713	2.368348
4.882676355693457	5.574332	2.3610024
4.900219082434242	5.5380545	2.3533072
4.917761924088813	5.518711	2.3491938
4.935304881070575	5.518147	2.3490736
4.952847953792969	5.540726	2.3538747
4.970391142669449	5.5282207	2.3512168
4.9879344481135055	5.535204	2.3527014
5.005477870538642	5.591472	2.3646295
5.023021410358394	5.5822067	2.3626695
5.040565067986324	5.545197	2.3548243
5.05810884383601	5.4935503	2.3438325
5.075652738321066	5.4889655	2.342854
5.09319675185512	5.481547	2.3412704
5.110740884851836	5.4575396	2.3361378
5.128285137724894	5.4484677	2.3341954
5.145829510888007	5.3807034	2.3196344
5.163374004754908	5.3830976	2.3201504
5.1809186197393595	5.391519	2.3219645
5.198463356255145	5.36271	2.3157525
5.216008214716077	5.3008537	2.3023584
5.233553195535998	5.1973467	2.279769
5.251098299128764	5.1840096	2.276842
5.268643525908272	5.218186	2.284335
5.286188876288432	5.296187	2.3013446
5.3037343506831895	5.291579	2.3003433
5.32127994950651	5.2293816	2.2867842
5.3388256731723915	5.144538	2.2681575
5.356371522094851	5.1236978	2.2635586
5.373917496687938	5.126134	2.2640967
5.391463597365729	5.144923	2.2682424
5.40900982454232	5.167108	2.2731273
5.426556178631843	5.1937604	2.2789824
5.444102660048449	5.244569	2.2901022
5.4616492692063225	5.270507	2.2957585
5.479196006519669	5.271633	2.2960038
5.496742872402727	5.2720146	2.2960868
5.514289867269756	5.1982145	2.2799594
5.531836991535049	5.1661596	2.2729187
5.549384245612924	5.145567	2.2683842
5.566931629917724	5.129402	2.2648184
5.584479144863822	5.089568	2.2560072
5.6020267908656205	5.110654	2.2606754
5.619574568337545	5.14806	2.2689335
5.637122477694054	5.1666884	2.273035
5.654670519349629	5.0824885	2.2544374
5.672218693718784	5.001933	2.2365003
5.689767001216059	4.9532633	2.2255929
5.707315442256021	5.0097823	2.2382543
5.724864017253266	5.0177784	2.2400398
5.7424127266224225	5.0918574	2.2565145
5.75996157077814	5.0851283	2.255023
5.777510550135105	5.106421	2.2597392
5.795059665108022	5.159509	2.2714553
5.812608916111639	5.270367	2.295728
5.830158303560715	5.45128	2.3347976
5.847707827870055	5.4334483	2.3309758
5.86525748945448	5.416535	2.3273451
5.8828072887288485	5.498034	2.3447888
5.900357226108044	5.543663	2.3544984
5.917907302006979	5.6059465	2.367688
5.9354575168406	6.2373123	2.497461
5.9530078710238765	6.828352	2.6131115
5.970558364971812	7.4343038	2.726592
5.988108999099438	7.711934	2.777037
6.005659773821818	8.256125	2.8733475
6.023210689554039	8.058494	2.8387487
6.040761746711227	8.496285	2.9148388
6.058312945708531	7.94237	2.818221
6.075864286961132	7.400585	2.7204018
6.093415770884244	6.659619	2.5806236
6.1109673978931065	6.062184	2.4621503
6.128519168402993	5.4547815	2.3355474
6.146071082829204	5.3412523	2.311115
6.163623141587075	5.2461734	2.2904527
6.181175345091969	5.1842103	2.276886
6.198727693759281	5.1707926	2.2739377
6.216280188004435	5.1449504	2.2682483
6.233832828242885	5.1549926	2.2704608
6.251385614890126	5.2151713	2.283675
6.268938548361669	5.2308187	2.2870984
6.286491629073067	5.1110044	2.2607532
6.304044857439898	5.056234	2.2486072
6.321598233877777	4.992247	2.2343338
6.339151758802344	5.001934	2.2365005
6.356705432629277	5.0076118	2.2377694
6.37425925577428	4.9630485	2.22779
6.391813228653095	4.959934	2.227091
6.409367351681486	4.922032	2.2185652
6.426921625275259	4.958035	2.2266645
6.44447604985025	4.9584727	2.2267628
6.46203062582232	5.034893	2.2438567
6.47958535360737	5.0394826	2.2448792
6.497140233621328	5.053883	2.2480843
6.514695266280161	5.0125732	2.2388778
6.532250451999859	5.020359	2.2406158
6.549805791196454	4.9830556	2.232276
6.567361284286002	4.976066	2.2307098
6.584916931684597	4.968375	2.2289853
6.602472733808367	4.950405	2.2249506
6.6200286910734665	4.9538593	2.2257266
6.637584803896092	4.968155	2.2289357
6.655141072692462	4.9857883	2.232888
6.672697497878842	5.022707	2.2411397
6.690254079871514	4.9950976	2.2349715
6.707810819086808	4.9985723	2.2357488
6.725367715941078	5.0009108	2.2362716
6.742924770850719	5.024201	2.241473
6.760481984232151	5.0126834	2.2389023
6.778039356501836	4.9825788	2.2321692
6.795596888076266	4.9546733	2.2259095
6.813154579371963	4.9597707	2.2270544
6.830712430805492	4.983202	2.2323086
6.84827044279344	5.0480843	2.2467942
6.865828615752445	5.0494533	2.247099
6.883386950099159	5.058807	2.2491791
6.900945446250287	4.9657702	2.228401
6.918504104622553	4.9262466	2.2195148
6.936062925632727	4.9390197	2.2223907
6.953621909697607	4.9532175	2.2255826
6.971181057234028	5.0469255	2.2465363
6.988740368658859	5.058883	2.249196
7.006299844389007	5.0690694	2.2514594
7.023859484841407	5.1590858	2.271362
7.041419290433036	5.2681484	2.2952447
7.058979261580902	5.427555	2.3297114
7.0765393987020495	5.567946	2.3596497
7.094099702213559	5.922574	2.4336338
7.111660172532549	6.34786	2.519496
7.129220810076164	6.7486286	2.5978122
7.146781615261595	7.464644	2.73215
7.16434258850606	7.7340446	2.781015
7.181903730226821	8.243095	2.8710792
7.1994650408411704	8.334115	2.8868868
7.217026520766437	8.395333	2.8974702
7.234588170419983	8.582822	2.9296453
7.252149990219215	8.534551	2.9213953
7.269711980581568	8.4066515	2.8994226
7.2872741419245175	8.160027	2.856576
7.304836474665574	7.704699	2.775734
7.322398979222286	7.4049525	2.7212043
7.339961656012233	7.124908	2.6692524
7.357524505453039	6.8298893	2.6134057
7.375087527962357	6.561631	2.561568
7.392650723957886	6.2602143	2.502042
7.410214093857353	5.9709425	2.4435513
7.427777638078528	5.7820497	2.4045892
7.445341357039213	5.588414	2.3639827
7.4629052511572525	5.4396796	2.332312
7.480469320850524	5.377439	2.3189306
7.498033566536948	5.275865	2.296925
7.5155979886344735	5.1651826	2.272704
7.5331625875610975	5.1162004	2.2619019
7.550727363734844	5.1995697	2.2802565
7.568292317573788	5.2535768	2.2920682
7.585857449496025	5.2390313	2.288893
7.603422759919705	5.153558	2.270145
7.620988249263007	5.139984	2.2671533
7.638553917944147	5.103651	2.2591262
7.656119766381391	5.120802	2.262919
7.673685794993023	5.1750045	2.2748637
7.691252004197388	5.239302	2.288952
7.70881839441285	5.2722497	2.296138
7.726384966057826	5.275493	2.2968442
7.743951719550762	5.2924833	2.3005397
7.761518655310149	5.3030143	2.3028274
7.779085773754511	5.2330647	2.2875893
7.796653075302419	5.2134705	2.2833025
7.814220560372475	5.190765	2.278325
7.831788229383323	5.29568	2.3012345
7.8493560827536495	5.3427124	2.311431
7.866924120902174	5.3332596	2.309385
7.884492344247663	5.262838	2.2940876
7.9020607532089135	5.3029733	2.3028185
7.919629348204771	5.310492	2.3044505
7.937198129654115	5.4304905	2.3303413
7.954767097975865	5.4693184	2.3386574
7.972336253588986	5.4913936	2.3433723
7.989905596912472	5.504187	2.3461003
8.007475128365371	5.526229	2.3507934
8.025044848366756	5.519	2.3492553
8.042614757335754	5.648922	2.3767462
8.060184855691523	5.651222	2.37723
8.07775514385327	5.796219	2.407534
8.095325622240228	5.80847	2.4100766
8.112896291271687	5.8274617	2.4140136
8.130467151366968	5.8619776	2.421152
8.148038202945436	5.9379706	2.4367952
8.165609446426497	5.9633174	2.4419904
8.183180882229594	6.0375857	2.45715
8.200752510774217	6.02312	2.4542046
8.218324332479893	6.0944123	2.4686863
8.235896347766193	6.077543	2.4652672
8.253468557052724	6.0603127	2.4617703
8.27104096075914	6.002786	2.4500585
8.288613559305137	6.041038	2.4578524
8.306186353110448	6.074096	2.4645681
8.32375934259485	6.051064	2.459891
8.341332528178162	6.06868	2.463469
8.358905910280246	6.165541	2.4830508
8.376479489321003	6.2010517	2.490191
8.394053265720377	6.25818	2.5016356
8.411627239898356	6.284224	2.5068355
8.42920141227497	6.2912984	2.5082462
8.44677578327029	6.353999	2.520714
8.464350353304427	6.2594686	2.501893
8.48192512279754	6.2773943	2.505473
8.499500092169827	6.3088903	2.5117505
8.51707526184153	6.314857	2.512938
8.534650632232934	6.282248	2.5064414
8.552226203764365	6.1959386	2.4891644
8.569801976856192	6.167552	2.4834557
8.587377951928834	6.2197647	2.4939456
8.60495412940274	6.2474523	2.4994905
8.622530509698416	6.3099713	2.5119655
8.6401070932364	6.4233284	2.5344286
8.657683880437283	6.5421042	2.5577538
8.675260871721695	6.6536484	2.5794666
8.692838067510303	6.677821	2.5841482
8.710415468223834	6.807889	2.609193
8.727993074283043	7.0014915	2.6460333
8.745570886108737	7.070762	2.6590905
8.763148904121765	7.191902	2.6817722
8.78072712874302	7.2053213	2.684273
8.798305560393441	7.446516	2.7288306
8.815884199494006	7.597338	2.756327
8.833463046465745	7.8038063	2.7935293
8.851042101729728	7.8895984	2.808843
8.86862136570707	8.174275	2.8590689
8.886200838818924	8.271776	2.8760695
8.903780521486505	8.321983	2.8847847
8.921360414131055	8.450847	2.907034
8.938940517173874	8.621502	2.9362395
8.956520831036297	8.802302	2.9668674
8.97410135613971	8.988674	2.9981117
8.99168209290554	9.203831	3.0337815
9.009263041755265	9.487306	3.080147
9.026844203110405	9.720552	3.11778
9.044425577392525	9.883909	3.1438684
9.062007165023239	9.983697	3.159699
9.079588966424197	10.187875	3.191845
9.097170982017108	10.3042965	3.2100306
9.11475321222372	11.196902	3.3461773
9.132335657465825	12.096948	3.4780667
9.149918318165264	12.28938	3.5056212
9.167501194743924	13.123705	3.6226654
9.18508428762374	12.918499	3.5942314
9.202667597226693	12.788578	3.576112
9.220251123974803	12.347543	3.513907
9.237834868290143	11.966149	3.4592123
9.255418830594836	11.7555	3.4286294
9.273003011311046	11.235459	3.3519337
9.290587410860985	11.041294	3.3228443
9.308172029666911	10.397136	3.224459
9.32575686815113	10.09932	3.1779428
9.343341926735997	8.730913	2.9548118
9.360927205843916	8.526914	2.920088
9.378512705897327	8.269337	2.8756454
9.396098427318728	8.113201	2.8483682
9.413684370530664	8.008351	2.8299031
9.431270535955722	7.8810115	2.807314
9.448856924016539	7.7994127	2.792743
9.466443535135806	7.681091	2.7714782
9.484030369736251	7.7432566	2.7826707
9.501617428240658	7.7632284	2.786257
9.519204711071852	7.789524	2.790972
9.536792218652714	7.8052197	2.7937822
9.55437995140617	7.812601	2.795103
9.571967909755191	7.880398	2.8072047
9.589556094122802	7.9081306	2.81214
9.60714450493207	7.901878	2.811028
9.624733142606116	7.9449983	2.8186874
9.642322007568108	7.9623294	2.82176
9.659911100241267	8.052484	2.8376899
9.677500421048851	8.078964	2.842352
9.695089970414175	8.016026	2.8312585
9.712679748760609	7.9934525	2.8272696
9.730269756511557	7.9803104	2.8249443
9.747859994090492	8.013513	2.8308148
9.765450461920915	8.0703535	2.8408368
9.78304116042639	8.115205	2.8487198
9.800632090030527	8.16818	2.858003
9.81822325115699	8.166388	2.8576891
9.835814644229481	8.222862	2.8675535
9.853406269671762	8.270756	2.8758922
9.870998127907646	8.346584	2.8890455
9.888590219360985	8.321613	2.8847206
9.906182544455698	8.327263	2.8856997
9.923775103615734	8.330773	2.886308
9.941367897265108	8.391941	2.8968847
9.958960925827878	8.416866	2.9011836
9.97655418972816	8.387103	2.8960495
9.994147689390106	8.319135	2.884291
10.011741425237934	8.270575	2.8758607
10.029335397695904	8.283057	2.87803
10.04692960718833	8.249979	2.8722777
10.06452405413958	8.322684	2.8849063
10.082118738974064	8.34339	2.8884928
10.099713662116246	8.357737	2.890975
10.117308823990651	8.336671	2.8873293
10.134904225021844	8.276829	2.8769479
10.152499865634445	8.169	2.8581462
10.170095746253125	8.089792	2.844256
10.18769186730261	8.013821	2.8308692
10.205288229207675	8.086859	2.8437402
10.222884832393145	8.120278	2.8496103
10.2404816772839	8.147835	2.8544412
10.258078764304868	8.021877	2.8322918
10.275676093881035	8.013165	2.8307536
10.293273666437438	8.008289	2.8298922
10.310871482399158	8.147494	2.8543816
10.32846954219134	8.170072	2.8583338
10.346067846239173	8.2705	2.8758478
10.363666394967908	8.231482	2.8690557
10.38126518880283	8.148917	2.854631
10.398864228169298	8.174511	2.85911
10.416463513492713	8.118646	2.8493237
10.434063045198531	8.110202	2.8478415
10.451662823712262	8.109401	2.847701
10.469262849459467	8.180304	2.860123
10.486863122865758	8.169096	2.858163
10.504463644356806	8.099969	2.8460445
10.522064414358338	8.01016	2.8302226
10.539665433296118	7.9639025	2.8220387
10.557266701595987	7.9524207	2.8200037
10.574868219683818	7.9164143	2.8136122
10.592469987985552	7.8040304	2.7935696
10.610072006927185	7.6571784	2.7671607
10.627674276934751	7.592472	2.755444
10.64527679843435	7.471627	2.7334278
10.662879571852143	7.4143314	2.722927
10.680482597614331	7.249866	2.6925576
10.698085876147173	7.1538496	2.674668
10.715689407876988	7.012666	2.648144
10.733293193230146	6.9234395	2.631243
10.750897232633072	6.801297	2.6079297
10.76850152651225	6.693357	2.5871522
10.786106075294207	6.6155496	2.572071
10.803710879405534	6.5186553	2.5531657
10.821315939272877	6.4795704	2.5455
10.83892125532294	6.3976693	2.5293615
10.856526827982472	6.282847	2.5065608
10.874132657678285	6.1664944	2.4832428
10.891738744837243	6.0756836	2.4648902
10.909345089886271	6.0874796	2.4672818
10.926951693252343	6.0796137	2.4656873
10.944558555362494	6.0673494	2.4631991
10.96216567664381	5.9958076	2.448634
10.979773057523436	5.9337444	2.4359279
10.997380698428573	5.8835044	2.4255936
11.014988599786477	5.8280888	2.4141436
11.032596762024461	5.7731514	2.4027383
11.050205185569892	5.6738324	2.3819807
11.067813870850198	5.5801997	2.3622446
11.085422818292859	5.4985642	2.3449018
11.10303202832541	5.4721727	2.3392675
11.120641501375454	5.394456	2.3225968
11.138251237870636	5.332945	2.3093169
11.155861238238671	5.260744	2.2936313
11.173471502907317	5.205703	2.281601
11.191082032304402	5.1180477	2.2623103
11.208692826857805	5.0023966	2.2366037
11.226303886995465	4.9169197	2.217413
11.243915213145371	4.9131484	2.2165623
11.261526805735578	4.931226	2.2206364
11.279138665194196	4.9753428	2.2305477
11.296750791949393	4.95513	2.2260122
11.314363186429393	4.9265137	2.2195752
11.331975849062479	4.843191	2.200725
11.34958878027699	4.735982	2.1762311
11.36720198050133	4.604145	2.1457272
11.384815450163948	4.5008507	2.1215208
11.402429189693366	4.4726453	2.114863
11.420043199518153	4.4751186	2.1154475
11.437657480066942	63.47229	7.96695
11.455272031768422	85.18366	9.2295
11.472886855051353	107.56408	10.37131
11.490501950344528	99.122284	9.9560175
11.508117318076819	84.46527	9.190499
11.52573295867715	45.8655	6.7724075
11.543348872574514	4.2106905	2.0519967
11.560965060197946	4.188569	2.0465994
11.57858152197655	4.1279044	2.0317245
11.59619825833949	4.0523934	2.0130558
11.613815269715985	3.9757655	1.9939321
11.631432556535323	38.502834	6.2050653
11.649050119226837	83.04556	9.112934
11.666667958219929	93.429016	9.665869
11.68428607394406	107.66758	10.376299
11.701904466828756	82.525345	9.084346
11.719523137303586	65.41936	8.088223
11.737142085798196	4.6272154	2.1510963
11.754761312742286	3.6795564	1.918217
11.772380818565619	3.6191583	1.9024086
11.790000603698015	3.6301095	1.9052846
11.80762066856935	3.602044	1.8979052
11.825241013609572	3.5401607	1.8815315
11.842861639248683	3.4916348	1.8685917
11.860482545916748	3.4473293	1.8566985
11.878103734043883	3.415897	1.8482145
11.895725204060282	3.3928573	1.841971
11.91334695639619	3.3775244	1.8378042
11.930968991481919	3.4045227	1.8451349
11.948591309747824	3.3683171	1.8352976
11.966213911624347	3.3673422	1.835032
11.98383679754198	3.3051481	1.8180066
12.001459967931268	3.283266	1.8119785
12.019083423222835	3.2589784	1.8052641
12.036707163847352	3.2498388	1.8027309
12.05433119023556	3.2488468	1.8024558
12.071955502818259	3.229049	1.7969555
12.089580102026313	3.2142742	1.7928396
12.107204988290643	3.1945598	1.7873331
12.12483016204224	3.1850598	1.7846736
12.142455623712152	3.1745741	1.7817335
12.16008137373149	3.177127	1.7824497
12.177707412531431	3.15535	1.7763305
12.19533374054321	3.1578853	1.7770439
12.212960358198126	3.0784326	1.7545463
12.230587265927545	3.0063024	1.7338692
12.248214464162889	2.9523058	1.7182275
12.265841953335649	2.9502046	1.717616
12.283469733877375	2.940532	1.714798
12.301097806219685	2.958701	1.7200874
12.31872617079425	2.9505043	1.7177032
12.336354828032825	2.961572	1.7209219
12.353983778367205	2.9424691	1.7153627
12.371613022229262	2.9095423	1.7057381
12.389242560050928	2.8723195	1.6947919
12.406872392264201	2.846046	1.6870228
12.424502519301143	2.8691669	1.6938615
12.442132941593874	2.8695366	1.6939707
12.459763659574586	2.8935602	1.7010468
12.477394673675532	2.9023595	1.7036313
12.49502598432903	2.9211793	1.7091458
12.51265759196746	2.9084182	1.7054085
12.530289497023267	2.8390212	1.6849395
12.547921699928967	2.7827744	1.668165
12.565554201117134	2.7486334	1.6579003
12.583187001020404	2.7657745	1.6630617
12.600820100071486	2.7897632	1.6702584
12.618453498703152	2.7982295	1.6727909
12.636087197348235	2.8293114	1.6820557
12.65372119643964	2.8024774	1.6740601
12.671355496410326	2.7993298	1.6731198
12.68899009769333	2.8241637	1.6805248
12.706625000721749	2.864492	1.692481
12.724260205928752	2.944421	1.7159315
12.741895713747551	2.9571476	1.7196358
12.759531524611454	2.99082	1.7293987
12.777167638953818	2.9751	1.7248478
12.794804057208072	3.0019844	1.7326236
12.812440779807702	3.0561132	1.7481743
12.830077807186271	3.2448258	1.80134
12.847715139777405	3.2990696	1.8163341
12.865352778014795	3.5045288	1.8720387
12.882990722332197	3.6004548	1.8974864
12.90062897316344	3.698945	1.9232641
12.918267530942412	3.7677715	1.9410748
12.935906396103071	3.6444776	1.9090515
12.953545569079449	3.7389622	1.9336396
12.971185050305628	3.51528	1.874908
12.988824840215775	3.5501752	1.8841909
13.006464939244115	3.6418765	1.9083701
13.024105347824943	3.5335755	1.8797808
13.041746066392617	3.5890849	1.894488
13.05938709538157	3.3099756	1.8193338
13.077028435226296	3.2769806	1.8102432
13.094670086361363	3.2277758	1.7966012
13.112312049221401	3.1693888	1.7802777
13.129954324241112	3.0942302	1.7590424
13.147596911855258	2.8699172	1.694083
13.165239812498685	2.8432422	1.6861916
13.182883026606293	2.7749345	1.6658134
13.200526554613058	2.7467284	1.6573256
13.218170396954017	2.7347736	1.6537151
13.235814554064284	2.7233274	1.6502507
13.253459026379034	2.7095928	1.6460841
13.271103814333523	2.6796815	1.6369733
13.288748918363058	2.669321	1.6338058
13.306394338903031	2.6758354	1.6357981
13.32404007638889	2.6488395	1.6275256
13.341686131256164	2.6404338	1.6249411
13.359332503940449	2.6159909	1.6174026
13.376979194877402	2.640612	1.624996
13.394626204502751	2.6965961	1.6421316
13.412273533252307	2.7715125	1.664786
13.429921181561937	2.7494845	1.658157
13.447569149867581	2.7084155	1.6457264
13.465217438605247	2.6593115	1.6307396
13.482866048211022	2.6422427	1.6254977
13.500514979121052	2.6749287	1.6355209
13.518164231771568	2.7048314	1.6446371
13.535813806598844	2.7159572	1.6480161
13.553463704039254	2.6656282	1.6326752
13.571113924529229	2.669092	1.6337355
13.588764468505275	2.6608727	1.6312182
13.606415336403956	2.6991725	1.6429158
13.624066528661917	2.7490287	1.6580195
13.641718045715882	2.8081815	1.675763
13.659369888002635	2.8347273	1.6836648
13.67702205595903	2.8747897	1.6955205
13.694674550021993	2.895759	1.701693
13.712327370628532	2.964084	1.7216516
13.729980518215713	3.0524397	1.7471232
13.747633993220681	3.1635668	1.7786418
13.765287796080647	3.1839123	1.7843521
13.7829419272329	3.2144907	1.7929001
13.800596387114801	3.2558253	1.8043905
13.818251176163775	3.2851067	1.8124863
13.835906294817324	3.33932	1.8273807
13.853561743513023	3.3884678	1.8407791
13.871217522688525	3.438889	1.8544241
13.888873632781538	3.4719272	1.8633108
13.906530074229858	3.498402	1.8704016
13.92418684747135	3.529134	1.8785989
13.941843952943948	3.5582302	1.8863271
13.959501391085665	3.5011919	1.8711472
13.977159162334578	3.4599073	1.8600826
13.994817267128846	3.3818078	1.8389692
14.012475705906693	3.2570167	1.8047206
14.030134479106424	3.1402879	1.7720858
14.047793587166414	3.1017413	1.7611761
14.065453030525108	3.0660832	1.7510234
14.083112809621026	3.034138	1.7418777
14.100772924892766	2.9664674	1.7223436
14.118433376778997	2.9451604	1.716147
14.136094165718458	2.8601577	1.6912001
14.153755292149969	2.7981124	1.672756
14.171416756512416	2.7557814	1.6600547
14.189078559244768	2.6963098	1.6420444
14.20674070078606	2.6095605	1.6154134
14.224403181575408	2.548155	1.5962942
14.242066002051999	2.4784658	1.5743144
14.259729162655093	2.4585755	1.5679846
14.277392663824022	2.448345	1.5647188
14.295056505998208	2.4445724	1.5635128
14.312720689617128	2.4322538	1.5595685
14.330385215120348	2.422353	1.556391
14.348050082947497	2.3965611	1.5480831
14.3657152935383	2.4010923	1.5495459
14.383380847332528	2.3932252	1.5470052
14.401046744770051	2.3897855	1.5458931
14.418712986290798	2.398285	1.5486397
14.436379572334793	2.4085243	1.5519421
14.454046503342123	2.3869686	1.5449817
14.471713779752946	2.3773272	1.5418583
14.489381402007504	2.3595881	1.5360951
14.507049370546113	2.3727405	1.5403702
14.524717685809168	2.4143152	1.5538067
14.542386348237134	2.4299254	1.5588218
14.560055358270553	2.460463	1.5685863
14.577724716350051	2.4568672	1.5674397
14.595394422916325	2.454399	1.5666522
14.61306447841015	2.4357963	1.5607038
14.63073488327237	2.4248838	1.5572039
14.648405637943917	2.4442499	1.5634097
14.6660767428658	2.4391992	1.5617936
14.683748198479094	2.497167	1.5802428
14.701420005224954	2.5583673	1.5994897
14.719092163544628	2.6214213	1.6190804
14.73676467387942	2.6195827	1.6185125
14.754437536670727	2.631629	1.6222296
14.772110752360014	2.6370633	1.6239038
14.78978432138882	2.6177633	1.6179503
14.807458244198777	2.629547	1.6215879
14.82513252123159	2.6577003	1.6302454
14.842807152929028	2.7516057	1.6587964
14.860482139732962	2.7275522	1.6515303
14.87815748208531	2.6779268	1.6364372
14.8958331804281	2.644919	1.6263207
14.91350923520342	2.5943942	1.6107123
14.931185646853438	2.6425192	1.6255827
14.948862415820408	2.638514	1.6243503
14.966539542546656	2.6593268	1.6307442
14.98421702747459	2.6187143	1.6182442
15.001894871046696	2.6470888	1.6269876
15.019573073705542	2.6659448	1.6327721
15.037251635893766	2.6711116	1.6343535
15.054930558054092	2.6976085	1.6424398
15.072609840629323	2.7210963	1.6495745
15.090289484062351	2.8117192	1.6768181
15.107969488796124	3.0665388	1.7511536
15.125649855273691	3.5082974	1.873045
15.14333058393817	4.025229	2.0062973
15.161011675232768	4.9805703	2.2317193
15.17869312960076	6.306402	2.511255
15.196374947485506	8.1646	2.8573766
15.214057129330447	11.245814	3.353478
15.231739675579114	16.061087	4.0076284
15.249422586675102	21.01197	4.5838814
15.267105863062092	24.157612	4.9150395
15.284789505183847	24.352974	4.934873
15.302473513484218	22.463102	4.7395253
15.320157888407127	18.968012	4.355228
15.337842630396578	14.718255	3.8364377
15.355527739896656	11.347861	3.3686588
15.37321321735153	8.823678	2.9704676
15.39089906320545	6.4121804	2.5322285
15.408585277902748	4.8144703	2.19419
15.42627186188783	3.7000673	1.9235559
15.443958815605198	3.2264526	1.7962329
15.461646139499424	2.9480836	1.7169985
15.479333834015168	2.7530227	1.6592236
15.497021899597165	2.6368256	1.6238306
15.514710336690234	2.586021	1.608111
15.53239914573928	2.5415113	1.5942118
15.550088327189297	2.53172	1.5911379
15.567777881485336	2.5287938	1.5902182
15.58546780907256	2.5322459	1.5913032
15.6031581103962	2.4993327	1.5809277
15.620848785901568	2.4294565	1.5586714
15.638539836034063	2.3951502	1.5476273
15.656231261239173	2.3963242	1.5480065
15.673923061962451	2.4173717	1.5547899
15.691615238649552	2.407029	1.5514603
15.709307791746202	2.4045305	1.5506549
15.727000721698221	2.3769727	1.5417434
15.744694028951498	2.3864872	1.5448259
15.76238771395202	2.3609316	1.5365323
15.780081777145844	2.3800957	1.5427558
15.797776218979125	2.3694072	1.5392879
15.815471039898094	2.3872755	1.545081
15.833166240349064	2.4192982	1.5554093
15.850861820778437	2.422458	1.5564247
15.868557781632699	2.4041033	1.5505171
15.886254123358412	2.3357346	1.528311
15.903950846402232	2.3123071	1.5206273
15.921647951210897	2.334251	1.5278256
15.939345438231225	2.4182987	1.555088
15.957043307910133	2.4529316	1.5661838
15.974741560694602	2.4572885	1.567574
15.992440197031714	2.4317045	1.5593923
16.01013921736862	2.395532	1.5477506
16.02783862215259	2.409833	1.5523636
16.045538411830933	2.3957033	1.547806
16.06323858685107	2.3898892	1.5459267
16.080939147660512	2.3967028	1.5481288
16.09864009470684	2.4400249	1.5620579
16.11634142843774	2.416033	1.5543593
16.134043149300954	2.381173	1.543105
16.15174525774433	2.3438852	1.5309752
16.169447754215817	2.3706095	1.5396783
16.18715063916342	2.3732488	1.5405352
16.204853913035244	2.398368	1.5486665
16.222557576279478	2.4090886	1.5521239
16.240261629344403	22.427843	4.7358046
16.257966072678386	42.99485	6.557046
16.275670906729868	38.073215	6.1703496
16.293376131947387	2.476073	1.5735543
16.31108174877957	2.464069	1.5697353
16.328787757675133	2.5032916	1.5821794
16.34649415908287	2.5541914	1.5981838
16.364200953451657	2.5511868	1.5972435
16.38190814123048	2.5928402	1.6102298
16.39961572286839	2.6174035	1.6178391
16.41732369881455	2.6852088	1.6386607
16.43503206951817	2.732897	1.6531476
16.45274083542859	2.7875047	1.6695821
16.47044999699522	2.811696	1.6768112
16.488159554667558	2.8606672	1.6913507
16.505869508895184	2.8682504	1.693591
16.523579860127786	2.8945203	1.701329
16.541290608815117	2.8960898	1.7017902
16.559001755407035	2.9566119	1.7194802
16.57671330035348	3.0409167	1.7438225
16.59442524410448	3.1404037	1.7721184
16.61213758711015	3.2284498	1.7967888
16.629850329820705	3.2515476	1.8032048
16.647563472686436	3.331214	1.8251613
16.665277016157724	3.3488495	1.8299862
16.682990960685053	3.3781824	1.8379833
16.70070530671898	3.3910906	1.8414915
16.718420054710155	3.4440386	1.8558121
16.736135205109335	3.54849	1.8837436
16.753850758367335	3.6412327	1.9082015
16.771566714935087	3.7029793	1.9243127
16.789283075263597	3.7144556	1.9272923
16.80699983980398	3.7862036	1.945817
16.82471700900741	3.8461585	1.9611626
16.84243458332518	3.871852	1.9677022
16.860152563208665	3.9263995	1.9815145
16.87787094910932	4.0040555	2.0010135
16.89558974147871	4.0890245	2.0221336
16.913308940768466	4.125183	2.0310547
16.931028547430333	4.1729608	2.0427825
16.94874856191613	4.224064	2.0552528
16.966468984677785	4.336952	2.082535
16.98418981616729	4.4108925	2.1002126
17.00191105683676	4.4248857	2.1035411
17.019632707138374	4.4392576	2.1069546
17.03735476752442	4.501297	2.1216261
17.05507723844728	4.5562286	2.1345325
17.072800120359403	4.6103616	2.1471753
17.090523413713353	4.6267886	2.1509972
17.108247118961785	4.6516585	2.1567705
17.125971236557437	4.6204433	2.1495216
17.143695766953133	4.5758843	2.1391318
17.161420710601806	4.604348	2.1457746
17.179146067956477	4.606025	2.1461651
17.19687183947025	4.633686	2.1525998
17.21459802559634	4.637221	2.1534207
17.232324626788028	4.648256	2.1559813
17.25005164349871	4.6204934	2.1495333
17.267779076181863	4.6017375	2.1451662
17.285506925291074	4.598089	2.1443155
17.30323519127999	4.602959	2.1454508
17.320963874602384	4.58735	2.14181
17.33869297571211	4.516929	2.1253068
17.356422495063114	4.518951	2.1257825
17.37415243310944	4.5137734	2.1245644
17.391882790305218	4.4670024	2.1135285
17.40961356710468	4.4239893	2.1033282
17.42734476396215	4.433623	2.105617
17.445076381332044	4.4955277	2.120266
17.462808419668868	4.573847	2.1386554
17.48054087942723	4.7125907	2.1708503
17.498273761061835	5.030098	2.242788
17.51600706502747	5.49979	2.345163
17.533740791779024	6.1747923	2.4849129
17.551474941771485	7.558768	2.7493212
17.56920951545993	8.69444	2.9486337
17.586944513299528	10.8999605	3.301509
17.60467993574556	12.55546	3.5433683
17.622415783253373	14.390628	3.793498
17.64015205627843	15.931379	3.991413
17.657888755276293	17.027922	4.12649
17.675625880702604	17.453384	4.177725
17.69336343301311	17.208014	4.1482544
17.71110141266366	16.386066	4.047971
17.728839820110178	15.381152	3.9218812
17.746578655808705	14.468329	3.8037257
17.764317920215372	12.942742	3.5976024
17.7820576137864	11.452509	3.3841555
17.79979773697811	9.466407	3.0767527
17.81753829024692	7.5375566	2.745461
17.835279274049356	5.839521	2.41651
17.85302068884201	4.803771	2.1917508
17.870762535081607	4.1817527	2.0449333
17.888504813224934	3.8348086	1.9582667
17.90624752372891	3.6147664	1.9012539
17.923990667050536	3.5718892	1.8899442
17.941734243646895	3.5331755	1.8796743
17.959478253975185	3.5123072	1.874115
17.9772226984927	3.4619834	1.8606406
17.994967577656833	3.452399	1.8580632
18.01271289192506	3.4231591	1.8501781
18.030458641754965	3.401106	1.8442088
18.04820482760425	3.347309	1.8295653
18.06595144993067	3.2762878	1.8100519
18.083698509192125	3.2194967	1.7942955
18.101446005846576	3.1895823	1.7859402
18.119193940352105	3.1789443	1.7829595
18.136942313166887	3.2344582	1.79846
18.1546911247492	3.1971471	1.7880569
18.1724403755574	3.1889439	1.7857615
18.19019006604997	3.1405156	1.77215
18.207940196685467	3.1274173	1.7684505
18.225690767922575	3.0768726	1.7541016
18.243441780220046	3.0353103	1.7422142
18.261193234036764	3.0218296	1.7383411
18.278945129831676	3.0260563	1.7395563
18.29669746806386	3.0381033	1.7430156
18.314450249192483	3.062987	1.7501391
18.3322034736768	3.0648746	1.7506783
18.349957141976184	3.0418396	1.744087
18.3677112545501	3.0204036	1.7379309
18.385465811858108	3.036009	1.7424147
18.403220814359884	3.0629888	1.7501396
18.420976262515172	3.0773423	1.7542355
18.43873215678387	3.0954344	1.7593846
18.456488497625923	3.100698	1.7608799
18.474245285501407	3.1747093	1.7817714
18.492002520870486	3.2752988	1.8097787
18.50976020419343	3.3876295	1.8405514
18.527518335930615	3.6732798	1.9165802
18.545276916542516	4.2312417	2.0569983
18.563035946489688	4.385641	2.0941923
18.580795426232832	4.786057	2.187706
18.598555356232698	4.6610317	2.1589422
18.616315736950185	4.9561543	2.2262423
18.63407656884626	4.633686	2.1525998
18.65183785238201	4.834434	2.1987348
18.669599588018617	4.6656137	2.1600032
18.68736177621737	4.664872	2.1598315
18.705124417439652	4.6789255	2.1630824
18.72288751214696	4.460495	2.1119883
18.740651060800886	4.5591927	2.1352265
18.758415063863115	4.2900825	2.0712514
18.77617952179546	4.5266876	2.1276014
18.793944435059814	4.3146405	2.0771713
18.811709804118184	4.3079515	2.0755606
18.829475629432675	4.2362704	2.0582201
18.8472419114655	4.0522714	2.0130255
18.86500865067897	4.169108	2.0418394
18.88277584753551	3.8479135	1.96161
18.90054350249763	3.8218443	1.9549538
18.918311616027957	3.441589	1.855152
18.936080188589226	3.3057082	1.8181607
18.953849220644265	2.9755452	1.7249769
18.971618712656007	2.8403978	1.685348
18.9893886650875	2.7956667	1.6720247
19.007159078401887	7.9870276	2.826133
19.024929953062408	32.877544	5.7338943
19.042701289532435	32.82588	5.7293873
19.060473088275405	25.379587	5.0378156
19.07824534975489	2.655674	1.6296239
19.096018074434568	2.6405103	1.6249647
19.113791262778197	2.6457794	1.6265852
19.13156491524966	2.5981011	1.6118627
19.149339032312945	2.5300887	1.5906253
19.167113614432136	2.4851658	1.5764409
19.184888662071433	2.513312	1.5853429
19.202664175695123	2.5314565	1.5910552
19.220440155767623	2.5129979	1.5852438
19.238216602753447	2.5242724	1.5887959
19.2559935171172	2.552099	1.597529
19.27377089932361	2.5648236	1.6015067
19.291548749837514	2.5218313	1.5880275
19.309327069123835	2.5158544	1.5861444
19.32710585764763	2.5313509	1.5910219
19.344885115874032	2.5547948	1.5983726
19.362664844268313	2.511981	1.584923
19.380445043295822	2.4817486	1.5753566
19.39822571342203	2.5079107	1.5836384
19.41600685511252	2.5000806	1.5811644
19.43378846883297	2.5117018	1.5848349
19.451570555049173	2.5227242	1.5883086
19.469353114227037	2.5041213	1.5824416
19.48713614683254	2.4535248	1.5663731
19.50491965333182	2.4511871	1.5656267
19.52270363419109	2.5105925	1.5844849
19.540488089876686	2.5508995	1.5971535
19.55827302085503	2.5429776	1.5946716
19.576058427592674	2.5148888	1.5858401
19.593844310556282	2.5138457	1.5855112
19.611630670212598	2.5053859	1.582841
19.629417507028506	2.4730241	1.5725852
19.64720482147098	2.4365928	1.560959
19.6649926140071	2.4615831	1.5689433
19.682780885104084	2.4743044	1.5729922
19.70056963522921	2.495789	1.5798067
19.718358864849908	2.5230951	1.5884254
19.7361485744337	2.5390985	1.5934548
19.753938764448215	2.5321202	1.5912638
19.771729435361202	2.4997861	1.5810713
19.789520587640506	2.5214312	1.5879015
19.807312221754092	2.5348501	1.5921212
19.825104338170043	2.5498612	1.5968285
19.842896937356517	2.5455484	1.5954775
19.860690019781824	2.5599923	1.5999976
19.87848358591436	2.541926	1.5943419
19.896277636222635	2.5150774	1.5858996
19.914072171175278	2.4924858	1.5787609
19.931867191241015	2.502457	1.5819156
19.94966269688869	2.4855733	1.5765702
19.967458688587264	2.4210696	1.5559787
19.985255166805807	2.3930204	1.546939
20.00305213201348	2.4350927	1.5604783
20.020849584679578	2.4747703	1.5731403
20.038647525273507	2.4672265	1.5707407
20.05644595426477	2.4486775	1.564825
20.07424487212299	2.4585958	1.567991
20.092044279317903	2.4468358	1.5642365
20.109844176319353	2.4478078	1.5645472
20.127644563597304	2.4117465	1.5529798
20.145445441621817	2.3982775	1.5486373
20.16324681086307	2.4161572	1.5543994
20.181048671791373	2.4006052	1.5493886
20.198851024877122	2.3605764	1.5364168
20.216653870590836	2.3427606	1.5306079
20.234457209403146	2.3615282	1.5367265
20.252261041784802	2.3890884	1.5456676
20.270065368206662	2.3548834	1.534563
20.287870189139685	2.324991	1.5247921
20.305675505054968	2.2989588	1.5162318
20.323481316423702	2.3181484	1.5225466
20.341287623717207	2.35853	1.5357506
20.359094427406884	2.3692696	1.5392432
20.376901727964288	2.3456755	1.5315598
20.39470952586107	2.329117	1.5261445
20.41251782156899	2.3322227	1.5271616
20.430326615559935	2.349556	1.5328262
20.448135908305886	2.3301756	1.5264913
20.465945700278965	2.3221786	1.5238696
20.483755991951384	2.3178842	1.5224599
20.50156678379548	2.327816	1.5257182
20.519378076283708	2.3218207	1.5237522
20.537189869888635	2.3125834	1.5207181
20.55500216508294	2.3339825	1.5277377
20.572814962339415	2.3508666	1.5332536
20.59062826213098	2.3413994	1.5301632
20.60844206493066	2.3056285	1.5184296
20.626256371211593	2.3115516	1.5203787
20.644071181447032	2.326646	1.5253347
20.66188649611036	2.3131409	1.5209013
20.67970231567506	2.3153892	1.5216403
20.697518640614742	2.31284	1.5208024
20.715335471403122	2.299689	1.5164726
20.73315280851404	2.2988744	1.5162039
20.750970652421447	2.2838917	1.511255
20.768789003599412	2.271484	1.5071443
20.786607862522136	2.255224	1.5017403
20.8044272296639	2.2867374	1.5121962
20.82224710549913	2.3146508	1.5213976
20.84006749050237	2.3329272	1.5273923
20.857888385148268	3.862288	1.9652705
20.8757097899116	45.919903	6.7764225
20.893531705267254	64.74311	8.04631
20.911354131690224	83.78127	9.153211
20.92917706965566	69.04446	8.309299
20.94700051963877	50.10745	7.0786614
20.96482448211493	29.334269	5.416112
20.982648957559622	4.076729	2.0190911
21.00047394644843	2.2420008	1.4973313
21.01829944925707	2.278318	1.5094098
21.036125466461375	2.231136	1.4936988
21.053951998537297	2.2266393	1.4921927
21.071779045960906	2.2288966	1.492949
21.089606609208378	2.2386034	1.4961963
21.10743468875603	2.2382212	1.4960686
21.12526328508028	2.2251341	1.4916884
21.143092398657675	2.1996334	1.4831161
21.16092202996488	2.2469301	1.4989763
21.17875217947867	2.2364113	1.4954636
21.19658284767596	2.2166154	1.4888302
21.21441403503377	2.187904	1.4791565
21.232245742029225	2.2035654	1.484441
21.2500779691396	2.19391	1.4811853
21.26791071684227	2.2178388	1.489241
21.28574398561475	2.1994166	1.4830431
21.30357777593465	2.1872385	1.4789315
21.321412088279704	2.140738	1.4631261
21.339246923127792	2.135139	1.4612114
21.357082280956888	2.1609278	1.4700094
21.3749181622451	2.1390657	1.4625546
21.392754567470647	2.0956032	1.4476198
21.41059149711187	2.0796628	1.4421036
21.42842895164726	2.1222835	1.456806
21.446266931555378	2.1160133	1.4546523
21.464105437314945	2.0847023	1.4438498
21.481944469404798	2.0592046	1.4349929
21.49978402830388	2.0673997	1.4378455
21.51762411449127	2.1011865	1.449547
21.53546472844617	2.1236696	1.4572816
21.553305870647876	2.1308136	1.4597306
21.571147541575865	2.0964408	1.4479091
21.58898974170967	2.1049807	1.4508551
21.60683247152899	2.1229663	1.4570402
21.62467573151363	2.1255074	1.457912
21.642519522143523	2.1026292	1.4500445
21.660363843898722	2.0693119	1.4385103
21.6782086972594	2.047875	1.4310398
21.696054082705864	2.070516	1.4389288
21.713900000718535	2.070285	1.4388485
21.73174645177795	2.0617585	1.4358824
21.749593436364794	2.0487268	1.4313374
21.767440954959845	2.06353	1.4364992
21.785289008044032	2.0833132	1.4433687
21.803137596098388	2.0553033	1.433633
21.820986719604086	2.0165832	1.4200644
21.838836379042412	2.020534	1.4214549
21.85668657489478	2.0532095	1.4329025
21.87453730764273	2.0385437	1.4277757
21.892388577767914	2.0070965	1.4167204
21.91024038575213	1.9608924	1.4003187
21.928092732077285	1.9536816	1.3977416
21.945945617225426	1.9783418	1.4065354
21.963799041678694	1.9963757	1.4129316
21.981653005919398	31.33052	5.5973673
21.999507510429943	78.13144	8.839199
22.01736255569286	73.09127	8.549343
22.035218142190818	4.199324	2.0492253
22.05307427040661	1.9886074	1.41018
22.07093094082315	1.9593222	1.3997579
22.088788153923474	1.9475331	1.3955405
22.106645910190746	1.9668468	1.4024432
22.12450421010827	1.9886084	1.4101802
22.142363054159464	2.029495	1.4246035
22.16022244282787	2.0372376	1.4273183
22.178082376597164	2.0086567	1.4172709
22.195942855951145	2.0108085	1.4180298
22.213803881373742	2.0148299	1.4194471
22.231665453349002	2.017357	1.420337
22.24952757236111	1.9858832	1.4092137
22.26739023889438	2.0042667	1.4157213
22.28525345343323	1.990308	1.4107828
22.30311721646225	1.9791335	1.4068168
22.320981528466113	1.9261016	1.3878406
22.33884638992964	1.8904636	1.3749413
22.356711801337788	1.9190896	1.3853121
22.37457776317561	1.9325274	1.3901538
22.392444275928337	1.9774543	1.4062198
22.410311340081282	1.9574113	1.3990752
22.428178956119904	1.9533094	1.3976085
22.446047124529805	1.9752424	1.4054332
22.46391584579669	1.9863324	1.409373
22.481785120406414	1.9886483	1.4101944
22.49965494884496	1.9683915	1.4029938
22.51752533159841	1.9237458	1.3869916
22.53539626915302	1.8931942	1.3759339
22.553267761995137	1.8737338	1.3688439
22.571139810611264	1.9328452	1.3902681
22.589012415488025	1.9841609	1.4086025
22.60688557711216	2.00468	1.4158672
22.624759295970566	1.9770766	1.4060856
22.642633572550263	1.9147725	1.3837531
22.660508407338362	1.9035848	1.3797046
22.67838380082217	1.9141668	1.3835342
22.696259753489077	1.9278957	1.3884869
22.714136265826614	1.937093	1.3917949
22.73201333832246	1.9481204	1.3957509
22.74989097146439	1.9384642	1.3922874
22.76776916574035	1.9337208	1.3905829
22.785647921638393	1.9220159	1.3863679
22.803527239646712	1.9328884	1.3902836
22.82140712025363	1.9479481	1.3956891
22.839287563947593	1.9716297	1.4041474
22.85716857121719	1.9544834	1.3980284
22.875050142551135	1.9107287	1.3822911
22.892932278438277	1.9040185	1.3798618
22.910814979367604	1.9485015	1.3958874
22.928698245828222	1.9396759	1.3927225
22.946582078309387	1.9277389	1.3884304
22.96446647730047	1.929283	1.3889863
22.98235144329098	1.9465737	1.3951967
23.000236976770562	1.9514152	1.3969306
23.018123078229	1.955851	1.3985174
23.03600974815619	1.9269879	1.3881599
23.053896987042194	1.8965856	1.3771658
23.071784795377173	1.8705254	1.3676715
23.08967317365145	1.9257517	1.3877145
23.10756212235546	1.9363886	1.3915418
23.125451641979787	1.929154	1.3889399
23.143341733015134	1.9349191	1.3910137
23.161232395952357	1.950483	1.3965969
23.179123631282426	1.996276	1.4128963
23.197015439496468	1.9882162	1.4100412
23.214907821085717	1.9938232	1.4120281
23.23280077654157	1.9699628	1.4035536
23.250694306355538	1.9830513	1.4082085
23.268588411019277	1.9733572	1.4047624
23.28648309102458	1.9720933	1.4043124
23.304378346863356	1.96233	1.4008319
23.322274179027676	1.9737507	1.4049023
23.340170588009723	1.9652786	1.401884
23.358067574301852	1.9450904	1.394665
23.37596513839651	1.9243162	1.3871973
23.39386328078629	1.9303422	1.3893676
23.411762001963947	1.9443907	1.3944141
23.429661302422353	1.9513216	1.3968971
23.4475611826545	1.9421184	1.393599
23.46546164315356	1.9092845	1.3817686
23.48336268441279	1.8933346	1.3759849
23.501264306925638	1.8999217	1.3783765
23.51916651118564	1.9487959	1.3959928
23.537069297686497	1.9526378	1.3973682
23.554972666922037	1.9457542	1.394903
23.57287661938623	1.9183614	1.3850492
23.59078115557318	1.9200606	1.3856626
23.608686275977128	1.9322294	1.3900466
23.62659198109246	1.9097944	1.3819531
23.6444982714137	1.9148915	1.3837961
23.66240514743549	1.9068584	1.3808905
23.68031260965263	1.9453909	1.3947728
23.698220658560068	1.9421881	1.3936241
23.716129294652845	1.9279962	1.388523
23.7340385184262	1.9070181	1.3809483
23.75194833037546	1.9361238	1.3914467
23.769858730996123	1.9433169	1.394029
23.78776972078382	1.9381009	1.392157
23.80568130023431	1.9154593	1.3840011
23.823593469843495	1.9083627	1.381435
23.841506230107424	1.947622	1.3955723
23.859419581522275	1.9346989	1.3909346
23.87733352458438	1.931688	1.3898518
23.89524805979019	1.9677155	1.4027529
23.913163187636318	1.9932787	1.4118352
23.931078908619508	1.9660275	1.402151
23.948995223236633	1.9314008	1.3897485
23.966912131984735	1.9681801	1.4029185
23.98482963536096	2.039514	1.4281156
24.002747733862616	2.0610003	1.4356184
24.020666427987155	2.0656455	1.4372354
24.038585718232156	2.040663	1.4285178
24.056505605095353	2.068394	1.4381912
24.074426089074617	2.0733604	1.4399168
24.092347170667946	2.0524244	1.4326285
24.110268850373515	2.012461	1.4186124
24.128191128689586	2.0219839	1.4219648
24.146114006114626	2.0306807	1.4250195
24.164037483147187	2.0225828	1.4221754
24.181961560286005	2.0230396	1.422336
24.199886238029926	2.0276065	1.4239404
24.21781151687797	2.0583491	1.4346948
24.235737397329274	2.0897408	1.4455936
24.253663879883135	2.0908864	1.4459897
24.271590965038975	2.0406635	1.4285179
24.289518653296376	1.9647102	1.4016812
24.30744694515505	1.9704008	1.4037097
24.32537584111486	2.0182848	1.4206635
24.34330534167581	2.021418	1.4217658
24.361235447338046	2.0123007	1.4185559
24.379166158601876	2.0305607	1.4249774
24.39709747596772	2.053693	1.4330713
24.41502939993615	2.0231967	1.4223912
24.432961931007917	1.997565	1.4133524
24.450895069683856	1.9638824	1.4013859
24.468828816465	1.9550632	1.3982358
24.4867631718525	1.9623119	1.4008254
24.504698136347656	1.9265778	1.3880122
24.52263371045192	1.9120516	1.3827695
24.540569894666874	1.8975775	1.3775259
24.558506689494266	1.9345397	1.3908772
24.57644409543597	1.900461	1.3785721
24.594382112994012	1.8995229	1.3782318
24.61232074267057	1.889638	1.3746411
24.630259984967953	1.9248192	1.3873786
24.64819984038863	1.8990296	1.3780528
24.66614030943522	1.8981436	1.3777313
24.684081392610462	1.9349692	1.3910317
24.702023090417274	2.008177	1.4171016
24.7199654033587	2.0227408	1.422231
24.737908331937927	2.0310888	1.4251628
24.755851876658305	1.9957439	1.412708
24.773796038023324	1.9832573	1.4082817
24.79174081653661	1.9725143	1.4044622
24.809686212701962	2.0372167	1.427311
24.827632227023294	2.0857265	1.4442044
24.8455788600047	2.1142662	1.4540516
24.8635261121504	2.1400685	1.4628973
24.88147398396475	2.1767428	1.4753789
24.899422475952303	2.1750762	1.4748139
24.917371588617698	2.140075	1.4628996
24.935321322465768	2.1604939	1.4698619
24.953271678001478	2.2898195	1.513215
24.97122265572994	2.5140784	1.5855845
24.989174256156414	2.8016534	1.673814
25.00712647978632	3.2466297	1.8018407
25.02507932712521	3.7885182	1.9464116
25.043032798678798	4.3526654	2.0863042
25.060986894952933	5.054029	2.2481167
25.078941616453637	5.796492	2.4075906
25.096896963687055	6.7294407	2.5941164
25.114852937159508	7.8130727	2.7951875
25.132809537377444	8.342301	2.8883042
25.150766764847468	8.413653	2.9006298
25.168724620076347	7.7767262	2.7886782
25.186683103570985	6.764336	2.6008337
25.204642215838426	5.593907	2.3651443
25.222601957385894	4.2822757	2.069366
25.24056232872074	3.2518113	1.803278
25.25852333035048	2.6337264	1.6228759
25.276484962782778	2.2611167	1.503701
25.294447226525435	2.0573292	1.4343393
25.312410122086423	2.008901	1.417357
25.330373649973843	1.9988444	1.4138049
25.348337810695988	1.9825604	1.4080342
25.366302604761245	1.9329832	1.3903177
25.384268032678207	1.8631135	1.3649591
25.40223409495558	1.8064389	1.3440382
25.420200792102257	1.7503676	1.3230146
25.438168124627246	1.7811104	1.3345824
25.45613609303974	1.8259487	1.3512768
25.474104697849057	1.9060856	1.3806106
25.492073939564698	1.9278898	1.3884847
25.510043818696285	1.9224106	1.3865103
25.528014335753614	1.8965101	1.3771384
25.54598549124664	1.9031816	1.3795584
25.56395728568544	1.895378	1.3767272
25.58192971958028	1.8846092	1.3728107
25.59990279344156	1.837519	1.3555512
25.617876507779833	1.7950697	1.3398021
25.635850863105826	1.8187025	1.3485928
25.653825859930386	1.8493572	1.3599107
25.671801498764548	1.8550274	1.3619939
25.68977778011949	1.8666208	1.3662434
25.707754704506524	1.8368683	1.3553112
25.725732272437153	1.784984	1.336033
25.743710484423012	1.7819545	1.3348987
25.761689340975888	1.8184611	1.3485032
25.77966884260774	1.8487225	1.3596773
25.797648989830662	1.8349819	1.3546151
25.815629783156922	1.8558807	1.3623072
25.83361122309895	1.8386275	1.35596
25.85159331016929	1.8151726	1.3472834
25.869576044880695	1.8249077	1.3508915
25.887559427746034	1.8856312	1.3731829
25.90554345927836	1.8875315	1.3738747
25.92352813999086	1.8533007	1.3613598
25.94151347039689	1.8463995	1.3588228
25.959499451009965	1.8469716	1.3590333
25.97748608234374	1.8800664	1.3711551
25.995473364912062	1.8981061	1.3777177
26.013461299228904	1.8663939	1.3661603
26.03144988580839	1.8486532	1.3596519
26.04943912516483	1.8773707	1.3701718
26.067429017812675	1.862686	1.3648026
26.085419564266537	1.8455768	1.35852
26.103410765041186	1.8388094	1.356027
26.12140262065155	1.8620304	1.3645624
26.139395131612723	1.8305708	1.3529859
26.157388298439948	1.8466564	1.3589174
26.17538212164861	1.891815	1.3754326
26.193376601754295	1.8870661	1.3737053
26.211371739272714	1.8529595	1.3612345
26.229367534719746	1.8436317	1.3578041
26.247363988611433	1.8192796	1.3488067
26.26536110146397	1.7949027	1.3397398
26.283358873793727	1.7703432	1.3305424
26.301357306117204	1.7762247	1.3327508
26.319356398951104	1.806101	1.3439126
26.33735615281224	1.820041	1.3490889
26.35535656821762	1.8239299	1.3505294
26.373357645684404	1.8094927	1.3451738
26.39135938572991	1.7847191	1.3359338
26.409361788871614	1.7703406	1.3305415
26.427364855627165	1.8096352	1.3452268
26.445368586514352	1.832373	1.3536518
26.46337298205115	1.812929	1.3464506
26.48137804275568	1.7967168	1.3404167
26.499383769146217	1.7754129	1.3324462
26.517390161741215	1.7713243	1.330911
26.53539722105928	1.788319	1.3372804
26.553404947619182	1.8183843	1.3484749
26.571413341939856	1.826275	1.3513974
26.589422404540397	1.8322682	1.353613
26.60743213594006	1.8422798	1.3573061
26.62544253665827	1.835963	1.3549771
26.64345360721459	1.8209273	1.3494173
26.66146534812879	1.8172799	1.3480653
26.679477759920758	1.8388774	1.3560522
26.69749084311057	1.8491389	1.3598305
26.71550459821847	1.8180579	1.3483537
26.733519025764842	1.7809244	1.3345128
26.751534126270258	1.8037282	1.3430295
26.769549900255434	1.8155235	1.3474137
26.787566348241267	1.7649889	1.3285289
26.80558347074881	1.7290126	1.3149192
26.823601268299267	1.7529927	1.3240063
26.841619741414036	1.7595309	1.3264731
26.85963889061465	1.7621851	1.3274732
26.877658716422832	1.789349	1.3376654
26.89567921936045	1.8351742	1.354686
26.913700399949544	1.8411523	1.3568907
26.93172225871233	1.7934879	1.3392117
26.949744796171174	1.7644047	1.3283089
26.967768012848605	1.7541239	1.3244334
26.98579190926733	1.8045993	1.3433537
27.003816485950225	1.8881913	1.3741148
27.021841743420318	1.8916974	1.3753899
27.039867682200814	1.8117498	1.3460126
27.057894302815072	1.7615125	1.3272198
27.07592160578664	1.7609701	1.3270155
27.0939495916392	1.7642295	1.328243
27.111978260896635	1.7995433	1.3414706
27.13000761408296	1.8637395	1.3651885
27.148037651722397	1.8266352	1.3515307
27.166068374339304	1.7678003	1.3295865
27.184099782458215	1.7545846	1.3246074
27.20213187660384	1.7844844	1.335846
27.22016465730105	1.7633767	1.327922
27.23819812507487	1.7551341	1.3248148
27.256232280450533	1.736623	1.3178099
27.274267123953383	1.761801	1.3273286
27.292302656108987	1.7950797	1.3398058
27.31033887744306	1.8127998	1.3464025
27.32837578848146	1.7779869	1.3334117
27.34641338975026	1.8002058	1.3417175
27.364451681775673	1.8483151	1.3595276
27.382490665084074	1.8481618	1.3594712
27.400530340202046	1.8204303	1.3492333
27.41857070765629	1.8429519	1.3575536
27.436611767973726	1.8510848	1.3605458
27.454653521681404	1.8095114	1.3451809
27.472695969306564	1.7797894	1.3340875
27.490739111376627	1.7378775	1.3182858
27.508782948419153	1.7179917	1.3107219
27.526827480961902	1.7474627	1.3219163
27.54487270953279	1.7779495	1.3333977
27.562918634659898	1.8144442	1.3470131
27.580965256871508	1.8213832	1.3495864
27.599012576696026	1.7989132	1.3412358
27.617060594662068	1.8109633	1.3457204
27.63510931129842	1.8369495	1.3553411
27.65315872713401	1.8444176	1.3580934
27.67120884269797	1.8081938	1.3446909
27.68925965851958	1.8125468	1.3463086
27.707311175128307	1.8488002	1.3597059
27.725363393053787	1.8396167	1.3563247
27.74341631282583	1.8441155	1.3579822
27.7614699349744	1.8949722	1.3765799
27.77952426002968	2.0959356	1.4477346
27.797579288521973	2.1323152	1.4602449
27.815635020981784	2.559175	1.5997422
27.83369145793979	2.6232343	1.6196401
27.85174859992682	2.4077485	1.5516921
27.869806447473923	2.176965	1.4754542
27.887865001112267	1.8982087	1.3777549
27.905924261373233	1.8325014	1.3536992
27.92398422878836	1.8419305	1.3571774
27.94204490388936	1.8685292	1.3669416
27.96010628720813	1.902834	1.3794326
27.978168379276728	1.8737452	1.3688481
27.9962311806274	1.8647971	1.3655758
28.014294691792568	1.8831848	1.3722918
28.0323589133048	1.9025753	1.3793387
28.050423845696887	1.8789338	1.3707421
28.068489489501758	1.8669695	1.3663709
28.086555845252523	1.8666399	1.3662503
28.104622913482487	1.8841645	1.3726487
28.122690694725115	1.8742499	1.3690325
28.14075918951405	1.8879595	1.3740304
28.15882839838312	1.905591	1.3804314
28.176898321866304	1.929875	1.3891994
28.1949689604978	1.9246986	1.3873351
28.213040314811945	1.8847518	1.3728626
28.23111238534327	1.875532	1.3695006
28.249185172626493	1.8731836	1.3686429
28.267258677196473	1.9146547	1.3837105
28.285332899588294	1.8921701	1.3755617
28.303407840337172	1.9128214	1.3830478
28.321483499978545	1.9755431	1.4055401
28.33955987904799	1.9730402	1.4046495
28.357636978081285	1.920307	1.3857515
28.37571479761439	1.9345121	1.3908674
28.393793338183425	1.9752204	1.4054253
28.41187260032469	1.9635938	1.4012829
28.429952584574686	1.935906	1.3913684
28.448033291470065	1.954591	1.3980669
28.46611472154769	1.9966513	1.4130291
28.484196875344566	2.0178952	1.4205264
28.502279753397914	1.9949608	1.4124308
28.52036335624511	1.9912332	1.4111106
28.538447684423716	1.9810327	1.4074917
28.556532738471482	1.977171	1.4061191
28.574618518926325	2.0099733	1.4177352
28.59270502632635	1.9550825	1.3982427
28.61079226120985	1.9321722	1.390026
28.628880224115274	2.0052364	1.4160637
28.646968915581287	2.0346935	1.4264268
28.66505833614671	2.0403583	1.4284111
28.68314848635055	2.0730124	1.439796
28.701239366732004	2.0875316	1.4448292
28.71933097783044	2.0891402	1.4453858
28.737423320185403	2.0553415	1.4336462
28.75551639433665	2.0389452	1.4279164
28.773610200824074	2.0482373	1.4311664
28.791704740187793	2.0874162	1.4447893
28.80980001296809	2.1555848	1.468191
28.827896019705413	2.1793678	1.4762682
28.845992760940433	2.1988256	1.4828438
28.86409023721397	2.161001	1.4700344
28.88218844906704	2.1888502	1.4794763
28.900287397040845	2.2380376	1.4960072
28.918387081676755	2.2568715	1.5022887
28.936487503516343	2.233239	1.4944025
28.954588663101365	2.2361047	1.4953611
28.97269056097374	2.289688	1.5131716
28.990793197675597	2.335584	1.5282618
29.00889657374923	2.3881435	1.545362
29.027000689737125	2.3683867	1.5389564
29.04510554618196	2.4002132	1.5492622
29.06321114362659	2.4477012	1.5645131
29.08131748261405	2.4601817	1.5684966
29.099424563687567	2.5139213	1.585535
29.11753238739057	2.5685227	1.6026611
29.13564095426663	2.5794723	1.6060736
29.15375026485954	2.5687778	1.6027408
29.171860319713275	2.6719902	1.6346223
29.18997111937199	2.7771914	1.6664908
29.20808266438002	2.833395	1.6832691
29.226194955281898	2.8550687	1.6896949
29.244307992622335	2.821419	1.679708
29.26242177694624	2.8326101	1.683036
29.2805363087987	2.908662	1.70548
29.29865158872498	2.9268832	1.7108136
29.316767617270557	2.928158	1.7111862
29.334884394981064	2.9371948	1.7138246
29.353001922402367	2.9303727	1.7118331
29.37112020008047	2.9200342	1.7088108
29.389239228561596	3.0761611	1.7538989
29.407359008392152	3.3551745	1.8317136
29.42547954011872	3.719692	1.9286503
29.44360082428809	4.2515087	2.0619187
29.46172286144722	5.1968994	2.279671
29.479845652143283	6.873925	2.621817
29.497969196923606	9.155545	3.025813
29.516093496335728	11.775581	3.4315567
29.5342185509274	14.57334	3.8175044
29.55234436124651	16.822073	4.101472
29.570470927841175	18.123747	4.2571993
29.588598251259686	17.817488	4.2210765
29.60672633205055	16.440062	4.0546346
29.624855170762405	14.283515	3.7793539
29.642984767944146	11.441601	3.3825436
29.66111512414481	8.650476	2.9411693
29.67924623991366	6.482041	2.5459852
29.697378115800138	5.0699544	2.2516558
29.71551075235387	4.1903224	2.0470276
29.733644150124675	3.7902396	1.9468538
29.751778309662576	3.5944405	1.895901
29.769913231517766	3.4141414	1.8477396
29.78804891624066	3.318486	1.8216712
29.806185364381818	3.2899094	1.8138107
29.82432257649206	3.2833788	1.8120096
29.842460553122333	3.280909	1.8113279
29.86059929482382	3.2572021	1.804772
29.878738802147872	3.244681	1.8012998
29.896879075646048	3.278618	1.8106955
29.915020115870114	3.27763	1.8104227
29.933161923371976	3.2282517	1.7967336
29.951304498703777	3.1916595	1.7865216
29.969447842417857	3.2112858	1.7920061
29.987591955066733	3.260609	1.8057157
30.005736837203123	3.2767673	1.8101844
30.023882489379943	3.2933633	1.8147626
30.04202891215028	3.2125244	1.7923516
30.060176106067455	3.1533163	1.7757579
30.078324071684946	3.1842003	1.7844328
30.09647280955646	3.1379833	1.7714354
30.114622320235863	3.149152	1.774585
30.132772604277257	3.1750877	1.7818775
30.1509236622349	3.2126455	1.7923855
30.16907549466328	3.2514694	1.8031831
30.18722810211705	3.251631	1.8032279
30.205381485151097	3.1700585	1.7804658
30.22353564432045	3.0722077	1.7527714
30.241690580180403	3.0579236	1.7486919
30.25984629328638	3.0365896	1.7425814
30.278002784194037	2.9530916	1.7184561
30.296160053459246	2.9217188	1.7093036
30.314318101638033	2.9540296	1.718729
30.332476929286646	2.9691415	1.7231197
30.35063653696153	2.9546478	1.7189089
30.368796925219307	2.9129045	1.7067233
30.386958094616844	2.86748	1.6933635
30.40512004571115	2.871495	1.6945486
30.423282779059463	2.8815613	1.6975162
30.441446295219233	2.79431	1.671619
30.459610594748067	2.8270369	1.6813794
30.47777567820382	2.901488	1.7033755
30.495941546144504	2.91385	1.7070003
30.51410819912835	2.8756514	1.6957746
30.532275637713795	2.8380327	1.6846461
30.55044386245946	2.8917155	1.7005045
30.56861287392416	2.8831086	1.6979719
30.586782672666956	2.8030508	1.6742314
30.604953259247047	2.775302	1.6659237
30.623124634223885	2.8031363	1.6742569
30.641296798157075	2.774185	1.6655885
30.659469751606462	2.727569	1.6515354
30.677643495132074	2.702259	1.643855
30.695818029294152	2.685374	1.6387111
30.713993354653116	2.6520076	1.6284986
30.73216947176962	2.649855	1.6278375
30.75034638120448	2.6641734	1.6322296
30.768524083518756	2.7356067	1.6539669
30.786702579273673	2.7517202	1.658831
30.80488186903069	2.8301094	1.6822929
30.82306195335144	2.971381	1.7237694
30.841242832797782	3.1096473	1.7634192
30.85942450793176	3.3383005	1.8271017
30.877606979315637	3.6893642	1.9207717
30.895790247511883	4.034535	2.0086153
30.913974313083134	4.447575	2.1089275
30.932159176592283	4.75606	2.1808393
30.95034483860237	4.78837	2.1882346
30.968531299676698	4.5516276	2.1334543
30.98671856037873	4.293908	2.0721748
31.00490662127215	4.018992	2.0047424
31.023095482920848	3.5936747	1.895699
31.04128514588892	3.0944846	1.7591147
31.059475610740662	2.786326	1.6692291
31.07766687804056	2.6540902	1.6291379
31.09585894835335	2.5744922	1.6045225
31.11405182224393	2.4749775	1.5732061
31.132245500277417	2.4424024	1.5628188
31.15043998301914	2.4095483	1.552272
31.168635271034628	2.4267292	1.5577962
31.18683136488964	2.4277189	1.5581139
31.20502826515008	2.4209204	1.5559307
31.223225972382135	2.4309998	1.5591663
31.241424487152155	2.4443524	1.5634425
31.259623810026692	2.417819	1.5549338
31.27782394157253	2.4655566	1.5702091
31.296024882356644	2.4635618	1.5695738
31.314226632946237	2.3863113	1.544769
31.332429193908684	2.3864417	1.5448112
31.350632565811598	2.405089	1.5508349
31.368836749222787	2.4708936	1.5719076
31.387041744710295	2.5670984	1.6022167
31.40524755284232	2.6014073	1.6128879
31.423454174187317	2.561117	1.600349
31.441661609313922	2.5640655	1.60127
31.459869858791002	2.4879644	1.5773282
31.478078923187628	2.3786418	1.5422846
31.496288803073064	2.3482065	1.532386
31.514499499016807	2.363525	1.5373759
31.532711011588546	2.3208845	1.5234449
31.550923341358178	2.361908	1.53685
31.56913648889584	2.3595853	1.5360942
31.587350454771844	2.3030837	1.5175914
31.605565239556732	2.309256	1.5196236
31.62378084382127	2.3318014	1.5270237
31.641997268136382	2.301045	1.5169196
31.660214513073274	2.335101	1.5281037
31.67843257920331	2.3400578	1.5297247
31.6966514670981	2.381972	1.5433639
31.71487117732944	2.334573	1.527931
31.733091710469346	2.2391033	1.4963634
31.751313067090052	2.1350298	1.4611741
31.769535247764008	2.1941254	1.481258
31.787758253063878	2.311742	1.5204414
31.805982083562526	2.3325121	1.5272564
31.824206739833024	2.355204	1.5346674
31.84243222244869	2.3515697	1.5334829
31.860658531983013	2.3464265	1.5318049
31.878885669009737	2.3487902	1.5325763
31.897113634102784	2.300398	1.5167063
31.91534242783632	2.2599251	1.5033047
31.933572050784694	2.2509313	1.5003104
31.951802503522508	2.2179694	1.4892849
31.970033786624548	2.2328763	1.4942812
31.988265900665834	2.2624905	1.5041578
32.006498846221575	2.2468333	1.498944
32.02473262386724	2.2108026	1.4868767
32.04296723417845	2.227081	1.4923408
32.0612026777311	2.2413332	1.4971083
32.07943895510129	2.1823997	1.4772947
32.097676066865304	2.2094493	1.4864216
32.115914013599685	2.2064593	1.4854156
32.13415279588115	2.1549067	1.4679601
32.152392414286666	2.1297596	1.4593695
32.1706328693934	2.1128054	1.4535493
32.18887416177875	2.1252859	1.457836
32.20711629202032	2.106806	1.4514841
32.225359260695924	2.1121638	1.4533285
32.243603068383614	2.057096	1.434258
32.26184771566166	2.089834	1.4456258
32.28009320310852	2.04325	1.429423
32.2983395313029	2.087222	1.4447222
32.31658670082372	2.1363204	1.4616157
32.33483471225012	2.0685635	1.4382502
32.35308356616143	2.0742679	1.4402319
32.371333263137245	2.1712396	1.4735126
32.38958380375734	2.1803367	1.4765964
32.407835188601744	2.0650592	1.4370314
32.42608741825067	2.0237544	1.4225872
32.444340493284585	2.1270359	1.4584361
32.46259441428416	2.1437163	1.4641435
32.48084918183028	2.0685987	1.4382625
32.49910479650405	1.9660232	1.4021494
32.51736125888683	1.9456582	1.3948685
32.53561856956014	1.986087	1.409286
32.5538767291058	2.0207744	1.4215394
32.572135738105764	2.0153549	1.419632
32.59039559714228	2.0202816	1.4213661
32.608656306797776	2.0297523	1.4246937
32.62691786765491	2.0298803	1.4247386
32.645180280296586	2.038041	1.4275998
32.663443545305896	2.0842955	1.4437089
32.68170766326619	1.9902475	1.4107614
32.69997263476099	2.0008523	1.4145149
32.7182384603741	2.059943	1.4352502
32.7365051406895	2.0946312	1.4472841
32.75477267629144	2.0980284	1.4484572
32.77304106776434	2.1220994	1.4567428
32.79131031569289	2.0450983	1.4300693
32.809580420661966	1.9197451	1.3855487
32.827851383256714	1.9568961	1.398891
32.84612320406245	1.9959985	1.4127982
32.86439588366476	1.9971708	1.4132129
32.88266942264945	2.0399485	1.4282676
32.9009438216025	2.051887	1.4324409
32.9192190811102	1.9791061	1.4068071
32.937495201758985	1.8702197	1.3675598
32.95577218413556	1.8611814	1.3642513
32.974050028826866	1.8994609	1.3782094
32.992328736420035	1.8851635	1.3730125
33.010608307502444	1.8799254	1.3711038
33.02888874266169	1.9082584	1.3813972
33.047170042485604	1.9387662	1.3923959
33.06545220756225	1.9518821	1.3970977
33.083735238479896	1.9190228	1.385288
33.10201913582707	1.9405195	1.3930253
33.12030390019248	1.95384	1.3977983
33.138589532165135	1.9427974	1.3938427
33.15687603233419	1.9106321	1.3822562
33.17516340128909	1.848196	1.3594837
33.19345163961947	1.9329897	1.3903201
33.211740747915215	2.0015666	1.4147674
33.23003072676643	2.0319736	1.4254731
33.248321576763466	1.9703149	1.403679
33.266613298496885	1.9837686	1.4084632
33.28490589255747	1.8872848	1.3737848
33.30319935953626	1.9188884	1.3852395
33.32149370002451	1.8591654	1.3635122
33.339788914613706	1.8442254	1.3580226
33.358085003895575	1.7960804	1.3401792
33.376381968462034	1.8420753	1.3572308
33.39467980890529	1.9723562	1.404406
33.41297852581774	2.04013	1.4283311
33.43127811979204	1.9832625	1.4082836
33.44957859142105	1.8792163	1.3708451
33.467879941297866	1.897918	1.3776494
33.486182170015844	1.9646077	1.4016446
33.50448527816853	1.9678386	1.4027967
33.522789266349754	1.8896106	1.374631
33.541094135153514	1.855662	1.3622268
33.55939988517411	1.8168801	1.347917
33.57770651700602	1.876622	1.3698986
33.59601403124398	2.0072682	1.416781
33.61432242848296	2.015651	1.4197363
33.632631709318154	1.8698983	1.3674423
33.650941874344994	1.8322793	1.3536171
33.66925292415916	1.9458859	1.3949502
33.68756485935654	2.0013084	1.4146761
33.70587768053328	1.9309546	1.3895879
33.724191388285746	1.8095239	1.3451855
33.74250598321054	1.849246	1.3598698
33.760821465904506	1.8961307	1.3770006
33.77913783696474	2.0661588	1.4374139
33.79745509698852	2.156894	1.4686368
33.815773246573414	1.990112	1.4107133
33.8340922863172	1.8185654	1.348542
33.852412216817896	1.8338479	1.3541964
33.87073303867377	1.9397854	1.3927618
33.889054752483304	1.871082	1.367875
33.907377358845245	1.7691491	1.3300936
33.92570085835853	1.8635793	1.3651297
33.94402525162239	1.9782407	1.4064995
33.96235053923627	2.032818	1.4257693
33.980676721799824	2.0397289	1.4281908
33.999003799912984	1.9491203	1.396109
34.01733177417592	1.8658444	1.3659592
34.03566064518901	1.9281083	1.3885634
34.0539904135529	2.1088605	1.4521916
34.07232107986846	2.141914	1.4635279
34.090652644736785	2.0689664	1.4383903
34.108985108759235	2.0030525	1.4152924
34.12731847253742	2.103514	1.4503496
34.14565273667313	2.1097906	1.4525118
34.16398790176847	2.011494	1.4182714
34.18232396842574	1.8639039	1.3652487
34.20066093724749	1.841626	1.3570652
34.21899880883651	1.9386246	1.392345
34.23733758379583	1.9674486	1.4026577
34.25567726272874	1.9826994	1.4080836
34.27401784623872	1.9439216	1.3942459
34.29235933492957	1.8795811	1.3709781
34.31070172940526	1.9655888	1.4019946
34.32904503027003	2.0798967	1.4421847
34.347389238128386	2.0801115	1.4422592
34.36573435358502	1.9873308	1.4097272
34.38408037724492	1.9352763	1.3911421
34.402427309713296	1.8481927	1.3594825
34.42077515159559	1.8020555	1.3424066
34.43912390349752	1.8079841	1.344613
34.45747356602499	1.8312145	1.3532238
34.47582413978423	1.9894489	1.4104782
34.49417562538163	2.0552	1.433597
34.51252802342388	2.1466124	1.4651322
34.53088133451789	2.277219	1.5090457
34.54923555927084	2.2737663	1.5079013
34.567590698290104	2.0741222	1.4401813
34.58594675218336	2.0692956	1.4385047
34.6043037215585	2.138869	1.4624873
34.62266160702365	1.9978899	1.4134673
34.641020409187234	1.8120095	1.346109
34.65938012865785	1.7803043	1.3342805
34.677740766044394	1.7782999	1.3335291
34.69610232195598	1.779126	1.3338388
34.714464797002016	1.831552	1.3533485
34.73282819179208	1.9476815	1.3955936
34.751192506936064	1.917702	1.3848112
34.76955774304408	1.7609111	1.3269932
34.7879239007265	1.8350513	1.3546406
34.80629098059391	1.983136	1.4082386
34.824658983257194	1.8898351	1.3747127
34.843027909327446	1.813222	1.3465593
34.86139775941603	1.8139936	1.3468457
34.879768534134534	1.9001305	1.3784522
34.89814023409483	1.8713965	1.36799
34.91651285990901	1.9219874	1.3863577
34.93488641218944	1.9021679	1.379191
34.95326089154871	1.7665455	1.3291146
34.97163629859967	1.6684709	1.291693
34.99001263395542	1.7059706	1.3061281
35.00838989822934	1.7998891	1.3415995
35.02676809203499	1.9641896	1.4014955
35.04514721598624	2.1907403	1.4801149
35.063527270697215	2.2073696	1.485722
35.081908256782256	2.25615	1.5020486
35.10029017485597	2.1922362	1.4806201
35.11867302553321	2.135957	1.4614913
35.137056809429104	1.985104	1.4089372
35.155441527159006	1.9501758	1.3964869
35.173827179338524	2.0083787	1.4171728
35.19221376658354	1.8945252	1.3764175
35.21060128951017	1.7657275	1.3288068
35.2289897487348	1.7752186	1.3323733
35.24737914487405	1.7872106	1.3368659
35.26576947854479	1.916856	1.3845057
35.28416075036418	2.0371368	1.427283
35.30255296094958	1.9058763	1.3805348
35.32094611091867	1.6027128	1.2659829
35.33934020088932	1.6666706	1.290996
35.35773523147969	1.7677189	1.3295559
35.3761312033082	1.6894217	1.2997775
35.394528116993506	1.9817446	1.4077445
35.41292597315452	2.2878032	1.5125486
35.431324772410434	2.2321174	1.4940273
35.449724515380666	1.9810222	1.4074879
35.46812520268491	2.185711	1.478415
35.486526834943106	2.4536283	1.5664061
35.504929412775454	2.524194	1.5887712
35.52333293680242	2.5663047	1.601969
35.54173740764471	2.1457896	1.4648514
35.560142825923286	1.9050872	1.380249
35.5785491922594	1.8315612	1.3533518
35.59695650727454	1.7517593	1.3235404
35.61536477159042	1.3578206	1.1652557
