0.008763373481513119	0.0	0.0
0.026290120649546365	0.11242709	0.3353015
0.043816868432600686	0.121336736	0.34833422
0.06134361724069026	0.08375415	0.2894031
0.07887036748382949	0.065850444	0.2566134
0.0963971195720331	0.05314522	0.23053247
0.11392387391531617	0.07437155	0.2727115
0.1314506309236943	0.11254758	0.3354811
0.1489773910071836	0.095655814	0.30928275
0.16650415457580078	0.08114374	0.2848574
0.18403092203956356	0.12430237	0.3525654
0.20155769380849	0.11594667	0.34050944
0.2190844702925996	0.16959202	0.41181552
0.2366112519019124	0.12301055	0.3507286
0.2541380390464497	0.1317786	0.3630132
0.27166483213623416	0.16866997	0.4106945
0.28919163158128947	0.15092361	0.3884889
0.3067184377916406	0.14311975	0.37831172
0.324245251177314	0.13448718	0.36672494
0.34177207214833777	0.10721673	0.32743967
0.3592989011147415	0.1381431	0.3716761
0.37682573848655654	0.12561432	0.3544211
0.39435258467381573	0.13427827	0.36644
0.41187944008655414	0.18028393	0.42459854
0.42940630513480854	0.17214836	0.41490766
0.446933180228618	0.19056101	0.43653294
0.4644600657780234	0.17818928	0.4221247
0.48198696219306775	0.17276148	0.41564587
0.49951386988379676	0.16181968	0.40226817
0.5170407892602581	0.17275347	0.4156362
0.5345677207325025	0.20015018	0.44738147
0.5520946647105822	0.18424097	0.42923298
0.5696216216045534	0.15684523	0.3960369
0.5871485918244737	0.14013259	0.3743429
0.6046755757804043	0.12415066	0.3523502
0.6222025738824094	0.10417831	0.32276666
0.6397295865405557	0.13525811	0.36777455
0.6572566141649129	0.13385394	0.36586055
0.6747836571655547	0.14619471	0.38235417
0.6923107159525568	0.16863383	0.4106505
0.7098377909359992	0.18319574	0.4280137
0.7273648825259653	0.21529624	0.46400025
0.7448919911325411	0.2144492	0.4630866
0.762419117165817	0.20983736	0.45808008
0.7799462610358868	0.19767044	0.44460145
0.7974734231528482	0.16674191	0.40834042
0.8150006039268024	0.14494155	0.3807119
0.8325278037678551	0.12081348	0.34758234
0.8500550230861152	0.1377524	0.3711501
0.8675822622916969	0.18651141	0.43186966
0.8851095217947171	0.19147056	0.4375735
0.9026368020052984	0.19196033	0.4381328
0.9201641033335665	0.16637895	0.40789574
0.9376914261896523	0.16578242	0.4071639
0.9552187709836915	0.1773162	0.4210893
0.9727461381258234	0.17307396	0.4160216
0.990273528026193	0.1919121	0.43807772
1.0078009410949496	0.25442886	0.50440943
1.0253283777422473	0.31897625	0.5647798
1.0428558383782454	0.33278447	0.57687473
1.0603833234131086	0.33387208	0.57781667
1.0779108332570058	0.33884433	0.5821034
1.0954383683201119	0.33487558	0.57868433
1.112965929012607	0.40424415	0.635802
1.1304935157446763	0.49932727	0.70663095
1.1480211289265108	0.54078335	0.73537976
1.1655487689683062	1.3421875	1.1585282
1.1830764362802655	1.5924494	1.261923
1.200604131272596	2.0480983	1.4311179
1.2181318543555117	2.4101686	1.5524718
1.235659605939232	2.4436183	1.5632077
1.253187386433982	3.8795915	1.9696679
1.270715196249994	6.226277	2.495251
1.2882430357975057	11.727571	3.424554
1.3057709054867608	16.613102	4.0759172
1.3232988057280106	22.45661	4.7388406
1.3408267369315112	27.080963	5.203937
1.358354699507526	30.982006	5.5661483
1.3758826938663256	35.34352	5.9450417
1.3934107204181858	37.361217	6.1123824
1.410938779573391	37.98142	6.1629066
1.4284668717422309	38.421898	6.19854
1.4459949973350033	38.17842	6.178869
1.4635231567620117	38.369823	6.194338
1.4810513504335687	37.44944	6.1195946
1.4985795787599925	36.532818	6.0442386
1.5161078421516088	35.868416	5.9890246
1.5336361410187505	35.24683	5.936904
1.5511644757717598	35.270527	5.9388995
1.5686928468209842	35.529377	5.9606524
1.58622125457678	36.10327	6.0085998
1.6037496994495108	37.136078	6.093938
1.621278181849548	37.19089	6.0984335
1.6388067021872719	38.036823	6.1674
1.6563352608730693	37.514095	6.124875
1.673863858317336	36.68782	6.0570474
1.6913924949304753	35.633717	5.9693985
1.7089211711228998	34.781883	5.897617
1.7264498873050296	34.05633	5.83578
1.7439786438872935	32.986404	5.743379
1.7615074412801288	31.980425	5.6551237
1.779036279893981	31.076414	5.574622
1.796565160139305	30.439072	5.5171614
1.814094082426564	30.13234	5.489293
1.8316230471662298	29.59528	5.4401546
1.849152054768784	29.040136	5.3888903
1.8666811056447168	28.326668	5.3222804
1.8842102002045273	27.3228	5.2271214
1.901739338858724	26.537977	5.1515026
1.9192685220178245	25.919415	5.091111
1.9367977500923557	25.069887	5.0069838
1.9543270234928547	24.316187	4.9311447
1.971856342629867	23.586197	4.856562
1.9893857079139496	23.106762	4.806949
2.006915119755667	22.718185	4.76636
2.0244445785655945	22.344028	4.726947
2.0419740847543175	21.97418	4.6876626
2.0595036387324317	21.629032	4.6507025
2.0770332409105414	21.059208	4.589031
2.094562891699263	20.709946	4.550818
2.1120925915092217	19.974552	4.46929
2.129622340751053	19.703665	4.438881
2.1471521398354043	188.00154	13.711366
2.1646819891729323	444.497	21.083097
2.182211889174303	440.68933	20.992601
2.1997418402501974	453.13193	21.286896
2.2172718428113023	433.04117	20.80964
2.234801897268317	321.1044	17.919386
2.2523320040319548	17.394772	4.170704
2.269862163512935	16.941778	4.1160393
2.287392376121992	16.559044	4.0692806
2.304922642269869	16.173985	4.0216894
2.322452962367322	16.079132	4.009879
2.3399833368251164	15.733373	3.9665315
2.357513766054032	15.308514	3.9126096
2.3750442504648586	15.056337	3.8802497
2.3925747904683963	14.920353	3.8626873
2.410105386475459	14.727459	3.8376372
2.4276360388968707	14.467592	3.803629
2.445166748143469	14.158142	3.7627306
2.4626975146261025	13.86604	3.7237132
2.4802283387556323	13.639459	3.6931639
2.4977592209429305	13.377715	3.6575558
2.5152901615988825	13.107308	3.6204016
2.5328211611343865	12.814438	3.579726
2.5503522199603523	12.597334	3.5492723
2.5678833384877024	12.586843	3.547794
2.5854145171273712	12.4721155	3.5315883
2.6029457562903064	12.181281	3.4901693
2.620477056387469	11.958423	3.4580953
2.6380084178298326	11.766111	3.4301765
2.655539841028383	11.603381	3.4063735
2.673071326394119	11.387021	3.374466
2.6906028743380523	11.026018	3.320545
2.708134485271211	10.866955	3.2965064
2.7256661596046325	10.810629	3.2879522
2.743197897749369	10.777688	3.282939
2.760729700116486	10.798901	3.286168
2.778261567117063	10.563813	3.250202
2.795793499162193	10.276534	3.2057033
2.8133254966629817	10.149988	3.1859045
2.830857560030551	9.976226	3.1585164
2.8483896896760337	9.844031	3.1375198
2.865921886010578	9.583389	3.095705
2.883454149445347	9.473899	3.07797
2.9009864803915177	9.361915	3.0597246
2.91851887926028	9.25658	3.0424628
2.9360513464628384	9.212433	3.035199
2.953583882410413	8.982908	2.99715
2.9711164875142373	9.0027275	3.0004547
2.9886491621855606	8.929425	2.9882145
3.0061819068356455	8.851574	2.9751594
3.023714721875769	8.716847	2.9524307
3.041247607717225	8.558212	2.9254422
3.0587805647713213	8.277368	2.8770416
3.0763135934493806	8.04463	2.8363056
3.0938466941627407	7.9579535	2.8209846
3.1113798673227544	7.9089603	2.8122873
3.1289131133407904	7.8665266	2.8047328
3.1464464326282315	7.652459	2.7663078
3.1639798255964786	7.549149	2.7475715
3.1815132926569443	7.516688	2.741658
3.1990468342210603	7.58494	2.754077
3.216580450700272	7.6483884	2.765572
3.2341141425060416	7.6046567	2.7576542
3.251647910049847	7.59079	2.7551389
3.2691817537431813	7.388283	2.7181396
3.286715673997555	7.334335	2.7081976
3.3042496712244938	7.152033	2.6743286
3.32178374583554	7.0527296	2.6556976
3.339317898242251	6.8820267	2.6233618
3.3568521288562034	6.738035	2.5957725
3.3743864380889876	6.6798964	2.5845494
3.3919208263522127	6.6171513	2.5723825
3.4094552940575023	6.6595373	2.580608
3.4269898416164972	6.6745524	2.5835154
3.444524469440858	6.5965776	2.5683804
3.4620591779422587	6.619939	2.5729241
3.479593967532391	6.554818	2.560238
3.4971288386229658	6.5484424	2.5589924
3.5146637916257086	6.51506	2.5524616
3.5321988269523628	6.3963327	2.5290973
3.5497339450146903	6.3572145	2.5213518
3.5672691462244708	6.436014	2.53693
3.5848044309934988	6.451778	2.540035
3.60233979973359	6.552485	2.5597823
3.619875252856575	6.5005894	2.5496254
3.6374107907743034	6.4622316	2.542092
3.6549464138986427	6.360119	2.5219276
3.6724821226414788	6.287073	2.5074036
3.690017917414714	6.3138733	2.5127423
3.7075537986302702	6.3101673	2.5120046
3.7250897667000857	6.348979	2.519718
3.7426258220361235	6.5071373	2.550909
3.7601619650503553	6.812276	2.6100338
3.777698196154779	7.295088	2.700942
3.7952345157614067	8.416565	2.9011316
3.8127709242822716	9.2845335	3.0470533
3.830307422129425	11.590829	3.4045305
3.847844009714936	30.333426	5.507579
3.8653806874508954	97.69387	9.884021
3.882917455749409	96.98503	9.848098
3.900454315022606	96.99326	9.8485155
3.917991265682631	41.654583	6.454036
3.9355283081416506	11.297245	3.3611374
3.9530654428118495	8.884692	2.98072
3.970602670105433	7.4704037	2.733204
3.9881399904346244	6.5379477	2.556941
4.005677404211669	6.4416275	2.538036
4.023214911848827	6.4286637	2.535481
4.0407525137583855	6.4253607	2.5348296
4.058290210352644	6.509881	2.551447
4.075828002043927	6.4194326	2.53366
4.0933658892445814	6.3133235	2.5126328
4.110903872366966	6.2121887	2.4924262
4.128441951823468	6.1695385	2.4838555
4.145980128026488	6.192763	2.4885263
4.163518401388452	6.1778355	2.4855251
4.181056772321807	6.20632	2.4912486
4.1985952412390155	6.22426	2.4948466
4.216133808552567	6.2747436	2.5049438
4.233672474674966	6.437118	2.5371475
4.251211240018741	6.5992637	2.5689032
4.268750104996445	6.8389535	2.6151392
4.286289070020643	7.768667	2.7872329
4.303828135503928	9.290728	3.0480695
4.3213673018589125	29.612764	5.441761
4.3389065694982305	90.77251	9.527461
4.356445938834537	165.98251	12.88342
4.3739854102805085	171.33696	13.089575
4.391524984248844	172.18478	13.12192
4.409064661152262	136.38048	11.6782055
4.426604441403504	96.828026	9.840123
4.444144325415337	75.99925	8.717755
4.461684313600543	22.110146	4.7021427
4.47922440637193	22.456974	4.738879
4.496764604142329	20.71635	4.551522
4.5143049073245916	18.727556	4.3275347
4.531845316331589	16.556923	4.06902
4.5493858315762195	13.602839	3.6882029
4.566926453471405	11.369154	3.3718176
4.584467182430081	9.3835335	3.0632553
4.602008018865218	8.316393	2.8838158
4.619548963189798	7.597889	2.7564268
4.637090015816834	7.080873	2.660991
4.654631177159353	6.835164	2.6144147
4.672172447630417	6.4808393	2.5457492
4.689713827643102	6.412251	2.5322423
4.7072553176105085	6.104646	2.4707582
4.724796917945764	5.87884	2.4246318
4.742338629062015	5.735745	2.3949416
4.759880451372434	5.706792	2.3888893
4.777422385290215	5.6501007	2.3769941
4.794964431228581	5.668697	2.3809025
4.812506589600768	5.6898656	2.385344
4.830048860820047	5.6906834	2.3855152
4.847591245299709	5.6941905	2.3862503
4.8651337434530655	5.6315246	2.3730834
4.882676355693457	5.6544266	2.377904
4.900219082434242	5.6942053	2.3862534
4.917761924088813	5.666167	2.380371
4.935304881070575	5.6165943	2.3699355
4.952847953792969	5.556935	2.357315
4.970391142669449	5.509504	2.3472333
4.9879344481135055	5.5274825	2.35106
5.005477870538642	5.457251	2.336076
5.023021410358394	5.391728	2.3220096
5.040565067986324	5.428736	2.3299649
5.05810884383601	5.4401703	2.3324172
5.075652738321066	5.5480285	2.3554254
5.09319675185512	5.5581436	2.3575716
5.110740884851836	5.4981084	2.3448045
5.128285137724894	5.422276	2.328578
5.145829510888007	5.3904467	2.3217335
5.163374004754908	5.347847	2.3125412
5.1809186197393595	5.4065347	2.3251956
5.198463356255145	5.388491	2.3213124
5.216008214716077	5.450627	2.3346577
5.233553195535998	5.4404397	2.332475
5.251098299128764	5.359804	2.315125
5.268643525908272	5.3440733	2.3117251
5.286188876288432	5.2646313	2.2944784
5.3037343506831895	5.306671	2.3036213
5.32127994950651	5.298324	2.3018088
5.3388256731723915	5.332193	2.309154
5.356371522094851	5.3788953	2.3192446
5.373917496687938	5.298846	2.301922
5.391463597365729	5.251708	2.2916605
5.40900982454232	5.237397	2.288536
5.426556178631843	5.323219	2.3072102
5.444102660048449	5.3557405	2.3142474
5.4616492692063225	5.3898807	2.3216116
5.479196006519669	5.4194818	2.3279781
5.496742872402727	5.4160695	2.327245
5.514289867269756	5.349017	2.3127942
5.531836991535049	5.2584243	2.2931254
5.549384245612924	5.2382264	2.2887173
5.566931629917724	5.2958245	2.301266
5.584479144863822	5.294804	2.3010442
5.6020267908656205	5.234047	2.287804
5.619574568337545	5.175134	2.274892
5.637122477694054	5.1557145	2.2706199
5.654670519349629	5.15787	2.2710943
5.672218693718784	5.1902175	2.278205
5.689767001216059	5.1946206	2.279171
5.707315442256021	5.2006497	2.2804933
5.724864017253266	5.1611314	2.2718124
5.7424127266224225	5.24302	2.2897642
5.75996157077814	5.2905397	2.3001173
5.777510550135105	5.358303	2.314801
5.795059665108022	5.3837495	2.3202908
5.812608916111639	5.4049983	2.3248653
5.830158303560715	5.5505247	2.3559551
5.847707827870055	5.481255	2.341208
5.86525748945448	5.5010314	2.3454278
5.8828072887288485	5.498885	2.3449702
5.900357226108044	5.5121765	2.3478024
5.917907302006979	5.6131816	2.3692155
5.9354575168406	6.2251334	2.4950218
5.9530078710238765	6.8830786	2.623562
5.970558364971812	7.383681	2.717293
5.988108999099438	7.6576667	2.7672489
6.005659773821818	8.210482	2.8653939
6.023210689554039	7.9933705	2.827255
6.040761746711227	8.462932	2.9091117
6.058312945708531	7.8318806	2.7985497
6.075864286961132	7.3835483	2.7172685
6.093415770884244	6.7193246	2.592166
6.1109673978931065	6.1537437	2.480674
6.128519168402993	5.608578	2.3682437
6.146071082829204	5.4732027	2.3394878
6.163623141587075	5.347308	2.3124247
6.181175345091969	5.244377	2.2900605
6.198727693759281	5.2068267	2.2818472
6.216280188004435	5.201021	2.2805748
6.233832828242885	5.2095737	2.282449
6.251385614890126	5.2352324	2.288063
6.268938548361669	5.2067556	2.2818317
6.286491629073067	5.138159	2.2667508
6.304044857439898	5.0844984	2.2548833
6.321598233877777	5.0792346	2.2537158
6.339151758802344	5.1016536	2.258684
6.356705432629277	5.0822997	2.2543957
6.37425925577428	5.104336	2.2592778
6.391813228653095	5.1026473	2.258904
6.409367351681486	5.0731626	2.2523682
6.426921625275259	5.000789	2.2362444
6.44447604985025	4.9357204	2.2216482
6.46203062582232	5.005131	2.237215
6.47958535360737	5.085492	2.2551036
6.497140233621328	5.0981374	2.2579055
6.514695266280161	5.0709476	2.2518764
6.532250451999859	5.1243377	2.2637
6.549805791196454	5.138091	2.2667358
6.567361284286002	5.128771	2.264679
6.584916931684597	5.0955644	2.2573357
6.602472733808367	5.101634	2.2586796
6.6200286910734665	5.0683913	2.251309
6.637584803896092	5.0611243	2.2496943
6.655141072692462	5.032154	2.2432463
6.672697497878842	5.014358	2.2392762
6.690254079871514	5.005381	2.2372708
6.707810819086808	4.9947853	2.2349017
6.725367715941078	4.998033	2.2356281
6.742924770850719	4.9431314	2.2233155
6.760481984232151	4.918191	2.2176995
6.778039356501836	4.902161	2.2140825
6.795596888076266	4.9448323	2.223698
6.813154579371963	5.0398564	2.2449625
6.830712430805492	5.079848	2.253852
6.84827044279344	5.0825024	2.2544405
6.865828615752445	5.0084877	2.237965
6.883386950099159	4.992184	2.2343197
6.900945446250287	5.0190163	2.2403162
6.918504104622553	5.041163	2.2452533
6.936062925632727	5.0662055	2.2508233
6.953621909697607	5.0689187	2.251426
6.971181057234028	5.0756583	2.252922
6.988740368658859	5.0946407	2.257131
7.006299844389007	5.137268	2.266554
7.023859484841407	5.2560406	2.2926056
7.041419290433036	5.4115453	2.3262727
7.058979261580902	5.561719	2.3583298
7.0765393987020495	5.7700095	2.4020844
7.094099702213559	6.1586995	2.4816728
7.111660172532549	6.5182643	2.5530891
7.129220810076164	6.8051853	2.608675
7.146781615261595	7.3280087	2.7070296
7.16434258850606	7.554826	2.7486043
7.181903730226821	7.9824095	2.8253157
7.1994650408411704	8.172128	2.8586934
7.217026520766437	8.235741	2.869798
7.234588170419983	8.496634	2.9148986
7.252149990219215	8.462899	2.9091063
7.269711980581568	8.363882	2.8920376
7.2872741419245175	8.200916	2.8637242
7.304836474665574	7.7905617	2.7911577
7.322398979222286	7.497794	2.73821
7.339961656012233	7.24146	2.6909962
7.357524505453039	6.9018846	2.6271439
7.375087527962357	6.653843	2.5795045
7.392650723957886	6.383742	2.5266068
7.410214093857353	6.0652137	2.4627655
7.427777638078528	5.809147	2.4102173
7.445341357039213	5.567705	2.3595984
7.4629052511572525	5.3734045	2.3180604
7.480469320850524	5.3082	2.3039532
7.498033566536948	5.330145	2.3087106
7.5155979886344735	5.289638	2.2999213
7.5331625875610975	5.2647743	2.2945096
7.550727363734844	5.2605286	2.293584
7.568292317573788	5.277291	2.2972355
7.585857449496025	5.2116547	2.2829049
7.603422759919705	5.150936	2.2695675
7.620988249263007	5.1244397	2.2637224
7.638553917944147	5.203319	2.2810786
7.656119766381391	5.2029963	2.2810078
7.673685794993023	5.216934	2.284061
7.691252004197388	5.257712	2.2929702
7.70881839441285	5.2383475	2.2887437
7.726384966057826	5.1768622	2.275272
7.743951719550762	5.134551	2.2659547
7.761518655310149	5.211531	2.282878
7.779085773754511	5.2906146	2.3001337
7.796653075302419	5.3110986	2.304582
7.814220560372475	5.2816844	2.2981915
7.831788229383323	5.255732	2.2925384
7.8493560827536495	5.3099685	2.3043368
7.866924120902174	5.3435597	2.311614
7.884492344247663	5.3737593	2.318137
7.9020607532089135	5.3786	2.319181
7.919629348204771	5.408628	2.3256457
7.937198129654115	5.438005	2.331953
7.954767097975865	5.493316	2.3437824
7.972336253588986	5.4602733	2.3367229
7.989905596912472	5.444383	2.3333201
8.007475128365371	5.4107094	2.3260932
8.025044848366756	5.4356885	2.3314564
8.042614757335754	5.5646615	2.3589535
8.060184855691523	5.641832	2.3752542
8.07775514385327	5.8375034	2.4160926
8.095325622240228	5.891032	2.4271448
8.112896291271687	5.875928	2.4240313
8.130467151366968	5.8698626	2.42278
8.148038202945436	5.929008	2.4349554
8.165609446426497	5.9462543	2.4384942
8.183180882229594	5.9998646	2.4494622
8.200752510774217	5.963828	2.442095
8.218324332479893	5.955637	2.4404173
8.235896347766193	5.949488	2.4391572
8.253468557052724	5.980011	2.4454062
8.27104096075914	5.9681897	2.442988
8.288613559305137	6.050327	2.459741
8.306186353110448	6.1815424	2.4862707
8.32375934259485	6.3017254	2.5103238
8.341332528178162	6.3300247	2.515954
8.358905910280246	6.330566	2.5160615
8.376479489321003	6.3076835	2.5115101
8.394053265720377	6.341581	2.5182495
8.411627239898356	6.4040875	2.5306299
8.42920141227497	6.398612	2.5295477
8.44677578327029	6.348706	2.5196638
8.464350353304427	6.246065	2.499213
8.48192512279754	6.2396464	2.4979284
8.499500092169827	6.2096815	2.4919233
8.51707526184153	6.27129	2.5042543
8.534650632232934	6.3174095	2.5134459
8.552226203764365	6.2965617	2.509295
8.569801976856192	6.2761974	2.505234
8.587377951928834	6.237611	2.497521
8.60495412940274	6.2775044	2.5054948
8.622530509698416	6.3452554	2.518979
8.6401070932364	6.5322394	2.5558245
8.657683880437283	6.6223154	2.573386
8.675260871721695	6.7753186	2.6029441
8.692838067510303	6.8926234	2.6253805
8.710415468223834	7.072949	2.6595016
8.727993074283043	7.2388024	2.6905022
8.745570886108737	7.2535214	2.6932364
8.763148904121765	7.299356	2.701732
8.78072712874302	7.243726	2.691417
8.798305560393441	7.40939	2.7220194
8.815884199494006	7.5003476	2.7386763
8.833463046465745	7.7443733	2.7828715
8.851042101729728	7.8982973	2.810391
8.86862136570707	8.251501	2.8725426
8.886200838818924	8.400638	2.8983853
8.903780521486505	8.438026	2.904828
8.921360414131055	8.504783	2.916296
8.938940517173874	8.604323	2.9333127
8.956520831036297	8.709964	2.9512649
8.97410135613971	8.971475	2.995242
8.99168209290554	9.141162	3.0234354
9.009263041755265	9.443786	3.0730743
9.026844203110405	9.782099	3.1276348
9.044425577392525	9.972764	3.1579683
9.062007165023239	10.059168	3.1716192
9.079588966424197	10.247153	3.2011175
9.097170982017108	10.297631	3.2089922
9.11475321222372	11.328938	3.3658488
9.132335657465825	12.227966	3.496851
9.149918318165264	12.364489	3.5163174
9.167501194743924	13.064747	3.614519
9.18508428762374	12.764985	3.5728118
9.202667597226693	12.694037	3.5628693
9.220251123974803	12.3012905	3.5073195
9.237834868290143	11.937252	3.4550328
9.255418830594836	11.692932	3.419493
9.273003011311046	11.289515	3.3599873
9.290587410860985	11.169118	3.3420231
9.308172029666911	10.631676	3.2606251
9.32575686815113	10.296599	3.2088315
9.343341926735997	8.921724	2.9869256
9.360927205843916	8.64611	2.9404268
9.378512705897327	8.418063	2.9013898
9.396098427318728	8.213681	2.865952
9.413684370530664	8.132249	2.8517098
9.431270535955722	8.058574	2.8387628
9.448856924016539	7.9553733	2.820527
9.466443535135806	7.7656417	2.78669
9.484030369736251	7.773622	2.7881217
9.501617428240658	7.7477098	2.7834709
9.519204711071852	7.798138	2.7925146
9.536792218652714	7.8480697	2.8014407
9.55437995140617	7.899945	2.810684
9.571967909755191	7.932106	2.8163996
9.589556094122802	7.885877	2.8081803
9.60714450493207	7.901744	2.8110042
9.624733142606116	7.94108	2.8179922
9.642322007568108	7.9773006	2.8244116
9.659911100241267	8.066268	2.8401177
9.677500421048851	8.110481	2.8478906
9.695089970414175	8.125483	2.8505232
9.712679748760609	8.062288	2.839417
9.730269756511557	8.104606	2.846859
9.747859994090492	8.205346	2.8644974
9.765450461920915	8.26125	2.874239
9.78304116042639	8.390111	2.8965688
9.800632090030527	8.374535	2.8938787
9.81822325115699	8.34293	2.888413
9.835814644229481	8.330375	2.8862388
9.853406269671762	8.322933	2.8849494
9.870998127907646	8.30943	2.8826082
9.888590219360985	8.281118	2.8776932
9.906182544455698	8.252793	2.8727674
9.923775103615734	8.300258	2.8810167
9.941367897265108	8.346898	2.8890998
9.958960925827878	8.397514	2.8978465
9.97655418972816	8.405391	2.8992052
9.994147689390106	8.356483	2.8907583
10.011741425237934	8.3221035	2.8848057
10.029335397695904	8.303005	2.8814936
10.04692960718833	8.329171	2.8860304
10.06452405413958	8.275464	2.8767107
10.082118738974064	8.347808	2.8892574
10.099713662116246	8.314768	2.883534
10.117308823990651	8.281712	2.8777964
10.134904225021844	8.316263	2.883793
10.152499865634445	8.296901	2.880434
10.170095746253125	8.354001	2.890329
10.18769186730261	8.292812	2.8797243
10.205288229207675	8.268453	2.8754916
10.222884832393145	8.163165	2.8571253
10.2404816772839	8.150189	2.8548536
10.258078764304868	8.1256485	2.8505523
10.275676093881035	8.05722	2.8385243
10.293273666437438	8.087827	2.8439105
10.310871482399158	8.095648	2.8452852
10.32846954219134	8.132609	2.851773
10.346067846239173	8.198709	2.8633387
10.363666394967908	8.209663	2.865251
10.38126518880283	8.196511	2.862955
10.398864228169298	8.284786	2.8783305
10.416463513492713	8.251912	2.8726141
10.434063045198531	8.238584	2.8702934
10.451662823712262	8.240825	2.8706837
10.469262849459467	8.29821	2.8806615
10.486863122865758	8.205588	2.8645399
10.504463644356806	8.230904	2.8689551
10.522064414358338	8.098456	2.8457787
10.539665433296118	8.03799	2.8351347
10.557266701595987	7.9062076	2.8117979
10.574868219683818	7.766542	2.7868516
10.592469987985552	7.726656	2.7796862
10.610072006927185	7.6724553	2.7699196
10.627674276934751	7.647909	2.7654853
10.64527679843435	7.491265	2.7370174
10.662879571852143	7.323603	2.7062156
10.680482597614331	7.162093	2.6762087
10.698085876147173	7.0605116	2.6571624
10.715689407876988	6.996088	2.645012
10.733293193230146	6.9313016	2.6327364
10.750897232633072	6.9705424	2.6401784
10.76850152651225	6.862145	2.6195695
10.786106075294207	6.7050047	2.5894024
10.803710879405534	6.5204496	2.553517
10.821315939272877	6.4323916	2.536216
10.83892125532294	6.3464713	2.5192204
10.856526827982472	6.277366	2.5054672
10.874132657678285	6.2826066	2.5065129
10.891738744837243	6.3120947	2.5123882
10.909345089886271	6.3254337	2.5150416
10.926951693252343	6.228698	2.495736
10.944558555362494	6.136423	2.4771805
10.96216567664381	5.999373	2.4493618
10.979773057523436	5.864512	2.4216754
10.997380698428573	5.790095	2.4062617
11.014988599786477	5.757587	2.3994973
11.032596762024461	5.7867436	2.405565
11.050205185569892	5.7008104	2.387637
11.067813870850198	5.6070538	2.3679218
11.085422818292859	5.4882503	2.3427014
11.10303202832541	5.4779463	2.3405013
11.120641501375454	5.4852104	2.3420527
11.138251237870636	5.4451423	2.333483
11.155861238238671	5.374316	2.318257
11.173471502907317	5.23032	2.2869892
11.191082032304402	5.1492314	2.2691917
11.208692826857805	5.077784	2.253394
11.226303886995465	5.0221586	2.2410173
11.243915213145371	5.0280285	2.2423265
11.261526805735578	4.9615774	2.22746
11.279138665194196	4.9352427	2.2215407
11.296750791949393	4.8665195	2.206019
11.314363186429393	4.8081107	2.1927404
11.331975849062479	4.7344565	2.1758807
11.34958878027699	4.6452894	2.1552935
11.36720198050133	4.663775	2.1595776
11.384815450163948	4.6621275	2.1591961
11.402429189693366	4.6289754	2.1515055
11.420043199518153	4.5285244	2.128033
11.437657480066942	63.422134	7.9638014
11.455272031768422	85.11288	9.225664
11.472886855051353	107.4946	10.36796
11.490501950344528	99.10459	9.955129
11.508117318076819	84.418	9.187927
11.52573295867715	45.84173	6.770652
11.543348872574514	4.1595497	2.0394974
11.560965060197946	4.1132417	2.028113
11.57858152197655	4.05906	2.014711
11.59619825833949	4.0143595	2.0035868
11.613815269715985	3.9958465	1.9989613
11.631432556535323	38.49673	6.204573
11.649050119226837	83.01995	9.111528
11.666667958219929	93.44167	9.666523
11.68428607394406	107.73905	10.379743
11.701904466828756	82.56872	9.086733
11.719523137303586	65.396675	8.086821
11.737142085798196	4.6341743	2.1527133
11.754761312742286	3.764784	1.9403051
11.772380818565619	3.7244964	1.9298954
11.790000603698015	3.6488707	1.9102018
11.80762066856935	3.5590575	1.8865465
11.825241013609572	3.5293996	1.8786696
11.842861639248683	3.506276	1.8725052
11.860482545916748	3.478278	1.8650142
11.878103734043883	3.4608061	1.8603241
11.895725204060282	3.4511602	1.8577298
11.91334695639619	3.4499674	1.8574088
11.930968991481919	3.4218345	1.8498201
11.948591309747824	3.4147568	1.847906
11.966213911624347	3.383811	1.8395138
11.98383679754198	3.3496337	1.8302004
12.001459967931268	3.2935567	1.8148159
12.019083423222835	3.2961311	1.815525
12.036707163847352	3.2786415	1.810702
12.05433119023556	3.2467663	1.8018786
12.071955502818259	3.2467365	1.8018702
12.089580102026313	3.2301788	1.7972698
12.107204988290643	3.2285018	1.7968032
12.12483016204224	3.2061527	1.7905732
12.142455623712152	3.1955154	1.7876004
12.16008137373149	3.1461577	1.7737411
12.177707412531431	3.1135478	1.7645248
12.19533374054321	3.067775	1.7515064
12.212960358198126	3.061797	1.7497991
12.230587265927545	3.0486727	1.7460449
12.248214464162889	3.0515983	1.7468824
12.265841953335649	3.047912	1.745827
12.283469733877375	2.9944553	1.7304494
12.301097806219685	2.975191	1.7248743
12.31872617079425	2.9842467	1.7274972
12.336354828032825	3.0057383	1.7337065
12.353983778367205	3.0258214	1.7394888
12.371613022229262	2.999726	1.7319717
12.389242560050928	2.9617872	1.7209843
12.406872392264201	2.9348369	1.7131366
12.424502519301143	2.882235	1.6977147
12.442132941593874	2.8421364	1.6858637
12.459763659574586	2.796824	1.6723708
12.477394673675532	2.8266509	1.6812646
12.49502598432903	2.8534915	1.689228
12.51265759196746	2.8559804	1.6899647
12.530289497023267	2.8369286	1.6843184
12.547921699928967	2.8071854	1.6754657
12.565554201117134	2.7921693	1.6709785
12.583187001020404	2.8140705	1.6775191
12.600820100071486	2.802862	1.674175
12.618453498703152	2.7947943	1.6717638
12.636087197348235	2.7956882	1.6720312
12.65372119643964	2.7420778	1.655922
12.671355496410326	2.7391179	1.6550281
12.68899009769333	2.768765	1.6639606
12.706625000721749	2.858623	1.6907463
12.724260205928752	2.9559608	1.7192907
12.741895713747551	3.007153	1.7341145
12.759531524611454	3.03949	1.7434133
12.777167638953818	3.0534894	1.7474236
12.794804057208072	3.0544608	1.7477015
12.812440779807702	3.1087782	1.7631727
12.830077807186271	3.2808797	1.81132
12.847715139777405	3.3182104	1.8215955
12.865352778014795	3.5268154	1.8779818
12.882990722332197	3.6064591	1.899068
12.90062897316344	3.673318	1.9165902
12.918267530942412	3.7077873	1.9255615
12.935906396103071	3.585409	1.8935176
12.953545569079449	3.7470086	1.9357191
12.971185050305628	3.6093159	1.89982
12.988824840215775	3.6428533	1.908626
13.006464939244115	3.6345456	1.9064484
13.024105347824943	3.4752095	1.8641914
13.041746066392617	3.5392036	1.8812771
13.05938709538157	3.3017304	1.8170664
13.077028435226296	3.3408036	1.8277866
13.094670086361363	3.2775831	1.8104097
13.112312049221401	3.2483206	1.8023098
13.129954324241112	3.153497	1.7758088
13.147596911855258	2.9556308	1.7191948
13.165239812498685	2.8846545	1.6984271
13.182883026606293	2.8360915	1.6840699
13.200526554613058	2.7773192	1.666529
13.218170396954017	2.796619	1.6723095
13.235814554064284	2.8088768	1.6759704
13.253459026379034	2.788418	1.6698557
13.271103814333523	2.7136023	1.6473016
13.288748918363058	2.6821012	1.6377122
13.306394338903031	2.6792853	1.6368523
13.32404007638889	2.6728528	1.6348861
13.341686131256164	2.6672177	1.6331619
13.359332503940449	2.6519043	1.6284668
13.376979194877402	2.6619942	1.6315619
13.394626204502751	2.722594	1.6500285
13.412273533252307	2.7418213	1.6558446
13.429921181561937	2.754981	1.6598135
13.447569149867581	2.7556417	1.6600126
13.465217438605247	2.7846365	1.668723
13.482866048211022	2.7977598	1.6726506
13.500514979121052	2.8103948	1.6764232
13.518164231771568	2.7489464	1.6579947
13.535813806598844	2.720907	1.6495172
13.553463704039254	2.6841192	1.6383282
13.571113924529229	2.684907	1.6385685
13.588764468505275	2.6883097	1.6396066
13.606415336403956	2.711904	1.646786
13.624066528661917	2.7485614	1.6578786
13.641718045715882	2.8273244	1.6814649
13.659369888002635	2.9163866	1.7077432
13.67702205595903	3.01624	1.7367325
13.694674550021993	3.0639894	1.7504255
13.712327370628532	3.0944974	1.7591183
13.729980518215713	3.11539	1.7650467
13.747633993220681	3.1312494	1.7695336
13.765287796080647	3.153748	1.7758795
13.7829419272329	3.200314	1.7889421
13.800596387114801	3.2468393	1.8018988
13.818251176163775	3.3217928	1.8225787
13.835906294817324	3.4118707	1.8471249
13.853561743513023	3.4898672	1.8681186
13.871217522688525	3.5231543	1.8770068
13.888873632781538	3.5078213	1.8729179
13.906530074229858	3.518505	1.8757678
13.92418684747135	3.5232234	1.8770251
13.941843952943948	3.534061	1.8799099
13.959501391085665	3.530832	1.8790509
13.977159162334578	3.4815247	1.8658844
13.994817267128846	3.4511485	1.8577267
14.012475705906693	3.3527184	1.831043
14.030134479106424	3.2633474	1.8064737
14.047793587166414	3.1840239	1.7843833
14.065453030525108	3.112411	1.7642027
14.083112809621026	3.0689383	1.7518386
14.100772924892766	2.9904523	1.7292924
14.118433376778997	2.9532652	1.7185067
14.136094165718458	2.8605306	1.6913103
14.153755292149969	2.8397667	1.6851608
14.171416756512416	2.7688336	1.6639813
14.189078559244768	2.6892166	1.6398832
14.20674070078606	2.5945497	1.6107606
14.224403181575408	2.5508976	1.597153
14.242066002051999	2.5563068	1.5988455
14.259729162655093	2.5156932	1.5860937
14.277392663824022	2.4738655	1.5728526
14.295056505998208	2.4295678	1.5587071
14.312720689617128	2.3993876	1.5489957
14.330385215120348	2.4336255	1.5600082
14.348050082947497	2.4347303	1.5603622
14.3657152935383	2.4467144	1.5641977
14.383380847332528	2.4066534	1.5513393
14.401046744770051	2.3738928	1.5407442
14.418712986290798	2.3531046	1.5339832
14.436379572334793	2.3486087	1.5325171
14.454046503342123	2.380681	1.5429456
14.471713779752946	2.3903894	1.5460885
14.489381402007504	2.3803394	1.5428349
14.507049370546113	2.3836873	1.5439194
14.524717685809168	2.4073048	1.5515492
14.542386348237134	2.424644	1.5571269
14.560055358270553	2.4345655	1.5603094
14.577724716350051	2.4634445	1.5695363
14.595394422916325	2.4730265	1.5725859
14.61306447841015	2.497357	1.5803028
14.63073488327237	2.4950597	1.5795758
14.648405637943917	2.515484	1.5860277
14.6660767428658	2.4858391	1.5766544
14.683748198479094	2.4750028	1.5732142
14.701420005224954	2.4684994	1.5711459
14.719092163544628	2.5867305	1.6083316
14.73676467387942	2.6792243	1.6368335
14.754437536670727	2.7290776	1.651992
14.772110752360014	2.683948	1.638276
14.78978432138882	2.6755552	1.6357125
14.807458244198777	2.7101138	1.6462423
14.82513252123159	2.7458344	1.657056
14.842807152929028	2.7527428	1.6591392
14.860482139732962	2.7375362	1.6545502
14.87815748208531	2.7322147	1.6529412
14.8958331804281	2.7464607	1.6572449
14.91350923520342	2.695476	1.6417905
14.931185646853438	2.6838622	1.6382498
14.948862415820408	2.6910853	1.6404527
14.966539542546656	2.7100515	1.6462234
14.98421702747459	2.6914864	1.640575
15.001894871046696	2.70104	1.6434841
15.019573073705542	2.7028913	1.6440473
15.037251635893766	2.6986184	1.6427472
15.054930558054092	2.709508	1.6460583
15.072609840629323	2.743583	1.6563765
15.090289484062351	2.8494055	1.6880182
15.107969488796124	3.12416	1.7675294
15.125649855273691	3.5767925	1.891241
15.14333058393817	4.06157	2.0153337
15.161011675232768	4.9951706	2.2349877
15.17869312960076	6.339639	2.517864
15.196374947485506	8.186952	2.861285
15.214057129330447	11.24839	3.353862
15.231739675579114	15.978443	3.9973044
15.249422586675102	21.096094	4.5930486
15.267105863062092	24.25683	4.9251223
15.284789505183847	24.574541	4.9572716
15.302473513484218	22.530525	4.746633
15.320157888407127	19.02609	4.361891
15.337842630396578	14.834211	3.8515205
15.355527739896656	11.549185	3.3984091
15.37321321735153	8.961041	2.9934998
15.39089906320545	6.5541277	2.5601032
15.408585277902748	4.9364767	2.2218184
15.42627186188783	3.8086755	1.9515828
15.443958815605198	3.218013	1.7938821
15.461646139499424	2.8596	1.6910352
15.479333834015168	2.721386	1.6496624
15.497021899597165	2.6784391	1.6365938
15.514710336690234	2.6814609	1.6375166
15.53239914573928	2.6302278	1.6217977
15.550088327189297	2.572199	1.6038077
15.567777881485336	2.5281005	1.5900002
15.58546780907256	2.5449588	1.5952927
15.6031581103962	2.5254126	1.5891547
15.620848785901568	2.5213733	1.5878832
15.638539836034063	2.4862468	1.5767837
15.656231261239173	2.4433436	1.5631199
15.673923061962451	2.414907	1.553997
15.691615238649552	2.4268446	1.5578333
15.709307791746202	2.441706	1.5625958
15.727000721698221	2.3892133	1.5457081
15.744694028951498	2.3642342	1.5376066
15.76238771395202	2.3766568	1.5416409
15.780081777145844	2.434816	1.5603896
15.797776218979125	2.4405558	1.5622278
15.815471039898094	2.4213002	1.5560528
15.833166240349064	2.400808	1.5494541
15.850861820778437	2.4106927	1.5526406
15.868557781632699	2.4027917	1.5500941
15.886254123358412	2.3997931	1.5491266
15.903950846402232	2.3854384	1.5444865
15.921647951210897	2.4147604	1.55395
15.939345438231225	2.4182618	1.5550761
15.957043307910133	2.4368591	1.5610442
15.974741560694602	2.4378712	1.5613683
15.992440197031714	2.4685001	1.5711461
16.01013921736862	2.480363	1.5749168
16.02783862215259	2.4342768	1.5602169
16.045538411830933	2.3663833	1.5383053
16.06323858685107	2.349235	1.5327214
16.080939147660512	2.3675976	1.5387
16.09864009470684	2.3930717	1.5469556
16.11634142843774	2.3812058	1.5431156
16.134043149300954	2.3481705	1.5323741
16.15174525774433	2.362838	1.5371525
16.169447754215817	2.4168856	1.5546336
16.18715063916342	2.4652698	1.5701177
16.204853913035244	2.4604251	1.5685742
16.222557576279478	2.4745817	1.5730803
16.240261629344403	22.464302	4.739652
16.257966072678386	42.96554	6.5548105
16.275670906729868	38.064777	6.169666
16.293376131947387	2.5169196	1.5864803
16.31108174877957	2.5592875	1.5997773
16.328787757675133	2.5693974	1.602934
16.34649415908287	2.5817306	1.6067765
16.364200953451657	2.597765	1.6117584
16.38190814123048	2.6291878	1.621477
16.39961572286839	2.661209	1.6313213
16.41732369881455	2.683618	1.6381752
16.43503206951817	2.7089934	1.645902
16.45274083542859	2.7443695	1.6566138
16.47044999699522	2.78193	1.6679119
16.488159554667558	2.8268723	1.6813306
16.505869508895184	2.8654082	1.6927516
16.523579860127786	2.8810077	1.6973531
16.541290608815117	2.938543	1.7142179
16.559001755407035	2.9828742	1.7270999
16.57671330035348	3.0669868	1.7512815
16.59442524410448	3.153739	1.775877
16.61213758711015	3.2014906	1.789271
16.629850329820705	3.2553377	1.8042555
16.647563472686436	3.289991	1.8138332
16.665277016157724	3.3836143	1.8394604
16.682990960685053	3.4355185	1.8535151
16.70070530671898	3.5044851	1.872027
16.718420054710155	3.5891314	1.8945003
16.736135205109335	3.64361	1.9088242
16.753850758367335	3.6810591	1.9186087
16.771566714935087	3.7323165	1.9319204
16.789283075263597	3.7958183	1.948286
16.80699983980398	3.8209136	1.9547157
16.82471700900741	3.8515315	1.9625319
16.84243458332518	3.9414964	1.9853202
16.860152563208665	4.0335264	2.0083642
16.87787094910932	4.109049	2.0270789
16.89558974147871	4.196658	2.0485747
16.913308940768466	4.286919	2.0704877
16.931028547430333	4.3723316	2.091012
16.94874856191613	4.3467813	2.0848935
16.966468984677785	4.374185	2.0914552
16.98418981616729	4.380907	2.0930617
17.00191105683676	4.4328704	2.1054382
17.019632707138374	4.477847	2.1160924
17.03735476752442	4.49843	2.1209502
17.05507723844728	4.540353	2.1308103
17.072800120359403	4.587659	2.1418822
17.090523413713353	4.6525936	2.1569872
17.108247118961785	4.6714897	2.161363
17.125971236557437	4.665812	2.160049
17.143695766953133	4.701594	2.168316
17.161420710601806	4.6989107	2.1676972
17.179146067956477	4.7223554	2.173098
17.19687183947025	4.7084947	2.1699066
17.21459802559634	4.7231913	2.1732905
17.232324626788028	4.7212	2.1728323
17.25005164349871	4.741545	2.1775088
17.267779076181863	4.6904554	2.165746
17.285506925291074	4.642422	2.154628
17.30323519127999	4.5505757	2.1332078
17.320963874602384	4.5375633	2.1301558
17.33869297571211	4.5212774	2.1263297
17.356422495063114	4.525745	2.12738
17.37415243310944	4.5473385	2.132449
17.391882790305218	4.544212	2.1317158
17.40961356710468	4.5151887	2.1248972
17.42734476396215	4.5446463	2.1318176
17.445076381332044	4.5038967	2.1222386
17.462808419668868	4.5601263	2.135445
17.48054087942723	4.7033234	2.1687148
17.498273761061835	5.0389676	2.2447646
17.51600706502747	5.5407934	2.353889
17.533740791779024	6.1998706	2.489954
17.551474941771485	7.6077466	2.7582145
17.56920951545993	8.698144	2.9492617
17.586944513299528	10.857137	3.295017
17.60467993574556	12.484868	3.5333934
17.622415783253373	14.311541	3.7830596
17.64015205627843	15.871186	3.9838657
17.657888755276293	17.089476	4.133942
17.675625880702604	17.65515	4.201803
17.69336343301311	17.436413	4.175693
17.71110141266366	16.680643	4.084194
17.728839820110178	15.623319	3.9526343
17.746578655808705	14.693209	3.833172
17.764317920215372	13.073805	3.6157718
17.7820576137864	11.510562	3.392722
17.79979773697811	9.434514	3.0715654
17.81753829024692	7.573518	2.7520025
17.835279274049356	5.887544	2.4264262
17.85302068884201	4.8187294	2.1951604
17.870762535081607	4.215068	2.0530632
17.888504813224934	4.027188	2.0067854
17.90624752372891	3.8364928	1.9586967
17.923990667050536	3.7070572	1.925372
17.941734243646895	3.5992455	1.8971678
17.959478253975185	3.5530427	1.8849516
17.9772226984927	3.497079	1.8700478
17.994967577656833	3.4641852	1.8612322
18.01271289192506	3.4372602	1.853985
18.030458641754965	3.3968263	1.8430481
18.04820482760425	3.347389	1.8295871
18.06595144993067	3.3139012	1.8204124
18.083698509192125	3.26709	1.8075093
18.101446005846576	3.2425249	1.8007013
18.119193940352105	3.2469869	1.8019397
18.136942313166887	3.2406116	1.8001698
18.1546911247492	3.1937008	1.7870928
18.1724403755574	3.1420555	1.7725844
18.19019006604997	3.1462479	1.7737665
18.207940196685467	3.1771367	1.7824525
18.225690767922575	3.137255	1.7712297
18.243441780220046	3.0600007	1.7492857
18.261193234036764	3.0581245	1.7487494
18.278945129831676	3.0143564	1.7361902
18.29669746806386	3.0027242	1.7328371
18.314450249192483	3.017111	1.7369833
18.3322034736768	3.0415847	1.744014
18.349957141976184	3.0614877	1.7497108
18.3677112545501	3.0611687	1.7496196
18.385465811858108	3.0412917	1.74393
18.403220814359884	3.0351427	1.742166
18.420976262515172	3.0725586	1.7528715
18.43873215678387	3.148572	1.7744216
18.456488497625923	3.1910458	1.7863499
18.474245285501407	3.2560344	1.8044485
18.492002520870486	3.3263745	1.8238351
18.50976020419343	3.423212	1.8501924
18.527518335930615	3.7240164	1.9297711
18.545276916542516	4.29564	2.0725925
18.563035946489688	4.4224353	2.1029587
18.580795426232832	4.844309	2.200979
18.598555356232698	4.7441325	2.178103
18.616315736950185	5.1283455	2.264585
18.63407656884626	4.810814	2.1933568
18.65183785238201	5.051093	2.2474637
18.669599588018617	4.7533784	2.1802244
18.68736177621737	4.7137847	2.1711252
18.705124417439652	4.64268	2.154688
18.72288751214696	4.47114	2.114507
18.740651060800886	4.608804	2.1468127
18.758415063863115	4.3050313	2.074857
18.77617952179546	4.5145497	2.124747
18.793944435059814	4.2744203	2.0674672
18.811709804118184	4.32174	2.0788796
18.829475629432675	4.28749	2.0706255
18.8472419114655	4.069891	2.0173972
18.86500865067897	4.0980177	2.0243561
18.88277584753551	3.7584128	1.9386626
18.90054350249763	3.8025138	1.9500035
18.918311616027957	3.4861314	1.8671185
18.936080188589226	3.3906348	1.8413676
18.953849220644265	3.1099496	1.7635049
18.971618712656007	2.9449842	1.7160956
18.9893886650875	2.8750525	1.695598
19.007159078401887	8.024945	2.8328335
19.024929953062408	32.860428	5.7324014
19.042701289532435	32.77967	5.7253532
19.060473088275405	25.37613	5.0374727
19.07824534975489	2.6737928	1.6351737
19.096018074434568	2.697102	1.6422856
19.113791262778197	2.6452165	1.6264122
19.13156491524966	2.6433132	1.625827
19.149339032312945	2.5822334	1.6069329
19.167113614432136	2.5460205	1.5956254
19.184888662071433	2.5022197	1.5818406
19.202664175695123	2.5027635	1.5820125
19.220440155767623	2.5543694	1.5982395
19.238216602753447	2.5670867	1.602213
19.2559935171172	2.571587	1.6036168
19.27377089932361	2.5735917	1.6042417
19.291548749837514	2.5631633	1.6009883
19.309327069123835	2.5343695	1.5919703
19.32710585764763	2.5322628	1.5913085
19.344885115874032	2.5317297	1.591141
19.362664844268313	2.5143487	1.5856698
19.380445043295822	2.4859374	1.5766855
19.39822571342203	2.5080998	1.5836982
19.41600685511252	2.5357666	1.592409
19.43378846883297	2.5761077	1.6050258
19.451570555049173	2.5610054	1.6003141
19.469353114227037	2.5239122	1.5886825
19.48713614683254	2.5072472	1.583429
19.50491965333182	2.4944472	1.579382
19.52270363419109	2.5034878	1.5822414
19.540488089876686	2.5393481	1.5935333
19.55827302085503	2.5300157	1.5906023
19.576058427592674	2.475297	1.5733076
19.593844310556282	2.4558485	1.5671147
19.611630670212598	2.4604492	1.5685819
19.629417507028506	2.4763315	1.5736364
19.64720482147098	2.4746258	1.5730944
19.6649926140071	2.4880648	1.57736
19.682780885104084	2.519365	1.5872508
19.70056963522921	2.603957	1.6136781
19.718358864849908	2.5830245	1.607179
19.7361485744337	2.5330713	1.5915625
19.753938764448215	2.4658866	1.5703142
19.771729435361202	2.4684997	1.571146
19.789520587640506	2.4666247	1.5705491
19.807312221754092	2.4739294	1.572873
19.825104338170043	2.4854465	1.5765299
19.842896937356517	2.4835558	1.5759301
19.860690019781824	2.5099044	1.5842677
19.87848358591436	2.5197673	1.5873774
19.896277636222635	2.514278	1.5856475
19.914072171175278	2.4841402	1.5761155
19.931867191241015	2.4601703	1.568493
19.94966269688869	2.4508455	1.5655177
19.967458688587264	2.467129	1.5707097
19.985255166805807	2.4719553	1.5722454
20.00305213201348	2.4937541	1.5791625
20.020849584679578	2.489907	1.5779439
20.038647525273507	2.490886	1.5782541
20.05644595426477	2.5053136	1.5828183
20.07424487212299	2.5297956	1.5905331
20.092044279317903	2.5148005	1.5858122
20.109844176319353	2.4922523	1.578687
20.127644563597304	2.479801	1.5747384
20.145445441621817	2.4902694	1.5780587
20.16324681086307	2.4465864	1.5641568
20.181048671791373	2.4149544	1.5540124
20.198851024877122	2.3799117	1.5426962
20.216653870590836	2.3810806	1.5430751
20.234457209403146	2.397808	1.5484858
20.252261041784802	2.3998816	1.5491551
20.270065368206662	2.4272485	1.5579629
20.287870189139685	2.4009764	1.5495085
20.305675505054968	2.4061282	1.55117
20.323481316423702	2.3439827	1.531007
20.341287623717207	2.314586	1.5213764
20.359094427406884	2.2991824	1.5163056
20.376901727964288	2.3097243	1.5197778
20.39470952586107	2.3501575	1.5330223
20.41251782156899	2.3691716	1.5392114
20.430326615559935	2.3766506	1.541639
20.448135908305886	2.3820221	1.5433801
20.465945700278965	2.3547533	1.5345205
20.483755991951384	2.3190284	1.5228356
20.50156678379548	2.329224	1.5261796
20.519378076283708	2.3569689	1.5352423
20.537189869888635	2.3495562	1.5328262
20.55500216508294	2.3216422	1.5236936
20.572814962339415	2.2804778	1.510125
20.59062826213098	2.2764578	1.5087935
20.60844206493066	2.3166878	1.522067
20.626256371211593	2.3535748	1.5341365
20.644071181447032	2.3739529	1.5407637
20.66188649611036	2.3294973	1.5262691
20.67970231567506	2.3033986	1.5176952
20.697518640614742	2.3073533	1.5189974
20.715335471403122	2.3546376	1.5344828
20.73315280851404	2.3490126	1.5326489
20.750970652421447	2.3271	1.5254835
20.768789003599412	2.2988927	1.51621
20.786607862522136	2.2657945	1.5052556
20.8044272296639	2.2673695	1.5057787
20.82224710549913	2.2987432	1.5161607
20.84006749050237	2.310588	1.5200619
20.857888385148268	3.8363178	1.958652
20.8757097899116	45.925613	6.776844
20.893531705267254	64.82531	8.051416
20.911354131690224	83.826416	9.155677
20.92917706965566	69.079865	8.31143
20.94700051963877	50.155323	7.082042
20.96482448211493	29.430803	5.4250164
20.982648957559622	4.168756	2.041753
21.00047394644843	2.2534645	1.5011544
21.01829944925707	2.2413116	1.4971011
21.036125466461375	2.2644088	1.5047953
21.053951998537297	2.2670941	1.5056872
21.071779045960906	2.2733595	1.5077664
21.089606609208378	2.2635741	1.5045179
21.10743468875603	2.2978885	1.5158788
21.12526328508028	2.2918377	1.5138817
21.143092398657675	2.265727	1.5052332
21.16092202996488	2.229916	1.4932903
21.17875217947867	2.1997712	1.4831625
21.19658284767596	2.1790457	1.4761591
21.21441403503377	2.144118	1.4642807
21.232245742029225	2.141416	1.4633578
21.2500779691396	2.132124	1.4601794
21.26791071684227	2.1432757	1.4639931
21.28574398561475	2.205536	1.4851047
21.30357777593465	2.2082677	1.4860241
21.321412088279704	2.1968954	1.4821928
21.339246923127792	2.1713212	1.4735403
21.357082280956888	2.1676638	1.4722989
21.3749181622451	2.1571596	1.4687272
21.392754567470647	2.1500342	1.4662995
21.41059149711187	2.1406565	1.4630983
21.42842895164726	2.0669644	1.4376941
21.446266931555378	2.0462253	1.4304633
21.464105437314945	2.0899653	1.4456712
21.481944469404798	2.1537879	1.4675789
21.49978402830388	2.1212866	1.4564637
21.51762411449127	2.0934722	1.4468837
21.53546472844617	2.0878797	1.4449497
21.553305870647876	2.0896285	1.4455547
21.571147541575865	2.0769663	1.4411684
21.58898974170967	2.0581279	1.4346176
21.60683247152899	2.0550923	1.4335593
21.62467573151363	2.049924	1.4317555
21.642519522143523	2.0578287	1.4345133
21.660363843898722	2.0588167	1.4348577
21.6782086972594	2.0505083	1.4319596
21.696054082705864	2.012156	1.4185048
21.713900000718535	2.014806	1.4194386
21.73174645177795	2.0161397	1.4199084
21.749593436364794	2.0538015	1.433109
21.767440954959845	2.0677044	1.4379514
21.785289008044032	2.0508728	1.4320868
21.803137596098388	2.029865	1.4247333
21.820986719604086	2.0237849	1.4225979
21.838836379042412	2.0104115	1.4178898
21.85668657489478	1.9978057	1.4134376
21.87453730764273	2.0172906	1.4203136
21.892388577767914	2.0041757	1.4156891
21.91024038575213	2.0001302	1.4142596
21.928092732077285	1.9805555	1.4073222
21.945945617225426	1.9891261	1.4103638
21.963799041678694	1.977421	1.406208
21.981653005919398	31.289017	5.5936584
21.999507510429943	78.113396	8.838179
22.01736255569286	73.08826	8.549167
22.035218142190818	4.172288	2.0426178
22.05307427040661	1.9770569	1.4060786
22.07093094082315	1.9841727	1.4086066
22.088788153923474	1.9893112	1.4104295
22.106645910190746	1.9891471	1.4103713
22.12450421010827	1.9814636	1.4076446
22.142363054159464	1.9893998	1.4104608
22.16022244282787	1.9793214	1.4068836
22.178082376597164	1.9615908	1.400568
22.195942855951145	1.9779893	1.4064101
22.213803881373742	2.0272121	1.423802
22.231665453349002	2.0377011	1.4274807
22.24952757236111	1.9770745	1.4060848
22.26739023889438	1.9488415	1.3960091
22.28525345343323	1.9830883	1.4082217
22.30311721646225	2.017912	1.4205322
22.320981528466113	2.0333982	1.4259727
22.33884638992964	2.0140955	1.4191884
22.356711801337788	1.9996377	1.4140855
22.37457776317561	1.9893293	1.4104359
22.392444275928337	1.9960287	1.4128088
22.410311340081282	1.9628634	1.4010223
22.428178956119904	1.9043155	1.3799694
22.446047124529805	1.8684192	1.3669013
22.46391584579669	1.9054818	1.380392
22.481785120406414	1.9487525	1.3959773
22.49965494884496	1.9715579	1.4041218
22.51752533159841	1.9988983	1.413824
22.53539626915302	1.9499656	1.3964117
22.553267761995137	1.9445264	1.3944628
22.571139810611264	1.9602605	1.4000931
22.589012415488025	2.0156806	1.4197466
22.60688557711216	2.0035706	1.4154754
22.624759295970566	1.9713824	1.4040593
22.642633572550263	1.952402	1.3972838
22.660508407338362	2.0063245	1.4164479
22.67838380082217	2.0134256	1.4189522
22.696259753489077	1.9752806	1.4054468
22.714136265826614	1.9239174	1.3870535
22.73201333832246	1.8864952	1.3734975
22.74989097146439	1.8715953	1.3680626
22.76776916574035	1.8901286	1.3748195
22.785647921638393	1.9435085	1.3940977
22.803527239646712	1.9665464	1.402336
22.82140712025363	1.963167	1.4011306
22.839287563947593	1.925724	1.3877046
22.85716857121719	1.9030069	1.3794951
22.875050142551135	1.8951988	1.3766623
22.892932278438277	1.8907285	1.3750377
22.910814979367604	1.8892026	1.3744826
22.928698245828222	1.8908153	1.3750691
22.946582078309387	1.9245167	1.3872695
22.96446647730047	1.9362088	1.3914772
22.98235144329098	1.911379	1.3825263
23.000236976770562	1.9142612	1.3835683
23.018123078229	1.8954324	1.376747
23.03600974815619	1.885845	1.3732607
23.053896987042194	1.9269598	1.3881497
23.071784795377173	1.956608	1.3987881
23.08967317365145	1.944278	1.3943737
23.10756212235546	1.9128549	1.38306
23.125451641979787	1.9114537	1.3825533
23.143341733015134	1.923	1.3867228
23.161232395952357	1.9572002	1.3989997
23.179123631282426	1.9697922	1.4034929
23.197015439496468	1.9461372	1.3950402
23.214907821085717	1.9490328	1.3960776
23.23280077654157	1.9420468	1.3935734
23.250694306355538	1.967503	1.402677
23.268588411019277	1.9553683	1.3983449
23.28648309102458	1.936918	1.391732
23.304378346863356	1.9216762	1.3862454
23.322274179027676	1.9495084	1.396248
23.340170588009723	1.9489377	1.3960435
23.358067574301852	1.9574431	1.3990865
23.37596513839651	1.9700521	1.4035854
23.39386328078629	1.9949865	1.41244
23.411762001963947	1.9709646	1.4039104
23.429661302422353	1.9668398	1.4024407
23.4475611826545	1.9532164	1.3975751
23.46546164315356	1.9865518	1.4094509
23.48336268441279	1.977536	1.4062489
23.501264306925638	1.9541048	1.397893
23.51916651118564	1.9242107	1.3871592
23.537069297686497	1.9448708	1.3945862
23.554972666922037	1.9905	1.4108508
23.57287661938623	1.9733294	1.4047525
23.59078115557318	1.9568534	1.3988757
23.608686275977128	1.9441868	1.394341
23.62659198109246	1.930437	1.3894017
23.6444982714137	1.8976481	1.3775514
23.66240514743549	1.8499568	1.3601311
23.68031260965263	1.8196859	1.3489573
23.698220658560068	1.8685484	1.3669486
23.716129294652845	1.9250106	1.3874475
23.7340385184262	1.9418579	1.3935056
23.75194833037546	1.9364102	1.3915496
23.769858730996123	1.9364206	1.3915533
23.78776972078382	1.9371654	1.3918209
23.80568130023431	1.9175086	1.3847413
23.823593469843495	1.8882442	1.374134
23.841506230107424	1.8861678	1.3733783
23.859419581522275	1.8519894	1.3608781
23.87733352458438	1.869173	1.367177
23.89524805979019	1.8790559	1.3707865
23.913163187636318	1.8712567	1.3679389
23.931078908619508	1.8798045	1.3710597
23.948995223236633	1.9421895	1.3936245
23.966912131984735	1.9964346	1.4129524
23.98482963536096	2.0349135	1.426504
24.002747733862616	2.0238795	1.4226311
24.020666427987155	2.0355213	1.4267169
24.038585718232156	2.0468254	1.430673
24.056505605095353	2.0310838	1.425161
24.074426089074617	2.0244153	1.4228195
24.092347170667946	2.020252	1.4213557
24.110268850373515	1.991969	1.4113714
24.128191128689586	2.0583649	1.4347003
24.146114006114626	2.0755417	1.4406741
24.164037483147187	2.0939376	1.4470445
24.181961560286005	2.071979	1.439437
24.199886238029926	2.0627823	1.4362389
24.21781151687797	2.0881243	1.4450344
24.235737397329274	2.117528	1.4551728
24.253663879883135	2.1358654	1.46146
24.271590965038975	2.112648	1.4534951
24.289518653296376	2.111579	1.4531273
24.30744694515505	2.0862556	1.4443876
24.32537584111486	2.0778913	1.4414893
24.34330534167581	2.0819426	1.4428939
24.361235447338046	2.0677805	1.4379779
24.379166158601876	2.0482538	1.4311721
24.39709747596772	2.037075	1.4272614
24.41502939993615	2.0275307	1.4239138
24.432961931007917	1.9750996	1.4053824
24.450895069683856	1.9286926	1.3887738
24.468828816465	1.9408306	1.393137
24.4867631718525	1.976947	1.4060395
24.504698136347656	2.021832	1.4219114
24.52263371045192	2.0495412	1.4316219
24.540569894666874	2.0267992	1.423657
24.558506689494266	1.9959247	1.4127719
24.57644409543597	2.0069616	1.4166727
24.594382112994012	2.013172	1.4188629
24.61232074267057	2.0057719	1.4162527
24.630259984967953	2.001251	1.4146558
24.64819984038863	2.0113833	1.4182324
24.66614030943522	1.9907677	1.4109457
24.684081392610462	1.9590816	1.399672
24.702023090417274	1.926764	1.3880793
24.7199654033587	1.9507854	1.3967052
24.737908331937927	1.9960065	1.4128009
24.755851876658305	2.0132725	1.4188983
24.773796038023324	2.0217767	1.4218919
24.79174081653661	2.021917	1.4219413
24.809686212701962	2.042814	1.4292705
24.827632227023294	2.08207	1.442938
24.8455788600047	2.0962453	1.4478416
24.8635261121504	2.1354163	1.4613063
24.88147398396475	2.1653056	1.4714978
24.899422475952303	2.187885	1.47915
24.917371588617698	2.1345627	1.4610143
24.935321322465768	2.1674912	1.4722402
24.953271678001478	2.2562673	1.5020876
24.97122265572994	2.4287276	1.5584376
24.989174256156414	2.7432723	1.6562827
25.00712647978632	3.256262	1.8045115
25.02507932712521	3.7943373	1.9479059
25.043032798678798	4.420408	2.1024766
25.060986894952933	5.103441	2.2590797
25.078941616453637	5.9099603	2.431041
25.096896963687055	6.8119745	2.609976
25.114852937159508	7.892338	2.8093305
25.132809537377444	8.350539	2.88973
25.150766764847468	8.360564	2.891464
25.168724620076347	7.8467155	2.801199
25.186683103570985	6.732736	2.5947516
25.204642215838426	5.6006384	2.366567
25.222601957385894	4.2589645	2.063726
25.24056232872074	3.2867208	1.8129315
25.25852333035048	2.662973	1.6318618
25.276484962782778	2.2529025	1.5009671
25.294447226525435	2.0831556	1.4433141
25.312410122086423	2.0419235	1.4289589
25.330373649973843	1.982847	1.408136
25.348337810695988	1.9260198	1.3878112
25.366302604761245	1.9094301	1.3818213
25.384268032678207	1.9296223	1.3891084
25.40223409495558	1.9305639	1.3894473
25.420200792102257	1.9333255	1.3904408
25.438168124627246	1.970199	1.4036378
25.45613609303974	1.9847479	1.4088109
25.474104697849057	1.9497306	1.3963275
25.492073939564698	1.9083352	1.381425
25.510043818696285	1.8800545	1.3711507
25.528014335753614	1.8785205	1.3705913
25.54598549124664	1.8399768	1.3564575
25.56395728568544	1.8232998	1.3502961
25.58192971958028	1.8327731	1.3537995
25.59990279344156	1.845094	1.3583424
25.617876507779833	1.8440304	1.3579508
25.635850863105826	1.8490585	1.3598009
25.653825859930386	1.844092	1.3579735
25.671801498764548	1.8286014	1.3522578
25.68977778011949	1.8342816	1.3543565
25.707754704506524	1.826945	1.3516452
25.725732272437153	1.8520805	1.3609116
25.743710484423012	1.8515984	1.3607345
25.761689340975888	1.885324	1.373071
25.77966884260774	1.874494	1.3691216
25.797648989830662	1.8548664	1.3619348
25.815629783156922	1.8361925	1.3550618
25.83361122309895	1.8504279	1.3603044
25.85159331016929	1.8650287	1.3656605
25.869576044880695	1.8654424	1.365812
25.887559427746034	1.8692447	1.3672032
25.90554345927836	1.8787779	1.3706852
25.92352813999086	1.85499	1.3619802
25.94151347039689	1.8328773	1.353838
25.959499451009965	1.832662	1.3537585
25.97748608234374	1.8510387	1.3605288
25.995473364912062	1.8785642	1.3706073
26.013461299228904	1.8413888	1.3569778
26.03144988580839	1.8049748	1.3434935
26.04943912516483	1.8317484	1.353421
26.067429017812675	1.8343053	1.3543652
26.085419564266537	1.7950687	1.3398018
26.103410765041186	1.7942729	1.3395047
26.12140262065155	1.7947369	1.3396779
26.139395131612723	1.7944105	1.3395561
26.157388298439948	1.8088591	1.3449383
26.17538212164861	1.8187739	1.3486192
26.193376601754295	1.83698	1.3553524
26.211371739272714	1.8657132	1.3659111
26.229367534719746	1.8652335	1.3657355
26.247363988611433	1.823073	1.3502122
26.26536110146397	1.8144505	1.3470154
26.283358873793727	1.8425025	1.3573881
26.301357306117204	1.8697336	1.367382
26.319356398951104	1.8430332	1.3575836
26.33735615281224	1.8253256	1.3510461
26.35535656821762	1.8340942	1.3542874
26.373357645684404	1.8214579	1.349614
26.39135938572991	1.7660321	1.3289214
26.409361788871614	1.7426825	1.320107
26.427364855627165	1.7934958	1.3392146
26.445368586514352	1.8907708	1.375053
26.46337298205115	1.9214287	1.3861561
26.48137804275568	1.882404	1.3720073
26.499383769146217	1.839334	1.3562205
26.517390161741215	1.8529382	1.3612267
26.53539722105928	1.8644646	1.365454
26.553404947619182	1.8403238	1.3565854
26.571413341939856	1.7985102	1.3410854
26.589422404540397	1.7718928	1.3311247
26.60743213594006	1.8033029	1.3428712
26.62544253665827	1.8191819	1.3487705
26.64345360721459	1.8201033	1.349112
26.66146534812879	1.8548894	1.3619432
26.679477759920758	1.8340129	1.3542573
26.69749084311057	1.7949252	1.3397481
26.71550459821847	1.7548165	1.3246949
26.733519025764842	1.8206998	1.349333
26.751534126270258	1.8825189	1.3720492
26.769549900255434	1.8811684	1.3715569
26.787566348241267	1.8202639	1.3491715
26.80558347074881	1.7927672	1.3389425
26.823601268299267	1.836917	1.3553292
26.841619741414036	1.855716	1.3622466
26.85963889061465	1.8472965	1.3591528
26.877658716422832	1.776903	1.3330053
26.89567921936045	1.7696565	1.3302844
26.913700399949544	1.7401597	1.3191512
26.93172225871233	1.7465916	1.3215867
26.949744796171174	1.7418071	1.3197753
26.967768012848605	1.7532386	1.3240992
26.98579190926733	1.8084238	1.3447765
27.003816485950225	1.8798959	1.3710929
27.021841743420318	1.8832625	1.3723202
27.039867682200814	1.8450719	1.3583342
27.057894302815072	1.8591081	1.3634912
27.07592160578664	1.8805449	1.3713297
27.0939495916392	1.8445141	1.3581289
27.111978260896635	1.7973493	1.3406526
27.13000761408296	1.7720703	1.3311913
27.148037651722397	1.7431601	1.320288
27.166068374339304	1.7373973	1.3181037
27.184099782458215	1.716922	1.3103137
27.20213187660384	1.7406553	1.3193389
27.22016465730105	1.7562587	1.3252391
27.23819812507487	1.7863566	1.3365465
27.256232280450533	1.8045775	1.3433456
27.274267123953383	1.8359648	1.3549777
27.292302656108987	1.8627559	1.3648281
27.31033887744306	1.8648623	1.3655996
27.32837578848146	1.8262309	1.3513811
27.34641338975026	1.7687392	1.3299396
27.364451681775673	1.769712	1.3303052
27.382490665084074	1.801018	1.3420202
27.400530340202046	1.7658242	1.3288432
27.41857070765629	1.7779918	1.3334136
27.436611767973726	1.775284	1.3323978
27.454653521681404	1.795839	1.3400892
27.472695969306564	1.8168886	1.3479201
27.490739111376627	1.8573781	1.3628566
27.508782948419153	1.8219382	1.3497919
27.526827480961902	1.8029089	1.3427244
27.54487270953279	1.7928206	1.3389626
27.562918634659898	1.7634189	1.3279378
27.580965256871508	1.7857978	1.3363374
27.599012576696026	1.847622	1.3592726
27.617060594662068	1.8534207	1.361404
27.63510931129842	1.8352187	1.3547025
27.65315872713401	1.883355	1.3723538
27.67120884269797	1.9031651	1.3795525
27.68925965851958	1.8969705	1.3773055
27.707311175128307	1.9082732	1.3814026
27.725363393053787	1.9230803	1.3867518
27.74341631282583	1.9072193	1.3810211
27.7614699349744	1.8833703	1.3723594
27.77952426002968	2.0313265	1.4252461
27.797579288521973	2.0749495	1.4404685
27.815635020981784	2.5048158	1.582661
27.83369145793979	2.5912418	1.6097335
27.85174859992682	2.4673102	1.5707674
27.869806447473923	2.3105936	1.5200636
27.887865001112267	2.006835	1.416628
27.905924261373233	1.9513825	1.3969189
27.92398422878836	1.9326688	1.3902045
27.94204490388936	1.9387764	1.3923995
27.96010628720813	1.9415565	1.3933975
27.978168379276728	1.9175222	1.3847463
27.9962311806274	1.8234833	1.3503642
28.014294691792568	1.7502623	1.3229748
28.0323589133048	1.7834151	1.3354456
28.050423845696887	1.860449	1.3639828
28.068489489501758	1.8981476	1.3777328
28.086555845252523	1.9336219	1.3905473
28.104622913482487	1.934656	1.3909191
28.122690694725115	1.9219832	1.3863561
28.14075918951405	1.8951188	1.3766332
28.15882839838312	1.9167936	1.3844831
28.176898321866304	1.957501	1.3991072
28.1949689604978	1.9716359	1.4041495
28.213040314811945	2.0062132	1.4164085
28.23111238534327	1.9712623	1.4040165
28.249185172626493	1.9367827	1.3916835
28.267258677196473	1.9299039	1.3892097
28.285332899588294	1.9606161	1.40022
28.303407840337172	1.9382954	1.3922268
28.321483499978545	1.8938615	1.3761765
28.33955987904799	1.9345798	1.3908918
28.357636978081285	1.9183667	1.3850511
28.37571479761439	1.9100891	1.3820597
28.393793338183425	1.91849	1.3850957
28.41187260032469	1.954253	1.397946
28.429952584574686	1.9459112	1.3949592
28.448033291470065	1.959706	1.399895
28.46611472154769	1.9744483	1.4051507
28.484196875344566	1.9664819	1.4023131
28.502279753397914	1.9970739	1.4131787
28.52036335624511	2.0489762	1.4314245
28.538447684423716	2.0484147	1.4312284
28.556532738471482	1.9787365	1.4066757
28.574618518926325	1.9360247	1.3914111
28.59270502632635	1.9726945	1.4045265
28.61079226120985	2.0455637	1.430232
28.628880224115274	2.037521	1.4274175
28.646968915581287	2.0377774	1.4275074
28.66505833614671	2.0235448	1.4225136
28.68314848635055	2.0265524	1.4235703
28.701239366732004	2.0475972	1.4309428
28.71933097783044	2.0499723	1.4317725
28.737423320185403	2.0559983	1.4338753
28.75551639433665	2.143809	1.4641752
28.773610200824074	2.2032216	1.4843253
28.791704740187793	2.1832967	1.4775983
28.80980001296809	2.1302075	1.4595231
28.827896019705413	2.1394734	1.4626939
28.845992760940433	2.1366968	1.4617444
28.86409023721397	2.1170447	1.4550067
28.88218844906704	2.140139	1.4629214
28.900287397040845	2.159426	1.4694985
28.918387081676755	2.2285147	1.4928211
28.936487503516343	2.2721336	1.5073599
28.954588663101365	2.276674	1.5088651
28.97269056097374	2.3394098	1.5295129
28.990793197675597	2.3345563	1.5279255
29.00889657374923	2.3200715	1.5231781
29.027000689737125	2.3216913	1.5237097
29.04510554618196	2.4184766	1.5551451
29.06321114362659	2.460856	1.5687115
29.08131748261405	2.4390802	1.5617555
29.099424563687567	2.434032	1.5601385
29.11753238739057	2.4928074	1.5788627
29.13564095426663	2.5290632	1.5903028
29.15375026485954	2.5483897	1.5963676
29.171860319713275	2.6088607	1.6151968
29.18997111937199	2.6693156	1.633804
29.20808266438002	2.800589	1.673496
29.226194955281898	2.8309891	1.6825544
29.244307992622335	2.8539324	1.6893586
29.26242177694624	2.9067593	1.7049221
29.2805363087987	2.961406	1.7208736
29.29865158872498	2.8521547	1.6888324
29.316767617270557	2.833991	1.6834462
29.334884394981064	2.905732	1.7046207
29.353001922402367	3.0190625	1.737545
29.37112020008047	3.1099956	1.763518
29.389239228561596	3.2371004	1.7991943
29.407359008392152	3.389046	1.8409362
29.42547954011872	3.7025375	1.9241979
29.44360082428809	4.2697725	2.0663428
29.46172286144722	5.2957134	2.3012416
29.479845652143283	6.7917385	2.6060965
29.497969196923606	8.8409195	2.9733684
29.516093496335728	11.53342	3.3960888
29.5342185509274	14.462882	3.8030095
29.55234436124651	16.854961	4.1054792
29.570470927841175	18.201199	4.2662864
29.588598251259686	18.121012	4.2568784
29.60672633205055	16.702984	4.0869284
29.624855170762405	14.3525	3.7884693
29.642984767944146	11.605291	3.406654
29.66111512414481	8.921135	2.986827
29.67924623991366	6.5950527	2.5680835
29.697378115800138	5.0586004	2.2491333
29.71551075235387	4.117039	2.029049
29.733644150124675	3.738003	1.9333916
29.751778309662576	3.56809	1.8889389
29.769913231517766	3.5322108	1.8794177
29.78804891624066	3.504206	1.8719524
29.806185364381818	3.3976054	1.8432595
29.82432257649206	3.3556588	1.8318458
29.842460553122333	3.3008637	1.8168279
29.86059929482382	3.2333162	1.7981424
29.878738802147872	3.2266126	1.7962774
29.896879075646048	3.280819	1.8113031
29.915020115870114	3.2914696	1.8142408
29.933161923371976	3.277575	1.8104074
29.951304498703777	3.2438836	1.8010784
29.969447842417857	3.2476919	1.8021353
29.987591955066733	3.3039458	1.817676
30.005736837203123	3.3129802	1.8201594
30.023882489379943	3.2317514	1.7977073
30.04202891215028	3.1491652	1.7745887
30.060176106067455	3.1335268	1.770177
30.078324071684946	3.1621268	1.778237
30.09647280955646	3.2386055	1.7996126
30.114622320235863	3.190873	1.7863015
30.132772604277257	3.071023	1.7524334
30.1509236622349	3.0378244	1.7429355
30.16907549466328	3.1142228	1.764716
30.18722810211705	3.1037006	1.7617323
30.205381485151097	3.0652087	1.7507738
30.22353564432045	2.9989038	1.7317343
30.241690580180403	2.9539995	1.7187203
30.25984629328638	2.9346533	1.713083
30.278002784194037	2.9451032	1.7161303
30.296160053459246	2.9878883	1.7285509
30.314318101638033	2.9635003	1.721482
30.332476929286646	2.960607	1.7206415
30.35063653696153	2.9504027	1.7176737
30.368796925219307	2.971339	1.7237573
30.386958094616844	2.9311109	1.7120488
30.40512004571115	2.8807762	1.6972849
30.423282779059463	2.8988183	1.7025917
30.441446295219233	2.856811	1.6902103
30.459610594748067	2.8631864	1.6920953
30.47777567820382	2.9073105	1.7050837
30.495941546144504	2.8130903	1.677227
30.51410819912835	2.6885347	1.6396751
30.532275637713795	2.6805873	1.63725
30.55044386245946	2.7527053	1.6591278
30.56861287392416	2.7574272	1.6605502
30.586782672666956	2.752954	1.6592028
30.604953259247047	2.7099037	1.6461785
30.623124634223885	2.7005935	1.6433482
30.641296798157075	2.7463112	1.6571999
30.659469751606462	2.759075	1.6610464
30.677643495132074	2.8188097	1.6789311
30.695818029294152	2.7710893	1.6646589
30.713993354653116	2.7578843	1.6606879
30.73216947176962	2.7212265	1.649614
30.75034638120448	2.7124398	1.6469486
30.768524083518756	2.7754054	1.6659548
30.786702579273673	2.860643	1.6913435
30.80488186903069	2.8674726	1.6933614
30.82306195335144	2.992597	1.7299124
30.841242832797782	3.2229316	1.7952526
30.85942450793176	3.5180988	1.8756596
30.877606979315637	3.7620444	1.939599
30.895790247511883	4.036783	2.0091748
30.913974313083134	4.4379177	2.1066365
30.932159176592283	4.7437787	2.1780217
30.95034483860237	4.7770467	2.1856456
30.968531299676698	4.6177425	2.1488934
30.98671856037873	4.3856626	2.0941973
31.00490662127215	3.9699674	1.9924777
31.023095482920848	3.5400681	1.8815069
31.04128514588892	3.1643262	1.7788553
31.059475610740662	2.8070014	1.6754107
31.07766687804056	2.5853384	1.6078987
31.09585894835335	2.5479286	1.5962232
31.11405182224393	2.4567764	1.5674107
31.132245500277417	2.3504047	1.533103
31.15043998301914	2.3530455	1.5339639
31.168635271034628	2.435427	1.5605855
31.18683136488964	2.42639	1.5576874
31.20502826515008	2.4359758	1.5607613
31.223225972382135	2.3667345	1.5384195
31.241424487152155	2.3664956	1.5383419
31.259623810026692	2.3994796	1.5490254
31.27782394157253	2.4291284	1.5585661
31.296024882356644	2.385386	1.5444695
31.314226632946237	2.4173112	1.5547705
31.332429193908684	2.5048947	1.582686
31.350632565811598	2.5840294	1.6074916
31.368836749222787	2.556287	1.5988393
31.387041744710295	2.5378342	1.5930581
31.40524755284232	2.572553	1.603918
31.423454174187317	2.6226828	1.6194699
31.441661609313922	2.640782	1.6250484
31.459869858791002	2.6026833	1.6132834
31.478078923187628	2.4695163	1.5714694
31.496288803073064	2.418342	1.555102
31.514499499016807	2.4230363	1.5566106
31.532711011588546	2.4400904	1.5620788
31.550923341358178	2.3355737	1.5282583
31.56913648889584	2.306229	1.5186274
31.587350454771844	2.3113792	1.5203221
31.605565239556732	2.290095	1.513306
31.62378084382127	2.2494607	1.4998202
31.641997268136382	2.2887821	1.5128721
31.660214513073274	2.302744	1.5174794
31.67843257920331	2.2739868	1.5079744
31.6966514670981	2.307501	1.5190461
31.71487117732944	2.333635	1.527624
31.733091710469346	2.309743	1.5197839
31.751313067090052	2.2686868	1.506216
31.769535247764008	2.231279	1.4937466
31.787758253063878	2.2713187	1.5070895
31.805982083562526	2.2947936	1.5148576
31.824206739833024	2.3233542	1.5242553
31.84243222244869	2.3162496	1.521923
31.860658531983013	2.233125	1.4943644
31.878885669009737	2.1165285	1.4548293
31.897113634102784	2.196178	1.4819508
31.91534242783632	2.307294	1.5189779
31.933572050784694	2.3325489	1.5272684
31.951802503522508	2.2951934	1.5149896
31.970033786624548	2.2506988	1.5002329
31.988265900665834	2.2894807	1.513103
32.006498846221575	2.320593	1.5233493
32.02473262386724	2.2900252	1.5132829
32.04296723417845	2.2401197	1.4967029
32.0612026777311	2.1798186	1.4764209
32.07943895510129	2.2461286	1.498709
32.097676066865304	2.2026703	1.4841396
32.115914013599685	2.1989722	1.4828932
32.13415279588115	2.1882641	1.4792782
32.152392414286666	2.2852669	1.5117099
32.1706328693934	2.3268273	1.5253942
32.18887416177875	2.2769463	1.5089554
32.20711629202032	2.1488423	1.465893
32.225359260695924	2.1078782	1.4518534
32.243603068383614	2.1649263	1.4713688
32.26184771566166	2.2160885	1.4886533
32.28009320310852	2.214644	1.488168
32.2983395313029	2.1801176	1.4765221
32.31658670082372	2.1582055	1.4690832
32.33483471225012	2.178987	1.4761392
32.35308356616143	2.1879148	1.4791602
32.371333263137245	2.1475239	1.4654433
32.38958380375734	2.1426768	1.4637885
32.407835188601744	2.129361	1.459233
32.42608741825067	2.0570722	1.4342496
32.444340493284585	1.9935056	1.4119155
32.46259441428416	1.9524399	1.3972974
32.48084918183028	1.9050546	1.3802371
32.49910479650405	1.8982773	1.3777798
32.51736125888683	2.0292056	1.4245019
32.53561856956014	2.2185562	1.4894818
32.5538767291058	2.1739862	1.4744444
32.572135738105764	2.024402	1.4228147
32.59039559714228	2.0429804	1.4293287
32.608656306797776	2.197583	1.4824247
32.62691786765491	2.1910186	1.480209
32.645180280296586	2.0293748	1.4245613
32.663443545305896	1.9203115	1.385753
32.68170766326619	1.9904842	1.4108453
32.69997263476099	2.0643322	1.4367784
32.7182384603741	2.0524807	1.4326482
32.7365051406895	1.9539293	1.3978302
32.75477267629144	1.910839	1.382331
32.77304106776434	1.9659991	1.4021409
32.79131031569289	2.0337658	1.4261016
32.809580420661966	2.027866	1.4240316
32.827851383256714	1.9541534	1.3979104
32.84612320406245	1.9201322	1.3856883
32.86439588366476	1.8493046	1.3598914
32.88266942264945	1.9058071	1.3805097
32.9009438216025	1.9405754	1.3930453
32.9192190811102	1.9933863	1.4118733
32.937495201758985	1.9989516	1.4138428
32.95577218413556	1.9910036	1.4110293
32.974050028826866	1.9652888	1.4018875
32.992328736420035	1.9568201	1.3988639
33.010608307502444	1.9717058	1.4041744
33.02888874266169	2.0466883	1.4306252
33.047170042485604	1.9730586	1.404656
33.06545220756225	2.028864	1.424382
33.083735238479896	2.0919793	1.4463676
33.10201913582707	2.0679176	1.4380256
33.12030390019248	1.9802759	1.4072227
33.138589532165135	1.8629229	1.3648894
33.15687603233419	1.869379	1.3672523
33.17516340128909	1.9060041	1.380581
33.19345163961947	1.8789183	1.3707364
33.211740747915215	1.8986226	1.3779051
33.23003072676643	1.9988451	1.4138051
33.248321576763466	2.1098094	1.4525183
33.266613298496885	2.1171064	1.4550279
33.28490589255747	2.1287408	1.4590205
33.30319935953626	2.0742462	1.4402243
33.32149370002451	1.9737035	1.4048855
33.339788914613706	1.8984971	1.3778596
33.358085003895575	1.9087532	1.3815763
33.376381968462034	1.872278	1.3683121
33.39467980890529	1.8050863	1.343535
33.41297852581774	1.9095422	1.3818618
33.43127811979204	1.9585742	1.3994907
33.44957859142105	1.9333798	1.3904603
33.467879941297866	1.9227241	1.3866233
33.486182170015844	2.0414865	1.428806
33.50448527816853	1.9460043	1.3949926
33.522789266349754	1.8530117	1.3612537
33.541094135153514	1.8935763	1.3760728
33.55939988517411	1.8798544	1.3710779
33.57770651700602	1.9353521	1.3911693
33.59601403124398	2.0032446	1.4153602
33.61432242848296	1.9323412	1.3900868
33.632631709318154	1.8152106	1.3472975
33.650941874344994	1.8325926	1.3537328
33.66925292415916	1.8051995	1.3435771
33.68756485935654	1.7468112	1.3216698
33.70587768053328	1.7802478	1.3342593
33.724191388285746	1.93475	1.390953
33.74250598321054	1.9257776	1.3877239
33.760821465904506	1.8055751	1.3437169
33.77913783696474	1.7706329	1.3306513
33.79745509698852	1.9070781	1.38097
33.815773246573414	2.0361183	1.4269261
33.8340922863172	2.077723	1.4414309
33.852412216817896	2.000844	1.4145119
33.87073303867377	2.0053368	1.4160992
33.889054752483304	1.9982815	1.4136058
33.907377358845245	1.9343249	1.3908001
33.92570085835853	1.8680509	1.3667666
33.94402525162239	2.0434828	1.4295044
33.96235053923627	2.1088786	1.4521979
33.980676721799824	2.0545704	1.4333773
33.999003799912984	2.0704546	1.4389074
34.01733177417592	2.050614	1.4319966
34.03566064518901	1.9581971	1.399356
34.0539904135529	1.8642724	1.3653836
34.07232107986846	1.9059181	1.3805499
34.090652644736785	1.9794184	1.406918
34.108985108759235	2.0336335	1.4260552
34.12731847253742	1.9617785	1.400635
34.14565273667313	1.9659253	1.4021146
34.16398790176847	1.937285	1.3918638
34.18232396842574	1.903174	1.3795557
34.20066093724749	1.9176762	1.3848019
34.21899880883651	1.9713615	1.4040518
34.23733758379583	2.0032957	1.4153783
34.25567726272874	1.8804187	1.3712835
34.27401784623872	1.8384044	1.3558778
34.29235933492957	1.8605897	1.3640344
34.31070172940526	1.8703079	1.367592
34.32904503027003	1.9055023	1.3803993
34.347389238128386	2.0121684	1.4185092
34.36573435358502	2.1226666	1.4569374
34.38408037724492	2.094553	1.447257
34.402427309713296	2.087752	1.4449055
34.42077515159559	1.9815527	1.4076763
34.43912390349752	1.9730026	1.4046361
34.45747356602499	1.9982328	1.4135886
34.47582413978423	1.9657642	1.4020572
34.49417562538163	1.964034	1.4014399
34.51252802342388	2.0458853	1.4303445
34.53088133451789	1.9448665	1.3945848
34.54923555927084	1.9366645	1.3916409
34.567590698290104	1.9834592	1.4083533
34.58594675218336	2.100573	1.4493353
34.6043037215585	2.1136558	1.4538417
34.62266160702365	1.9278507	1.3884706
34.641020409187234	1.9267888	1.3880882
34.65938012865785	2.1470497	1.4652815
34.677740766044394	2.2695894	1.5065156
34.69610232195598	2.1600637	1.4697155
34.714464797002016	1.9759607	1.4056888
34.73282819179208	1.8512801	1.3606175
34.751192506936064	1.8542382	1.3617041
34.76955774304408	2.0665762	1.4375591
34.7879239007265	2.1314957	1.4599643
34.80629098059391	2.0128188	1.4187385
34.824658983257194	1.9416476	1.3934302
34.843027909327446	1.9867123	1.4095079
34.86139775941603	2.071415	1.439241
34.879768534134534	2.145331	1.4646949
34.89814023409483	2.2124772	1.4874399
34.91651285990901	2.082402	1.443053
34.93488641218944	1.9063585	1.3807094
34.95326089154871	1.8816388	1.3717284
34.97163629859967	2.0227876	1.4222474
34.99001263395542	2.153049	1.4673271
35.00838989822934	2.2189322	1.489608
35.02676809203499	2.2141235	1.4879931
35.04514721598624	2.197335	1.482341
35.063527270697215	1.9971398	1.4132019
35.081908256782256	1.823093	1.3502196
35.10029017485597	1.8065506	1.3440799
35.11867302553321	1.7292871	1.3150237
35.137056809429104	1.9213806	1.3861388
35.155441527159006	2.2321577	1.4940407
35.173827179338524	2.1652942	1.4714938
35.19221376658354	2.0309083	1.4250994
35.21060128951017	1.8943193	1.3763428
35.2289897487348	2.0613701	1.4357473
35.24737914487405	2.0910678	1.4460524
35.26576947854479	2.151492	1.4667965
35.28416075036418	2.169339	1.4728676
35.30255296094958	2.0934744	1.4468844
35.32094611091867	2.223222	1.4910473
35.33934020088932	2.3676634	1.5387213
35.35773523147969	2.1732852	1.4742067
35.3761312033082	2.080258	1.4423099
35.394528116993506	2.028986	1.4244248
35.41292597315452	1.9647361	1.4016905
35.431324772410434	2.0022101	1.4149947
35.449724515380666	2.1470597	1.4652848
35.46812520268491	2.1412342	1.4632957
35.486526834943106	2.1103024	1.452688
35.504929412775454	2.0538895	1.4331397
35.52333293680242	1.5584095	1.2483627
35.54173740764471	1.9178021	1.3848473
35.560142825923286	2.1560674	1.4683553
35.5785491922594	1.4592322	1.2079868
35.59695650727454	0.9497295	0.97454065
35.61536477159042	0.6898081	0.83054686
