0.008763373481513119	0.0	0.0
0.026290120649546365	0.17179282	0.414479
0.043816868432600686	0.15555455	0.39440405
0.06134361724069026	0.17660688	0.4202462
0.07887036748382949	0.18052079	0.42487738
0.0963971195720331	0.16456956	0.40567175
0.11392387391531617	0.15688458	0.39608657
0.1314506309236943	0.17116295	0.41371843
0.1489773910071836	0.12836933	0.35828665
0.16650415457580078	0.12092271	0.34773943
0.18403092203956356	0.098290354	0.31351292
0.20155769380849	0.157219	0.3965085
0.2190844702925996	0.17282961	0.41572782
0.2366112519019124	0.16872807	0.41076523
0.2541380390464497	0.1703375	0.41271964
0.27166483213623416	0.17426933	0.4174558
0.28919163158128947	0.18608125	0.43137136
0.3067184377916406	0.1958398	0.4425379
0.324245251177314	0.15751524	0.3968819
0.34177207214833777	0.119949944	0.3463379
0.3592989011147415	0.11798674	0.34349197
0.37682573848655654	0.11425617	0.338018
0.39435258467381573	0.13914478	0.37302116
0.41187944008655414	0.12820974	0.35806388
0.42940630513480854	0.12433699	0.3526145
0.446933180228618	0.12590323	0.35482845
0.4644600657780234	0.15777515	0.3972092
0.48198696219306775	0.19930957	0.446441
0.49951386988379676	0.17034122	0.41272414
0.5170407892602581	0.16755497	0.4093348
0.5345677207325025	0.15401715	0.39245018
0.5520946647105822	0.18469419	0.4297606
0.5696216216045534	0.20269775	0.45021966
0.5871485918244737	0.1604171	0.40052104
0.6046755757804043	0.17136233	0.41395932
0.6222025738824094	0.15686424	0.3960609
0.6397295865405557	0.18195693	0.4265641
0.6572566141649129	0.14636655	0.38257882
0.6747836571655547	0.12689754	0.3562268
0.6923107159525568	0.10964404	0.3311254
0.7098377909359992	0.10982259	0.3313949
0.7273648825259653	0.14405578	0.37954682
0.7448919911325411	0.16555487	0.40688434
0.762419117165817	0.18364935	0.42854327
0.7799462610358868	0.17060237	0.4130404
0.7974734231528482	0.15141283	0.38911802
0.8150006039268024	0.16729361	0.40901542
0.8325278037678551	0.16071884	0.40089753
0.8500550230861152	0.16573228	0.4071023
0.8675822622916969	0.16425961	0.40528953
0.8851095217947171	0.14372411	0.37910962
0.9026368020052984	0.14717305	0.3836314
0.9201641033335665	0.14397205	0.3794365
0.9376914261896523	0.20609799	0.45398018
0.9552187709836915	0.20993273	0.45818415
0.9727461381258234	0.23051387	0.4801186
0.990273528026193	0.21764375	0.46652305
1.0078009410949496	0.23070848	0.48032123
1.0253283777422473	0.2526795	0.5026724
1.0428558383782454	0.29256886	0.54089636
1.0603833234131086	0.31711614	0.5631307
1.0779108332570058	0.32508162	0.5701593
1.0954383683201119	0.2841986	0.5331028
1.112965929012607	0.2707308	0.520318
1.1304935157446763	0.37720037	0.6141664
1.1480211289265108	0.453475	0.6734055
1.1655487689683062	1.34227	1.1585637
1.1830764362802655	1.6575313	1.2874515
1.200604131272596	2.1161838	1.4547108
1.2181318543555117	2.539735	1.5936546
1.235659605939232	2.603043	1.6133949
1.253187386433982	4.1277614	2.0316894
1.270715196249994	6.3424816	2.5184283
1.2882430357975057	11.66259	3.4150534
1.3057709054867608	16.311378	4.038735
1.3232988057280106	22.327362	4.725184
1.3408267369315112	27.19189	5.2145844
1.358354699507526	31.071213	5.574156
1.3758826938663256	35.119427	5.9261646
1.3934107204181858	37.21997	6.100817
1.410938779573391	37.67985	6.1383915
1.4284668717422309	38.39994	6.1967688
1.4459949973350033	37.89456	6.1558557
1.4635231567620117	38.158535	6.1772594
1.4810513504335687	37.38228	6.1141047
1.4985795787599925	36.661045	6.0548363
1.5161078421516088	35.801643	5.9834476
1.5336361410187505	34.777378	5.897235
1.5511644757717598	34.72595	5.892873
1.5686928468209842	35.394203	5.9493027
1.58622125457678	36.05204	6.004335
1.6037496994495108	37.217113	6.100583
1.621278181849548	37.190956	6.0984387
1.6388067021872719	37.93139	6.1588464
1.6563352608730693	37.766087	6.145412
1.673863858317336	36.962738	6.079699
1.6913924949304753	36.26961	6.0224257
1.7089211711228998	35.000275	5.916103
1.7264498873050296	33.888172	5.821355
1.7439786438872935	32.88421	5.7344756
1.7615074412801288	31.812685	5.6402736
1.779036279893981	31.38949	5.6026325
1.796565160139305	30.528112	5.525225
1.814094082426564	30.016716	5.478751
1.8316230471662298	29.285517	5.4116096
1.849152054768784	28.710114	5.358182
1.8666811056447168	28.094965	5.3004684
1.8842102002045273	27.145897	5.2101727
1.901739338858724	26.374468	5.1356077
1.9192685220178245	25.673979	5.06695
1.9367977500923557	25.038694	5.003868
1.9543270234928547	24.703632	4.970275
1.971856342629867	23.975998	4.896529
1.9893857079139496	23.667965	4.864973
2.006915119755667	23.324574	4.829552
2.0244445785655945	22.743582	4.769023
2.0419740847543175	22.326935	4.7251387
2.0595036387324317	21.443987	4.6307654
2.0770332409105414	21.108261	4.5943727
2.094562891699263	20.827467	4.563712
2.1120925915092217	20.24132	4.4990354
2.129622340751053	20.063833	4.479267
2.1471521398354043	188.28624	13.721744
2.1646819891729323	444.91852	21.093092
2.182211889174303	441.01306	21.00031
2.1997418402501974	453.0849	21.285791
2.2172718428113023	432.81393	20.80418
2.234801897268317	320.69644	17.907999
2.2523320040319548	17.140118	4.1400623
2.269862163512935	16.735102	4.090856
2.287392376121992	16.551607	4.0683665
2.304922642269869	16.383837	4.047695
2.322452962367322	16.194296	4.024214
2.3399833368251164	15.979804	3.9974747
2.357513766054032	15.4422245	3.9296596
2.3750442504648586	15.267241	3.9073317
2.3925747904683963	15.074018	3.882527
2.410105386475459	14.925901	3.8634055
2.4276360388968707	14.487873	3.806294
2.445166748143469	13.936393	3.7331479
2.4626975146261025	13.509058	3.675467
2.4802283387556323	13.405323	3.661328
2.4977592209429305	13.331864	3.6512825
2.5152901615988825	13.123493	3.6226363
2.5328211611343865	13.176271	3.6299133
2.5503522199603523	13.000552	3.6056278
2.5678833384877024	12.893471	3.5907478
2.5854145171273712	12.524936	3.5390587
2.6029457562903064	12.260459	3.501494
2.620477056387469	12.028586	3.4682252
2.6380084178298326	11.835858	3.4403281
2.655539841028383	11.530547	3.395666
2.673071326394119	11.374793	3.3726537
2.6906028743380523	11.231604	3.3513584
2.708134485271211	11.164156	3.3412807
2.7256661596046325	10.9660225	3.3114986
2.743197897749369	10.733973	3.2762742
2.760729700116486	10.405042	3.2256846
2.778261567117063	10.281188	3.2064292
2.795793499162193	9.95817	3.1556568
2.8133254966629817	9.843564	3.1374454
2.830857560030551	9.635412	3.104096
2.8483896896760337	9.664684	3.1088076
2.865921886010578	9.707053	3.1156144
2.883454149445347	9.588523	3.096534
2.9009864803915177	9.477244	3.0785134
2.91851887926028	9.285428	3.0472
2.9360513464628384	9.094457	3.0157018
2.953583882410413	8.880878	2.9800804
2.9711164875142373	8.659728	2.9427416
2.9886491621855606	8.628704	2.9374657
3.0061819068356455	8.499166	2.9153328
3.023714721875769	8.509221	2.917057
3.041247607717225	8.365117	2.8922513
3.0587805647713213	8.327961	2.8858206
3.0763135934493806	8.237483	2.8701015
3.0938466941627407	8.15712	2.8560672
3.1113798673227544	8.185752	2.8610754
3.1289131133407904	8.04219	2.8358755
3.1464464326282315	7.98403	2.8256025
3.1639798255964786	7.896202	2.810018
3.1815132926569443	7.72496	2.7793813
3.1990468342210603	7.5163918	2.7416039
3.216580450700272	7.435349	2.7267838
3.2341141425060416	7.3199224	2.7055354
3.251647910049847	7.288628	2.699746
3.2691817537431813	7.2613454	2.6946883
3.286715673997555	7.2219176	2.6873627
3.3042496712244938	7.2003555	2.683348
3.32178374583554	7.1345162	2.6710515
3.339317898242251	7.0997896	2.6645432
3.3568521288562034	6.995028	2.6448116
3.3743864380889876	6.8720064	2.6214511
3.3919208263522127	6.6973963	2.5879328
3.4094552940575023	6.6578474	2.5802805
3.4269898416164972	6.602708	2.5695734
3.444524469440858	6.701652	2.588755
3.4620591779422587	6.623667	2.5736485
3.479593967532391	6.5495653	2.559212
3.4971288386229658	6.4106836	2.5319328
3.5146637916257086	6.4014	2.530099
3.5321988269523628	6.3456497	2.5190573
3.5497339450146903	6.40571	2.5309505
3.5672691462244708	6.503961	2.5502865
3.5848044309934988	6.4107766	2.5319512
3.60233979973359	6.500694	2.549646
3.619875252856575	6.340271	2.5179894
3.6374107907743034	6.3456645	2.5190601
3.6549464138986427	6.245809	2.4991617
3.6724821226414788	6.174041	2.4847617
3.690017917414714	6.294399	2.508864
3.7075537986302702	6.449833	2.539652
3.7250897667000857	6.5411234	2.557562
3.7426258220361235	6.674582	2.5835211
3.7601619650503553	6.839964	2.6153324
3.777698196154779	7.337489	2.70878
3.7952345157614067	8.427521	2.9030192
3.8127709242822716	9.301417	3.0498226
3.830307422129425	11.74131	3.4265594
3.847844009714936	30.697624	5.5405436
3.8653806874508954	98.17466	9.908313
3.882917455749409	97.226364	9.860343
3.900454315022606	96.92468	9.845034
3.917991265682631	41.392487	6.433699
3.9355283081416506	11.044416	3.3233142
3.9530654428118495	8.847452	2.9744668
3.970602670105433	7.587949	2.7546232
3.9881399904346244	6.7345095	2.5950933
4.005677404211669	6.634077	2.5756702
4.023214911848827	6.624055	2.573724
4.0407525137583855	6.6176753	2.5724843
4.058290210352644	6.607563	2.570518
4.075828002043927	6.512443	2.5519488
4.0933658892445814	6.3921475	2.5282698
4.110903872366966	6.2401853	2.4980364
4.128441951823468	6.1274734	2.4753733
4.145980128026488	6.1842294	2.4868112
4.163518401388452	6.102221	2.4702673
4.181056772321807	6.075416	2.464836
4.1985952412390155	6.068858	2.4635053
4.216133808552567	6.1242714	2.4747264
4.233672474674966	6.29382	2.5087488
4.251211240018741	6.469523	2.5435257
4.268750104996445	6.6827893	2.5851092
4.286289070020643	7.621614	2.7607272
4.303828135503928	9.278828	3.0461168
4.3213673018589125	29.638807	5.4441533
4.3389065694982305	90.785034	9.528118
4.356445938834537	165.96573	12.882769
4.3739854102805085	171.53568	13.097163
4.391524984248844	172.48016	13.13317
4.409064661152262	136.61404	11.688201
4.426604441403504	96.924255	9.845012
4.444144325415337	75.75839	8.70393
4.461684313600543	21.850822	4.674486
4.47922440637193	22.34907	4.7274804
4.496764604142329	20.705183	4.550295
4.5143049073245916	18.725115	4.3272524
4.531845316331589	16.491966	4.0610304
4.5493858315762195	13.704646	3.7019787
4.566926453471405	11.478066	3.3879294
4.584467182430081	9.570083	3.093555
4.602008018865218	8.349922	2.8896232
4.619548963189798	7.6059885	2.7578957
4.637090015816834	7.1690836	2.6775146
4.654631177159353	6.9611936	2.6384075
4.672172447630417	6.6610465	2.5809004
4.689713827643102	6.4683313	2.5432913
4.7072553176105085	6.196804	2.4893382
4.724796917945764	6.0749974	2.464751
4.742338629062015	5.9623127	2.4417846
4.759880451372434	5.8740706	2.423648
4.777422385290215	5.751125	2.3981502
4.794964431228581	5.729092	2.3935523
4.812506589600768	5.8076186	2.4099002
4.830048860820047	5.806766	2.4097233
4.847591245299709	5.7840877	2.405013
4.8651337434530655	5.6764016	2.38252
4.882676355693457	5.6429634	2.3754923
4.900219082434242	5.6908956	2.3855598
4.917761924088813	5.6470275	2.3763475
4.935304881070575	5.616559	2.3699281
4.952847953792969	5.5683093	2.3597264
4.970391142669449	5.5331736	2.35227
4.9879344481135055	5.579592	2.362116
5.005477870538642	5.5615497	2.3582938
5.023021410358394	5.518941	2.3492427
5.040565067986324	5.4666624	2.3380895
5.05810884383601	5.391964	2.3220603
5.075652738321066	5.42879	2.3299763
5.09319675185512	5.381036	2.319706
5.110740884851836	5.421	2.328304
5.128285137724894	5.3528004	2.313612
5.145829510888007	5.320193	2.3065543
5.163374004754908	5.3999	2.3237684
5.1809186197393595	5.435536	2.3314235
5.198463356255145	5.4238954	2.3289258
5.216008214716077	5.3362656	2.310036
5.233553195535998	5.2523017	2.29179
5.251098299128764	5.280165	2.297861
5.268643525908272	5.3069644	2.303685
5.286188876288432	5.385525	2.3206735
5.3037343506831895	5.356644	2.3144424
5.32127994950651	5.316844	2.3058283
5.3388256731723915	5.306922	2.3036757
5.356371522094851	5.344218	2.3117564
5.373917496687938	5.334663	2.3096888
5.391463597365729	5.297228	2.3015707
5.40900982454232	5.1986914	2.2800639
5.426556178631843	5.1648307	2.2726264
5.444102660048449	5.162915	2.2722049
5.4616492692063225	5.1699624	2.273755
5.479196006519669	5.256597	2.292727
5.496742872402727	5.1763506	2.2751594
5.514289867269756	5.2004848	2.280457
5.531836991535049	5.184104	2.2768629
5.549384245612924	5.1806226	2.276098
5.566931629917724	5.197909	2.2798922
5.584479144863822	5.175933	2.2750676
5.6020267908656205	5.1260448	2.264077
5.619574568337545	5.0869045	2.2554166
5.637122477694054	5.118255	2.262356
5.654670519349629	5.1958895	2.2794495
5.672218693718784	5.243958	2.289969
5.689767001216059	5.277292	2.2972357
5.707315442256021	5.1992216	2.2801802
5.724864017253266	5.1897354	2.278099
5.7424127266224225	5.171269	2.2740424
5.75996157077814	5.1672864	2.2731667
5.777510550135105	5.204655	2.2813714
5.795059665108022	5.2503138	2.2913563
5.812608916111639	5.2855163	2.299025
5.830158303560715	5.3318167	2.3090727
5.847707827870055	5.3529935	2.3136537
5.86525748945448	5.3831964	2.3201716
5.8828072887288485	5.503821	2.3460224
5.900357226108044	5.534461	2.3525436
5.917907302006979	5.6345906	2.3737292
5.9354575168406	6.2523313	2.500466
5.9530078710238765	6.912086	2.6290846
5.970558364971812	7.4870176	2.7362416
5.988108999099438	7.854992	2.802676
6.005659773821818	8.309872	2.8826847
6.023210689554039	8.030049	2.8337343
6.040761746711227	8.329614	2.886107
6.058312945708531	7.6948347	2.7739565
6.075864286961132	7.2416897	2.6910388
6.093415770884244	6.763743	2.6007197
6.1109673978931065	6.243145	2.4986286
6.128519168402993	5.6062636	2.367755
6.146071082829204	5.375197	2.318447
6.163623141587075	5.166824	2.2730649
6.181175345091969	5.138382	2.2668
6.198727693759281	5.203817	2.2811875
6.216280188004435	5.3043656	2.3031209
6.233832828242885	5.3329597	2.3093202
6.251385614890126	5.3307376	2.308839
6.268938548361669	5.2908897	2.3001933
6.286491629073067	5.2578707	2.2930048
6.304044857439898	5.2181773	2.284333
6.321598233877777	5.138844	2.266902
6.339151758802344	5.123951	2.2636147
6.356705432629277	5.0699606	2.2516572
6.37425925577428	5.079785	2.2538378
6.391813228653095	5.075368	2.2528577
6.409367351681486	5.093526	2.256884
6.426921625275259	5.003349	2.2368166
6.44447604985025	4.9548597	2.2259514
6.46203062582232	4.956511	2.2263224
6.47958535360737	4.992534	2.234398
6.497140233621328	5.033691	2.243589
6.514695266280161	4.9735847	2.2301536
6.532250451999859	4.9769745	2.2309134
6.549805791196454	5.0045013	2.2370744
6.567361284286002	5.072762	2.2522793
6.584916931684597	5.0637155	2.2502701
6.602472733808367	5.0359674	2.244096
6.6200286910734665	5.055371	2.2484152
6.637584803896092	5.0595694	2.2493486
6.655141072692462	5.058237	2.2490525
6.672697497878842	4.9822216	2.232089
6.690254079871514	5.0301905	2.2428086
6.707810819086808	5.0223575	2.2410617
6.725367715941078	4.9939137	2.2347066
6.742924770850719	4.979488	2.2314765
6.760481984232151	4.970776	2.2295237
6.778039356501836	4.9684696	2.2290065
6.795596888076266	4.9540744	2.225775
6.813154579371963	5.0174146	2.2399585
6.830712430805492	5.0069604	2.237624
6.84827044279344	5.060428	2.2495396
6.865828615752445	5.045647	2.2462518
6.883386950099159	5.0453343	2.2461822
6.900945446250287	5.018425	2.240184
6.918504104622553	5.053124	2.2479155
6.936062925632727	5.053418	2.2479808
6.953621909697607	5.084394	2.2548602
6.971181057234028	5.1288586	2.2646983
6.988740368658859	5.163724	2.272383
7.006299844389007	5.2304516	2.287018
7.023859484841407	5.3159904	2.305643
7.041419290433036	5.3754787	2.318508
7.058979261580902	5.435972	2.3315172
7.0765393987020495	5.6295476	2.3726668
7.094099702213559	5.9942694	2.4483197
7.111660172532549	6.416745	2.5331295
7.129220810076164	6.8733697	2.6217113
7.146781615261595	7.6123486	2.7590485
7.16434258850606	7.837335	2.799524
7.181903730226821	8.242897	2.8710446
7.1994650408411704	8.258586	2.8737755
7.217026520766437	8.329301	2.8860528
7.234588170419983	8.566413	2.9268434
7.252149990219215	8.495095	2.9146347
7.269711980581568	8.354919	2.8904877
7.2872741419245175	8.111862	2.848133
7.304836474665574	7.6895137	2.7729971
7.322398979222286	7.4062014	2.7214336
7.339961656012233	7.144129	2.6728504
7.357524505453039	6.844058	2.616115
7.375087527962357	6.6322775	2.575321
7.392650723957886	6.304859	2.510948
7.410214093857353	5.90802	2.430642
7.427777638078528	5.5873427	2.3637562
7.445341357039213	5.4353623	2.3313863
7.4629052511572525	5.3540673	2.3138857
7.480469320850524	5.2939224	2.3008525
7.498033566536948	5.252098	2.2917457
7.5155979886344735	5.16162	2.27192
7.5331625875610975	5.122304	2.2632508
7.550727363734844	5.124764	2.2637942
7.568292317573788	5.146756	2.2686462
7.585857449496025	5.127846	2.2644746
7.603422759919705	5.1121373	2.2610035
7.620988249263007	5.11288	2.261168
7.638553917944147	5.147696	2.2688534
7.656119766381391	5.2235084	2.2854996
7.673685794993023	5.2769113	2.2971528
7.691252004197388	5.28894	2.2997696
7.70881839441285	5.2424026	2.2896295
7.726384966057826	5.260931	2.2936718
7.743951719550762	5.301426	2.3024826
7.761518655310149	5.315756	2.3055923
7.779085773754511	5.3761234	2.318647
7.796653075302419	5.3407874	2.3110144
7.814220560372475	5.38182	2.319875
7.831788229383323	5.3399906	2.310842
7.8493560827536495	5.3187914	2.3062506
7.866924120902174	5.3286576	2.3083885
7.884492344247663	5.3538876	2.3138468
7.9020607532089135	5.3672876	2.3167408
7.919629348204771	5.352789	2.3136096
7.937198129654115	5.384558	2.320465
7.954767097975865	5.4283757	2.3298874
7.972336253588986	5.404581	2.3247755
7.989905596912472	5.3750687	2.3184195
8.007475128365371	5.3791084	2.3192904
8.025044848366756	5.4490213	2.3343139
8.042614757335754	5.5679603	2.3596525
8.060184855691523	5.594193	2.3652046
8.07775514385327	5.681236	2.3835342
8.095325622240228	5.6937633	2.3861609
8.112896291271687	5.7742333	2.4029634
8.130467151366968	5.899837	2.428958
8.148038202945436	5.921298	2.4333718
8.165609446426497	5.907494	2.4305336
8.183180882229594	5.9664135	2.4426243
8.200752510774217	6.007157	2.4509501
8.218324332479893	6.1038175	2.4705906
8.235896347766193	6.055473	2.460787
8.253468557052724	6.02875	2.4553514
8.27104096075914	5.987424	2.4469213
8.288613559305137	5.999884	2.449466
8.306186353110448	6.123779	2.474627
8.32375934259485	6.2595196	2.5019033
8.341332528178162	6.325524	2.5150595
8.358905910280246	6.3637238	2.5226421
8.376479489321003	6.3655324	2.5230007
8.394053265720377	6.301221	2.5102234
8.411627239898356	6.2899346	2.5079741
8.42920141227497	6.307456	2.5114648
8.44677578327029	6.3423824	2.5184088
8.464350353304427	6.3085723	2.511687
8.48192512279754	6.2143598	2.4928617
8.499500092169827	6.162184	2.4823747
8.51707526184153	6.092096	2.4682171
8.534650632232934	6.139649	2.4778316
8.552226203764365	6.100211	2.4698606
8.569801976856192	6.144902	2.4788914
8.587377951928834	6.227818	2.4955597
8.60495412940274	6.328793	2.5157092
8.622530509698416	6.4243584	2.5346317
8.6401070932364	6.5063305	2.550751
8.657683880437283	6.5698123	2.5631645
8.675260871721695	6.7213655	2.5925596
8.692838067510303	6.9336677	2.6331859
8.710415468223834	7.124522	2.6691802
8.727993074283043	7.2570963	2.6938999
8.745570886108737	7.2296205	2.6887953
8.763148904121765	7.253716	2.6932724
8.78072712874302	7.2713494	2.696544
8.798305560393441	7.4656663	2.7323372
8.815884199494006	7.6589994	2.7674897
8.833463046465745	7.8030066	2.7933862
8.851042101729728	7.858369	2.8032782
8.86862136570707	8.133133	2.8518648
8.886200838818924	8.273066	2.8762937
8.903780521486505	8.340329	2.8879628
8.921360414131055	8.453485	2.9074876
8.938940517173874	8.605183	2.933459
8.956520831036297	8.717867	2.9526033
8.97410135613971	9.029837	3.0049686
8.99168209290554	9.131404	3.0218213
9.009263041755265	9.415493	3.0684676
9.026844203110405	9.743021	3.1213813
9.044425577392525	9.994874	3.161467
9.062007165023239	10.119685	3.1811452
9.079588966424197	10.348786	3.216953
9.097170982017108	10.458773	3.2340026
9.11475321222372	11.458476	3.3850372
9.132335657465825	12.402503	3.5217187
9.149918318165264	12.433649	3.526138
9.167501194743924	12.996675	3.6050901
9.18508428762374	12.638051	3.5550036
9.202667597226693	12.690139	3.5623221
9.220251123974803	12.399471	3.5212884
9.237834868290143	12.034356	3.4690568
9.255418830594836	11.753686	3.428365
9.273003011311046	11.248215	3.3538358
9.290587410860985	11.064057	3.3262677
9.308172029666911	10.364411	3.2193806
9.32575686815113	10.089629	3.1764176
9.343341926735997	8.78646	2.9641964
9.360927205843916	8.513553	2.9177992
9.378512705897327	8.285342	2.878427
9.396098427318728	8.075927	2.8418176
9.413684370530664	8.0208645	2.832113
9.431270535955722	7.9234824	2.8148682
9.448856924016539	7.8430033	2.8005362
9.466443535135806	7.7633905	2.786286
9.484030369736251	7.799864	2.7928236
9.501617428240658	7.8810353	2.8073182
9.519204711071852	7.894394	2.8096964
9.536792218652714	7.8774533	2.8066802
9.55437995140617	7.882398	2.807561
9.571967909755191	7.9594727	2.8212538
9.589556094122802	7.9716086	2.8234038
9.60714450493207	7.9759297	2.824169
9.624733142606116	7.9833035	2.825474
9.642322007568108	8.043779	2.8361557
9.659911100241267	8.093255	2.8448646
9.677500421048851	8.10455	2.8468492
9.695089970414175	8.112221	2.848196
9.712679748760609	8.091549	2.844565
9.730269756511557	8.109333	2.8476892
9.747859994090492	8.132529	2.851759
9.765450461920915	8.139012	2.8528955
9.78304116042639	8.222715	2.8675277
9.800632090030527	8.260249	2.874065
9.81822325115699	8.334996	2.8870394
9.835814644229481	8.358995	2.8911927
9.853406269671762	8.365655	2.8923442
9.870998127907646	8.360234	2.891407
9.888590219360985	8.397208	2.8977938
9.906182544455698	8.360979	2.8915358
9.923775103615734	8.34033	2.887963
9.941367897265108	8.296287	2.8803275
9.958960925827878	8.314619	2.8835082
9.97655418972816	8.319419	2.8843403
9.994147689390106	8.303455	2.8815718
10.011741425237934	8.28737	2.8787792
10.029335397695904	8.219475	2.8669627
10.04692960718833	8.240696	2.8706613
10.06452405413958	8.218668	2.866822
10.082118738974064	8.213995	2.8660069
10.099713662116246	8.212077	2.865672
10.117308823990651	8.25626	2.873371
10.134904225021844	8.255843	2.8732984
10.152499865634445	8.223171	2.867607
10.170095746253125	8.202715	2.8640382
10.18769186730261	8.227679	2.8683932
10.205288229207675	8.289109	2.8790812
10.222884832393145	8.321263	2.88466
10.2404816772839	8.21856	2.8668032
10.258078764304868	8.217638	2.8666422
10.275676093881035	8.135366	2.8522563
10.293273666437438	8.145816	2.8540876
10.310871482399158	8.154247	2.8555644
10.32846954219134	8.13353	2.8519344
10.346067846239173	8.158876	2.8563747
10.363666394967908	8.146907	2.8542788
10.38126518880283	8.252237	2.8726707
10.398864228169298	8.319017	2.8842707
10.416463513492713	8.325872	2.8854587
10.434063045198531	8.212012	2.865661
10.451662823712262	8.101532	2.846319
10.469262849459467	8.143102	2.853612
10.486863122865758	8.109257	2.8476756
10.504463644356806	8.189259	2.8616881
10.522064414358338	8.164688	2.8573918
10.539665433296118	8.042566	2.8359418
10.557266701595987	7.958932	2.821158
10.574868219683818	7.821437	2.7966833
10.592469987985552	7.7342615	2.781054
10.610072006927185	7.6017985	2.7571359
10.627674276934751	7.451429	2.7297306
10.64527679843435	7.3244896	2.7063794
10.662879571852143	7.1680856	2.677328
10.680482597614331	7.1121273	2.6668572
10.698085876147173	7.0622444	2.6574883
10.715689407876988	7.0155272	2.648684
10.733293193230146	6.8778596	2.6225674
10.750897232633072	6.7468066	2.5974615
10.76850152651225	6.6697307	2.5825822
10.786106075294207	6.623299	2.5735772
10.803710879405534	6.6071677	2.5704412
10.821315939272877	6.5042825	2.5503495
10.83892125532294	6.4159493	2.5329723
10.856526827982472	6.3172708	2.5134182
10.874132657678285	6.2645245	2.5029032
10.891738744837243	6.2282476	2.4956458
10.909345089886271	6.16774	2.4834936
10.926951693252343	6.1411967	2.4781437
10.944558555362494	6.066823	2.463092
10.96216567664381	5.934086	2.435998
10.979773057523436	5.880061	2.4248838
10.997380698428573	5.83806	2.4162078
11.014988599786477	5.7935357	2.4069765
11.032596762024461	5.7738833	2.4028907
11.050205185569892	5.7412343	2.3960874
11.067813870850198	5.695281	2.386479
11.085422818292859	5.625711	2.3718581
11.10303202832541	5.583111	2.3628607
11.120641501375454	5.483275	2.3416393
11.138251237870636	5.368717	2.3170493
11.155861238238671	5.3360047	2.3099794
11.173471502907317	5.2664	2.2948637
11.191082032304402	5.2057796	2.2816176
11.208692826857805	5.1614895	2.271891
11.226303886995465	5.0877285	2.2555993
11.243915213145371	5.08368	2.2547019
11.261526805735578	4.9945965	2.2348595
11.279138665194196	4.9508643	2.2250538
11.296750791949393	4.871591	2.207168
11.314363186429393	4.8726573	2.2074096
11.331975849062479	4.8244967	2.1964736
11.34958878027699	4.773521	2.1848388
11.36720198050133	4.7168937	2.1718411
11.384815450163948	4.601581	2.1451297
11.402429189693366	4.5639777	2.1363468
11.420043199518153	4.5129275	2.124365
11.437657480066942	63.497143	7.9685097
11.455272031768422	85.16368	9.228417
11.472886855051353	107.5381	10.370058
11.490501950344528	99.12807	9.956308
11.508117318076819	84.478455	9.191216
11.52573295867715	45.86379	6.7722807
11.543348872574514	4.141864	2.035157
11.560965060197946	4.114475	2.0284169
11.57858152197655	4.1354103	2.0335708
11.59619825833949	4.1440635	2.0356972
11.613815269715985	4.0780063	2.0194075
11.631432556535323	38.567905	6.210306
11.649050119226837	83.08975	9.115358
11.666667958219929	93.500374	9.6695595
11.68428607394406	107.747444	10.380147
11.701904466828756	82.534325	9.084841
11.719523137303586	65.370926	8.085229
11.737142085798196	4.6273746	2.1511333
11.754761312742286	3.7931063	1.9475899
11.772380818565619	3.7966928	1.9485104
11.790000603698015	3.7882857	1.9463519
11.80762066856935	3.7487075	1.936158
11.825241013609572	3.680794	1.9185395
11.842861639248683	3.6619518	1.9136227
11.860482545916748	3.6469502	1.909699
11.878103734043883	3.5995934	1.8972595
11.895725204060282	3.558061	1.8862823
11.91334695639619	3.4996982	1.870748
11.930968991481919	3.4809635	1.865734
11.948591309747824	3.4603267	1.8601953
11.966213911624347	3.4436767	1.8557146
11.98383679754198	3.3689919	1.8354814
12.001459967931268	3.3056855	1.8181545
12.019083423222835	3.2625325	1.8062482
12.036707163847352	3.2251494	1.7958701
12.05433119023556	3.1911254	1.7863722
12.071955502818259	3.1944406	1.7872998
12.089580102026313	3.1933227	1.7869871
12.107204988290643	3.169682	1.7803601
12.12483016204224	3.158133	1.7771137
12.142455623712152	3.156369	1.7766173
12.16008137373149	3.188126	1.7855325
12.177707412531431	3.1641512	1.7788061
12.19533374054321	3.1364017	1.770989
12.212960358198126	3.0780587	1.7544397
12.230587265927545	3.0561945	1.7481976
12.248214464162889	3.0826304	1.7557421
12.265841953335649	3.0700004	1.7521417
12.283469733877375	3.05682	1.7483764
12.301097806219685	3.0319738	1.7412564
12.31872617079425	3.0116818	1.7354198
12.336354828032825	2.9668357	1.7224505
12.353983778367205	2.9346292	1.713076
12.371613022229262	2.9022713	1.7036054
12.389242560050928	2.9345312	1.7130474
12.406872392264201	2.9268265	1.7107971
12.424502519301143	2.9055657	1.704572
12.442132941593874	2.8350844	1.6837709
12.459763659574586	2.81553	1.6779541
12.477394673675532	2.8047004	1.674724
12.49502598432903	2.815682	1.6779994
12.51265759196746	2.8192117	1.6790508
12.530289497023267	2.845489	1.6868577
12.547921699928967	2.845978	1.6870027
12.565554201117134	2.844447	1.6865488
12.583187001020404	2.8235936	1.6803552
12.600820100071486	2.8038654	1.6744747
12.618453498703152	2.7976596	1.6726205
12.636087197348235	2.823365	1.6802871
12.65372119643964	2.8509138	1.6884649
12.671355496410326	2.8703377	1.6942071
12.68899009769333	2.9007623	1.7031624
12.706625000721749	2.9269261	1.7108262
12.724260205928752	2.9511647	1.7178954
12.741895713747551	2.953859	1.7186794
12.759531524611454	2.9895854	1.7290418
12.777167638953818	2.9871593	1.72834
12.794804057208072	2.9794946	1.7261213
12.812440779807702	3.0259898	1.7395372
12.830077807186271	3.2498596	1.8027366
12.847715139777405	3.2987804	1.8162545
12.865352778014795	3.4835165	1.8664181
12.882990722332197	3.5341325	1.8799288
12.90062897316344	3.6064851	1.8990748
12.918267530942412	3.6840525	1.9193885
12.935906396103071	3.572739	1.890169
12.953545569079449	3.735412	1.9327214
12.971185050305628	3.6074328	1.8993243
12.988824840215775	3.6251037	1.9039705
13.006464939244115	3.6046107	1.8985813
13.024105347824943	3.4357598	1.8535802
13.041746066392617	3.525587	1.8776547
13.05938709538157	3.3853524	1.8399327
13.077028435226296	3.4356105	1.85354
13.094670086361363	3.2820945	1.8116552
13.112312049221401	3.1970778	1.7880374
13.129954324241112	3.1068711	1.7626319
13.147596911855258	2.9687366	1.7230022
13.165239812498685	2.9401448	1.7146851
13.182883026606293	2.8236995	1.6803867
13.200526554613058	2.762342	1.6620295
13.218170396954017	2.7460418	1.6571186
13.235814554064284	2.7609136	1.6615998
13.253459026379034	2.7768846	1.6663986
13.271103814333523	2.767362	1.663539
13.288748918363058	2.7223475	1.6499538
13.306394338903031	2.6797187	1.6369847
13.32404007638889	2.6416283	1.6253086
13.341686131256164	2.691897	1.6407001
13.359332503940449	2.6989825	1.642858
13.376979194877402	2.7370477	1.6544025
13.394626204502751	2.7903821	1.6704437
13.412273533252307	2.8052487	1.6748877
13.429921181561937	2.8071878	1.6754664
13.447569149867581	2.753843	1.6594707
13.465217438605247	2.7441862	1.6565585
13.482866048211022	2.7408438	1.6555494
13.500514979121052	2.7786834	1.6669383
13.518164231771568	2.7467635	1.6573362
13.535813806598844	2.7275069	1.6515166
13.553463704039254	2.689836	1.640072
13.571113924529229	2.6642828	1.6322631
13.588764468505275	2.7004194	1.6432953
13.606415336403956	2.7197113	1.6491548
13.624066528661917	2.7627096	1.6621401
13.641718045715882	2.8379848	1.684632
13.659369888002635	2.911889	1.7064258
13.67702205595903	2.943495	1.7156616
13.694674550021993	2.9489276	1.7172441
13.712327370628532	3.018102	1.7372686
13.729980518215713	3.0878758	1.7572353
13.747633993220681	3.1686513	1.7800705
13.765287796080647	3.2181785	1.7939283
13.7829419272329	3.318536	1.821685
13.800596387114801	3.367544	1.835087
13.818251176163775	3.3737345	1.8367728
13.835906294817324	3.353695	1.8313097
13.853561743513023	3.4033358	1.8448132
13.871217522688525	3.463075	1.8609339
13.888873632781538	3.5043194	1.8719828
13.906530074229858	3.5342922	1.8799714
13.92418684747135	3.5507538	1.8843445
13.941843952943948	3.539989	1.8814858
13.959501391085665	3.5189083	1.8758754
13.977159162334578	3.432978	1.8528297
13.994817267128846	3.3918104	1.8416868
14.012475705906693	3.319285	1.8218905
14.030134479106424	3.2311966	1.797553
14.047793587166414	3.1588264	1.7773087
14.065453030525108	3.0723367	1.7528082
14.083112809621026	2.9945872	1.7304876
14.100772924892766	2.9477878	1.7169123
14.118433376778997	2.8940141	1.7011802
14.136094165718458	2.8212848	1.6796681
14.153755292149969	2.7279105	1.6516387
14.171416756512416	2.6911302	1.6404665
14.189078559244768	2.622186	1.6193165
14.20674070078606	2.5542748	1.5982099
14.224403181575408	2.4825487	1.5756106
14.242066002051999	2.4280412	1.5582173
14.259729162655093	2.3964179	1.5480368
14.277392663824022	2.3881834	1.5453749
14.295056505998208	2.397165	1.5482781
14.312720689617128	2.400031	1.5492034
14.330385215120348	2.3692162	1.5392258
14.348050082947497	2.3458688	1.5316229
14.3657152935383	2.3360302	1.5284077
14.383380847332528	2.4088736	1.5520546
14.401046744770051	2.4593701	1.5682379
14.418712986290798	2.4561715	1.5672177
14.436379572334793	2.4031026	1.5501944
14.454046503342123	2.3826978	1.543599
14.471713779752946	2.3999474	1.5491763
14.489381402007504	2.436815	1.5610301
14.507049370546113	2.408459	1.551921
14.524717685809168	2.392745	1.5468501
14.542386348237134	2.384029	1.5440301
14.560055358270553	2.3973978	1.5483532
14.577724716350051	2.4317234	1.5593984
14.595394422916325	2.4457502	1.5638895
14.61306447841015	2.462187	1.5691358
14.63073488327237	2.4983096	1.5806042
14.648405637943917	2.5318565	1.5911809
14.6660767428658	2.5162058	1.5862553
14.683748198479094	2.5239966	1.5887091
14.701420005224954	2.516885	1.5864694
14.719092163544628	2.580873	1.6065096
14.73676467387942	2.6371956	1.6239444
14.754437536670727	2.6962185	1.6420166
14.772110752360014	2.7025735	1.6439506
14.78978432138882	2.6594896	1.6307942
14.807458244198777	2.6504395	1.6280171
14.82513252123159	2.6480553	1.6272846
14.842807152929028	2.6854906	1.6387466
14.860482139732962	2.686169	1.6389536
14.87815748208531	2.6773257	1.6362536
14.8958331804281	2.7028828	1.6440446
14.91350923520342	2.6990588	1.6428813
14.931185646853438	2.7004998	1.6433197
14.948862415820408	2.6669686	1.6330856
14.966539542546656	2.6543012	1.6292026
14.98421702747459	2.6453414	1.6264505
15.001894871046696	2.6572394	1.6301041
15.019573073705542	2.651294	1.6282794
15.037251635893766	2.6474316	1.627093
15.054930558054092	2.6561632	1.629774
15.072609840629323	2.689919	1.6400973
15.090289484062351	2.8354242	1.6838717
15.107969488796124	3.1331203	1.7700622
15.125649855273691	3.6097176	1.8999257
15.14333058393817	4.1002426	2.0249057
15.161011675232768	5.1096916	2.2604628
15.17869312960076	6.4624276	2.5421305
15.196374947485506	8.350547	2.8897312
15.214057129330447	11.515831	3.3934984
15.231739675579114	16.376087	4.0467377
15.249422586675102	21.454437	4.6318936
15.267105863062092	24.453192	4.945017
15.284789505183847	24.488941	4.9486303
15.302473513484218	22.115744	4.702738
15.320157888407127	18.478607	4.298675
15.337842630396578	14.348813	3.7879827
15.355527739896656	11.175566	3.3429875
15.37321321735153	8.733349	2.955224
15.39089906320545	6.4284883	2.5354464
15.408585277902748	4.860985	2.2047641
15.42627186188783	3.7759094	1.94317
15.443958815605198	3.2456708	1.8015746
15.461646139499424	2.9310071	1.7120185
15.479333834015168	2.7354167	1.6539096
15.497021899597165	2.6345446	1.623128
15.514710336690234	2.6161702	1.617458
15.53239914573928	2.6204803	1.6187898
15.550088327189297	2.5700996	1.603153
15.567777881485336	2.5481398	1.5962894
15.58546780907256	2.5068123	1.5832916
15.6031581103962	2.5077913	1.5836008
15.620848785901568	2.4852085	1.5764544
15.638539836034063	2.4684644	1.5711347
15.656231261239173	2.4430559	1.5630277
15.673923061962451	2.4619877	1.5690722
15.691615238649552	2.4405208	1.5622166
15.709307791746202	2.412943	1.553365
15.727000721698221	2.4170787	1.5546957
15.744694028951498	2.4293263	1.5586296
15.76238771395202	2.4497027	1.5651526
15.780081777145844	2.421869	1.5562356
15.797776218979125	2.4170277	1.5546793
15.815471039898094	2.4110522	1.5527563
15.833166240349064	2.4100695	1.5524398
15.850861820778437	2.4090283	1.5521045
15.868557781632699	2.395615	1.5477774
15.886254123358412	2.3660643	1.5382017
15.903950846402232	2.363785	1.5374606
15.921647951210897	2.366925	1.5384814
15.939345438231225	2.3760607	1.5414476
15.957043307910133	2.399238	1.5489475
15.974741560694602	2.3927553	1.5468533
15.992440197031714	2.3708358	1.5397519
16.01013921736862	2.3437908	1.5309443
16.02783862215259	2.3446088	1.5312115
16.045538411830933	2.3536963	1.5341761
16.06323858685107	2.3969457	1.5482073
16.080939147660512	2.4159608	1.5543361
16.09864009470684	2.4044354	1.5506243
16.11634142843774	2.3938692	1.5472133
16.134043149300954	2.3843515	1.5441345
16.15174525774433	2.3840528	1.5440378
16.169447754215817	2.3963287	1.548008
16.18715063916342	2.4379206	1.5613842
16.204853913035244	2.4780004	1.5741665
16.222557576279478	2.4955525	1.5797318
16.240261629344403	22.46388	4.739608
16.257966072678386	42.9871	6.5564547
16.275670906729868	38.085453	6.1713414
16.293376131947387	2.494931	1.579535
16.31108174877957	2.5087638	1.5839077
16.328787757675133	2.5581095	1.5994091
16.34649415908287	2.5938687	1.6105492
16.364200953451657	2.625111	1.6202195
16.38190814123048	2.6081097	1.6149644
16.39961572286839	2.6041844	1.6137486
16.41732369881455	2.6467893	1.6268955
16.43503206951817	2.717706	1.6485466
16.45274083542859	2.7648401	1.6627809
16.47044999699522	2.824935	1.6807543
16.488159554667558	2.8850102	1.6985317
16.505869508895184	2.918547	1.7083756
16.523579860127786	2.9325178	1.7124596
16.541290608815117	2.9806306	1.7264503
16.559001755407035	3.0509262	1.74669
16.57671330035348	3.0835502	1.7560041
16.59442524410448	3.121237	1.7667023
16.61213758711015	3.2162433	1.7933887
16.629850329820705	3.3029249	1.8173951
16.647563472686436	3.4274592	1.8513398
16.665277016157724	3.4741564	1.8639089
16.682990960685053	3.4997141	1.8707523
16.70070530671898	3.5053308	1.8722528
16.718420054710155	3.497586	1.8701835
16.736135205109335	3.5174687	1.8754916
16.753850758367335	3.5718446	1.8899324
16.771566714935087	3.7130756	1.9269342
16.789283075263597	3.7737079	1.9426033
16.80699983980398	3.8375528	1.9589673
16.82471700900741	3.895536	1.9737113
16.84243458332518	3.9243925	1.9810079
16.860152563208665	3.9708297	1.9926941
16.87787094910932	4.0483003	2.012039
16.89558974147871	4.1379504	2.0341952
16.913308940768466	4.205826	2.050811
16.931028547430333	4.291438	2.0715787
16.94874856191613	4.385334	2.0941188
16.966468984677785	4.395591	2.0965664
16.98418981616729	4.4427223	2.1077766
17.00191105683676	4.5128527	2.1243477
17.019632707138374	4.586868	2.1416974
17.03735476752442	4.5432186	2.1314828
17.05507723844728	4.5502634	2.1331346
17.072800120359403	4.614456	2.1481285
17.090523413713353	4.6439714	2.1549876
17.108247118961785	4.622283	2.1499496
17.125971236557437	4.5975876	2.1441987
17.143695766953133	4.6507916	2.1565695
17.161420710601806	4.7511477	2.1797128
17.179146067956477	4.773904	2.1849265
17.19687183947025	4.736081	2.176254
17.21459802559634	4.714044	2.171185
17.232324626788028	4.6714993	2.161365
17.25005164349871	4.638033	2.1536093
17.267779076181863	4.6112933	2.1473923
17.285506925291074	4.596757	2.1440048
17.30323519127999	4.5915627	2.1427932
17.320963874602384	4.59778	2.1442435
17.33869297571211	4.526509	2.1275594
17.356422495063114	4.4704065	2.1143336
17.37415243310944	4.481611	2.1169815
17.391882790305218	4.5256767	2.1273637
17.40961356710468	4.5384197	2.1303568
17.42734476396215	4.506105	2.1227589
17.445076381332044	4.493065	2.1196852
17.462808419668868	4.6052685	2.145989
17.48054087942723	4.7857246	2.18763
17.498273761061835	5.0946484	2.2571328
17.51600706502747	5.6339636	2.3735971
17.533740791779024	6.301569	2.5102925
17.551474941771485	7.6692367	2.7693386
17.56920951545993	8.710939	2.95143
17.586944513299528	10.995515	3.3159485
17.60467993574556	12.655912	3.557515
17.622415783253373	14.261562	3.7764485
17.64015205627843	15.579076	3.947034
17.657888755276293	16.66584	4.0823817
17.675625880702604	17.182339	4.1451583
17.69336343301311	17.041811	4.128173
17.71110141266366	16.270859	4.0337152
17.728839820110178	15.409333	3.9254723
17.746578655808705	14.610861	3.8224156
17.764317920215372	13.153632	3.6267936
17.7820576137864	11.588621	3.4042063
17.79979773697811	9.553297	3.0908408
17.81753829024692	7.613792	2.75931
17.835279274049356	5.8864384	2.4261982
17.85302068884201	4.822836	2.1960957
17.870762535081607	4.1732464	2.0428524
17.888504813224934	3.8974729	1.9742018
17.90624752372891	3.7489052	1.936209
17.923990667050536	3.6536853	1.9114616
17.941734243646895	3.555149	1.8855103
17.959478253975185	3.478246	1.8650056
17.9772226984927	3.4529605	1.8582144
17.994967577656833	3.411147	1.8469291
18.01271289192506	3.3813653	1.838849
18.030458641754965	3.3793948	1.838313
18.04820482760425	3.38932	1.8410106
18.06595144993067	3.360801	1.8332487
18.083698509192125	3.3176706	1.8214474
18.101446005846576	3.2693095	1.8081232
18.119193940352105	3.2683687	1.807863
18.136942313166887	3.2501688	1.8028225
18.1546911247492	3.2040477	1.7899854
18.1724403755574	3.1621563	1.7782453
18.19019006604997	3.1567373	1.776721
18.207940196685467	3.197981	1.78829
18.225690767922575	3.1494164	1.7746595
18.243441780220046	3.0767057	1.7540541
18.261193234036764	3.0695167	1.7520037
18.278945129831676	3.1143894	1.7647632
18.29669746806386	3.1193786	1.7661762
18.314450249192483	3.0599236	1.7492638
18.3322034736768	3.019709	1.737731
18.349957141976184	3.0348244	1.7420747
18.3677112545501	3.0505288	1.7465763
18.385465811858108	3.070166	1.7521889
18.403220814359884	3.0750434	1.7535802
18.420976262515172	3.1307454	1.7693913
18.43873215678387	3.1125047	1.7642292
18.456488497625923	3.1477787	1.774198
18.474245285501407	3.2027576	1.7896249
18.492002520870486	3.3001597	1.8166342
18.50976020419343	3.3529472	1.8311055
18.527518335930615	3.6553698	1.9119022
18.545276916542516	4.1803255	2.0445845
18.563035946489688	4.335682	2.08223
18.580795426232832	4.752726	2.1800747
18.598555356232698	4.6989813	2.1677134
18.616315736950185	5.0004315	2.2361646
18.63407656884626	4.653036	2.1570897
18.65183785238201	4.855454	2.2035096
18.669599588018617	4.650673	2.1565418
18.68736177621737	4.6430664	2.1547775
18.705124417439652	4.6380124	2.1536045
18.72288751214696	4.4612746	2.112173
18.740651060800886	4.5680146	2.1372914
18.758415063863115	4.306188	2.0751357
18.77617952179546	4.5085235	2.1233284
18.793944435059814	4.2365317	2.0582836
18.811709804118184	4.232052	2.0571952
18.829475629432675	4.2347136	2.057842
18.8472419114655	4.0850267	2.0211449
18.86500865067897	4.1457763	2.036118
18.88277584753551	3.8461368	1.961157
18.90054350249763	3.8536944	1.9630829
18.918311616027957	3.5161977	1.8751527
18.936080188589226	3.3892934	1.8410034
18.953849220644265	3.0611725	1.7496207
18.971618712656007	2.8711522	1.6944474
18.9893886650875	2.815564	1.6779642
19.007159078401887	7.978086	2.8245506
19.024929953062408	32.874603	5.733638
19.042701289532435	32.805347	5.7275953
19.060473088275405	25.379831	5.03784
19.07824534975489	2.6957548	1.6418754
19.096018074434568	2.666447	1.6329259
19.113791262778197	2.6640253	1.6321843
19.13156491524966	2.6309943	1.622034
19.149339032312945	2.6225812	1.6194385
19.167113614432136	2.5923162	1.6100671
19.184888662071433	2.5871315	1.6084563
19.202664175695123	2.6046844	1.6139034
19.220440155767623	2.6023214	1.6131712
19.238216602753447	2.5996127	1.6123315
19.2559935171172	2.5771239	1.6053423
19.27377089932361	2.5773919	1.6054257
19.291548749837514	2.5762553	1.6050718
19.309327069123835	2.5675337	1.6023526
19.32710585764763	2.531511	1.5910723
19.344885115874032	2.510112	1.5843333
19.362664844268313	2.5132272	1.5853162
19.380445043295822	2.5106635	1.5845073
19.39822571342203	2.519702	1.5873569
19.41600685511252	2.5020397	1.5817837
19.43378846883297	2.5231903	1.5884553
19.451570555049173	2.4920123	1.5786109
19.469353114227037	2.497111	1.580225
19.48713614683254	2.488051	1.5773556
19.50491965333182	2.5023735	1.5818892
19.52270363419109	2.4958446	1.5798242
19.540488089876686	2.4730816	1.5726035
19.55827302085503	2.50025	1.5812179
19.576058427592674	2.4954977	1.5797144
19.593844310556282	2.518099	1.586852
19.611630670212598	2.4991946	1.5808841
19.629417507028506	2.4770184	1.5738546
19.64720482147098	2.4711173	1.5719788
19.6649926140071	2.5112927	1.5847058
19.682780885104084	2.535604	1.592358
19.70056963522921	2.5261662	1.5893918
19.718358864849908	2.4687762	1.571234
19.7361485744337	2.4751532	1.573262
19.753938764448215	2.4792273	1.5745562
19.771729435361202	2.486085	1.5767324
19.789520587640506	2.5143914	1.5856832
19.807312221754092	2.518658	1.587028
19.825104338170043	2.5376425	1.5929979
19.842896937356517	2.5006535	1.5813454
19.860690019781824	2.5069363	1.5833308
19.87848358591436	2.5228522	1.5883489
19.896277636222635	2.551213	1.5972517
19.914072171175278	2.5422823	1.5944536
19.931867191241015	2.4794607	1.5746304
19.94966269688869	2.4822078	1.5755024
19.967458688587264	2.50098	1.5814487
19.985255166805807	2.5174203	1.5866381
20.00305213201348	2.4704072	1.5717529
20.020849584679578	2.4250562	1.5572592
20.038647525273507	2.4292638	1.5586096
20.05644595426477	2.4516585	1.5657773
20.07424487212299	2.4497235	1.5651592
20.092044279317903	2.4395728	1.5619131
20.109844176319353	2.4321816	1.5595453
20.127644563597304	2.3985999	1.5487413
20.145445441621817	2.3702676	1.5395674
20.16324681086307	2.3803656	1.5428433
20.181048671791373	2.3605716	1.5364152
20.198851024877122	2.3826187	1.5435734
20.216653870590836	2.3962078	1.547969
20.234457209403146	2.4363477	1.5608804
20.252261041784802	2.3950243	1.5475866
20.270065368206662	2.3731215	1.540494
20.287870189139685	2.3804069	1.5428567
20.305675505054968	2.4190989	1.5553453
20.323481316423702	2.4130087	1.5533862
20.341287623717207	2.4175375	1.5548432
20.359094427406884	2.4218524	1.5562302
20.376901727964288	2.4317665	1.5594122
20.39470952586107	2.392428	1.5467476
20.41251782156899	2.3484864	1.5324773
20.430326615559935	2.3390694	1.5294017
20.448135908305886	2.3620195	1.5368863
20.465945700278965	2.3750908	1.5411329
20.483755991951384	2.3806665	1.5429409
20.50156678379548	2.3842518	1.5441023
20.519378076283708	2.3578262	1.5355215
20.537189869888635	2.3387272	1.5292897
20.55500216508294	2.3524156	1.5337586
20.572814962339415	2.370497	1.5396419
20.59062826213098	2.3276477	1.525663
20.60844206493066	2.3275328	1.5256253
20.626256371211593	2.3466887	1.5318906
20.644071181447032	2.3686686	1.539048
20.66188649611036	2.3430026	1.530687
20.67970231567506	2.3086338	1.519419
20.697518640614742	2.29092	1.5135785
20.715335471403122	2.3131757	1.5209128
20.73315280851404	2.3358462	1.5283475
20.750970652421447	2.3278708	1.5257362
20.768789003599412	2.3100402	1.5198816
20.786607862522136	2.3077915	1.5191417
20.8044272296639	2.3075068	1.519048
20.82224710549913	2.2801316	1.5100105
20.84006749050237	2.2645993	1.5048586
20.857888385148268	3.8150578	1.9532173
20.8757097899116	45.930775	6.7772245
20.893531705267254	64.771645	8.048083
20.911354131690224	83.78649	9.153496
20.92917706965566	69.04512	8.30934
20.94700051963877	50.133015	7.080467
20.96482448211493	29.44401	5.4262333
20.982648957559622	4.182212	2.0450456
21.00047394644843	2.238057	1.4960136
21.01829944925707	2.2009346	1.4835547
21.036125466461375	2.2038472	1.484536
21.053951998537297	2.2211707	1.4903592
21.071779045960906	2.2284083	1.4927855
21.089606609208378	2.244759	1.498252
21.10743468875603	2.2656305	1.5052011
21.12526328508028	2.2608078	1.5035982
21.143092398657675	2.23705	1.4956771
21.16092202996488	2.2206073	1.4901702
21.17875217947867	2.1879056	1.4791571
21.19658284767596	2.1542614	1.4677402
21.21441403503377	2.1457622	1.4648421
21.232245742029225	2.1491299	1.4659911
21.2500779691396	2.1700566	1.4731112
21.26791071684227	2.181265	1.4769107
21.28574398561475	2.186247	1.4785963
21.30357777593465	2.172292	1.4738697
21.321412088279704	2.1681623	1.4724681
21.339246923127792	2.1476586	1.4654891
21.357082280956888	2.1333196	1.4605888
21.3749181622451	2.1159	1.4546133
21.392754567470647	2.1247141	1.4576399
21.41059149711187	2.1175842	1.4551922
21.42842895164726	2.126499	1.4582521
21.446266931555378	2.1528273	1.4672517
21.464105437314945	2.1501663	1.4663445
21.481944469404798	2.1575744	1.4688684
21.49978402830388	2.1343994	1.4609584
21.51762411449127	2.100886	1.4494433
21.53546472844617	2.1147442	1.454216
21.553305870647876	2.0832539	1.4433482
21.571147541575865	2.0606604	1.4355
21.58898974170967	2.082561	1.4431081
21.60683247152899	2.1128132	1.4535519
21.62467573151363	2.1015236	1.4496633
21.642519522143523	2.0501955	1.4318503
21.660363843898722	2.0506403	1.4320058
21.6782086972594	2.060473	1.4354348
21.696054082705864	2.0638194	1.4366
21.713900000718535	2.0874324	1.4447949
21.73174645177795	2.0693657	1.438529
21.749593436364794	2.080707	1.4424657
21.767440954959845	2.0820353	1.4429259
21.785289008044032	2.0786548	1.4417541
21.803137596098388	2.0489936	1.4314306
21.820986719604086	2.0289366	1.4244075
21.838836379042412	2.036333	1.4270015
21.85668657489478	2.0023584	1.4150472
21.87453730764273	2.0007336	1.4144729
21.892388577767914	2.0074358	1.4168401
21.91024038575213	2.0094008	1.4175334
21.928092732077285	2.022695	1.4222149
21.945945617225426	1.9981573	1.4135619
21.963799041678694	1.9670753	1.4025246
21.981653005919398	31.257418	5.590833
21.999507510429943	78.08947	8.836824
22.01736255569286	73.07076	8.548143
22.035218142190818	4.154401	2.0382347
22.05307427040661	1.9814898	1.407654
22.07093094082315	2.0114012	1.4182388
22.088788153923474	2.022774	1.4222426
22.106645910190746	1.9991624	1.4139174
22.12450421010827	2.0021849	1.4149858
22.142363054159464	1.9854482	1.4090594
22.16022244282787	1.9877397	1.4098722
22.178082376597164	1.9925603	1.4115808
22.195942855951145	1.9989542	1.4138438
22.213803881373742	1.9919848	1.411377
22.231665453349002	1.9797537	1.4070373
22.24952757236111	2.0000196	1.4142205
22.26739023889438	1.948285	1.3958098
22.28525345343323	1.9496362	1.3962938
22.30311721646225	1.9499837	1.3964182
22.320981528466113	1.9676104	1.4027153
22.33884638992964	1.9757168	1.405602
22.356711801337788	1.9769377	1.4060361
22.37457776317561	1.9931949	1.4118055
22.392444275928337	1.9541138	1.3978962
22.410311340081282	1.960585	1.400209
22.428178956119904	1.9695119	1.403393
22.446047124529805	2.0010538	1.4145861
22.46391584579669	1.9780743	1.4064403
22.481785120406414	1.9483013	1.3958156
22.49965494884496	1.9149742	1.3838259
22.51752533159841	1.9028517	1.3794389
22.53539626915302	1.9100093	1.3820308
22.553267761995137	1.9320862	1.3899951
22.571139810611264	1.9089379	1.3816432
22.589012415488025	1.8936543	1.3761011
22.60688557711216	1.9081166	1.381346
22.624759295970566	1.9549879	1.3982089
22.642633572550263	1.9403687	1.3929712
22.660508407338362	1.9154316	1.3839912
22.67838380082217	1.9148983	1.3837985
22.696259753489077	1.9467765	1.3952693
22.714136265826614	1.9807881	1.4074048
22.73201333832246	1.999725	1.4141164
22.74989097146439	1.955004	1.3982146
22.76776916574035	1.9227542	1.3866341
22.785647921638393	1.9010054	1.3787695
22.803527239646712	1.922119	1.3864051
22.82140712025363	1.9221815	1.3864276
22.839287563947593	1.9235969	1.386938
22.85716857121719	1.9163992	1.3843408
22.875050142551135	1.9039466	1.3798357
22.892932278438277	1.8740039	1.3689426
22.910814979367604	1.847833	1.3593502
22.928698245828222	1.8475381	1.3592417
22.946582078309387	1.8519486	1.3608632
22.96446647730047	1.834751	1.3545299
22.98235144329098	1.85754	1.362916
23.000236976770562	1.9115685	1.3825948
23.018123078229	1.8923349	1.3756217
23.03600974815619	1.8838158	1.3725216
23.053896987042194	1.8998159	1.3783381
23.071784795377173	1.9216613	1.38624
23.08967317365145	1.8846713	1.3728334
23.10756212235546	1.8876572	1.3739203
23.125451641979787	1.9195472	1.3854773
23.143341733015134	1.9748372	1.405289
23.161232395952357	1.9453739	1.3947666
23.179123631282426	1.9239506	1.3870654
23.197015439496468	1.8733221	1.3686936
23.214907821085717	1.8810452	1.371512
23.23280077654157	1.8893975	1.3745536
23.250694306355538	1.9081359	1.3813529
23.268588411019277	1.9097842	1.3819494
23.28648309102458	1.9197817	1.3855618
23.304378346863356	1.9649985	1.4017841
23.322274179027676	1.9845477	1.4087398
23.340170588009723	1.9784352	1.4065685
23.358067574301852	1.959304	1.3997514
23.37596513839651	1.9352016	1.3911153
23.39386328078629	1.9271395	1.3882145
23.411762001963947	1.9812545	1.4075704
23.429661302422353	1.9831083	1.4082288
23.4475611826545	1.9468331	1.3952897
23.46546164315356	1.8814739	1.3716683
23.48336268441279	1.9188726	1.3852338
23.501264306925638	1.9349152	1.3910123
23.51916651118564	1.9379137	1.3920897
23.537069297686497	1.9150434	1.3838509
23.554972666922037	1.9187882	1.3852034
23.57287661938623	1.9307381	1.38951
23.59078115557318	1.8942499	1.3763175
23.608686275977128	1.8889747	1.3743998
23.62659198109246	1.9267536	1.3880755
23.6444982714137	1.9418535	1.393504
23.66240514743549	1.9263726	1.3879383
23.68031260965263	1.9048172	1.3801512
23.698220658560068	1.9098496	1.3819731
23.716129294652845	1.9168768	1.3845131
23.7340385184262	1.9384662	1.3922881
23.75194833037546	1.9287231	1.3887848
23.769858730996123	1.9215081	1.3861847
23.78776972078382	1.859228	1.3635352
23.80568130023431	1.8682196	1.3668283
23.823593469843495	1.8769405	1.3700148
23.841506230107424	1.9081842	1.3813704
23.859419581522275	1.8974957	1.3774962
23.87733352458438	1.9306096	1.3894638
23.89524805979019	1.9312981	1.3897115
23.913163187636318	1.9532127	1.3975738
23.931078908619508	1.9426665	1.3937957
23.948995223236633	1.9691797	1.4032747
23.966912131984735	2.0027173	1.4151739
23.98482963536096	2.0933812	1.4468522
24.002747733862616	2.0902028	1.4457533
24.020666427987155	2.0582485	1.4346597
24.038585718232156	2.034023	1.4261918
24.056505605095353	2.070049	1.4387665
24.074426089074617	2.1407015	1.4631137
24.092347170667946	2.1345062	1.460995
24.110268850373515	2.1045005	1.4506897
24.128191128689586	2.0875697	1.4448425
24.146114006114626	2.077041	1.4411943
24.164037483147187	2.0790298	1.4418842
24.181961560286005	2.0779657	1.4415151
24.199886238029926	2.0579894	1.4345694
24.21781151687797	2.0107613	1.4180131
24.235737397329274	2.0057614	1.416249
24.253663879883135	2.0096564	1.4176235
24.271590965038975	2.046855	1.4306834
24.289518653296376	2.0698657	1.4387028
24.30744694515505	2.0861838	1.4443628
24.32537584111486	2.066098	1.4373927
24.34330534167581	2.0381434	1.4276356
24.361235447338046	2.0571704	1.434284
24.379166158601876	2.0507667	1.4320499
24.39709747596772	2.060824	1.435557
24.41502939993615	2.0612924	1.4357202
24.432961931007917	2.022881	1.4222802
24.450895069683856	2.01902	1.4209223
24.468828816465	2.0260432	1.4233915
24.4867631718525	1.9939866	1.4120859
24.504698136347656	1.9532142	1.3975744
24.52263371045192	1.945512	1.3948162
24.540569894666874	1.9707851	1.4038465
24.558506689494266	1.9744705	1.4051585
24.57644409543597	2.0151448	1.4195579
24.594382112994012	2.0524123	1.4326242
24.61232074267057	2.0050564	1.4160001
24.630259984967953	1.9386787	1.3923645
24.64819984038863	1.8916906	1.3753874
24.66614030943522	1.9318023	1.3898929
24.684081392610462	1.9557999	1.3984991
24.702023090417274	1.9767803	1.4059802
24.7199654033587	1.976118	1.4057447
24.737908331937927	1.9909481	1.4110096
24.755851876658305	1.9810647	1.407503
24.773796038023324	1.9886643	1.4102001
24.79174081653661	1.9955943	1.412655
24.809686212701962	2.0761735	1.4408933
24.827632227023294	2.1134953	1.4537866
24.8455788600047	2.1098373	1.4525279
24.8635261121504	2.1093895	1.4523737
24.88147398396475	2.0905857	1.4458858
24.899422475952303	2.0965729	1.4479548
24.917371588617698	2.0546136	1.4333923
24.935321322465768	2.1116781	1.4531615
24.953271678001478	2.2774234	1.5091134
24.97122265572994	2.538914	1.593397
24.989174256156414	2.8380196	1.6846423
25.00712647978632	3.315978	1.8209827
25.02507932712521	3.9335833	1.9833263
25.043032798678798	4.433964	2.1056979
25.060986894952933	5.051493	2.2475526
25.078941616453637	5.686379	2.384613
25.096896963687055	6.6550493	2.5797381
25.114852937159508	7.6824765	2.771728
25.132809537377444	8.16605	2.85763
25.150766764847468	8.206434	2.8646874
25.168724620076347	7.775339	2.7884295
25.186683103570985	6.83707	2.6147792
25.204642215838426	5.664469	2.3800144
25.222601957385894	4.34009	2.0832882
25.24056232872074	3.2543263	1.8039751
25.25852333035048	2.6075783	1.6147997
25.276484962782778	2.25018	1.50006
25.294447226525435	2.1034706	1.4503347
25.312410122086423	2.0282724	1.4241743
25.330373649973843	1.9607683	1.4002744
25.348337810695988	1.9274017	1.3883089
25.366302604761245	1.8913927	1.3752792
25.384268032678207	1.877859	1.37035
25.40223409495558	1.8996055	1.3782618
25.420200792102257	1.8895551	1.3746109
25.438168124627246	1.8925353	1.3756945
25.45613609303974	1.845103	1.3583457
25.474104697849057	1.8361613	1.3550503
25.492073939564698	1.8542429	1.3617059
25.510043818696285	1.9128855	1.3830711
25.528014335753614	1.9165924	1.3844105
25.54598549124664	1.9132442	1.3832008
25.56395728568544	1.9309832	1.3895983
25.58192971958028	1.9133734	1.3832474
25.59990279344156	1.8855975	1.3731706
25.617876507779833	1.8889551	1.3743926
25.635850863105826	1.8658934	1.365977
25.653825859930386	1.8814117	1.3716456
25.671801498764548	1.877186	1.3701043
25.68977778011949	1.8575034	1.3629025
25.707754704506524	1.8030307	1.3427697
25.725732272437153	1.8317537	1.353423
25.743710484423012	1.8502778	1.3602492
25.761689340975888	1.8558967	1.362313
25.77966884260774	1.8081865	1.3446883
25.797648989830662	1.8323455	1.3536415
25.815629783156922	1.8637937	1.3652083
25.83361122309895	1.8330576	1.3539046
25.85159331016929	1.803415	1.3429129
25.869576044880695	1.8080678	1.3446441
25.887559427746034	1.8711532	1.3679011
25.90554345927836	1.8875006	1.3738635
25.92352813999086	1.8718761	1.3681653
25.94151347039689	1.8558718	1.3623039
25.959499451009965	1.8747878	1.369229
25.97748608234374	1.880338	1.3712542
25.995473364912062	1.874965	1.3692936
26.013461299228904	1.883946	1.3725691
26.03144988580839	1.8911179	1.3751793
26.04943912516483	1.8726491	1.3684477
26.067429017812675	1.8554343	1.3621433
26.085419564266537	1.8638223	1.3652188
26.103410765041186	1.9019424	1.3791093
26.12140262065155	1.8832972	1.3723328
26.139395131612723	1.8555739	1.3621945
26.157388298439948	1.8488839	1.3597367
26.17538212164861	1.8752487	1.3693972
26.193376601754295	1.8866446	1.3735518
26.211371739272714	1.857352	1.362847
26.229367534719746	1.8424315	1.357362
26.247363988611433	1.8486232	1.3596408
26.26536110146397	1.8095436	1.3451928
26.283358873793727	1.7842951	1.3357751
26.301357306117204	1.8137257	1.3467463
26.319356398951104	1.8260329	1.3513079
26.33735615281224	1.828744	1.3523107
26.35535656821762	1.8233001	1.3502963
26.373357645684404	1.8209459	1.3494242
26.39135938572991	1.8288149	1.3523368
26.409361788871614	1.8202838	1.3491789
26.427364855627165	1.7783169	1.3335354
26.445368586514352	1.7264874	1.3139586
26.46337298205115	1.7243286	1.3131369
26.48137804275568	1.7969965	1.340521
26.499383769146217	1.8317795	1.3534325
26.517390161741215	1.8104323	1.3455231
26.53539722105928	1.8200018	1.3490745
26.553404947619182	1.8130364	1.3464904
26.571413341939856	1.839093	1.3561317
26.589422404540397	1.8287482	1.3523122
26.60743213594006	1.818454	1.3485006
26.62544253665827	1.7895234	1.3377306
26.64345360721459	1.825148	1.3509804
26.66146534812879	1.8463266	1.358796
26.679477759920758	1.8180159	1.3483382
26.69749084311057	1.8010252	1.3420228
26.71550459821847	1.8327634	1.3537959
26.733519025764842	1.8369093	1.3553263
26.751534126270258	1.8704193	1.3676327
26.769549900255434	1.8683294	1.3668685
26.787566348241267	1.8803064	1.3712426
26.80558347074881	1.8303643	1.3529096
26.823601268299267	1.8112442	1.3458247
26.841619741414036	1.7910751	1.3383106
26.85963889061465	1.8028238	1.3426927
26.877658716422832	1.799967	1.3416286
26.89567921936045	1.84251	1.3573909
26.913700399949544	1.8360115	1.354995
26.93172225871233	1.7916167	1.3385129
26.949744796171174	1.7598736	1.3266023
26.967768012848605	1.7682847	1.3297687
26.98579190926733	1.7707909	1.3307106
27.003816485950225	1.7988422	1.3412092
27.021841743420318	1.8673105	1.3664957
27.039867682200814	1.8562629	1.3624474
27.057894302815072	1.8213744	1.349583
27.07592160578664	1.7977264	1.3407933
27.0939495916392	1.8486084	1.3596354
27.111978260896635	1.8503863	1.360289
27.13000761408296	1.8270063	1.351668
27.148037651722397	1.8484737	1.3595859
27.166068374339304	1.8709795	1.3678375
27.184099782458215	1.8626469	1.3647883
27.20213187660384	1.8066915	1.3441323
27.22016465730105	1.8273658	1.3518009
27.23819812507487	1.8574492	1.3628826
27.256232280450533	1.8221592	1.3498738
27.274267123953383	1.7933857	1.3391736
27.292302656108987	1.794922	1.339747
27.31033887744306	1.8075361	1.3444464
27.32837578848146	1.7994006	1.3414174
27.34641338975026	1.7772588	1.3331387
27.364451681775673	1.8087399	1.344894
27.382490665084074	1.8243935	1.3507011
27.400530340202046	1.852149	1.3609368
27.41857070765629	1.8232486	1.3502772
27.436611767973726	1.8107522	1.345642
27.454653521681404	1.8186264	1.3485646
27.472695969306564	1.8320509	1.3535328
27.490739111376627	1.8082992	1.3447301
27.508782948419153	1.8014507	1.3421813
27.526827480961902	1.8000689	1.3416665
27.54487270953279	1.8311045	1.3531832
27.562918634659898	1.7896056	1.3377614
27.580965256871508	1.8230475	1.3502028
27.599012576696026	1.8236347	1.3504202
27.617060594662068	1.8624082	1.3647008
27.63510931129842	1.8636864	1.365169
27.65315872713401	1.9072673	1.3810385
27.67120884269797	1.8917766	1.3754187
27.68925965851958	1.831762	1.353426
27.707311175128307	1.8007302	1.3419129
27.725363393053787	1.7769368	1.333018
27.74341631282583	1.8097662	1.3452755
27.7614699349744	1.8331043	1.3539218
27.77952426002968	2.0004747	1.4143814
27.797579288521973	2.0917501	1.4462883
27.815635020981784	2.5356357	1.592368
27.83369145793979	2.6179774	1.6180165
27.85174859992682	2.4635737	1.5695776
27.869806447473923	2.2928154	1.5142045
27.887865001112267	1.9960912	1.412831
27.905924261373233	1.9011376	1.3788174
27.92398422878836	1.8961728	1.377016
27.94204490388936	1.8648502	1.3655952
27.96010628720813	1.8763635	1.3698041
27.978168379276728	1.8929927	1.3758607
27.9962311806274	1.9207647	1.3859166
28.014294691792568	1.9364605	1.3915676
28.0323589133048	1.8933562	1.3759928
28.050423845696887	1.8452985	1.3584176
28.068489489501758	1.8271407	1.3517177
28.086555845252523	1.8510208	1.3605223
28.104622913482487	1.8424002	1.3573505
28.122690694725115	1.793532	1.3392282
28.14075918951405	1.8158903	1.3475498
28.15882839838312	1.8433375	1.3576957
28.176898321866304	1.8719037	1.3681753
28.1949689604978	1.9166749	1.3844403
28.213040314811945	1.9292742	1.3889831
28.23111238534327	1.9158077	1.384127
28.249185172626493	1.8808893	1.3714552
28.267258677196473	1.8396575	1.3563398
28.285332899588294	1.8900361	1.3747858
28.303407840337172	1.942586	1.3937668
28.321483499978545	1.9112078	1.3824644
28.33955987904799	1.9021217	1.3791742
28.357636978081285	1.9043319	1.3799753
28.37571479761439	1.9004686	1.3785748
28.393793338183425	1.9825455	1.408029
28.41187260032469	1.9856576	1.4091337
28.429952584574686	1.9615852	1.400566
28.448033291470065	1.9661441	1.4021926
28.46611472154769	1.973407	1.40478
28.484196875344566	2.0021756	1.4149826
28.502279753397914	1.9841406	1.4085953
28.52036335624511	1.941368	1.3933299
28.538447684423716	1.9830233	1.4081986
28.556532738471482	1.9952189	1.4125222
28.574618518926325	1.9907336	1.4109336
28.59270502632635	1.9867738	1.4095297
28.61079226120985	1.9783348	1.4065329
28.628880224115274	2.0016086	1.4147822
28.646968915581287	2.06454	1.4368507
28.66505833614671	2.1232853	1.4571497
28.68314848635055	2.1331642	1.4605355
28.701239366732004	2.132696	1.4603753
28.71933097783044	2.145095	1.4646143
28.737423320185403	2.1205328	1.4562049
28.75551639433665	2.1741834	1.4745113
28.773610200824074	2.172347	1.4738884
28.791704740187793	2.165313	1.4715003
28.80980001296809	2.123675	1.4572835
28.827896019705413	2.151245	1.4667124
28.845992760940433	2.1441371	1.4642873
28.86409023721397	2.1691737	1.4728115
28.88218844906704	2.1541088	1.4676882
28.900287397040845	2.1938255	1.4811568
28.918387081676755	2.263914	1.5046309
28.936487503516343	2.3368654	1.5286809
28.954588663101365	2.301966	1.5172231
28.97269056097374	2.2850266	1.5116304
28.990793197675597	2.3713686	1.5399249
29.00889657374923	2.41637	1.5544677
29.027000689737125	2.3889787	1.5456321
29.04510554618196	2.3670816	1.5385323
29.06321114362659	2.370671	1.5396984
29.08131748261405	2.401968	1.5498284
29.099424563687567	2.4581704	1.5678554
29.11753238739057	2.4869719	1.5770136
29.13564095426663	2.5137196	1.5854714
29.15375026485954	2.5275726	1.5898341
29.171860319713275	2.5626981	1.600843
29.18997111937199	2.6146998	1.6170033
29.20808266438002	2.6621943	1.6316231
29.226194955281898	2.6962419	1.6420237
29.244307992622335	2.7202244	1.6493102
29.26242177694624	2.7519295	1.6588941
29.2805363087987	2.8411226	1.685563
29.29865158872498	2.8786569	1.6966605
29.316767617270557	2.923729	1.7098916
29.334884394981064	2.933853	1.7128494
29.353001922402367	2.9691706	1.7231281
29.37112020008047	3.0054042	1.7336102
29.389239228561596	3.1087291	1.7631588
29.407359008392152	3.329607	1.8247211
29.42547954011872	3.645743	1.9093828
29.44360082428809	4.2699933	2.0663962
29.46172286144722	5.442856	2.3329928
29.479845652143283	7.181807	2.6798894
29.497969196923606	9.281701	3.0465884
29.516093496335728	11.705529	3.4213345
29.5342185509274	14.437973	3.7997334
29.55234436124651	16.84669	4.1044717
29.570470927841175	18.022543	4.2452965
29.588598251259686	17.649073	4.20108
29.60672633205055	16.287968	4.0358353
29.624855170762405	14.099605	3.754944
29.642984767944146	11.408534	3.3776522
29.66111512414481	8.77991	2.9630914
29.67924623991366	6.5573816	2.5607386
29.697378115800138	5.0655594	2.2506797
29.71551075235387	4.209469	2.051699
29.733644150124675	3.7995024	1.9492313
29.751778309662576	3.5258462	1.8777237
29.769913231517766	3.3796027	1.8383696
29.78804891624066	3.370427	1.8358723
29.806185364381818	3.466132	1.861755
29.82432257649206	3.4235404	1.8502811
29.842460553122333	3.3757348	1.8373172
29.86059929482382	3.3589592	1.8327464
29.878738802147872	3.3060126	1.8182443
29.896879075646048	3.3349311	1.8261794
29.915020115870114	3.413645	1.8476052
29.933161923371976	3.3736448	1.8367485
29.951304498703777	3.2717924	1.8088096
29.969447842417857	3.2038138	1.7899201
29.987591955066733	3.2492845	1.8025771
30.005736837203123	3.3244998	1.8233211
30.023882489379943	3.2259505	1.7960931
30.04202891215028	3.0847692	1.7563511
30.060176106067455	3.0650222	1.7507205
30.078324071684946	3.1114662	1.7639349
30.09647280955646	3.1520457	1.7754002
30.114622320235863	3.1830063	1.7840981
30.132772604277257	3.1394289	1.7718433
30.1509236622349	3.0593665	1.7491045
30.16907549466328	3.0203924	1.7379277
30.18722810211705	3.0715528	1.7525846
30.205381485151097	3.070514	1.7522882
30.22353564432045	3.0022092	1.7326884
30.241690580180403	2.996285	1.730978
30.25984629328638	3.0509253	1.7466898
30.278002784194037	3.013526	1.7359511
30.296160053459246	2.9831402	1.7271769
30.314318101638033	2.9344223	1.7130156
30.332476929286646	2.9046862	1.704314
30.35063653696153	2.958967	1.7201648
30.368796925219307	3.0396192	1.7434504
30.386958094616844	3.005289	1.733577
30.40512004571115	2.9464192	1.7165136
30.423282779059463	2.8855903	1.6987026
30.441446295219233	2.8341184	1.683484
30.459610594748067	2.825236	1.6808438
30.47777567820382	2.8379784	1.68463
30.495941546144504	2.8089237	1.6759844
30.51410819912835	2.8115494	1.6767676
30.532275637713795	2.8493412	1.6879991
30.55044386245946	2.9190001	1.7085081
30.56861287392416	2.8604121	1.6912752
30.586782672666956	2.793732	1.6714461
30.604953259247047	2.7341774	1.6535348
30.623124634223885	2.6928303	1.6409845
30.641296798157075	2.6886637	1.6397145
30.659469751606462	2.7519066	1.6588871
30.677643495132074	2.7482367	1.6577806
30.695818029294152	2.7355413	1.6539472
30.713993354653116	2.7201095	1.6492754
30.73216947176962	2.7175567	1.6485014
30.75034638120448	2.740735	1.6555165
30.768524083518756	2.7884054	1.6698519
30.786702579273673	2.8059895	1.6751088
30.80488186903069	2.83875	1.684859
30.82306195335144	2.9062102	1.704761
30.841242832797782	3.0703208	1.7522331
30.85942450793176	3.330058	1.8248447
30.877606979315637	3.624313	1.9037629
30.895790247511883	4.0463886	2.0115638
30.913974313083134	4.5414166	2.13106
30.932159176592283	4.7579913	2.181282
30.95034483860237	4.679072	2.1631162
30.968531299676698	4.524289	2.1270375
30.98671856037873	4.332511	2.0814683
31.00490662127215	3.9964745	1.9991184
31.023095482920848	3.4788861	1.8651773
31.04128514588892	3.015004	1.7363766
31.059475610740662	2.6550958	1.6294465
31.07766687804056	2.4725726	1.5724416
31.09585894835335	2.3624673	1.537032
31.11405182224393	2.3906586	1.5461755
31.132245500277417	2.4475772	1.5644735
31.15043998301914	2.5176172	1.5867001
31.168635271034628	2.5564802	1.5988997
31.18683136488964	2.5157077	1.5860983
31.20502826515008	2.5303323	1.5907018
31.223225972382135	2.4901798	1.5780303
31.241424487152155	2.4740376	1.5729073
31.259623810026692	2.405256	1.5508888
31.27782394157253	2.3793151	1.5425029
31.296024882356644	2.3888092	1.5455773
31.314226632946237	2.3503385	1.5330814
31.332429193908684	2.3606718	1.5364478
31.350632565811598	2.4698508	1.5715759
31.368836749222787	2.5350714	1.5921907
31.387041744710295	2.5528705	1.5977705
31.40524755284232	2.5928814	1.6102427
31.423454174187317	2.5819254	1.606837
31.441661609313922	2.5446188	1.5951861
31.459869858791002	2.4546654	1.5667372
31.478078923187628	2.3598964	1.5361954
31.496288803073064	2.2899978	1.5132738
31.514499499016807	2.3146422	1.5213948
31.532711011588546	2.3170607	1.5221895
31.550923341358178	2.2874608	1.5124354
31.56913648889584	2.2389235	1.4963033
31.587350454771844	2.1959183	1.4818631
31.605565239556732	2.320196	1.523219
31.62378084382127	2.3714974	1.5399667
31.641997268136382	2.386673	1.5448861
31.660214513073274	2.4014106	1.5496485
31.67843257920331	2.3653653	1.5379744
31.6966514670981	2.2965078	1.5154233
31.71487117732944	2.3486505	1.5325308
31.733091710469346	2.3902783	1.5460525
31.751313067090052	2.4544032	1.5666535
31.769535247764008	2.4388685	1.5616877
31.787758253063878	2.3544478	1.534421
31.805982083562526	2.313075	1.5208797
31.824206739833024	2.362467	1.5370319
31.84243222244869	2.35856	1.5357604
31.860658531983013	2.3071756	1.518939
31.878885669009737	2.2514875	1.5004958
31.897113634102784	2.281793	1.5105605
31.91534242783632	2.2882009	1.51268
31.933572050784694	2.2510066	1.5003355
31.951802503522508	2.197442	1.4823772
31.970033786624548	2.1645553	1.4712428
31.988265900665834	2.1618347	1.4703178
32.006498846221575	2.1873753	1.4789778
32.02473262386724	2.208562	1.4861231
32.04296723417845	2.1942592	1.4813032
32.0612026777311	2.1651702	1.4714518
32.07943895510129	2.2088633	1.4862245
32.097676066865304	2.2420845	1.4973592
32.115914013599685	2.23016	1.493372
32.13415279588115	2.176098	1.4751604
32.152392414286666	2.1622148	1.4704472
32.1706328693934	2.1607478	1.4699482
32.18887416177875	2.1342905	1.460921
32.20711629202032	2.0390656	1.4279585
32.225359260695924	1.9489309	1.3960412
32.243603068383614	1.9693024	1.4033184
32.26184771566166	2.0175185	1.4203938
32.28009320310852	2.1130843	1.4536452
32.2983395313029	2.1260538	1.4580994
32.31658670082372	2.106881	1.4515098
32.33483471225012	2.1105723	1.4527808
32.35308356616143	2.1673083	1.4721781
32.371333263137245	2.194179	1.4812762
32.38958380375734	2.1027963	1.4501022
32.407835188601744	2.0641656	1.4367204
32.42608741825067	2.1004293	1.4492857
32.444340493284585	2.0925486	1.4465644
32.46259441428416	2.0782485	1.4416132
32.48084918183028	2.086641	1.4445211
32.49910479650405	2.1535416	1.467495
32.51736125888683	2.1972365	1.4823078
32.53561856956014	2.1371303	1.4618927
32.5538767291058	2.058411	1.4347163
32.572135738105764	2.0653336	1.4371269
32.59039559714228	2.1185908	1.455538
32.608656306797776	2.1557353	1.4682423
32.62691786765491	2.1605136	1.4698685
32.645180280296586	2.1206775	1.4562546
32.663443545305896	2.0663974	1.4374969
32.68170766326619	2.024005	1.4226753
32.69997263476099	2.0116472	1.4183255
32.7182384603741	2.0461197	1.4304264
32.7365051406895	1.9989111	1.4138285
32.75477267629144	1.9506093	1.3966422
32.77304106776434	1.9488965	1.3960289
32.79131031569289	1.9579241	1.3992584
32.809580420661966	2.0082848	1.4171396
32.827851383256714	2.0445058	1.4298621
32.84612320406245	2.0741284	1.4401834
32.86439588366476	2.0467749	1.4306554
32.88266942264945	2.0133636	1.4189304
32.9009438216025	1.9831834	1.4082555
32.9192190811102	2.00004	1.4142277
32.937495201758985	1.9986546	1.4137378
32.95577218413556	1.9683559	1.402981
32.974050028826866	1.9966722	1.4130365
32.992328736420035	1.9596981	1.3998922
33.010608307502444	1.9207973	1.3859284
33.02888874266169	1.9543883	1.3979944
33.047170042485604	2.0524585	1.4326404
33.06545220756225	2.028433	1.4242307
33.083735238479896	1.9745528	1.4051878
33.10201913582707	1.9340861	1.3907143
33.12030390019248	1.9917679	1.4113001
33.138589532165135	2.0714507	1.4392536
33.15687603233419	2.112912	1.4535859
33.17516340128909	2.2252088	1.4917134
33.19345163961947	2.215832	1.4885671
33.211740747915215	2.1117826	1.4531974
33.23003072676643	1.9949046	1.412411
33.248321576763466	1.9593608	1.3997717
33.266613298496885	1.8715885	1.3680601
33.28490589255747	1.9076782	1.3811872
33.30319935953626	1.9554757	1.3983833
33.32149370002451	1.9626653	1.4009516
33.339788914613706	1.9216443	1.3862338
33.358085003895575	1.9630598	1.4010924
33.376381968462034	1.9465815	1.3951994
33.39467980890529	1.891672	1.3753806
33.41297852581774	1.8926798	1.375747
33.43127811979204	2.0372996	1.42734
33.44957859142105	2.111653	1.4531528
33.467879941297866	2.0795739	1.4420727
33.486182170015844	1.9776624	1.4062939
33.50448527816853	2.0286345	1.4243014
33.522789266349754	2.0386221	1.4278033
33.541094135153514	2.0067878	1.4166113
33.55939988517411	1.912316	1.3828651
33.57770651700602	1.8528198	1.3611833
33.59601403124398	1.8941236	1.3762716
33.61432242848296	1.8488996	1.3597425
33.632631709318154	1.826619	1.3515247
33.650941874344994	1.8751297	1.3693538
33.66925292415916	1.9544854	1.3980291
33.68756485935654	2.016709	1.4201088
33.70587768053328	2.0981646	1.4485042
33.724191388285746	2.0421987	1.4290552
33.74250598321054	1.9672006	1.4025693
33.760821465904506	1.8734672	1.3687466
33.77913783696474	1.8728613	1.3685253
33.79745509698852	1.9088697	1.3816185
33.815773246573414	1.922212	1.3864386
33.8340922863172	1.9104838	1.3822025
33.852412216817896	1.872096	1.3682456
33.87073303867377	1.8296422	1.3526427
33.889054752483304	1.9386389	1.3923502
33.907377358845245	1.9555131	1.3983966
33.92570085835853	1.9644462	1.401587
33.94402525162239	2.0369263	1.4272093
33.96235053923627	2.0680025	1.438055
33.980676721799824	2.0694075	1.4385436
33.999003799912984	2.081889	1.4428753
34.01733177417592	2.021748	1.4218819
34.03566064518901	1.956807	1.3988591
34.0539904135529	1.8775456	1.3702356
34.07232107986846	1.8323578	1.3536462
34.090652644736785	1.8882952	1.3741525
34.108985108759235	1.9885254	1.4101509
34.12731847253742	1.9967208	1.4130538
34.14565273667313	1.9200941	1.3856746
34.16398790176847	1.821618	1.3496733
34.18232396842574	1.8451196	1.3583518
34.20066093724749	1.8964192	1.3771054
34.21899880883651	1.8818439	1.3718032
34.23733758379583	1.8810468	1.3715125
34.25567726272874	1.8911251	1.3751818
34.27401784623872	1.911709	1.3826456
34.29235933492957	1.917605	1.3847761
34.31070172940526	2.0336585	1.426064
34.32904503027003	2.0663757	1.4374894
34.347389238128386	1.9614643	1.4005228
34.36573435358502	1.8021718	1.3424499
34.38408037724492	1.8998384	1.3783463
34.402427309713296	2.0145996	1.4193659
34.42077515159559	2.1255946	1.4579419
34.43912390349752	2.0523973	1.432619
34.45747356602499	1.9935299	1.4119242
34.47582413978423	1.9057481	1.3804884
34.49417562538163	1.9215415	1.3861967
34.51252802342388	1.9649701	1.4017739
34.53088133451789	1.9798415	1.4070684
34.54923555927084	1.9741052	1.4050286
34.567590698290104	2.073085	1.4398212
34.58594675218336	2.1146328	1.4541777
34.6043037215585	1.9892707	1.410415
34.62266160702365	1.960741	1.4002646
34.641020409187234	2.0005672	1.414414
34.65938012865785	1.9654567	1.4019475
34.677740766044394	1.9896127	1.4105363
34.69610232195598	1.9674598	1.4026617
34.714464797002016	1.968781	1.4031326
34.73282819179208	1.9758936	1.4056648
34.751192506936064	1.8791033	1.3708038
34.76955774304408	1.9243399	1.3872058
34.7879239007265	1.9787632	1.4066852
34.80629098059391	2.029004	1.4244312
34.824658983257194	2.0973485	1.4482225
34.843027909327446	1.9838563	1.4084944
34.86139775941603	1.9126369	1.3829812
34.879768534134534	1.8640872	1.3653158
34.89814023409483	2.0052662	1.4160743
34.91651285990901	2.1139612	1.4539468
34.93488641218944	2.053779	1.4331012
34.95326089154871	1.8323358	1.353638
34.97163629859967	1.8070401	1.3442619
34.99001263395542	1.8301378	1.3528259
35.00838989822934	1.8577203	1.3629822
35.02676809203499	1.9347113	1.390939
35.04514721598624	1.8850338	1.3729653
35.063527270697215	1.7970899	1.3405558
35.081908256782256	1.9189336	1.3852558
35.10029017485597	2.16448	1.4712172
35.11867302553321	2.129705	1.4593508
35.137056809429104	2.052732	1.4327358
35.155441527159006	2.054652	1.4334058
35.173827179338524	1.8923391	1.3756232
35.19221376658354	2.078314	1.4416358
35.21060128951017	2.373155	1.5405048
35.2289897487348	2.161964	1.4703618
35.24737914487405	2.0277994	1.4240083
35.26576947854479	2.1133647	1.4537417
35.28416075036418	1.8872912	1.3737872
35.30255296094958	1.5604671	1.2491866
35.32094611091867	1.6205286	1.2729999
35.33934020088932	1.8588319	1.3633898
35.35773523147969	1.9561933	1.3986398
35.3761312033082	2.0220866	1.4220009
35.394528116993506	1.9809046	1.4074461
35.41292597315452	1.8751328	1.3693548
35.431324772410434	1.7420841	1.3198804
35.449724515380666	1.8614517	1.3643503
35.46812520268491	1.9843724	1.4086776
35.486526834943106	1.7491617	1.3225588
35.504929412775454	1.5244147	1.2346718
35.52333293680242	1.7046925	1.3056387
35.54173740764471	1.6936996	1.3014221
35.560142825923286	1.954662	1.3980923
35.5785491922594	2.0872614	1.4447358
35.59695650727454	2.204627	1.4847987
35.61536477159042	2.1756063	1.4749936
