0.008763373481513119	0.051685803	0.22734512
0.026290120649546365	0.18429624	0.4292974
0.043816868432600686	0.12367553	0.35167533
0.06134361724069026	0.08536854	0.29217896
0.07887036748382949	0.046007264	0.21449304
0.0963971195720331	0.052981555	0.23017722
0.11392387391531617	0.07423741	0.27246544
0.1314506309236943	0.09941357	0.31529918
0.1489773910071836	0.13124965	0.36228395
0.16650415457580078	0.12596042	0.35490903
0.18403092203956356	0.14336038	0.3786296
0.20155769380849	0.1549171	0.3935951
0.2190844702925996	0.20645733	0.45437577
0.2366112519019124	0.21603756	0.4647984
0.2541380390464497	0.12188985	0.34912726
0.27166483213623416	0.111866735	0.33446485
0.28919163158128947	0.06549117	0.25591242
0.3067184377916406	0.08037478	0.28350446
0.324245251177314	0.1631052	0.40386286
0.34177207214833777	0.19156264	0.4376787
0.3592989011147415	0.17165074	0.41430753
0.37682573848655654	0.15155691	0.38930312
0.39435258467381573	0.1551933	0.3939458
0.41187944008655414	0.21763955	0.46651855
0.42940630513480854	0.18302585	0.4278152
0.446933180228618	0.14228363	0.377205
0.4644600657780234	0.095070854	0.30833563
0.48198696219306775	0.11687345	0.3418676
0.49951386988379676	0.113103494	0.33630863
0.5170407892602581	0.15597662	0.39493877
0.5345677207325025	0.13218418	0.3635714
0.5520946647105822	0.13742524	0.37070912
0.5696216216045534	0.1471984	0.38366443
0.5871485918244737	0.1629982	0.40373036
0.6046755757804043	0.15793476	0.39741006
0.6222025738824094	0.10860845	0.32955796
0.6397295865405557	0.10173547	0.31895998
0.6572566141649129	0.11682182	0.34179208
0.6747836571655547	0.15616351	0.3951753
0.6923107159525568	0.17805368	0.42196408
0.7098377909359992	0.17639607	0.41999534
0.7273648825259653	0.19802555	0.44500062
0.7448919911325411	0.19302896	0.4393506
0.762419117165817	0.24297743	0.4929274
0.7799462610358868	0.26183677	0.51169986
0.7974734231528482	0.24863362	0.49863175
0.8150006039268024	0.22474788	0.47407582
0.8325278037678551	0.1623803	0.40296438
0.8500550230861152	0.13631934	0.36921448
0.8675822622916969	0.13115272	0.36215013
0.8851095217947171	0.13728036	0.37051365
0.9026368020052984	0.1731322	0.41609156
0.9201641033335665	0.1862736	0.43159425
0.9376914261896523	0.19161573	0.43773934
0.9552187709836915	0.18683654	0.43224594
0.9727461381258234	0.18621145	0.43152225
0.990273528026193	0.2179913	0.4668954
1.0078009410949496	0.22702263	0.47646892
1.0253283777422473	0.28722188	0.5359309
1.0428558383782454	0.3154453	0.56164515
1.0603833234131086	0.33385178	0.5777991
1.0779108332570058	0.3179691	0.5638875
1.0954383683201119	0.28762776	0.53630936
1.112965929012607	0.3733752	0.61104435
1.1304935157446763	0.49774602	0.70551115
1.1480211289265108	0.5537635	0.7441529
1.1655487689683062	1.273821	1.1286368
1.1830764362802655	1.4902554	1.2207601
1.200604131272596	1.8765746	1.3698813
1.2181318543555117	2.220113	1.4900044
1.235659605939232	2.2703729	1.5067756
1.253187386433982	3.9996114	1.9999028
1.270715196249994	6.4895616	2.5474617
1.2882430357975057	11.768106	3.4304674
1.3057709054867608	16.432352	4.0536838
1.3232988057280106	21.966938	4.68689
1.3408267369315112	26.702648	5.1674604
1.358354699507526	30.380686	5.5118675
1.3758826938663256	34.60362	5.882484
1.3934107204181858	36.479473	6.039824
1.410938779573391	36.91356	6.075653
1.4284668717422309	37.32121	6.109109
1.4459949973350033	37.027023	6.0849833
1.4635231567620117	37.081093	6.0894246
1.4810513504335687	36.491615	6.040829
1.4985795787599925	35.85162	5.9876223
1.5161078421516088	35.330803	5.943972
1.5336361410187505	34.309467	5.8574286
1.5511644757717598	34.052906	5.835487
1.5686928468209842	34.69793	5.890495
1.58622125457678	35.497883	5.95801
1.6037496994495108	36.4799	6.0398593
1.621278181849548	36.48162	6.040002
1.6388067021872719	37.08884	6.0900607
1.6563352608730693	36.674824	6.055974
1.673863858317336	35.651028	5.970848
1.6913924949304753	34.878082	5.905767
1.7089211711228998	33.70961	5.805998
1.7264498873050296	32.72746	5.720792
1.7439786438872935	31.52352	5.614581
1.7615074412801288	30.650381	5.5362787
1.779036279893981	30.288916	5.5035367
1.796565160139305	29.622406	5.442647
1.814094082426564	28.815445	5.368002
1.8316230471662298	27.999159	5.2914233
1.849152054768784	27.262035	5.221306
1.8666811056447168	27.039314	5.199934
1.8842102002045273	26.553127	5.1529727
1.901739338858724	26.111212	5.109913
1.9192685220178245	25.770956	5.0765104
1.9367977500923557	24.843307	4.9843063
1.9543270234928547	24.190704	4.9184046
1.971856342629867	23.128628	4.809223
1.9893857079139496	22.717133	4.766249
2.006915119755667	22.450075	4.738151
2.0244445785655945	21.848549	4.674243
2.0419740847543175	21.386852	4.6245923
2.0595036387324317	20.939882	4.5760117
2.0770332409105414	20.479668	4.525447
2.094562891699263	20.176178	4.4917903
2.1120925915092217	19.570007	4.4238
2.129622340751053	19.27545	4.3903813
2.1471521398354043	187.547	13.69478
2.1646819891729323	443.9278	21.069593
2.182211889174303	440.23288	20.981728
2.1997418402501974	452.58942	21.274149
2.2172718428113023	432.55005	20.797838
2.234801897268317	320.3819	17.899216
2.2523320040319548	16.654991	4.081053
2.269862163512935	16.206743	4.02576
2.287392376121992	16.11718	4.014621
2.304922642269869	15.967792	3.995972
2.322452962367322	15.643407	3.9551747
2.3399833368251164	15.242226	3.9041293
2.357513766054032	15.181552	3.896351
2.3750442504648586	15.050754	3.8795302
2.3925747904683963	14.717018	3.8362765
2.410105386475459	14.281823	3.77913
2.4276360388968707	13.748908	3.707952
2.445166748143469	13.449132	3.6673057
2.4626975146261025	13.215111	3.6352594
2.4802283387556323	13.038555	3.610894
2.4977592209429305	12.893556	3.5907598
2.5152901615988825	12.660152	3.5581107
2.5328211611343865	12.457359	3.5294983
2.5503522199603523	12.15613	3.4865642
2.5678833384877024	11.853933	3.442954
2.5854145171273712	11.7084055	3.4217548
2.6029457562903064	11.548667	3.398333
2.620477056387469	11.411741	3.3781269
2.6380084178298326	11.339814	3.367464
2.655539841028383	11.239272	3.3525023
2.673071326394119	11.09915	3.3315387
2.6906028743380523	10.916966	3.3040833
2.708134485271211	10.833354	3.2914062
2.7256661596046325	10.756319	3.2796829
2.743197897749369	10.56058	3.2497046
2.760729700116486	10.367694	3.2198904
2.778261567117063	10.067459	3.172926
2.795793499162193	9.861666	3.140329
2.8133254966629817	9.70208	3.1148162
2.830857560030551	9.500738	3.0823267
2.8483896896760337	9.531834	3.0873668
2.865921886010578	9.5263815	3.0864837
2.883454149445347	9.415563	3.0684788
2.9009864803915177	9.121613	3.0202007
2.91851887926028	8.969123	2.9948494
2.9360513464628384	8.969998	2.9949956
2.953583882410413	8.876155	2.9792876
2.9711164875142373	8.709212	2.9511375
2.9886491621855606	8.418909	2.9015357
3.0061819068356455	8.338834	2.887704
3.023714721875769	8.317207	2.883957
3.041247607717225	8.239643	2.870478
3.0587805647713213	8.096939	2.8455122
3.0763135934493806	7.979212	2.82475
3.0938466941627407	7.8762183	2.8064601
3.1113798673227544	7.834453	2.7990093
3.1289131133407904	7.795548	2.7920508
3.1464464326282315	7.738218	2.7817652
3.1639798255964786	7.579416	2.753074
3.1815132926569443	7.37749	2.7161536
3.1990468342210603	7.2841024	2.6989076
3.216580450700272	7.3101406	2.7037272
3.2341141425060416	7.2880216	2.6996336
3.251647910049847	7.192285	2.6818435
3.2691817537431813	7.0476894	2.6547484
3.286715673997555	7.0170536	2.6489723
3.3042496712244938	6.918589	2.630321
3.32178374583554	6.874412	2.62191
3.339317898242251	6.816378	2.6108193
3.3568521288562034	6.647158	2.5782082
3.3743864380889876	6.5922823	2.567544
3.3919208263522127	6.6053367	2.570085
3.4094552940575023	6.579633	2.5650797
3.4269898416164972	6.5193834	2.5533082
3.444524469440858	6.3945684	2.5287485
3.4620591779422587	6.2568674	2.501373
3.479593967532391	6.1478457	2.479485
3.4971288386229658	6.1238422	2.47464
3.5146637916257086	6.21284	2.492557
3.5321988269523628	6.2037086	2.4907246
3.5497339450146903	6.1380305	2.477505
3.5672691462244708	6.101806	2.4701834
3.5848044309934988	5.94932	2.4391227
3.60233979973359	5.9546876	2.4402227
3.619875252856575	5.983408	2.4461005
3.6374107907743034	6.038148	2.4572644
3.6549464138986427	6.0791407	2.4655914
3.6724821226414788	6.124853	2.474844
3.690017917414714	6.153695	2.4806643
3.7075537986302702	6.213664	2.4927223
3.7250897667000857	6.2008643	2.4901536
3.7426258220361235	6.241858	2.4983711
3.7601619650503553	6.456546	2.5409734
3.777698196154779	7.0851226	2.6617894
3.7952345157614067	8.202646	2.8640263
3.8127709242822716	9.042939	3.007148
3.830307422129425	11.161683	3.3409104
3.847844009714936	12.570633	3.5455089
3.8653806874508954	15.963211	3.9953988
3.882917455749409	15.585104	3.9477973
3.900454315022606	15.641003	3.9548707
3.917991265682631	12.497316	3.5351543
3.9355283081416506	10.563229	3.250112
3.9530654428118495	8.342626	2.8883603
3.970602670105433	7.1510324	2.6741414
3.9881399904346244	6.2876067	2.50751
4.005677404211669	6.2172203	2.4934354
4.023214911848827	6.1673207	2.4834092
4.0407525137583855	6.198748	2.4897285
4.058290210352644	6.206962	2.4913776
4.075828002043927	6.17497	2.4849486
4.0933658892445814	6.1343203	2.476756
4.110903872366966	6.0881925	2.4674263
4.128441951823468	6.1132474	2.4724982
4.145980128026488	6.0591393	2.4615319
4.163518401388452	5.9677405	2.442896
4.181056772321807	5.860829	2.420915
4.1985952412390155	5.783759	2.4049447
4.216133808552567	5.8520103	2.419093
4.233672474674966	6.104289	2.470686
4.251211240018741	6.3408494	2.5181043
4.268750104996445	6.60847	2.5706944
4.286289070020643	7.51988	2.74224
4.303828135503928	9.166257	3.0275826
4.3213673018589125	29.44201	5.426049
4.3389065694982305	90.532875	9.514876
4.356445938834537	165.74597	12.874237
4.3739854102805085	171.03142	13.077898
4.391524984248844	171.89001	13.110683
4.409064661152262	135.9589	11.660141
4.426604441403504	96.23745	9.810069
4.444144325415337	75.43405	8.685278
4.461684313600543	21.409239	4.627012
4.47922440637193	21.83966	4.673292
4.496764604142329	20.155096	4.489443
4.5143049073245916	18.254545	4.272534
4.531845316331589	16.25711	4.0320106
4.5493858315762195	13.337306	3.6520276
4.566926453471405	11.095215	3.330948
4.584467182430081	8.939482	2.9898965
4.602008018865218	7.7807465	2.789399
4.619548963189798	7.1766453	2.6789262
4.637090015816834	6.724626	2.5931883
4.654631177159353	6.545551	2.5584273
4.672172447630417	6.3385677	2.5176513
4.689713827643102	6.0943694	2.4686778
4.7072553176105085	5.844312	2.4175012
4.724796917945764	5.61382	2.3693502
4.742338629062015	5.528456	2.3512669
4.759880451372434	5.54313	2.3543851
4.777422385290215	5.5873065	2.3637483
4.794964431228581	5.618063	2.3702455
4.812506589600768	5.6167674	2.369972
4.830048860820047	5.560827	2.3581405
4.847591245299709	5.4618497	2.33706
4.8651337434530655	5.4077525	2.3254576
4.882676355693457	5.3801613	2.3195174
4.900219082434242	5.450475	2.3346252
4.917761924088813	5.441973	2.3328037
4.935304881070575	5.388933	2.3214076
4.952847953792969	5.3755183	2.3185165
4.970391142669449	5.387562	2.3211122
4.9879344481135055	5.4062314	2.3251305
5.005477870538642	5.377889	2.3190277
5.023021410358394	5.3616652	2.315527
5.040565067986324	5.3279643	2.3082383
5.05810884383601	5.293601	2.3007827
5.075652738321066	5.2303257	2.2869906
5.09319675185512	5.255541	2.2924967
5.110740884851836	5.2550864	2.2923975
5.128285137724894	5.330634	2.3088167
5.145829510888007	5.3015637	2.3025124
5.163374004754908	5.2198586	2.284701
5.1809186197393595	5.109087	2.260329
5.198463356255145	5.1253705	2.2639282
5.216008214716077	5.1874013	2.2775867
5.233553195535998	5.2063727	2.2817478
5.251098299128764	5.2172937	2.2841396
5.268643525908272	5.219405	2.2846017
5.286188876288432	5.2131495	2.2832322
5.3037343506831895	5.135479	2.2661595
5.32127994950651	5.0766473	2.2531416
5.3388256731723915	5.0758996	2.2529757
5.356371522094851	5.0865192	2.2553313
5.373917496687938	5.0965414	2.2575521
5.391463597365729	5.1178646	2.2622697
5.40900982454232	5.185768	2.277228
5.426556178631843	5.2110577	2.2827742
5.444102660048449	5.1133876	2.26128
5.4616492692063225	5.0788875	2.2536387
5.479196006519669	5.085892	2.2551923
5.496742872402727	5.088179	2.2556992
5.514289867269756	5.14071	2.2673132
5.531836991535049	5.162167	2.2720404
5.549384245612924	5.201844	2.2807553
5.566931629917724	5.126225	2.2641168
5.584479144863822	5.08657	2.2553425
5.6020267908656205	5.02108	2.2407765
5.619574568337545	5.034405	2.243748
5.637122477694054	5.01727	2.2399263
5.654670519349629	5.023516	2.2413201
5.672218693718784	5.01449	2.2393057
5.689767001216059	4.986951	2.233148
5.707315442256021	5.0050306	2.2371926
5.724864017253266	5.0026345	2.236657
5.7424127266224225	5.018031	2.2400963
5.75996157077814	4.9651504	2.2282617
5.777510550135105	4.9904585	2.2339334
5.795059665108022	5.007893	2.2378323
5.812608916111639	5.1573796	2.2709866
5.830158303560715	5.373411	2.3180618
5.847707827870055	5.35724	2.3145714
5.86525748945448	5.341655	2.311202
5.8828072887288485	5.359626	2.3150866
5.900357226108044	5.4160075	2.3272316
5.917907302006979	5.497758	2.34473
5.9354575168406	6.1697326	2.4838946
5.9530078710238765	6.823606	2.6122034
5.970558364971812	7.3282685	2.7070775
5.988108999099438	7.64978	2.7658236
6.005659773821818	8.203254	2.8641322
6.023210689554039	7.915007	2.8133624
6.040761746711227	8.299326	2.880855
6.058312945708531	7.619319	2.7603114
6.075864286961132	7.181217	2.6797793
6.093415770884244	6.593034	2.5676904
6.1109673978931065	6.1089907	2.4716372
6.128519168402993	5.5502334	2.3558934
6.146071082829204	5.3720345	2.317765
6.163623141587075	5.22904	2.2867095
6.181175345091969	5.062131	2.249918
6.198727693759281	5.007861	2.2378252
6.216280188004435	4.993992	2.234724
6.233832828242885	5.0064473	2.2375093
6.251385614890126	5.061282	2.2497294
6.268938548361669	5.1014376	2.2586362
6.286491629073067	5.0823216	2.2544005
6.304044857439898	5.0166545	2.239789
6.321598233877777	4.9180703	2.2176723
6.339151758802344	4.8334913	2.1985202
6.356705432629277	4.8765025	2.2082803
6.37425925577428	4.9948683	2.2349203
6.391813228653095	5.053936	2.248096
6.409367351681486	5.0092144	2.2381275
6.426921625275259	4.9042377	2.2145514
6.44447604985025	4.864276	2.2055104
6.46203062582232	4.8972116	2.2129645
6.47958535360737	4.8828826	2.2097247
6.497140233621328	4.957053	2.226444
6.514695266280161	4.987079	2.233177
6.532250451999859	5.121326	2.2630346
6.549805791196454	5.0957727	2.257382
6.567361284286002	4.9952297	2.235001
6.584916931684597	4.9417768	2.2230108
6.602472733808367	4.9128404	2.216493
6.6200286910734665	4.966736	2.2286174
6.637584803896092	4.901097	2.2138422
6.655141072692462	4.8640203	2.2054524
6.672697497878842	4.789716	2.188542
6.690254079871514	4.818352	2.1950746
6.707810819086808	4.8381042	2.199569
6.725367715941078	4.872941	2.207474
6.742924770850719	4.8137255	2.1940203
6.760481984232151	4.75779	2.1812358
6.778039356501836	4.8143783	2.194169
6.795596888076266	4.8525405	2.2028482
6.813154579371963	4.892091	2.2118073
6.830712430805492	4.8801427	2.2091045
6.84827044279344	4.7940383	2.1895292
6.865828615752445	4.76714	2.183378
6.883386950099159	4.803867	2.1917725
6.900945446250287	4.8484893	2.2019286
6.918504104622553	4.9039493	2.2144861
6.936062925632727	4.9359264	2.2216945
6.953621909697607	4.946165	2.2239976
6.971181057234028	4.9678698	2.2288718
6.988740368658859	5.0091248	2.2381074
7.006299844389007	5.1017303	2.258701
7.023859484841407	5.190419	2.2782493
7.041419290433036	5.2332034	2.2876196
7.058979261580902	5.28187	2.2982318
7.0765393987020495	5.4628053	2.3372645
7.094099702213559	5.8370457	2.4159977
7.111660172532549	6.183657	2.486696
7.129220810076164	6.520771	2.55358
7.146781615261595	7.0757065	2.66002
7.16434258850606	7.3967004	2.7196875
7.181903730226821	7.7906356	2.791171
7.1994650408411704	7.9228616	2.8147578
7.217026520766437	7.994365	2.827431
7.234588170419983	8.211248	2.8655276
7.252149990219215	8.255321	2.8732073
7.269711980581568	8.14901	2.854647
7.2872741419245175	7.988122	2.8263266
7.304836474665574	7.639637	2.7639892
7.322398979222286	7.3722596	2.7151906
7.339961656012233	7.1441975	2.6728632
7.357524505453039	6.819704	2.6114564
7.375087527962357	6.4746747	2.5445383
7.392650723957886	6.2185516	2.4937024
7.410214093857353	5.883183	2.4255273
7.427777638078528	5.609135	2.3683612
7.445341357039213	5.4068813	2.3252702
7.4629052511572525	5.2075634	2.2820086
7.480469320850524	5.1889353	2.2779233
7.498033566536948	5.1573634	2.270983
7.5155979886344735	5.1286826	2.2646594
7.5331625875610975	5.1033053	2.2590497
7.550727363734844	5.0519943	2.2476642
7.568292317573788	5.0051937	2.237229
7.585857449496025	5.035047	2.243891
7.603422759919705	5.0278172	2.2422795
7.620988249263007	5.017444	2.2399652
7.638553917944147	4.992855	2.2344697
7.656119766381391	4.9739943	2.2302454
7.673685794993023	5.040912	2.2451975
7.691252004197388	5.092513	2.2566597
7.70881839441285	5.0512366	2.2474957
7.726384966057826	5.027723	2.2422583
7.743951719550762	4.9886436	2.2335272
7.761518655310149	5.087465	2.2555408
7.779085773754511	5.1180134	2.2623026
7.796653075302419	5.18571	2.2772155
7.814220560372475	5.213421	2.2832916
7.831788229383323	5.2160363	2.2838643
7.8493560827536495	5.177432	2.275397
7.866924120902174	5.1465077	2.2685916
7.884492344247663	5.108197	2.260132
7.9020607532089135	5.1591644	2.2713795
7.919629348204771	5.1850867	2.2770786
7.937198129654115	5.242359	2.28962
7.954767097975865	5.257446	2.292912
7.972336253588986	5.2889156	2.2997642
7.989905596912472	5.3553176	2.3141558
8.007475128365371	5.3886666	2.32135
8.025044848366756	5.4163895	2.327314
8.042614757335754	5.564983	2.3590217
8.060184855691523	5.6104136	2.3686311
8.07775514385327	5.708807	2.389311
8.095325622240228	5.683276	2.3839624
8.112896291271687	5.7037873	2.3882604
8.130467151366968	5.7922053	2.4067001
8.148038202945436	5.8535337	2.4194078
8.165609446426497	5.8439584	2.417428
8.183180882229594	5.7996707	2.4082506
8.200752510774217	5.7579517	2.3995733
8.218324332479893	5.73406	2.3945897
8.235896347766193	5.752586	2.398455
8.253468557052724	5.7704315	2.4021723
8.27104096075914	5.822622	2.4130108
8.288613559305137	5.891239	2.4271874
8.306186353110448	5.983986	2.4462187
8.32375934259485	6.0764685	2.4650493
8.341332528178162	6.101238	2.4700685
8.358905910280246	6.155814	2.4810913
8.376479489321003	6.2130127	2.4925916
8.394053265720377	6.29091	2.5081687
8.411627239898356	6.2950716	2.5089982
8.42920141227497	6.276848	2.5053637
8.44677578327029	6.2004805	2.4900763
8.464350353304427	6.1909275	2.4881575
8.48192512279754	6.1572638	2.4813833
8.499500092169827	6.1031218	2.4704497
8.51707526184153	6.00077	2.449647
8.534650632232934	5.9378405	2.4367685
8.552226203764365	5.905397	2.4301023
8.569801976856192	6.0165825	2.4528723
8.587377951928834	6.0781593	2.4653924
8.60495412940274	6.1455874	2.4790297
8.622530509698416	6.2200956	2.4940119
8.6401070932364	6.3275924	2.5154705
8.657683880437283	6.401417	2.530102
8.675260871721695	6.504047	2.5503032
8.692838067510303	6.70819	2.5900173
8.710415468223834	6.8164406	2.6108315
8.727993074283043	6.895774	2.6259806
8.745570886108737	6.8376837	2.6148965
8.763148904121765	6.952798	2.6368158
8.78072712874302	7.0382595	2.6529717
8.798305560393441	7.2508874	2.692747
8.815884199494006	7.358337	2.7126255
8.833463046465745	7.5514736	2.7479944
8.851042101729728	7.6466436	2.7652564
8.86862136570707	7.977061	2.8243692
8.886200838818924	8.176278	2.859419
8.903780521486505	8.341743	2.8882077
8.921360414131055	8.497045	2.914969
8.938940517173874	8.623666	2.9366078
8.956520831036297	8.809425	2.9680676
8.97410135613971	8.991435	2.998572
8.99168209290554	9.032649	3.0054367
9.009263041755265	9.22106	3.03662
9.026844203110405	9.522948	3.0859275
9.044425577392525	9.684612	3.112011
9.062007165023239	9.767484	3.1252973
9.079588966424197	10.018782	3.165246
9.097170982017108	10.201939	3.1940475
9.11475321222372	11.265962	3.3564806
9.132335657465825	12.248916	3.499845
9.149918318165264	12.250554	3.5000792
9.167501194743924	12.866755	3.587026
9.18508428762374	12.522454	3.538708
9.202667597226693	12.4955225	3.5349007
9.220251123974803	12.173817	3.4890997
9.237834868290143	11.88304	3.4471786
9.255418830594836	11.690066	3.4190738
9.273003011311046	11.148643	3.3389583
9.290587410860985	10.746231	3.2781444
9.308172029666911	10.022591	3.1658475
9.32575686815113	9.773916	3.1263263
9.343341926735997	8.513431	2.9177783
9.360927205843916	8.258569	2.8737726
9.378512705897327	8.0556555	2.8382487
9.396098427318728	7.970623	2.823229
9.413684370530664	7.912482	2.8129134
9.431270535955722	7.7785454	2.7890043
9.448856924016539	7.6819687	2.7716365
9.466443535135806	7.605257	2.7577631
9.484030369736251	7.639559	2.7639751
9.501617428240658	7.6428714	2.7645743
9.519204711071852	7.619605	2.760363
9.536792218652714	7.6493793	2.7657511
9.55437995140617	7.6993804	2.7747757
9.571967909755191	7.737559	2.7816467
9.589556094122802	7.709481	2.776595
9.60714450493207	7.8034916	2.793473
9.624733142606116	7.8804092	2.8072066
9.642322007568108	7.9367204	2.8172185
9.659911100241267	7.9559956	2.8206375
9.677500421048851	7.912766	2.812964
9.695089970414175	7.9639664	2.82205
9.712679748760609	7.945707	2.818813
9.730269756511557	7.9501553	2.819602
9.747859994090492	7.9671717	2.8226178
9.765450461920915	8.018218	2.8316457
9.78304116042639	8.026069	2.8330317
9.800632090030527	8.038223	2.835176
9.81822325115699	8.001135	2.8286278
9.835814644229481	7.9598484	2.8213203
9.853406269671762	8.009136	2.8300416
9.870998127907646	8.043167	2.836048
9.888590219360985	8.14462	2.853878
9.906182544455698	8.275642	2.8767416
9.923775103615734	8.260565	2.8741198
9.941367897265108	8.16075	2.8567028
9.958960925827878	8.056489	2.8383956
9.97655418972816	8.06022	2.8390527
9.994147689390106	8.17862	2.8598287
10.011741425237934	8.164177	2.8573024
10.029335397695904	8.188019	2.8614714
10.04692960718833	8.171884	2.8586507
10.06452405413958	8.215288	2.8662324
10.082118738974064	8.142013	2.8534212
10.099713662116246	8.08173	2.8428383
10.117308823990651	8.028811	2.8335156
10.134904225021844	7.964731	2.8221855
10.152499865634445	7.9639206	2.822042
10.170095746253125	7.9897537	2.8266153
10.18769186730261	8.023042	2.8324974
10.205288229207675	8.100791	2.8461888
10.222884832393145	8.078995	2.8423572
10.2404816772839	8.030359	2.8337889
10.258078764304868	8.021744	2.8322682
10.275676093881035	8.028219	2.8334112
10.293273666437438	7.9960895	2.8277357
10.310871482399158	7.934551	2.8168335
10.32846954219134	7.87878	2.8069165
10.346067846239173	7.8679047	2.8049786
10.363666394967908	7.920349	2.8143115
10.38126518880283	8.032131	2.8341014
10.398864228169298	8.103216	2.8466148
10.416463513492713	8.077155	2.8420336
10.434063045198531	7.955441	2.8205392
10.451662823712262	7.8996415	2.81063
10.469262849459467	7.9446816	2.8186312
10.486863122865758	7.953535	2.8202012
10.504463644356806	7.959065	2.8211815
10.522064414358338	7.886316	2.8082585
10.539665433296118	7.8170013	2.79589
10.557266701595987	7.786374	2.7904074
10.574868219683818	7.657646	2.7672453
10.592469987985552	7.540913	2.7460723
10.610072006927185	7.378599	2.7163577
10.627674276934751	7.3294435	2.7072945
10.64527679843435	7.2507734	2.6927261
10.662879571852143	7.1788726	2.6793418
10.680482597614331	7.083212	2.6614304
10.698085876147173	6.9089417	2.6284866
10.715689407876988	6.837251	2.6148138
10.733293193230146	6.748487	2.597785
10.750897232633072	6.667258	2.5821033
10.76850152651225	6.568587	2.5629253
10.786106075294207	6.398974	2.5296192
10.803710879405534	6.2985363	2.5096884
10.821315939272877	6.2657466	2.5031474
10.83892125532294	6.2487097	2.499742
10.856526827982472	6.200383	2.4900568
10.874132657678285	6.131979	2.4762833
10.891738744837243	6.0722814	2.4642
10.909345089886271	6.0556035	2.4608135
10.926951693252343	6.044222	2.4585
10.944558555362494	5.921178	2.433347
10.96216567664381	5.822019	2.4128861
10.979773057523436	5.7199674	2.3916454
10.997380698428573	5.7169437	2.3910131
11.014988599786477	5.6781535	2.3828876
11.032596762024461	5.5996485	2.3663576
11.050205185569892	5.5907774	2.3644824
11.067813870850198	5.504548	2.3461773
11.085422818292859	5.489834	2.3430395
11.10303202832541	5.4380875	2.3319707
11.120641501375454	5.3533654	2.313734
11.138251237870636	5.2538357	2.2921247
11.155861238238671	5.1998878	2.2803261
11.173471502907317	5.1708593	2.2739522
11.191082032304402	5.1157455	2.2618015
11.208692826857805	5.0147414	2.2393618
11.226303886995465	4.9121566	2.2163386
11.243915213145371	4.8025317	2.191468
11.261526805735578	4.762365	2.1822844
11.279138665194196	4.724786	2.1736572
11.296750791949393	4.7583404	2.1813622
11.314363186429393	4.713236	2.1709988
11.331975849062479	4.689574	2.1655424
11.34958878027699	4.5623126	2.135957
11.36720198050133	4.504445	2.1223679
11.384815450163948	4.4012547	2.0979168
11.402429189693366	4.357981	2.0875778
11.420043199518153	4.3457375	2.0846431
11.437657480066942	63.377155	7.960977
11.455272031768422	85.1301	9.226597
11.472886855051353	107.51283	10.368839
11.490501950344528	99.08892	9.954342
11.508117318076819	84.4311	9.18864
11.52573295867715	45.83696	6.7703
11.543348872574514	4.142568	2.03533
11.560965060197946	4.0804653	2.0200162
11.57858152197655	4.0080447	2.00201
11.59619825833949	3.9510386	1.9877219
11.613815269715985	3.9252257	1.9812182
11.631432556535323	38.446304	6.2005086
11.649050119226837	83.01733	9.111384
11.666667958219929	93.416534	9.665223
11.68428607394406	107.66494	10.376172
11.701904466828756	82.44185	9.079749
11.719523137303586	65.30145	8.080932
11.737142085798196	4.5417733	2.1311436
11.754761312742286	3.6662924	1.9147565
11.772380818565619	3.6269865	1.9044648
11.790000603698015	3.5679417	1.8888996
11.80762066856935	3.5398293	1.8814434
11.825241013609572	3.5699613	1.8894341
11.842861639248683	3.5407062	1.8816764
11.860482545916748	3.4655561	1.8616004
11.878103734043883	3.3746583	1.8370243
11.895725204060282	3.3158054	1.8209354
11.91334695639619	3.2824674	1.811758
11.930968991481919	3.3130467	1.8201777
11.948591309747824	3.3159792	1.820983
11.966213911624347	3.2874494	1.8131325
11.98383679754198	3.2185817	1.7940406
12.001459967931268	3.1675158	1.7797517
12.019083423222835	3.1747525	1.7817835
12.036707163847352	3.1874282	1.785337
12.05433119023556	3.190565	1.7862153
12.071955502818259	3.1555212	1.7763786
12.089580102026313	3.07867	1.7546139
12.107204988290643	3.0578	1.7486566
12.12483016204224	3.080815	1.7552251
12.142455623712152	3.1121144	1.7641186
12.16008137373149	3.1253932	1.7678782
12.177707412531431	3.0700877	1.7521665
12.19533374054321	3.0162156	1.7367256
12.212960358198126	2.9883375	1.7286808
12.230587265927545	2.9674077	1.7226166
12.248214464162889	2.9486468	1.7171624
12.265841953335649	2.958409	1.7200027
12.283469733877375	2.9330966	1.7126286
12.301097806219685	2.896504	1.7019118
12.31872617079425	2.863274	1.6921211
12.336354828032825	2.8808985	1.6973209
12.353983778367205	2.911065	1.7061844
12.371613022229262	2.8935053	1.7010306
12.389242560050928	2.857236	1.690336
12.406872392264201	2.8445096	1.6865674
12.424502519301143	2.8478425	1.6875552
12.442132941593874	2.8188882	1.6789545
12.459763659574586	2.812137	1.6769427
12.477394673675532	2.7937307	1.6714457
12.49502598432903	2.822032	1.6798905
12.51265759196746	2.8293734	1.6820741
12.530289497023267	2.8497217	1.6881119
12.547921699928967	2.7744496	1.6656679
12.565554201117134	2.7390876	1.6550189
12.583187001020404	2.7115467	1.6466775
12.600820100071486	2.7218847	1.6498135
12.618453498703152	2.728473	1.651809
12.636087197348235	2.6932914	1.6411251
12.65372119643964	2.6583078	1.6304318
12.671355496410326	2.64325	1.6258075
12.68899009769333	2.6539624	1.6290987
12.706625000721749	2.6937912	1.6412773
12.724260205928752	2.7784538	1.6668695
12.741895713747551	2.8307676	1.6824886
12.759531524611454	2.9086587	1.705479
12.777167638953818	2.9422948	1.7153119
12.794804057208072	2.967987	1.7227846
12.812440779807702	2.992252	1.7298127
12.830077807186271	3.1436086	1.7730224
12.847715139777405	3.1902316	1.786122
12.865352778014795	3.4134164	1.8475434
12.882990722332197	3.495212	1.8695487
12.90062897316344	3.5121024	1.8740604
12.918267530942412	3.619074	1.9023864
12.935906396103071	3.558401	1.8863724
12.953545569079449	3.7474487	1.9358329
12.971185050305628	3.5651526	1.8881612
12.988824840215775	3.5461397	1.8831197
13.006464939244115	3.540867	1.8817192
13.024105347824943	3.3729234	1.836552
13.041746066392617	3.485811	1.8670326
13.05938709538157	3.3284018	1.8243908
13.077028435226296	3.3351903	1.8262503
13.094670086361363	3.2037425	1.7899002
13.112312049221401	3.0765188	1.7540008
13.129954324241112	3.01794	1.737222
13.147596911855258	2.8615205	1.691603
13.165239812498685	2.8504179	1.688318
13.182883026606293	2.764264	1.6626077
13.200526554613058	2.701195	1.6435312
13.218170396954017	2.6903884	1.6402403
13.235814554064284	2.6866581	1.6391028
13.253459026379034	2.6594064	1.6307687
13.271103814333523	2.6642876	1.6322645
13.288748918363058	2.667666	1.6332991
13.306394338903031	2.6657794	1.6327214
13.32404007638889	2.6077757	1.6148609
13.341686131256164	2.59056	1.6095216
13.359332503940449	2.5628493	1.6008902
13.376979194877402	2.5823748	1.6069769
13.394626204502751	2.6505988	1.628066
13.412273533252307	2.7056372	1.6448821
13.429921181561937	2.73885	1.6549472
13.447569149867581	2.7619705	1.6619177
13.465217438605247	2.7657213	1.6630458
13.482866048211022	2.7160528	1.6480452
13.500514979121052	2.6764004	1.6359708
13.518164231771568	2.6236925	1.6197816
13.535813806598844	2.616845	1.6176665
13.553463704039254	2.6206179	1.6188322
13.571113924529229	2.647311	1.6270559
13.588764468505275	2.642233	1.6254947
13.606415336403956	2.6632407	1.6319438
13.624066528661917	2.7176116	1.648518
13.641718045715882	2.7803192	1.667429
13.659369888002635	2.8373163	1.6844335
13.67702205595903	2.8805249	1.6972109
13.694674550021993	2.9785683	1.725853
13.712327370628532	3.0575032	1.7485718
13.729980518215713	3.1676142	1.7797793
13.747633993220681	3.2300463	1.797233
13.765287796080647	3.2465656	1.8018229
13.7829419272329	3.2626252	1.8062738
13.800596387114801	3.2381675	1.7994909
13.818251176163775	3.2613802	1.8059292
13.835906294817324	3.2860157	1.8127371
13.853561743513023	3.3213327	1.8224524
13.871217522688525	3.3891087	1.8409532
13.888873632781538	3.4387321	1.8543819
13.906530074229858	3.5178182	1.8755847
13.92418684747135	3.527862	1.8782604
13.941843952943948	3.47365	1.8637731
13.959501391085665	3.4042587	1.8450633
13.977159162334578	3.3239598	1.823173
13.994817267128846	3.3086405	1.8189669
14.012475705906693	3.2254894	1.7959647
14.030134479106424	3.1548007	1.7761759
14.047793587166414	3.0858383	1.7566555
14.065453030525108	3.0154989	1.7365192
14.083112809621026	2.9170003	1.7079228
14.100772924892766	2.850507	1.6883445
14.118433376778997	2.8594735	1.6909977
14.136094165718458	2.8215146	1.6797365
14.153755292149969	2.7449605	1.6567923
14.171416756512416	2.6723113	1.6347206
14.189078559244768	2.6046257	1.6138853
14.20674070078606	2.5585024	1.5995319
14.224403181575408	2.4822419	1.5755132
14.242066002051999	2.3997588	1.5491155
14.259729162655093	2.3421743	1.5304164
14.277392663824022	2.3331168	1.5274544
14.295056505998208	2.3533268	1.5340557
14.312720689617128	2.3629816	1.5371993
14.330385215120348	2.3934906	1.547091
14.348050082947497	2.4243727	1.5570397
14.3657152935383	2.4087834	1.5520256
14.383380847332528	2.3821437	1.5434195
14.401046744770051	2.3702843	1.5395727
14.418712986290798	2.3758917	1.5413928
14.436379572334793	2.3685129	1.5389974
14.454046503342123	2.3398821	1.5296674
14.471713779752946	2.3231354	1.5241835
14.489381402007504	2.3031406	1.5176102
14.507049370546113	2.2942877	1.5146906
14.524717685809168	2.3056853	1.5184484
14.542386348237134	2.352417	1.5337591
14.560055358270553	2.3560827	1.5349536
14.577724716350051	2.3966312	1.5481057
14.595394422916325	2.379238	1.5424778
14.61306447841015	2.4224844	1.5564332
14.63073488327237	2.4444022	1.5634584
14.648405637943917	2.4525347	1.5660571
14.6660767428658	2.4444945	1.5634879
14.683748198479094	2.4740624	1.5729153
14.701420005224954	2.5152242	1.5859458
14.719092163544628	2.5776496	1.6055061
14.73676467387942	2.6227806	1.6195
14.754437536670727	2.6438434	1.62599
14.772110752360014	2.6682673	1.6334832
14.78978432138882	2.6322808	1.6224306
14.807458244198777	2.6241317	1.6199172
14.82513252123159	2.6052196	1.6140692
14.842807152929028	2.6027277	1.6132971
14.860482139732962	2.614255	1.6168658
14.87815748208531	2.6332765	1.6227373
14.8958331804281	2.6863797	1.6390179
14.91350923520342	2.629672	1.6216264
14.931185646853438	2.6359437	1.623559
14.948862415820408	2.615023	1.6171032
14.966539542546656	2.5983822	1.6119498
14.98421702747459	2.544598	1.5951797
15.001894871046696	2.5744998	1.6045249
15.019573073705542	2.5848846	1.6077577
15.037251635893766	2.5909872	1.6096544
15.054930558054092	2.58163	1.6067451
15.072609840629323	2.6396055	1.6246862
15.090289484062351	2.765203	1.66289
15.107969488796124	2.890012	1.7000035
15.125649855273691	3.0780745	1.7544442
15.14333058393817	3.3782713	1.8380075
15.161011675232768	3.9137151	1.9783112
15.17869312960076	4.525166	2.1272438
15.196374947485506	5.233592	2.2877045
15.214057129330447	6.5456347	2.5584438
15.231739675579114	8.682163	2.946551
15.249422586675102	13.417844	3.6630375
15.267105863062092	18.127237	4.2576094
15.284789505183847	25.655003	5.065077
15.302473513484218	30.901049	5.5588713
15.320157888407127	35.07522	5.9224334
15.337842630396578	33.766907	5.81093
15.355527739896656	30.632835	5.5346937
15.37321321735153	23.769903	4.8754387
15.39089906320545	16.038548	4.0048156
15.408585277902748	10.268573	3.2044613
15.42627186188783	6.3464932	2.5192246
15.443958815605198	4.537658	2.130178
15.461646139499424	3.6691155	1.9154936
15.479333834015168	3.21038	1.7917534
15.497021899597165	2.933352	1.7127031
15.514710336690234	2.7909696	1.6706195
15.53239914573928	2.6816158	1.637564
15.550088327189297	2.5853055	1.6078885
15.567777881485336	2.524291	1.5888017
15.58546780907256	2.512763	1.5851697
15.6031581103962	2.5149436	1.5858574
15.620848785901568	2.516376	1.586309
15.638539836034063	2.500119	1.5811764
15.656231261239173	2.4876912	1.5772417
15.673923061962451	2.4413574	1.5624844
15.691615238649552	2.4167306	1.5545838
15.709307791746202	2.3657458	1.5380981
15.727000721698221	2.3399262	1.5296818
15.744694028951498	2.2991493	1.5162946
15.76238771395202	2.3297634	1.5263562
15.780081777145844	2.3698869	1.5394437
15.797776218979125	2.3859608	1.5446556
15.815471039898094	2.3739152	1.5407515
15.833166240349064	2.367382	1.5386299
15.850861820778437	2.4098978	1.5523845
15.868557781632699	2.4843128	1.5761703
15.886254123358412	2.51448	1.5857112
15.903950846402232	2.4756904	1.5734327
15.921647951210897	2.4860425	1.5767189
15.939345438231225	2.5040665	1.5824243
15.957043307910133	2.5361724	1.5925364
15.974741560694602	2.5162048	1.586255
15.992440197031714	2.5176013	1.5866951
16.01013921736862	2.494427	1.5793755
16.02783862215259	2.4955554	1.5797327
16.045538411830933	2.4894118	1.577787
16.06323858685107	2.4642038	1.5697783
16.080939147660512	2.40726	1.5515347
16.09864009470684	2.3703854	1.5396056
16.11634142843774	2.3909667	1.5462751
16.134043149300954	2.4122367	1.5531377
16.15174525774433	2.4034667	1.5503118
16.169447754215817	2.4168851	1.5546335
16.18715063916342	2.4246268	1.5571213
16.204853913035244	2.434472	1.5602795
16.222557576279478	2.4412093	1.5624369
16.240261629344403	22.41911	4.7348824
16.257966072678386	42.9472	6.5534115
16.275670906729868	38.036556	6.1673784
16.293376131947387	2.4622786	1.569165
16.31108174877957	2.4752338	1.5732876
16.328787757675133	2.5314991	1.5910685
16.34649415908287	2.5383058	1.5932062
16.364200953451657	2.527532	1.5898215
16.38190814123048	2.5332866	1.5916302
16.39961572286839	2.5701747	1.6031765
16.41732369881455	2.6309886	1.6220323
16.43503206951817	2.687195	1.6392666
16.45274083542859	2.7389085	1.6549648
16.47044999699522	2.76997	1.6643226
16.488159554667558	2.846779	1.6872401
16.505869508895184	2.8768754	1.6961354
16.523579860127786	2.919326	1.7086035
16.541290608815117	2.9869995	1.7282938
16.559001755407035	3.1055763	1.7622645
16.57671330035348	3.1678874	1.779856
16.59442524410448	3.2570746	1.8047367
16.61213758711015	3.418182	1.8488326
16.629850329820705	3.5099378	1.8734828
16.647563472686436	3.514129	1.874601
16.665277016157724	3.446134	1.8563766
16.682990960685053	3.4324017	1.8526742
16.70070530671898	3.4323075	1.8526487
16.718420054710155	3.4903867	1.8682576
16.736135205109335	3.5310335	1.8791045
16.753850758367335	3.6053934	1.8987874
16.771566714935087	3.5994737	1.8972279
16.789283075263597	3.6217308	1.9030845
16.80699983980398	3.666839	1.9148992
16.82471700900741	3.758842	1.9387733
16.84243458332518	3.8456647	1.9610367
16.860152563208665	3.912372	1.9779717
16.87787094910932	3.9984767	1.9996191
16.89558974147871	4.0306363	2.0076444
16.913308940768466	4.0513163	2.0127883
16.931028547430333	4.0946302	2.0235193
16.94874856191613	4.173116	2.0428207
16.966468984677785	4.2394624	2.0589955
16.98418981616729	4.308491	2.0756905
17.00191105683676	4.404459	2.0986803
17.019632707138374	4.491038	2.119207
17.03735476752442	4.550689	2.1332345
17.05507723844728	4.5875154	2.1418486
17.072800120359403	4.630384	2.1518328
17.090523413713353	4.609761	2.1470354
17.108247118961785	4.616766	2.1486661
17.125971236557437	4.575387	2.1390154
17.143695766953133	4.564019	2.1363566
17.161420710601806	4.554068	2.1340263
17.179146067956477	4.5906644	2.1425836
17.19687183947025	4.5989532	2.144517
17.21459802559634	4.5800323	2.140101
17.232324626788028	4.610336	2.1471694
17.25005164349871	4.6089673	2.1468506
17.267779076181863	4.5602694	2.1354787
17.285506925291074	4.504934	2.122483
17.30323519127999	4.4869466	2.1182413
17.320963874602384	4.474803	2.115373
17.33869297571211	4.467795	2.113716
17.356422495063114	4.4742346	2.1152387
17.37415243310944	4.440423	2.1072311
17.391882790305218	4.437767	2.1066008
17.40961356710468	4.415202	2.1012383
17.42734476396215	4.5323315	2.1289272
17.445076381332044	4.58603	2.141502
17.462808419668868	4.644166	2.1550326
17.48054087942723	4.6889005	2.165387
17.498273761061835	4.7716517	2.184411
17.51600706502747	5.12523	2.263897
17.533740791779024	5.774786	2.4030786
17.551474941771485	6.7248034	2.5932226
17.56920951545993	8.579643	2.929103
17.586944513299528	9.791153	3.1290817
17.60467993574556	12.72916	3.5677948
17.622415783253373	15.516916	3.9391518
17.64015205627843	18.508904	4.3021975
17.657888755276293	20.995836	4.5821214
17.675625880702604	22.55745	4.7494683
17.69336343301311	20.988033	4.5812697
17.71110141266366	18.807543	4.3367662
17.728839820110178	15.944352	3.993038
17.746578655808705	12.671768	3.5597427
17.764317920215372	10.469559	3.2356699
17.7820576137864	8.756374	2.9591172
17.79979773697811	7.3969827	2.7197394
17.81753829024692	6.0701094	2.4637592
17.835279274049356	5.2327924	2.2875297
17.85302068884201	4.421983	2.1028512
17.870762535081607	4.035965	2.0089712
17.888504813224934	3.8371913	1.9588751
17.90624752372891	3.7024279	1.9241694
17.923990667050536	3.548356	1.8837081
17.941734243646895	3.4583397	1.8596612
17.959478253975185	3.3944485	1.8424029
17.9772226984927	3.3854759	1.8399663
17.994967577656833	3.3892286	1.8409858
18.01271289192506	3.3554075	1.8317771
18.030458641754965	3.3626344	1.8337487
18.04820482760425	3.3328516	1.8256099
18.06595144993067	3.3013647	1.8169658
18.083698509192125	3.2645397	1.8068037
18.101446005846576	3.2210972	1.7947415
18.119193940352105	3.1978033	1.7882403
18.136942313166887	3.1762557	1.7822053
18.1546911247492	3.1955829	1.7876194
18.1724403755574	3.1801848	1.7833073
18.19019006604997	3.1427824	1.7727895
18.207940196685467	3.0816078	1.7554508
18.225690767922575	3.0417674	1.7440664
18.243441780220046	3.0242348	1.7390327
18.261193234036764	3.0186546	1.7374276
18.278945129831676	3.0071726	1.7341201
18.29669746806386	3.0012856	1.7324219
18.314450249192483	3.0244074	1.7390823
18.3322034736768	3.0188954	1.7374969
18.349957141976184	2.994773	1.7305412
18.3677112545501	3.0321927	1.7413193
18.385465811858108	3.0319748	1.7412567
18.403220814359884	3.0489466	1.7461233
18.420976262515172	3.0699437	1.7521255
18.43873215678387	3.1147196	1.7648568
18.456488497625923	3.1655056	1.7791868
18.474245285501407	3.1987517	1.7885054
18.492002520870486	3.2329347	1.7980363
18.50976020419343	3.3003647	1.8166906
18.527518335930615	3.6271932	1.9045192
18.545276916542516	4.19059	2.0470932
18.563035946489688	4.339186	2.0830712
18.580795426232832	4.8172436	2.194822
18.598555356232698	4.733437	2.1756463
18.616315736950185	5.008365	2.2379377
18.63407656884626	4.618842	2.1491492
18.65183785238201	4.7902484	2.1886637
18.669599588018617	4.574684	2.1388512
18.68736177621737	4.5545187	2.134132
18.705124417439652	4.5455785	2.1320362
18.72288751214696	4.373796	2.0913622
18.740651060800886	4.5209727	2.126258
18.758415063863115	4.2196403	2.0541763
18.77617952179546	4.3670626	2.0897517
18.793944435059814	4.1161227	2.028823
18.811709804118184	4.1342454	2.0332844
18.829475629432675	4.1256056	2.0311587
18.8472419114655	3.9355576	1.983824
18.86500865067897	3.9817398	1.9954298
18.88277584753551	3.6425416	1.9085444
18.90054350249763	3.697599	1.9229141
18.918311616027957	3.439057	1.8544695
18.936080188589226	3.3130813	1.8201871
18.953849220644265	3.0179226	1.737217
18.971618712656007	2.8368704	1.6843011
18.9893886650875	2.824843	1.6807269
19.007159078401887	8.013932	2.830889
19.024929953062408	32.910995	5.7368107
19.042701289532435	32.836952	5.7303534
19.060473088275405	25.384684	5.0383215
19.07824534975489	2.649328	1.6276757
19.096018074434568	2.6548526	1.6293719
19.113791262778197	2.602217	1.6131388
19.13156491524966	2.5601876	1.6000587
19.149339032312945	2.5334024	1.5916666
19.167113614432136	2.5431423	1.5947232
19.184888662071433	2.5428581	1.5946342
19.202664175695123	2.5450244	1.5953133
19.220440155767623	2.5568619	1.599019
19.238216602753447	2.5598094	1.5999404
19.2559935171172	2.5660694	1.6018956
19.27377089932361	2.5840437	1.6074961
19.291548749837514	2.551342	1.5972921
19.309327069123835	2.5672145	1.602253
19.32710585764763	2.523714	1.5886202
19.344885115874032	2.4880893	1.5773679
19.362664844268313	2.4808204	1.575062
19.380445043295822	2.4495232	1.5650953
19.39822571342203	2.4548383	1.5667924
19.41600685511252	2.438954	1.5617151
19.43378846883297	2.421182	1.5560148
19.451570555049173	2.3970895	1.5482537
19.469353114227037	2.4124086	1.553193
19.48713614683254	2.4238322	1.5568662
19.50491965333182	2.466673	1.5705645
19.52270363419109	2.479665	1.5746952
19.540488089876686	2.4420493	1.5627058
19.55827302085503	2.4425766	1.5628744
19.576058427592674	2.4502482	1.5653269
19.593844310556282	2.4675245	1.5708356
19.611630670212598	2.4354725	1.5606
19.629417507028506	2.4379182	1.5613834
19.64720482147098	2.4683428	1.5710961
19.6649926140071	2.5151331	1.5859171
19.682780885104084	2.5169532	1.5864909
19.70056963522921	2.5150487	1.5858905
19.718358864849908	2.4789648	1.5744729
19.7361485744337	2.4505763	1.5654317
19.753938764448215	2.4465704	1.5641516
19.771729435361202	2.4609802	1.5687511
19.789520587640506	2.4790828	1.5745103
19.807312221754092	2.496182	1.579931
19.825104338170043	2.47554	1.5733849
19.842896937356517	2.4258363	1.5575097
19.860690019781824	2.405334	1.5509139
19.87848358591436	2.4773114	1.5739477
19.896277636222635	2.5098197	1.584241
19.914072171175278	2.5027325	1.5820026
19.931867191241015	2.4751635	1.5732652
19.94966269688869	2.4973788	1.5803097
19.967458688587264	2.5263867	1.5894611
19.985255166805807	2.5401258	1.5937772
20.00305213201348	2.5215063	1.5879252
20.020849584679578	2.4549325	1.5668224
20.038647525273507	2.4226205	1.556477
20.05644595426477	2.4271874	1.5579433
20.07424487212299	2.4338238	1.5600717
20.092044279317903	2.4419494	1.5626738
20.109844176319353	2.4532852	1.5662967
20.127644563597304	2.473577	1.5727609
20.145445441621817	2.4678688	1.5709451
20.16324681086307	2.430457	1.5589924
20.181048671791373	2.4158747	1.5543084
20.198851024877122	2.4558585	1.5671179
20.216653870590836	2.427032	1.5578934
20.234457209403146	2.3640268	1.5375392
20.252261041784802	2.3437722	1.5309384
20.270065368206662	2.353626	1.5341532
20.287870189139685	2.3282454	1.5258589
20.305675505054968	2.2962384	1.5153344
20.323481316423702	2.2978635	1.5158706
20.341287623717207	2.2981422	1.5159625
20.359094427406884	2.3294706	1.5262604
20.376901727964288	2.3476245	1.532196
20.39470952586107	2.3905952	1.546155
20.41251782156899	2.3693254	1.5392613
20.430326615559935	2.3591146	1.535941
20.448135908305886	2.3405542	1.529887
20.465945700278965	2.3149288	1.521489
20.483755991951384	2.301577	1.517095
20.50156678379548	2.2890346	1.5129555
20.519378076283708	2.3308444	1.5267103
20.537189869888635	2.3347442	1.527987
20.55500216508294	2.3228467	1.5240887
20.572814962339415	2.3415716	1.5302194
20.59062826213098	2.342483	1.5305172
20.60844206493066	2.3235824	1.5243301
20.626256371211593	2.3148847	1.5214745
20.644071181447032	2.31765	1.522383
20.66188649611036	2.2923515	1.5140513
20.67970231567506	2.2652645	1.5050796
20.697518640614742	2.2186906	1.489527
20.715335471403122	2.229561	1.4931715
20.73315280851404	2.2762427	1.5087222
20.750970652421447	2.3224354	1.5239539
20.768789003599412	2.3483098	1.5324196
20.786607862522136	2.3215306	1.523657
20.8044272296639	2.2920928	1.513966
20.82224710549913	2.272505	1.507483
20.84006749050237	2.2684846	1.5061489
20.857888385148268	3.8581903	1.9642277
20.8757097899116	45.958656	6.7792816
20.893531705267254	64.79891	8.049777
20.911354131690224	83.79317	9.153861
20.92917706965566	69.06382	8.310465
20.94700051963877	50.132065	7.0804
20.96482448211493	29.415365	5.4235935
20.982648957559622	4.175577	2.043423
21.00047394644843	2.2726321	1.5075252
21.01829944925707	2.2715914	1.50718
21.036125466461375	2.245411	1.4984695
21.053951998537297	2.2449071	1.4983014
21.071779045960906	2.2645628	1.5048465
21.089606609208378	2.257848	1.5026138
21.10743468875603	2.2323592	1.4941082
21.12526328508028	2.209611	1.4864761
21.143092398657675	2.1787844	1.4760706
21.16092202996488	2.1935394	1.4810603
21.17875217947867	2.2171693	1.4890162
21.19658284767596	2.2402742	1.4967545
21.21441403503377	2.2076213	1.4858066
21.232245742029225	2.2334397	1.4944696
21.2500779691396	2.20282	1.48419
21.26791071684227	2.1530898	1.4673411
21.28574398561475	2.1579528	1.4689972
21.30357777593465	2.1829402	1.4774777
21.321412088279704	2.1904879	1.4800297
21.339246923127792	2.1275916	1.4586266
21.357082280956888	2.0707297	1.439003
21.3749181622451	2.086592	1.444504
21.392754567470647	2.1071315	1.4515961
21.41059149711187	2.1150072	1.4543064
21.42842895164726	2.10499	1.4508584
21.446266931555378	2.1074333	1.4517001
21.464105437314945	2.1011345	1.449529
21.481944469404798	2.093312	1.4468282
21.49978402830388	2.0843313	1.4437213
21.51762411449127	2.0777044	1.4414245
21.53546472844617	2.060968	1.4356072
21.553305870647876	2.061482	1.4357861
21.571147541575865	2.08111	1.4426053
21.58898974170967	2.0892286	1.4454165
21.60683247152899	2.051849	1.4324276
21.62467573151363	2.017632	1.4204338
21.642519522143523	2.0098495	1.4176916
21.660363843898722	2.029001	1.42443
21.6782086972594	2.0456545	1.4302638
21.696054082705864	2.0673025	1.4378117
21.713900000718535	2.0865557	1.4444915
21.73174645177795	2.0359209	1.426857
21.749593436364794	1.9950488	1.412462
21.767440954959845	1.9790932	1.4068024
21.785289008044032	2.0078597	1.4169897
21.803137596098388	2.0056293	1.4162024
21.820986719604086	2.0095575	1.4175886
21.838836379042412	1.9854697	1.4090669
21.85668657489478	1.9786516	1.4066455
21.87453730764273	1.9621147	1.400755
21.892388577767914	1.9879844	1.409959
21.91024038575213	1.9945501	1.4122854
21.928092732077285	1.9860939	1.4092884
21.945945617225426	1.9913659	1.4111576
21.963799041678694	2.0117729	1.4183698
21.981653005919398	31.336254	5.5978794
21.999507510429943	78.092674	8.837006
22.01736255569286	73.03045	8.545786
22.035218142190818	4.171688	2.0424712
22.05307427040661	2.040229	1.4283658
22.07093094082315	2.0362096	1.4269582
22.088788153923474	2.0362017	1.4269553
22.106645910190746	2.0225534	1.422165
22.12450421010827	2.0281143	1.4241188
22.142363054159464	2.0129528	1.4187857
22.16022244282787	1.9951473	1.4124968
22.178082376597164	1.9756861	1.405591
22.195942855951145	1.9731727	1.4046967
22.213803881373742	1.9957652	1.4127156
22.231665453349002	1.9711796	1.403987
22.24952757236111	1.9679514	1.4028369
22.26739023889438	1.9580603	1.399307
22.28525345343323	1.9689502	1.4031929
22.30311721646225	1.9788942	1.4067317
22.320981528466113	1.9686867	1.403099
22.33884638992964	1.9516326	1.3970084
22.356711801337788	1.9231533	1.386778
22.37457776317561	1.9238212	1.3870188
22.392444275928337	1.93519	1.391111
22.410311340081282	1.9550077	1.3982159
22.428178956119904	1.9699521	1.4035498
22.446047124529805	1.9832773	1.4082888
22.46391584579669	1.9810591	1.407501
22.481785120406414	1.9710989	1.4039583
22.49965494884496	1.9544673	1.3980227
22.51752533159841	1.961049	1.4003745
22.53539626915302	1.9530296	1.3975084
22.553267761995137	1.9425547	1.3937556
22.571139810611264	1.971064	1.4039458
22.589012415488025	1.9968611	1.4131033
22.60688557711216	1.9735372	1.4048264
22.624759295970566	1.9274261	1.3883177
22.642633572550263	1.8822426	1.3719485
22.660508407338362	1.8782289	1.370485
22.67838380082217	1.8799387	1.3711085
22.696259753489077	1.913228	1.3831949
22.714136265826614	1.9381268	1.3921663
22.73201333832246	1.9392395	1.3925658
22.74989097146439	1.9403385	1.3929603
22.76776916574035	1.9025342	1.3793238
22.785647921638393	1.8952281	1.3766729
22.803527239646712	1.8788297	1.370704
22.82140712025363	1.9034588	1.3796589
22.839287563947593	1.9445248	1.3944622
22.85716857121719	1.9548676	1.3981658
22.875050142551135	1.9394401	1.3926378
22.892932278438277	1.9100611	1.3820496
22.910814979367604	1.8863448	1.3734426
22.928698245828222	1.8760196	1.3696786
22.946582078309387	1.8743368	1.3690642
22.96446647730047	1.8651942	1.3657211
22.98235144329098	1.8758408	1.3696134
23.000236976770562	1.8762121	1.369749
23.018123078229	1.8949407	1.3765684
23.03600974815619	1.9163888	1.384337
23.053896987042194	1.9105495	1.3822263
23.071784795377173	1.8800441	1.371147
23.08967317365145	1.8399937	1.3564637
23.10756212235546	1.8372924	1.3554676
23.125451641979787	1.852312	1.3609967
23.143341733015134	1.8873956	1.3738252
23.161232395952357	1.9045988	1.380072
23.179123631282426	1.9355894	1.3912547
23.197015439496468	1.9299635	1.3892312
23.214907821085717	1.9126029	1.3829689
23.23280077654157	1.9099438	1.3820071
23.250694306355538	1.9090631	1.3816885
23.268588411019277	1.913609	1.3833326
23.28648309102458	1.9252244	1.3875246
23.304378346863356	1.9149855	1.3838301
23.322274179027676	1.9118769	1.3827064
23.340170588009723	1.908199	1.3813758
23.358067574301852	1.889001	1.3744093
23.37596513839651	1.8992021	1.3781154
23.39386328078629	1.9340054	1.3906852
23.411762001963947	1.9326892	1.3902119
23.429661302422353	1.8799019	1.3710952
23.4475611826545	1.8626859	1.3648025
23.46546164315356	1.8739206	1.3689122
23.48336268441279	1.8853571	1.3730831
23.501264306925638	1.9158244	1.3841331
23.51916651118564	1.9322449	1.3900521
23.537069297686497	1.9569618	1.3989145
23.554972666922037	1.9563551	1.3986976
23.57287661938623	1.9518129	1.3970729
23.59078115557318	1.965806	1.4020721
23.608686275977128	1.9618049	1.4006444
23.62659198109246	1.937625	1.391986
23.6444982714137	1.9066699	1.3808222
23.66240514743549	1.9117175	1.3826487
23.68031260965263	1.9044449	1.3800163
23.698220658560068	1.8962183	1.3770324
23.716129294652845	1.8976632	1.377557
23.7340385184262	1.9307005	1.3894966
23.75194833037546	1.9033082	1.3796043
23.769858730996123	1.8954754	1.3767626
23.78776972078382	1.8816321	1.3717259
23.80568130023431	1.8823382	1.3719833
23.823593469843495	1.9017003	1.3790215
23.841506230107424	1.922613	1.3865832
23.859419581522275	1.9414943	1.3933752
23.87733352458438	1.9263629	1.3879348
23.89524805979019	1.9077067	1.3811976
23.913163187636318	1.905175	1.3802807
23.931078908619508	1.9777147	1.4063125
23.948995223236633	1.9930141	1.4117415
23.966912131984735	1.9976965	1.413399
23.98482963536096	2.0182505	1.4206514
24.002747733862616	2.0312464	1.425218
24.020666427987155	2.030615	1.4249965
24.038585718232156	2.0549316	1.4335033
24.056505605095353	2.0679617	1.438041
24.074426089074617	2.078726	1.4417788
24.092347170667946	2.0077033	1.4169345
24.110268850373515	2.024694	1.4229174
24.128191128689586	2.061401	1.435758
24.146114006114626	2.078813	1.4418089
24.164037483147187	2.0290906	1.4244615
24.181961560286005	1.9937487	1.4120016
24.199886238029926	1.9943763	1.4122239
24.21781151687797	2.0202596	1.4213583
24.235737397329274	2.045487	1.4302052
24.253663879883135	2.0869179	1.4446169
24.271590965038975	2.1086447	1.4521173
24.289518653296376	2.0684466	1.4382095
24.30744694515505	2.0238445	1.4226189
24.32537584111486	2.0131018	1.4188381
24.34330534167581	2.0175998	1.4204224
24.361235447338046	2.0412636	1.428728
24.379166158601876	2.0109384	1.4180756
24.39709747596772	1.9734784	1.4048054
24.41502939993615	1.9955889	1.4126531
24.432961931007917	1.9843855	1.4086822
24.450895069683856	1.9824736	1.4080034
24.468828816465	1.9564147	1.398719
24.4867631718525	2.0107653	1.4180145
24.504698136347656	2.0201423	1.4213171
24.52263371045192	1.9972854	1.4132534
24.540569894666874	1.9513547	1.396909
24.558506689494266	1.9420494	1.3935744
24.57644409543597	1.8991632	1.3781013
24.594382112994012	1.8863667	1.3734506
24.61232074267057	1.8817196	1.3717579
24.630259984967953	1.8867271	1.3735819
24.64819984038863	1.8741875	1.3690096
24.66614030943522	1.9070226	1.3809499
24.684081392610462	1.9406185	1.3930608
24.702023090417274	1.980259	1.4072168
24.7199654033587	1.9666976	1.40239
24.737908331937927	1.9865457	1.4094487
24.755851876658305	2.0365407	1.4270742
24.773796038023324	2.06983	1.4386903
24.79174081653661	2.057394	1.4343619
24.809686212701962	2.0464208	1.4305316
24.827632227023294	2.066066	1.4373816
24.8455788600047	2.0632026	1.4363853
24.8635261121504	2.0360734	1.4269104
24.88147398396475	2.036206	1.4269569
24.899422475952303	2.0962718	1.4478507
24.917371588617698	2.1695666	1.4729449
24.935321322465768	2.2224853	1.4908003
24.953271678001478	2.2559955	1.5019972
24.97122265572994	2.388671	1.5455326
24.989174256156414	2.7396023	1.6551744
25.00712647978632	3.394054	1.8422959
25.02507932712521	4.348686	2.0853503
25.043032798678798	5.814573	2.4113426
25.060986894952933	7.43715	2.727114
25.078941616453637	8.954657	2.9924333
25.096896963687055	9.8612585	3.140264
25.114852937159508	10.656585	3.2644424
25.132809537377444	10.470997	3.235892
25.150766764847468	9.793691	3.1294873
25.168724620076347	8.404197	2.8989992
25.186683103570985	7.2456074	2.6917665
25.204642215838426	5.8328094	2.415121
25.222601957385894	4.6057796	2.146108
25.24056232872074	3.5087333	1.8731613
25.25852333035048	2.8086128	1.6758916
25.276484962782778	2.3726707	1.5403476
25.294447226525435	2.2211306	1.4903458
25.312410122086423	2.1497083	1.4661883
25.330373649973843	2.0550237	1.4335353
25.348337810695988	2.0157018	1.4197541
25.366302604761245	1.9519907	1.3971366
25.384268032678207	1.9404432	1.3929979
25.40223409495558	1.9374908	1.3919379
25.420200792102257	1.9284567	1.3886888
25.438168124627246	1.8527766	1.3611674
25.45613609303974	1.8478274	1.3593482
25.474104697849057	1.8712016	1.3679187
25.492073939564698	1.8782713	1.3705004
25.510043818696285	1.890276	1.374873
25.528014335753614	1.8976915	1.3775673
25.54598549124664	1.9070683	1.3809664
25.56395728568544	1.9136958	1.383364
25.58192971958028	1.8762076	1.3697473
25.59990279344156	1.8626149	1.3647765
25.617876507779833	1.8604062	1.3639671
25.635850863105826	1.8589793	1.363444
25.653825859930386	1.8967226	1.3772155
25.671801498764548	1.8736234	1.3688036
25.68977778011949	1.8544804	1.361793
25.707754704506524	1.8703676	1.3676138
25.725732272437153	1.8731793	1.3686414
25.743710484423012	1.8880922	1.3740786
25.761689340975888	1.8940704	1.3762523
25.77966884260774	1.8756624	1.3695483
25.797648989830662	1.833785	1.3541732
25.815629783156922	1.8160324	1.3476025
25.83361122309895	1.845654	1.3585485
25.85159331016929	1.9000583	1.378426
25.869576044880695	1.8896724	1.3746536
25.887559427746034	1.8361633	1.355051
25.90554345927836	1.8145078	1.3470367
25.92352813999086	1.8027629	1.3426701
25.94151347039689	1.7917007	1.3385442
25.959499451009965	1.7784365	1.3335804
25.97748608234374	1.7559351	1.325117
25.995473364912062	1.7505597	1.3230872
26.013461299228904	1.7747678	1.3322041
26.03144988580839	1.798834	1.3412062
26.04943912516483	1.8206874	1.3493285
26.067429017812675	1.8881106	1.3740854
26.085419564266537	1.9176164	1.3847803
26.103410765041186	1.8776875	1.3702874
26.12140262065155	1.844875	1.3582617
26.139395131612723	1.8386036	1.3559512
26.157388298439948	1.8076404	1.3444852
26.17538212164861	1.7753232	1.3324125
26.193376601754295	1.778335	1.3335422
26.211371739272714	1.8432753	1.3576728
26.229367534719746	1.8291951	1.3524774
26.247363988611433	1.8185294	1.3485286
26.26536110146397	1.8368967	1.3553216
26.283358873793727	1.8928931	1.3758245
26.301357306117204	1.9011694	1.378829
26.319356398951104	1.8558714	1.3623037
26.33735615281224	1.8534935	1.3614306
26.35535656821762	1.8350965	1.3546573
26.373357645684404	1.7972918	1.3406311
26.39135938572991	1.7884395	1.3373255
26.409361788871614	1.8323346	1.3536376
26.427364855627165	1.8253616	1.3510594
26.445368586514352	1.8312728	1.3532453
26.46337298205115	1.822077	1.3498434
26.48137804275568	1.8158113	1.3475205
26.499383769146217	1.7742779	1.3320203
26.517390161741215	1.7375294	1.3181537
26.53539722105928	1.7186043	1.3109555
26.553404947619182	1.76457	1.3283712
26.571413341939856	1.8351129	1.3546634
26.589422404540397	1.823873	1.3505085
26.60743213594006	1.7642392	1.3282467
26.62544253665827	1.7782867	1.3335241
26.64345360721459	1.8648263	1.3655864
26.66146534812879	1.8461523	1.3587319
26.679477759920758	1.8345826	1.3544676
26.69749084311057	1.8349304	1.354596
26.71550459821847	1.8186653	1.3485789
26.733519025764842	1.8379081	1.3556947
26.751534126270258	1.85439	1.3617599
26.769549900255434	1.8291421	1.3524578
26.787566348241267	1.8127087	1.3463687
26.80558347074881	1.7634027	1.3279318
26.823601268299267	1.7769371	1.3330181
26.841619741414036	1.800741	1.3419169
26.85963889061465	1.8226739	1.3500644
26.877658716422832	1.8816417	1.3717295
26.89567921936045	1.8716607	1.3680865
26.913700399949544	1.7994593	1.3414392
26.93172225871233	1.7886549	1.337406
26.949744796171174	1.8207235	1.3493419
26.967768012848605	1.826741	1.3515698
26.98579190926733	1.8159113	1.3475575
27.003816485950225	1.8430363	1.3575847
27.021841743420318	1.8605669	1.364026
27.039867682200814	1.8474078	1.3591938
27.057894302815072	1.7981321	1.3409444
27.07592160578664	1.7750953	1.332327
27.0939495916392	1.8069289	1.3442205
27.111978260896635	1.754837	1.3247026
27.13000761408296	1.706495	1.3063289
27.148037651722397	1.7383263	1.318456
27.166068374339304	1.7999805	1.3416336
27.184099782458215	1.7834178	1.3354467
27.20213187660384	1.7739934	1.3319135
27.22016465730105	1.8313913	1.3532891
27.23819812507487	1.8895842	1.3746215
27.256232280450533	1.8688415	1.3670558
27.274267123953383	1.8089918	1.3449876
27.292302656108987	1.8143718	1.3469862
27.31033887744306	1.8040414	1.3431461
27.32837578848146	1.7720371	1.3311789
27.34641338975026	1.7493588	1.3226333
27.364451681775673	1.7781526	1.3334739
27.382490665084074	1.8085307	1.3448162
27.400530340202046	1.7800248	1.3341757
27.41857070765629	1.7857194	1.3363081
27.436611767973726	1.7733506	1.3316721
27.454653521681404	1.8110188	1.345741
27.472695969306564	1.7831776	1.3353567
27.490739111376627	1.7408857	1.3194263
27.508782948419153	1.7714365	1.3309532
27.526827480961902	1.8470722	1.3590703
27.54487270953279	1.852818	1.3611826
27.562918634659898	1.8354514	1.3547883
27.580965256871508	1.822083	1.3498455
27.599012576696026	1.7717248	1.3310615
27.617060594662068	1.8159277	1.3475636
27.63510931129842	1.8742362	1.3690275
27.65315872713401	1.8636458	1.3651541
27.67120884269797	1.814916	1.3471882
27.68925965851958	1.817781	1.3482511
27.707311175128307	1.8623613	1.3646836
27.725363393053787	1.8909891	1.3751323
27.74341631282583	1.8960685	1.376978
27.7614699349744	1.8845582	1.3727921
27.77952426002968	2.0756876	1.4407247
27.797579288521973	2.1646934	1.4712896
27.815635020981784	2.569352	1.6029198
27.83369145793979	2.6260743	1.6205167
27.85174859992682	2.4430008	1.5630102
27.869806447473923	2.281355	1.5104154
27.887865001112267	2.0752757	1.4405817
27.905924261373233	1.9690846	1.4032408
27.92398422878836	1.8951414	1.3766414
27.94204490388936	1.886954	1.3736644
27.96010628720813	1.8707621	1.367758
27.978168379276728	1.8383594	1.3558611
27.9962311806274	1.8191302	1.3487513
28.014294691792568	1.8764448	1.3698338
28.0323589133048	1.875043	1.3693221
28.050423845696887	1.8631243	1.364963
28.068489489501758	1.910474	1.3821989
28.086555845252523	1.9206169	1.3858632
28.104622913482487	1.8545346	1.361813
28.122690694725115	1.8122317	1.3461915
28.14075918951405	1.8108923	1.345694
28.15882839838312	1.87063	1.3677098
28.176898321866304	1.9043269	1.3799735
28.1949689604978	1.9374201	1.3919123
28.213040314811945	1.9593768	1.3997774
28.23111238534327	1.959217	1.3997203
28.249185172626493	1.9578702	1.3992392
28.267258677196473	1.9301625	1.3893028
28.285332899588294	1.9323473	1.3900889
28.303407840337172	1.9325229	1.3901521
28.321483499978545	1.9464573	1.395155
28.33955987904799	1.9680855	1.4028847
28.357636978081285	1.9619459	1.4006948
28.37571479761439	1.9484885	1.3958827
28.393793338183425	1.983087	1.4082212
28.41187260032469	2.0475159	1.4309144
28.429952584574686	2.0275805	1.4239314
28.448033291470065	2.0183647	1.4206916
28.46611472154769	1.9937403	1.4119987
28.484196875344566	1.9880762	1.4099916
28.502279753397914	2.0358686	1.4268386
28.52036335624511	2.086621	1.4445142
28.538447684423716	2.045595	1.430243
28.556532738471482	1.9861419	1.4093055
28.574618518926325	1.955067	1.3982371
28.59270502632635	2.003547	1.415467
28.61079226120985	1.9797742	1.4070445
28.628880224115274	1.9885173	1.410148
28.646968915581287	2.0080912	1.4170713
28.66505833614671	2.0776815	1.4414165
28.68314848635055	2.0900068	1.4456856
28.701239366732004	2.0862541	1.4443871
28.71933097783044	2.0948358	1.4473548
28.737423320185403	2.1404884	1.4630408
28.75551639433665	2.194246	1.4812988
28.773610200824074	2.156223	1.4684083
28.791704740187793	2.1166809	1.4548818
28.80980001296809	2.1324892	1.4603045
28.827896019705413	2.0959237	1.4477305
28.845992760940433	2.1175056	1.4551651
28.86409023721397	2.193621	1.4810878
28.88218844906704	2.2512596	1.5004199
28.900287397040845	2.2317748	1.4939126
28.918387081676755	2.2025907	1.4841127
28.936487503516343	2.1976705	1.4824542
28.954588663101365	2.2413118	1.4971012
28.97269056097374	2.2901707	1.5133309
28.990793197675597	2.3429227	1.5306609
29.00889657374923	2.3692272	1.5392294
29.027000689737125	2.3273058	1.525551
29.04510554618196	2.3185067	1.5226643
29.06321114362659	2.412984	1.5533782
29.08131748261405	2.4827704	1.575681
29.099424563687567	2.499711	1.5810474
29.11753238739057	2.5035448	1.5822594
29.13564095426663	2.5708401	1.603384
29.15375026485954	2.6018927	1.6130383
29.171860319713275	2.6221879	1.619317
29.18997111937199	2.6311052	1.6220682
29.20808266438002	2.7426047	1.6560811
29.226194955281898	2.8030138	1.6742203
29.244307992622335	2.885365	1.6986362
29.26242177694624	2.9215035	1.7092407
29.2805363087987	2.9665928	1.7223799
29.29865158872498	3.0018756	1.7325922
29.316767617270557	2.9798484	1.7262237
29.334884394981064	2.9965148	1.7310444
29.353001922402367	3.0424812	1.7442709
29.37112020008047	3.069885	1.7521087
29.389239228561596	3.1411934	1.7723413
29.407359008392152	3.3054605	1.8180926
29.42547954011872	3.5989437	1.8970882
29.44360082428809	4.070221	2.017479
29.46172286144722	4.971786	2.2297502
29.479845652143283	6.632869	2.5754356
29.497969196923606	9.275961	3.0456462
29.516093496335728	12.98226	3.6030903
29.5342185509274	16.537119	4.0665855
29.55234436124651	19.798672	4.4495697
29.570470927841175	21.28102	4.6131353
29.588598251259686	21.215298	4.6060066
29.60672633205055	19.596333	4.4267745
29.624855170762405	16.338917	4.0421424
29.642984767944146	12.834392	3.582512
29.66111512414481	9.513334	3.0843694
29.67924623991366	7.0382805	2.6529758
29.697378115800138	5.24458	2.2901049
29.71551075235387	4.30021	2.0736947
29.733644150124675	3.7959201	1.9483122
29.751778309662576	3.5046675	1.8720757
29.769913231517766	3.4457827	1.856282
29.78804891624066	3.4482305	1.8569412
29.806185364381818	3.4311237	1.8523293
29.82432257649206	3.373366	1.8366725
29.842460553122333	3.3055794	1.8181252
29.86059929482382	3.2835526	1.8120576
29.878738802147872	3.3382838	1.827097
29.896879075646048	3.3686607	1.8353912
29.915020115870114	3.355664	1.8318472
29.933161923371976	3.3317308	1.825303
29.951304498703777	3.2947412	1.8151422
29.969447842417857	3.1896937	1.7859714
29.987591955066733	3.1299787	1.7691746
30.005736837203123	3.124466	1.7676159
30.023882489379943	3.1009402	1.7609487
30.04202891215028	3.1440647	1.773151
30.060176106067455	3.1519094	1.7753618
30.078324071684946	3.1243753	1.7675903
30.09647280955646	3.1068919	1.7626377
30.114622320235863	3.1793919	1.7830849
30.132772604277257	3.19095	1.7863231
30.1509236622349	3.154511	1.7760943
30.16907549466328	3.0685377	1.7517242
30.18722810211705	3.0318003	1.7412065
30.205381485151097	2.9947815	1.7305437
30.22353564432045	2.980567	1.7264318
30.241690580180403	2.9987943	1.7317027
30.25984629328638	3.0538144	1.7475166
30.278002784194037	3.058371	1.74882
30.296160053459246	2.9981225	1.7315087
30.314318101638033	2.962148	1.7210891
30.332476929286646	2.9760962	1.7251365
30.35063653696153	2.9600449	1.720478
30.368796925219307	2.9150784	1.70736
30.386958094616844	2.8709624	1.6943915
30.40512004571115	2.8703618	1.6942142
30.423282779059463	2.858232	1.6906307
30.441446295219233	2.8797574	1.6969848
30.459610594748067	2.8901033	1.7000304
30.47777567820382	2.8416488	1.6857191
30.495941546144504	2.782214	1.667997
30.51410819912835	2.7890205	1.6700361
30.532275637713795	2.8688033	1.6937542
30.55044386245946	2.9065952	1.7048739
30.56861287392416	2.840083	1.6852546
30.586782672666956	2.81164	1.6767945
30.604953259247047	2.778477	1.6668764
30.623124634223885	2.7547352	1.6597395
30.641296798157075	2.7681193	1.6637666
30.659469751606462	2.7972686	1.6725037
30.677643495132074	2.7976243	1.67261
30.695818029294152	2.7872226	1.6694977
30.713993354653116	2.8116624	1.6768012
30.73216947176962	2.8047562	1.6747407
30.75034638120448	2.7698226	1.6642784
30.768524083518756	2.7205434	1.649407
30.786702579273673	2.8315532	1.682722
30.80488186903069	2.98815	1.7286266
30.82306195335144	3.1484783	1.7743952
30.841242832797782	3.3422914	1.8281934
30.85942450793176	3.585639	1.8935784
30.877606979315637	3.9189377	1.9796307
30.895790247511883	4.3576593	2.0875008
30.913974313083134	4.851621	2.2026396
30.932159176592283	5.25414	2.292191
30.95034483860237	5.549341	2.355704
30.968531299676698	5.576204	2.3613987
30.98671856037873	5.2894826	2.2998874
31.00490662127215	4.7723513	2.1845713
31.023095482920848	4.256222	2.0630612
31.04128514588892	3.7158043	1.9276422
31.059475610740662	3.2491777	1.8025476
31.07766687804056	2.8340573	1.6834658
31.09585894835335	2.6577842	1.6302712
31.11405182224393	2.5649016	1.601531
31.132245500277417	2.4829032	1.575723
31.15043998301914	2.412444	1.5532044
31.168635271034628	2.41786	1.5549469
31.18683136488964	2.40934	1.5522048
31.20502826515008	2.4294548	1.5586709
31.223225972382135	2.4431493	1.5630577
31.241424487152155	2.3615267	1.536726
31.259623810026692	2.3447578	1.5312603
31.27782394157253	2.4049158	1.5507791
31.296024882356644	2.4845479	1.5762448
31.314226632946237	2.5352893	1.5922592
31.332429193908684	2.497606	1.5803816
31.350632565811598	2.4586544	1.5680097
31.368836749222787	2.489061	1.5776758
31.387041744710295	2.4939055	1.5792104
31.40524755284232	2.4568996	1.56745
31.423454174187317	2.5114243	1.5847474
31.441661609313922	2.6267662	1.6207302
31.459869858791002	2.572848	1.60401
31.478078923187628	2.4368255	1.5610335
31.496288803073064	2.344106	1.5310473
31.514499499016807	2.3267279	1.5253615
31.532711011588546	2.3976307	1.5484284
31.550923341358178	2.3659525	1.5381653
31.56913648889584	2.2558112	1.5019358
31.587350454771844	2.2078288	1.4858764
31.605565239556732	2.2590077	1.5029995
31.62378084382127	2.3262453	1.5252033
31.641997268136382	2.3552485	1.5346819
31.660214513073274	2.35514	1.5346465
31.67843257920331	2.2853	1.5117209
31.6966514670981	2.2459788	1.498659
31.71487117732944	2.2408018	1.4969308
31.733091710469346	2.2823946	1.5107596
31.751313067090052	2.3116536	1.5204123
31.769535247764008	2.3706844	1.5397027
31.787758253063878	2.3593924	1.5360314
31.805982083562526	2.3231812	1.5241985
31.824206739833024	2.3346062	1.5279418
31.84243222244869	2.3352523	1.5281532
31.860658531983013	2.2383866	1.4961239
31.878885669009737	2.1940506	1.4812328
31.897113634102784	2.2406876	1.4968927
31.91534242783632	2.3003726	1.5166979
31.933572050784694	2.3239608	1.5244542
31.951802503522508	2.2447002	1.4982324
31.970033786624548	2.1848056	1.4781088
31.988265900665834	2.1298418	1.4593978
32.006498846221575	2.1494224	1.4660909
32.02473262386724	2.1274562	1.4585803
32.04296723417845	2.1647997	1.4713259
32.0612026777311	2.2113712	1.4870679
32.07943895510129	2.283236	1.5110381
32.097676066865304	2.293221	1.5143385
32.115914013599685	2.342767	1.53061
32.13415279588115	2.3229568	1.524125
32.152392414286666	2.204394	1.4847202
32.1706328693934	2.1034255	1.450319
32.18887416177875	2.0331066	1.4258704
32.20711629202032	2.0278614	1.42403
32.225359260695924	2.1273093	1.4585298
32.243603068383614	2.1331718	1.4605381
32.26184771566166	1.9931774	1.4117993
32.28009320310852	2.085631	1.4441713
32.2983395313029	2.2658644	1.5052788
32.31658670082372	2.214624	1.4881612
32.33483471225012	2.187991	1.4791859
32.35308356616143	2.2156818	1.4885167
32.371333263137245	2.1124575	1.4534296
32.38958380375734	2.0237696	1.4225925
32.407835188601744	2.0491984	1.4315021
32.42608741825067	2.1088943	1.4522033
32.444340493284585	2.171309	1.4735363
32.46259441428416	2.1643372	1.4711686
32.48084918183028	2.1359973	1.4615052
32.49910479650405	2.0971045	1.4481384
32.51736125888683	2.0999377	1.4491162
32.53561856956014	2.173787	1.4743768
32.5538767291058	2.2147832	1.4882147
32.572135738105764	2.1483874	1.4657378
32.59039559714228	2.0974095	1.4482436
32.608656306797776	2.040525	1.4284694
32.62691786765491	2.0218506	1.4219179
32.645180280296586	2.0151339	1.4195541
32.663443545305896	2.079373	1.4420031
32.68170766326619	2.1229274	1.457027
32.69997263476099	2.0893555	1.4454603
32.7182384603741	2.0683303	1.4381691
32.7365051406895	2.0136583	1.4190342
32.75477267629144	1.9718302	1.4042187
32.77304106776434	2.044661	1.4299165
32.79131031569289	2.1636274	1.4709274
32.809580420661966	2.1355083	1.4613378
32.827851383256714	2.0523796	1.4326129
32.84612320406245	2.063583	1.4365176
32.86439588366476	2.1216357	1.4565836
32.88266942264945	2.0837426	1.4435174
32.9009438216025	2.039287	1.4280361
32.9192190811102	1.9963106	1.4129086
32.937495201758985	1.9612592	1.4004496
32.95577218413556	1.9293656	1.389016
32.974050028826866	1.9093038	1.3817756
32.992328736420035	1.9258772	1.3877598
33.010608307502444	1.996622	1.4130187
33.02888874266169	2.0459359	1.4303621
33.047170042485604	1.9809091	1.4074477
33.06545220756225	1.8901279	1.3748193
33.083735238479896	1.9224637	1.3865293
33.10201913582707	1.9292012	1.3889569
33.12030390019248	1.8922704	1.3755982
33.138589532165135	1.9005371	1.3785996
33.15687603233419	1.9509209	1.3967537
33.17516340128909	2.0761716	1.4408927
33.19345163961947	2.0997596	1.4490547
33.211740747915215	2.1189215	1.4556515
33.23003072676643	2.0272744	1.4238238
33.248321576763466	1.9425024	1.3937368
33.266613298496885	2.0402577	1.4283758
33.28490589255747	2.0931141	1.4467598
33.30319935953626	2.0198958	1.4212304
33.32149370002451	1.9773196	1.4061719
33.339788914613706	1.9494772	1.3962368
33.358085003895575	1.9499189	1.396395
33.376381968462034	2.017987	1.4205587
33.39467980890529	2.0121267	1.4184945
33.41297852581774	1.9626273	1.400938
33.43127811979204	1.9386219	1.392344
33.44957859142105	1.9413207	1.3933128
33.467879941297866	1.928495	1.3887026
33.486182170015844	1.8964208	1.377106
33.50448527816853	1.9486574	1.3959432
33.522789266349754	1.942269	1.3936532
33.541094135153514	1.8303679	1.3529109
33.55939988517411	1.8281066	1.352075
33.57770651700602	1.9155807	1.3840451
33.59601403124398	1.8924378	1.375659
33.61432242848296	1.897971	1.3776687
33.632631709318154	1.9313341	1.3897245
33.650941874344994	1.9718007	1.4042082
33.66925292415916	1.9514711	1.3969506
33.68756485935654	1.8758037	1.3695998
33.70587768053328	1.8740888	1.3689736
33.724191388285746	1.8483464	1.359539
33.74250598321054	1.8472397	1.3591319
33.760821465904506	1.7216012	1.312098
33.77913783696474	1.7497319	1.3227743
33.79745509698852	1.9008218	1.378703
33.815773246573414	2.0337539	1.4260974
33.8340922863172	2.1687367	1.4726632
33.852412216817896	2.0499332	1.4317588
33.87073303867377	1.8610364	1.3641981
33.889054752483304	1.8005939	1.3418621
33.907377358845245	1.7688482	1.3299805
33.92570085835853	1.9222977	1.3864695
33.94402525162239	2.0802782	1.4423169
33.96235053923627	2.0135715	1.4190037
33.980676721799824	1.8844024	1.3727354
33.999003799912984	1.901264	1.3788633
34.01733177417592	2.0120971	1.4184841
34.03566064518901	2.069726	1.4386542
34.0539904135529	2.041746	1.4288968
34.07232107986846	1.9810145	1.4074851
34.090652644736785	1.8984749	1.3778516
34.108985108759235	1.935673	1.3912847
34.12731847253742	2.0514016	1.4322715
34.14565273667313	2.0073986	1.416827
34.16398790176847	1.9348966	1.3910056
34.18232396842574	1.9904068	1.4108177
34.20066093724749	2.013872	1.4191096
34.21899880883651	1.9650183	1.4017911
34.23733758379583	1.9737111	1.4048883
34.25567726272874	2.0190945	1.4209484
34.27401784623872	1.9961444	1.4128498
34.29235933492957	1.830865	1.3530946
34.31070172940526	1.8278576	1.3519828
34.32904503027003	1.8439542	1.3579228
34.347389238128386	1.8127598	1.3463876
34.36573435358502	1.9688469	1.403156
34.38408037724492	2.0611634	1.4356753
34.402427309713296	1.9094652	1.381834
34.42077515159559	1.9708807	1.4038806
34.43912390349752	2.1252196	1.4578133
34.45747356602499	2.0401804	1.4283489
34.47582413978423	1.9856312	1.4091243
34.49417562538163	2.00592	1.4163051
34.51252802342388	1.9203149	1.3857542
34.53088133451789	1.9309605	1.38959
34.54923555927084	2.0965424	1.4479442
34.567590698290104	2.0772007	1.4412497
34.58594675218336	2.006399	1.4164741
34.6043037215585	2.1451554	1.4646349
34.62266160702365	2.1754024	1.4749246
34.641020409187234	2.0076716	1.4169233
34.65938012865785	1.8996487	1.3782774
34.677740766044394	1.9091831	1.381732
34.69610232195598	1.974605	1.4052063
34.714464797002016	2.0521896	1.4325465
34.73282819179208	2.0845225	1.4437876
34.751192506936064	2.0708058	1.4390295
34.76955774304408	2.049615	1.4316477
34.7879239007265	2.116235	1.4547285
34.80629098059391	2.0082586	1.4171304
34.824658983257194	1.8718114	1.3681415
34.843027909327446	1.8766358	1.3699036
34.86139775941603	1.8187299	1.3486029
34.879768534134534	1.908347	1.3814293
34.89814023409483	1.9722288	1.4043607
34.91651285990901	1.9776016	1.4062723
34.93488641218944	2.135592	1.4613665
34.95326089154871	2.1068716	1.4515066
34.97163629859967	1.8659354	1.3659924
34.99001263395542	1.7270902	1.314188
35.00838989822934	1.6249027	1.2747167
35.02676809203499	1.735725	1.3174692
35.04514721598624	1.9449179	1.3946031
35.063527270697215	2.0715878	1.4393011
35.081908256782256	2.0375378	1.4274235
35.10029017485597	1.9783994	1.4065559
35.11867302553321	1.9358944	1.3913642
35.137056809429104	1.7863356	1.3365387
35.155441527159006	1.7965157	1.3403417
35.173827179338524	1.9854264	1.4090517
35.19221376658354	2.0435011	1.4295108
35.21060128951017	2.00178	1.4148427
35.2289897487348	1.8788801	1.3707225
35.24737914487405	2.136198	1.4615738
35.26576947854479	2.3718374	1.5400771
35.28416075036418	2.3510377	1.5333095
35.30255296094958	2.3435743	1.5308737
35.32094611091867	2.2838044	1.5112262
35.33934020088932	2.1779644	1.4757928
35.35773523147969	2.2687392	1.5062335
35.3761312033082	2.396451	1.5480474
35.394528116993506	2.2931297	1.5143083
35.41292597315452	2.1245677	1.4575897
35.431324772410434	1.929731	1.3891476
35.449724515380666	2.2301915	1.4933826
35.46812520268491	2.552938	1.5977916
35.486526834943106	2.3042855	1.5179874
35.504929412775454	1.7607656	1.3269384
35.52333293680242	1.9186592	1.3851568
35.54173740764471	1.9637163	1.4013267
35.560142825923286	1.7508582	1.3232
35.5785491922594	2.2501893	1.5000631
35.59695650727454	2.6015031	1.6129175
35.61536477159042	2.7802224	1.6673999
