0.008763373481513119	0.0	0.0
0.026290120649546365	0.14626539	0.3824466
0.043816868432600686	0.1255995	0.3544002
0.06134361724069026	0.08669658	0.29444283
0.07887036748382949	0.09511394	0.3084055
0.0963971195720331	0.10645771	0.32627857
0.11392387391531617	0.0872475	0.29537687
0.1314506309236943	0.117708296	0.34308642
0.1489773910071836	0.116634935	0.34151858
0.16650415457580078	0.13190825	0.36319175
0.18403092203956356	0.1671394	0.40882686
0.20155769380849	0.20258957	0.4500995
0.2190844702925996	0.24623956	0.4962253
0.2366112519019124	0.23283798	0.4825329
0.2541380390464497	0.20936738	0.4575668
0.27166483213623416	0.13686316	0.3699502
0.28919163158128947	0.104408674	0.3231233
0.3067184377916406	0.12251125	0.3500161
0.324245251177314	0.13244958	0.36393625
0.34177207214833777	0.14929433	0.38638625
0.3592989011147415	0.18148132	0.42600623
0.37682573848655654	0.21740934	0.46627176
0.39435258467381573	0.23338889	0.4831034
0.41187944008655414	0.25750166	0.5074462
0.42940630513480854	0.21304497	0.46156794
0.446933180228618	0.17749913	0.42130646
0.4644600657780234	0.16441001	0.40547505
0.48198696219306775	0.17201611	0.41474825
0.49951386988379676	0.14718786	0.3836507
0.5170407892602581	0.12238328	0.34983322
0.5345677207325025	0.14140724	0.37604153
0.5520946647105822	0.16897273	0.41106293
0.5696216216045534	0.19442861	0.4409406
0.5871485918244737	0.15563323	0.39450377
0.6046755757804043	0.158109	0.39762923
0.6222025738824094	0.16558853	0.4069257
0.6397295865405557	0.1514076	0.38911128
0.6572566141649129	0.16440295	0.40546632
0.6747836571655547	0.18602897	0.43131077
0.6923107159525568	0.21297017	0.4614869
0.7098377909359992	0.2091026	0.4572774
0.7273648825259653	0.18058589	0.424954
0.7448919911325411	0.1523041	0.3902616
0.762419117165817	0.16579758	0.40718248
0.7799462610358868	0.19793488	0.44489872
0.7974734231528482	0.21327993	0.4618224
0.8150006039268024	0.24360527	0.49356386
0.8325278037678551	0.21603793	0.4647988
0.8500550230861152	0.2211207	0.47023472
0.8675822622916969	0.20494913	0.45271307
0.8851095217947171	0.18659955	0.4319717
0.9026368020052984	0.2052978	0.453098
0.9201641033335665	0.19005574	0.43595383
0.9376914261896523	0.24227054	0.49220985
0.9552187709836915	0.26773688	0.517433
0.9727461381258234	0.2452708	0.49524823
0.990273528026193	0.26480612	0.5145932
1.0078009410949496	0.26912132	0.518769
1.0253283777422473	0.30119267	0.54881024
1.0428558383782454	0.28539756	0.5342261
1.0603833234131086	0.26663548	0.51636755
1.0779108332570058	0.3153589	0.56156826
1.0954383683201119	0.33453637	0.5783912
1.112965929012607	0.40941587	0.63985616
1.1304935157446763	0.52183986	0.7223848
1.1480211289265108	0.54602545	0.73893535
1.1655487689683062	1.3342073	1.1550789
1.1830764362802655	1.5818933	1.2577335
1.200604131272596	2.0092134	1.4174672
1.2181318543555117	2.4922965	1.5787009
1.235659605939232	2.4338539	1.5600814
1.253187386433982	4.0281005	2.0070128
1.270715196249994	6.5329514	2.555964
1.2882430357975057	12.183624	3.490505
1.3057709054867608	17.06987	4.13157
1.3232988057280106	22.576344	4.751457
1.3408267369315112	27.07571	5.2034326
1.358354699507526	30.640884	5.535421
1.3758826938663256	34.71668	5.892086
1.3934107204181858	36.941933	6.0779877
1.410938779573391	37.4151	6.1167884
1.4284668717422309	37.90515	6.156716
1.4459949973350033	37.526505	6.125888
1.4635231567620117	37.850513	6.152277
1.4810513504335687	37.280865	6.105806
1.4985795787599925	36.44259	6.03677
1.5161078421516088	35.463837	5.955152
1.5336361410187505	34.38548	5.863913
1.5511644757717598	34.216164	5.849458
1.5686928468209842	35.580708	5.9649568
1.58622125457678	36.42184	6.035051
1.6037496994495108	37.693436	6.139498
1.621278181849548	37.14248	6.094463
1.6388067021872719	37.573116	6.1296916
1.6563352608730693	37.12914	6.0933685
1.673863858317336	36.393612	6.032712
1.6913924949304753	35.835392	5.986267
1.7089211711228998	34.899624	5.9075904
1.7264498873050296	34.010517	5.831854
1.7439786438872935	32.986538	5.743391
1.7615074412801288	32.04684	5.660993
1.779036279893981	31.105661	5.5772448
1.796565160139305	30.151169	5.491008
1.814094082426564	29.125805	5.396833
1.8316230471662298	28.542768	5.342543
1.849152054768784	27.685503	5.2617016
1.8666811056447168	27.262896	5.2213883
1.8842102002045273	26.290966	5.127472
1.901739338858724	25.525824	5.0523086
1.9192685220178245	25.240118	5.0239544
1.9367977500923557	24.768423	4.9767885
1.9543270234928547	24.253841	4.924819
1.971856342629867	23.44027	4.841515
1.9893857079139496	22.65641	4.759875
2.006915119755667	22.269588	4.7190666
2.0244445785655945	21.779675	4.66687
2.0419740847543175	21.460426	4.6325397
2.0595036387324317	21.104652	4.59398
2.0770332409105414	20.823006	4.5632234
2.094562891699263	20.49999	4.5276914
2.1120925915092217	20.210793	4.4956417
2.129622340751053	19.950926	4.4666457
2.1471521398354043	187.92908	13.708723
2.1646819891729323	444.04663	21.072414
2.182211889174303	440.0956	20.978456
2.1997418402501974	452.64917	21.275553
2.2172718428113023	432.99582	20.808552
2.234801897268317	320.83023	17.911734
2.2523320040319548	17.239302	4.152024
2.269862163512935	16.764141	4.0944037
2.287392376121992	16.444983	4.0552416
2.304922642269869	16.190725	4.02377
2.322452962367322	15.956512	3.9945602
2.3399833368251164	15.776617	3.971979
2.357513766054032	15.61214	3.95122
2.3750442504648586	15.220317	3.9013224
2.3925747904683963	14.797468	3.8467476
2.410105386475459	14.600967	3.8211212
2.4276360388968707	14.26436	3.7768188
2.445166748143469	14.14594	3.7611089
2.4626975146261025	13.712162	3.7029936
2.4802283387556323	13.313522	3.64877
2.4977592209429305	12.990218	3.6041946
2.5152901615988825	12.6798525	3.560878
2.5328211611343865	12.780432	3.5749729
2.5503522199603523	12.738754	3.5691392
2.5678833384877024	12.638394	3.555052
2.5854145171273712	12.330335	3.5114577
2.6029457562903064	12.23358	3.4976535
2.620477056387469	12.174078	3.4891372
2.6380084178298326	11.863513	3.444345
2.655539841028383	11.579606	3.402882
2.673071326394119	11.3557	3.3698218
2.6906028743380523	11.101308	3.3318624
2.708134485271211	10.951717	3.3093379
2.7256661596046325	10.782624	3.2836907
2.743197897749369	10.602204	3.2561026
2.760729700116486	10.451241	3.232838
2.778261567117063	10.203011	3.194215
2.795793499162193	10.122301	3.1815565
2.8133254966629817	10.033736	3.1676073
2.830857560030551	9.962678	3.156371
2.8483896896760337	9.904303	3.1471102
2.865921886010578	9.629504	3.1031442
2.883454149445347	9.503795	3.0828226
2.9009864803915177	9.2804365	3.046381
2.91851887926028	9.119227	3.019806
2.9360513464628384	8.895466	2.9825268
2.953583882410413	8.878779	2.979728
2.9711164875142373	8.761196	2.9599319
2.9886491621855606	8.6492605	2.9409626
3.0061819068356455	8.626995	2.9371746
3.023714721875769	8.546447	2.9234307
3.041247607717225	8.454202	2.907611
3.0587805647713213	8.200471	2.8636465
3.0763135934493806	7.9442368	2.8185523
3.0938466941627407	7.9314494	2.816283
3.1113798673227544	8.01389	2.8308816
3.1289131133407904	8.037319	2.8350167
3.1464464326282315	8.032071	2.834091
3.1639798255964786	7.8900194	2.8089178
3.1815132926569443	7.7872744	2.7905688
3.1990468342210603	7.7776756	2.7888484
3.216580450700272	7.6897173	2.7730339
3.2341141425060416	7.4511323	2.7296762
3.251647910049847	7.2756104	2.697334
3.2691817537431813	7.0913033	2.66295
3.286715673997555	7.05441	2.656014
3.3042496712244938	7.033682	2.652109
3.32178374583554	7.072749	2.6594641
3.339317898242251	6.9867487	2.643246
3.3568521288562034	6.9095826	2.6286085
3.3743864380889876	6.8665266	2.620406
3.3919208263522127	6.809081	2.6094215
3.4094552940575023	6.7640386	2.6007764
3.4269898416164972	6.7083063	2.5900397
3.444524469440858	6.6053386	2.5700853
3.4620591779422587	6.5316477	2.555709
3.479593967532391	6.445527	2.5388043
3.4971288386229658	6.395993	2.52903
3.5146637916257086	6.4628053	2.5422049
3.5321988269523628	6.3596797	2.5218406
3.5497339450146903	6.418244	2.5334253
3.5672691462244708	6.320584	2.5140772
3.5848044309934988	6.275769	2.5051486
3.60233979973359	6.1953797	2.489052
3.619875252856575	6.177589	2.4854755
3.6374107907743034	6.0949893	2.4688032
3.6549464138986427	6.0912285	2.4680414
3.6724821226414788	6.1082845	2.4714944
3.690017917414714	6.2533946	2.5006788
3.7075537986302702	6.418772	2.5335295
3.7250897667000857	6.522339	2.5538871
3.7426258220361235	6.666691	2.5819936
3.7601619650503553	6.9086723	2.6284354
3.777698196154779	7.407836	2.721734
3.7952345157614067	8.40418	2.8989964
3.8127709242822716	9.241535	3.0399892
3.830307422129425	11.486954	3.389241
3.847844009714936	12.713967	3.565665
3.8653806874508954	15.9825	3.9978118
3.882917455749409	15.478415	3.9342616
3.900454315022606	15.606433	3.9504979
3.917991265682631	12.637566	3.5549355
3.9355283081416506	10.870046	3.2969751
3.9530654428118495	8.742061	2.9566977
3.970602670105433	7.498988	2.738428
3.9881399904346244	6.625761	2.5740554
4.005677404211669	6.509942	2.5514588
4.023214911848827	6.546666	2.5586455
4.0407525137583855	6.537342	2.5568225
4.058290210352644	6.5065007	2.5507843
4.075828002043927	6.387815	2.5274127
4.0933658892445814	6.3347483	2.5168927
4.110903872366966	6.322539	2.5144658
4.128441951823468	6.306275	2.5112298
4.145980128026488	6.2227635	2.4945467
4.163518401388452	6.193217	2.4886174
4.181056772321807	6.0934105	2.4684834
4.1985952412390155	6.0422544	2.4580998
4.216133808552567	6.1815443	2.4862711
4.233672474674966	6.290276	2.5080423
4.251211240018741	6.4356523	2.5368588
4.268750104996445	6.624895	2.573887
4.286289070020643	7.554365	2.7485206
4.303828135503928	9.294179	3.0486355
4.3213673018589125	29.591715	5.439827
4.3389065694982305	90.66458	9.521795
4.356445938834537	165.86964	12.879039
4.3739854102805085	171.39462	13.091777
4.391524984248844	172.41757	13.130787
4.409064661152262	136.47853	11.682403
4.426604441403504	96.82403	9.83992
4.444144325415337	75.862434	8.709905
4.461684313600543	21.8289	4.6721406
4.47922440637193	22.259855	4.718035
4.496764604142329	20.587683	4.537365
4.5143049073245916	18.757822	4.3310304
4.531845316331589	16.606506	4.075108
4.5493858315762195	13.697115	3.7009614
4.566926453471405	11.326696	3.3655157
4.584467182430081	9.162368	3.0269403
4.602008018865218	7.972741	2.8236043
4.619548963189798	7.237581	2.6902752
4.637090015816834	6.768006	2.6015391
4.654631177159353	6.609514	2.5708976
4.672172447630417	6.3811502	2.526094
4.689713827643102	6.233545	2.4967067
4.7072553176105085	6.0017347	2.449844
4.724796917945764	5.8657985	2.421941
4.742338629062015	5.8001304	2.408346
4.759880451372434	5.7550273	2.3989637
4.777422385290215	5.6552095	2.3780684
4.794964431228581	5.6179285	2.370217
4.812506589600768	5.6249647	2.3717008
4.830048860820047	5.6576796	2.3785877
4.847591245299709	5.6584487	2.3787494
4.8651337434530655	5.6287427	2.372497
4.882676355693457	5.6473355	2.3764124
4.900219082434242	5.60335	2.3671396
4.917761924088813	5.60862	2.3682525
4.935304881070575	5.657895	2.378633
4.952847953792969	5.6081667	2.368157
4.970391142669449	5.5899134	2.3642998
4.9879344481135055	5.545857	2.3549643
5.005477870538642	5.508607	2.347042
5.023021410358394	5.5460243	2.3549998
5.040565067986324	5.4936037	2.3438437
5.05810884383601	5.4791074	2.3407493
5.075652738321066	5.489079	2.3428783
5.09319675185512	5.496578	2.3444781
5.110740884851836	5.519	2.3492553
5.128285137724894	5.49596	2.3443465
5.145829510888007	5.449787	2.334478
5.163374004754908	5.415686	2.3271627
5.1809186197393595	5.40415	2.3246827
5.198463356255145	5.355887	2.3142788
5.216008214716077	5.376667	2.3187642
5.233553195535998	5.334288	2.3096077
5.251098299128764	5.3254967	2.3077037
5.268643525908272	5.2504725	2.291391
5.286188876288432	5.2669215	2.2949774
5.3037343506831895	5.2778797	2.2973638
5.32127994950651	5.3216047	2.3068604
5.3388256731723915	5.328009	2.308248
5.356371522094851	5.2734704	2.296404
5.373917496687938	5.240109	2.2891285
5.391463597365729	5.2162704	2.2839155
5.40900982454232	5.16919	2.2735853
5.426556178631843	5.1707993	2.2739391
5.444102660048449	5.231037	2.287146
5.4616492692063225	5.238664	2.2888129
5.479196006519669	5.2925577	2.300556
5.496742872402727	5.310434	2.3044379
5.514289867269756	5.3120875	2.3047967
5.531836991535049	5.2761073	2.2969778
5.549384245612924	5.2317443	2.2873006
5.566931629917724	5.2233524	2.2854655
5.584479144863822	5.1372747	2.2665558
5.6020267908656205	5.064831	2.2505178
5.619574568337545	5.016045	2.2396529
5.637122477694054	5.1035733	2.259109
5.654670519349629	5.1724052	2.2742922
5.672218693718784	5.1408067	2.2673347
5.689767001216059	5.0681157	2.2512476
5.707315442256021	5.042699	2.2455955
5.724864017253266	5.027817	2.2422793
5.7424127266224225	5.1290636	2.2647436
5.75996157077814	5.1655903	2.2727935
5.777510550135105	5.175846	2.2750485
5.795059665108022	5.109777	2.2604816
5.812608916111639	5.092262	2.256604
5.830158303560715	5.2129593	2.2831905
5.847707827870055	5.251185	2.2915463
5.86525748945448	5.3480635	2.312588
5.8828072887288485	5.3885574	2.3213267
5.900357226108044	5.428399	2.3298924
5.917907302006979	5.4680986	2.3383965
5.9354575168406	6.1123905	2.4723248
5.9530078710238765	6.8279543	2.6130354
5.970558364971812	7.4792266	2.7348175
5.988108999099438	7.8241897	2.7971754
6.005659773821818	8.252	2.8726294
6.023210689554039	7.9372067	2.8173048
6.040761746711227	8.390257	2.896594
6.058312945708531	7.7946	2.791881
6.075864286961132	7.3138943	2.7044213
6.093415770884244	6.608559	2.5707119
6.1109673978931065	6.1264315	2.475163
6.128519168402993	5.5745907	2.361057
6.146071082829204	5.4285975	2.329935
6.163623141587075	5.282947	2.2984662
6.181175345091969	5.2473097	2.2907007
6.198727693759281	5.2039976	2.281227
6.216280188004435	5.2154155	2.2837284
6.233832828242885	5.247484	2.2907388
6.251385614890126	5.295927	2.3012881
6.268938548361669	5.208368	2.2821848
6.286491629073067	5.1061106	2.2596705
6.304044857439898	5.052358	2.247745
6.321598233877777	5.041339	2.2452927
6.339151758802344	4.953653	2.2256804
6.356705432629277	4.9231753	2.218823
6.37425925577428	4.940955	2.222826
6.391813228653095	5.0483046	2.2468433
6.409367351681486	5.09807	2.2578907
6.426921625275259	5.0738077	2.2525115
6.44447604985025	5.069033	2.2514513
6.46203062582232	5.1074424	2.2599652
6.47958535360737	5.1290016	2.26473
6.497140233621328	5.097257	2.2577107
6.514695266280161	5.0633335	2.2501853
6.532250451999859	5.096203	2.257477
6.549805791196454	5.1383567	2.2667944
6.567361284286002	5.102648	2.2589042
6.584916931684597	5.118098	2.2623212
6.602472733808367	5.037575	2.2444541
6.6200286910734665	4.9793963	2.231456
6.637584803896092	4.937107	2.2219603
6.655141072692462	4.8703575	2.2068887
6.672697497878842	4.8760796	2.2081847
6.690254079871514	4.887454	2.2107587
6.707810819086808	4.929489	2.2202454
6.725367715941078	4.903797	2.2144518
6.742924770850719	4.866435	2.2059999
6.760481984232151	4.8512774	2.2025616
6.778039356501836	4.9419265	2.2230444
6.795596888076266	5.0641975	2.2503772
6.813154579371963	5.084932	2.2549794
6.830712430805492	4.9773235	2.2309916
6.84827044279344	4.9396477	2.2225318
6.865828615752445	4.9563866	2.2262943
6.883386950099159	4.9479284	2.2243938
6.900945446250287	5.0176377	2.2400084
6.918504104622553	5.0264335	2.2419708
6.936062925632727	5.18309	2.2766402
6.953621909697607	5.1771874	2.2753434
6.971181057234028	5.137195	2.2665381
6.988740368658859	5.115207	2.2616823
7.006299844389007	5.1501937	2.269404
7.023859484841407	5.254348	2.2922363
7.041419290433036	5.424516	2.3290591
7.058979261580902	5.516426	2.3487074
7.0765393987020495	5.6529408	2.3775914
7.094099702213559	5.9036846	2.42975
7.111660172532549	6.267192	2.503436
7.129220810076164	6.709927	2.5903528
7.146781615261595	7.2838445	2.69886
7.16434258850606	7.517055	2.7417247
7.181903730226821	7.935228	2.8169537
7.1994650408411704	8.0970745	2.845536
7.217026520766437	8.303117	2.8815129
7.234588170419983	8.58188	2.9294846
7.252149990219215	8.566365	2.9268353
7.269711980581568	8.460752	2.9087372
7.2872741419245175	8.177829	2.8596904
7.304836474665574	7.7441845	2.7828374
7.322398979222286	7.368665	2.7145286
7.339961656012233	7.1362863	2.671383
7.357524505453039	6.792156	2.6061766
7.375087527962357	6.5987997	2.5688128
7.392650723957886	6.299339	2.5098484
7.410214093857353	5.9395885	2.437127
7.427777638078528	5.6582556	2.3787088
7.445341357039213	5.486734	2.342378
7.4629052511572525	5.345906	2.3121214
7.480469320850524	5.2482643	2.290909
7.498033566536948	5.163685	2.2723744
7.5155979886344735	5.111807	2.2609305
7.5331625875610975	5.1043754	2.2592864
7.550727363734844	5.1711774	2.2740223
7.568292317573788	5.2407002	2.2892575
7.585857449496025	5.30547	2.3033607
7.603422759919705	5.324437	2.3074741
7.620988249263007	5.262722	2.2940624
7.638553917944147	5.206705	2.2818205
7.656119766381391	5.1490417	2.26915
7.673685794993023	5.157017	2.2709067
7.691252004197388	5.2384434	2.2887645
7.70881839441285	5.2776394	2.2973113
7.726384966057826	5.3127575	2.304942
7.743951719550762	5.2868547	2.2993162
7.761518655310149	5.3441606	2.311744
7.779085773754511	5.338864	2.3105981
7.796653075302419	5.3321404	2.3091428
7.814220560372475	5.295431	2.3011804
7.831788229383323	5.3055496	2.3033779
7.8493560827536495	5.3159566	2.305636
7.866924120902174	5.3336387	2.309467
7.884492344247663	5.325999	2.3078125
7.9020607532089135	5.3248844	2.3075712
7.919629348204771	5.298882	2.30193
7.937198129654115	5.2820287	2.2982664
7.954767097975865	5.354832	2.314051
7.972336253588986	5.418682	2.3278062
7.989905596912472	5.507212	2.346745
8.007475128365371	5.4744916	2.3397632
8.025044848366756	5.462454	2.3371892
8.042614757335754	5.514039	2.3481991
8.060184855691523	5.65195	2.377383
8.07775514385327	5.843577	2.417349
8.095325622240228	5.93501	2.4361875
8.112896291271687	5.876003	2.4240468
8.130467151366968	5.8830857	2.4255073
8.148038202945436	5.8710814	2.4230313
8.165609446426497	5.857072	2.4201388
8.183180882229594	5.905812	2.4301877
8.200752510774217	5.877155	2.4242845
8.218324332479893	5.8845234	2.4258037
8.235896347766193	5.89676	2.4283245
8.253468557052724	5.885788	2.4260643
8.27104096075914	5.941841	2.4375892
8.288613559305137	6.0411844	2.4578822
8.306186353110448	6.1703415	2.4840171
8.32375934259485	6.2044425	2.490872
8.341332528178162	6.209975	2.491982
8.358905910280246	6.2584205	2.5016835
8.376479489321003	6.230239	2.4960446
8.394053265720377	6.265818	2.5031617
8.411627239898356	6.272398	2.5044756
8.42920141227497	6.2694545	2.503888
8.44677578327029	6.238656	2.4977303
8.464350353304427	6.2055616	2.4910965
8.48192512279754	6.1846194	2.4868896
8.499500092169827	6.1360917	2.4771135
8.51707526184153	6.0980725	2.4694276
8.534650632232934	6.087502	2.4672863
8.552226203764365	6.0966306	2.4691355
8.569801976856192	6.1826153	2.4864864
8.587377951928834	6.2801423	2.5060213
8.60495412940274	6.32938	2.515826
8.622530509698416	6.379883	2.525843
8.6401070932364	6.4546285	2.540596
8.657683880437283	6.5226216	2.5539424
8.675260871721695	6.6369905	2.5762358
8.692838067510303	6.7549367	2.5990262
8.710415468223834	6.8786054	2.6227095
8.727993074283043	7.004622	2.6466246
8.745570886108737	7.020475	2.649618
8.763148904121765	7.115878	2.6675603
8.78072712874302	7.186479	2.6807609
8.798305560393441	7.508594	2.7401814
8.815884199494006	7.614751	2.7594838
8.833463046465745	7.7848973	2.7901428
8.851042101729728	7.870708	2.805478
8.86862136570707	8.224982	2.867923
8.886200838818924	8.376587	2.8942335
8.903780521486505	8.49489	2.9145994
8.921360414131055	8.578676	2.9289377
8.938940517173874	8.686394	2.947269
8.956520831036297	8.816386	2.96924
8.97410135613971	8.9800825	2.9966786
8.99168209290554	9.183158	3.0303726
9.009263041755265	9.448579	3.073854
9.026844203110405	9.77198	3.1260166
9.044425577392525	9.949968	3.154357
9.062007165023239	9.988247	3.1604187
9.079588966424197	10.219432	3.1967845
9.097170982017108	10.305152	3.2101638
9.11475321222372	11.25012	3.3541198
9.132335657465825	12.18888	3.4912577
9.149918318165264	12.276022	3.5037155
9.167501194743924	12.936231	3.596697
9.18508428762374	12.604923	3.5503414
9.202667597226693	12.628775	3.5536988
9.220251123974803	12.305271	3.507887
9.237834868290143	12.104286	3.4791214
9.255418830594836	11.815513	3.43737
9.273003011311046	11.221038	3.3497818
9.290587410860985	11.006401	3.3175898
9.308172029666911	10.319859	3.2124536
9.32575686815113	10.095004	3.1772635
9.343341926735997	8.85627	2.9759486
9.360927205843916	8.588907	2.9306839
9.378512705897327	8.3617115	2.8916624
9.396098427318728	8.115511	2.8487735
9.413684370530664	8.053758	2.8379142
9.431270535955722	7.929311	2.8159032
9.448856924016539	7.794515	2.7918658
9.466443535135806	7.701978	2.7752438
9.484030369736251	7.742717	2.7825737
9.501617428240658	7.778531	2.7890017
9.519204711071852	7.814372	2.79542
9.536792218652714	7.8113213	2.7948742
9.55437995140617	7.883405	2.8077402
9.571967909755191	7.8897476	2.8088694
9.589556094122802	7.8353524	2.79917
9.60714450493207	7.832046	2.7985792
9.624733142606116	7.8670354	2.8048236
9.642322007568108	7.9868026	2.8260932
9.659911100241267	8.080903	2.8426929
9.677500421048851	8.06133	2.8392482
9.695089970414175	8.046787	2.836686
9.712679748760609	8.059947	2.8390045
9.730269756511557	8.120308	2.8496153
9.747859994090492	8.198911	2.863374
9.765450461920915	8.247542	2.8718536
9.78304116042639	8.208602	2.8650658
9.800632090030527	8.269513	2.8756762
9.81822325115699	8.290338	2.8792946
9.835814644229481	8.335202	2.887075
9.853406269671762	8.359622	2.8913012
9.870998127907646	8.428604	2.9032059
9.888590219360985	8.397792	2.8978944
9.906182544455698	8.35854	2.891114
9.923775103615734	8.177733	2.8596737
9.941367897265108	8.171323	2.8585525
9.958960925827878	8.20689	2.864767
9.97655418972816	8.330468	2.886255
9.994147689390106	8.377699	2.8944254
10.011741425237934	8.430787	2.9035819
10.029335397695904	8.467528	2.9099019
10.04692960718833	8.422939	2.90223
10.06452405413958	8.437115	2.9046712
10.082118738974064	8.359013	2.8911958
10.099713662116246	8.301707	2.8812683
10.117308823990651	8.254464	2.8730583
10.134904225021844	8.246614	2.871692
10.152499865634445	8.221361	2.8672917
10.170095746253125	8.266098	2.8750823
10.18769186730261	8.306092	2.8820293
10.205288229207675	8.306592	2.8821158
10.222884832393145	8.25004	2.8722882
10.2404816772839	8.204942	2.8644269
10.258078764304868	8.138551	2.8528144
10.275676093881035	8.125141	2.8504634
10.293273666437438	8.080577	2.8426356
10.310871482399158	8.134418	2.8520901
10.32846954219134	8.107719	2.8474057
10.346067846239173	8.131171	2.8515208
10.363666394967908	8.146942	2.8542848
10.38126518880283	8.124129	2.8502858
10.398864228169298	8.230601	2.8689024
10.416463513492713	8.187492	2.8613794
10.434063045198531	8.161086	2.8567615
10.451662823712262	8.103324	2.8466337
10.469262849459467	8.180128	2.8600924
10.486863122865758	8.169562	2.8582447
10.504463644356806	8.159608	2.8565028
10.522064414358338	8.067341	2.8403065
10.539665433296118	7.971969	2.8234675
10.557266701595987	7.8746915	2.806188
10.574868219683818	7.8265505	2.7975972
10.592469987985552	7.7076635	2.776268
10.610072006927185	7.620414	2.7605097
10.627674276934751	7.468205	2.7328017
10.64527679843435	7.3754754	2.7157826
10.662879571852143	7.292174	2.7004025
10.680482597614331	7.1724734	2.6781473
10.698085876147173	7.0795817	2.6607482
10.715689407876988	6.9233284	2.6312218
10.733293193230146	6.84348	2.6160047
10.750897232633072	6.732275	2.594663
10.76850152651225	6.640574	2.576931
10.786106075294207	6.6407876	2.5769725
10.803710879405534	6.5464864	2.5586102
10.821315939272877	6.451811	2.5400414
10.83892125532294	6.3569007	2.5212896
10.856526827982472	6.266033	2.5032046
10.874132657678285	6.309226	2.5118172
10.891738744837243	6.2821374	2.5064192
10.909345089886271	6.2225575	2.4945054
10.926951693252343	6.0571623	2.4611304
10.944558555362494	5.956453	2.4405844
10.96216567664381	5.8621607	2.42119
10.979773057523436	5.8217793	2.4128363
10.997380698428573	5.802911	2.4089231
11.014988599786477	5.838422	2.4162827
11.032596762024461	5.792037	2.406665
11.050205185569892	5.718614	2.3913624
11.067813870850198	5.6128545	2.3691463
11.085422818292859	5.5208206	2.3496428
11.10303202832541	5.4245844	2.3290737
11.120641501375454	5.355497	2.3141947
11.138251237870636	5.35552	2.3141997
11.155861238238671	5.3668694	2.3166504
11.173471502907317	5.2773976	2.2972586
11.191082032304402	5.2016306	2.2807083
11.208692826857805	5.102083	2.258779
11.226303886995465	5.0453963	2.246196
11.243915213145371	4.974163	2.2302833
11.261526805735578	4.952952	2.2255228
11.279138665194196	4.87817	2.208658
11.296750791949393	4.8469687	2.2015831
11.314363186429393	4.8075404	2.1926105
11.331975849062479	4.857353	2.2039404
11.34958878027699	4.7974253	2.1903026
11.36720198050133	4.7318	2.17527
11.384815450163948	4.624212	2.150398
11.402429189693366	4.6003094	2.144833
11.420043199518153	4.5899763	2.142423
11.437657480066942	63.51664	7.9697328
11.455272031768422	85.19685	9.230214
11.472886855051353	107.544075	10.370346
11.490501950344528	99.16417	9.95812
11.508117318076819	84.502	9.192497
11.52573295867715	45.838837	6.7704387
11.543348872574514	4.1384606	2.0343206
11.560965060197946	4.1180944	2.0293088
11.57858152197655	4.043635	2.010879
11.59619825833949	3.9805615	1.9951345
11.613815269715985	3.9468055	1.9866569
11.631432556535323	38.505325	6.205266
11.649050119226837	83.13507	9.117844
11.666667958219929	93.48941	9.668992
11.68428607394406	107.69707	10.37772
11.701904466828756	82.47707	9.081689
11.719523137303586	65.35225	8.084074
11.737142085798196	4.585842	2.141458
11.754761312742286	3.7516	1.9369048
11.772380818565619	3.6910896	1.9212209
11.790000603698015	3.7005565	1.923683
11.80762066856935	3.6366763	1.9070072
11.825241013609572	3.6253328	1.9040307
11.842861639248683	3.6126857	1.9007066
11.860482545916748	3.5672772	1.8887237
11.878103734043883	3.5266707	1.8779432
11.895725204060282	3.4830842	1.8663023
11.91334695639619	3.4986308	1.8704627
11.930968991481919	3.427513	1.8513544
11.948591309747824	3.324816	1.8234078
11.966213911624347	3.3152819	1.8207916
11.98383679754198	3.295238	1.815279
12.001459967931268	3.3073986	1.8186255
12.019083423222835	3.2807837	1.8112934
12.036707163847352	3.2341552	1.7983757
12.05433119023556	3.1951234	1.7874908
12.071955502818259	3.1717572	1.7809428
12.089580102026313	3.1834521	1.7842231
12.107204988290643	3.2021701	1.7894609
12.12483016204224	3.1475172	1.7741244
12.142455623712152	3.0932796	1.7587721
12.16008137373149	3.0518284	1.7469484
12.177707412531431	3.0865083	1.7568461
12.19533374054321	3.1247427	1.7676942
12.212960358198126	3.087231	1.7570518
12.230587265927545	3.0267875	1.7397665
12.248214464162889	2.9894435	1.7290007
12.265841953335649	3.0027018	1.7328305
12.283469733877375	3.0092168	1.7347094
12.301097806219685	2.9782956	1.7257739
12.31872617079425	3.0015523	1.7324989
12.336354828032825	2.9984183	1.7315942
12.353983778367205	2.989963	1.729151
12.371613022229262	2.9606972	1.7206676
12.389242560050928	2.9248033	1.7102057
12.406872392264201	2.8967652	1.7019886
12.424502519301143	2.8979347	1.7023321
12.442132941593874	2.8729153	1.6949676
12.459763659574586	2.8393052	1.6850238
12.477394673675532	2.8483825	1.6877152
12.49502598432903	2.8325791	1.6830268
12.51265759196746	2.8285222	1.6818211
12.530289497023267	2.7922347	1.6709981
12.547921699928967	2.8006022	1.6735
12.565554201117134	2.8206124	1.6794679
12.583187001020404	2.8508198	1.6884371
12.600820100071486	2.8408577	1.6854844
12.618453498703152	2.8458295	1.6869587
12.636087197348235	2.8100476	1.6763197
12.65372119643964	2.777116	1.6664681
12.671355496410326	2.7702856	1.6644175
12.68899009769333	2.799209	1.6730837
12.706625000721749	2.8651845	1.6926856
12.724260205928752	2.9066126	1.704879
12.741895713747551	2.9282463	1.7112119
12.759531524611454	2.947156	1.7167282
12.777167638953818	3.0025578	1.732789
12.794804057208072	3.0364904	1.7425529
12.812440779807702	3.0716386	1.7526091
12.830077807186271	3.1909547	1.7863244
12.847715139777405	3.20606	1.7905474
12.865352778014795	3.432376	1.8526672
12.882990722332197	3.5975893	1.8967313
12.90062897316344	3.6778946	1.9177837
12.918267530942412	3.7389731	1.9336425
12.935906396103071	3.5788383	1.8917818
12.953545569079449	3.7436385	1.9348484
12.971185050305628	3.5306706	1.8790079
12.988824840215775	3.5412517	1.8818214
13.006464939244115	3.5722735	1.8900459
13.024105347824943	3.4532008	1.858279
13.041746066392617	3.5299416	1.8788139
13.05938709538157	3.304178	1.8177398
13.077028435226296	3.3035789	1.817575
13.094670086361363	3.235548	1.7987629
13.112312049221401	3.1669436	1.7795908
13.129954324241112	3.0869095	1.7569603
13.147596911855258	2.8824184	1.6977687
13.165239812498685	2.8503616	1.6883014
13.182883026606293	2.7961383	1.6721658
13.200526554613058	2.7504334	1.6584431
13.218170396954017	2.7344902	1.6536294
13.235814554064284	2.677365	1.6362656
13.253459026379034	2.6917036	1.6406412
13.271103814333523	2.6745534	1.6354061
13.288748918363058	2.6625211	1.6317234
13.306394338903031	2.6603425	1.6310556
13.32404007638889	2.6445723	1.6262141
13.341686131256164	2.6879573	1.6394991
13.359332503940449	2.7007277	1.6433891
13.376979194877402	2.6840284	1.6383004
13.394626204502751	2.7237694	1.6503847
13.412273533252307	2.7640052	1.6625297
13.429921181561937	2.772517	1.6650877
13.447569149867581	2.7480168	1.6577144
13.465217438605247	2.7272322	1.6514333
13.482866048211022	2.6782787	1.6365447
13.500514979121052	2.6624968	1.6317159
13.518164231771568	2.6436307	1.6259246
13.535813806598844	2.66133	1.6313583
13.553463704039254	2.6692104	1.6337719
13.571113924529229	2.6913686	1.6405392
13.588764468505275	2.691345	1.6405319
13.606415336403956	2.7373586	1.6544964
13.624066528661917	2.7509634	1.6586028
13.641718045715882	2.778217	1.6667985
13.659369888002635	2.8094077	1.6761287
13.67702205595903	2.851018	1.6884958
13.694674550021993	2.9558372	1.7192549
13.712327370628532	3.0186777	1.7374343
13.729980518215713	3.1290967	1.7689253
13.747633993220681	3.169984	1.7804449
13.765287796080647	3.2097197	1.791569
13.7829419272329	3.2630064	1.8063793
13.800596387114801	3.3048213	1.8179168
13.818251176163775	3.3127015	1.8200828
13.835906294817324	3.3537836	1.8313339
13.853561743513023	3.406015	1.8455392
13.871217522688525	3.4635637	1.8610651
13.888873632781538	3.507283	1.8727741
13.906530074229858	3.5595574	1.8866789
13.92418684747135	3.5490346	1.8838881
13.941843952943948	3.5207813	1.8763745
13.959501391085665	3.4427712	1.8554707
13.977159162334578	3.364452	1.8342443
13.994817267128846	3.3495727	1.8301837
14.012475705906693	3.3000362	1.8166002
14.030134479106424	3.224774	1.7957655
14.047793587166414	3.120973	1.7666276
14.065453030525108	3.0664637	1.7511321
14.083112809621026	3.045665	1.7451833
14.100772924892766	3.0078745	1.7343224
14.118433376778997	2.9693825	1.7231896
14.136094165718458	2.8726718	1.6948959
14.153755292149969	2.7804382	1.6674646
14.171416756512416	2.7197192	1.6491572
14.189078559244768	2.6240659	1.6198969
14.20674070078606	2.5700662	1.6031426
14.224403181575408	2.5087323	1.5838978
14.242066002051999	2.51136	1.584727
14.259729162655093	2.5008245	1.5813996
14.277392663824022	2.4731007	1.5726095
14.295056505998208	2.4508722	1.5655261
14.312720689617128	2.4112983	1.5528356
14.330385215120348	2.4231684	1.5566529
14.348050082947497	2.4050353	1.5508176
14.3657152935383	2.4380362	1.5614212
14.383380847332528	2.4184968	1.5551517
14.401046744770051	2.4147377	1.5539427
14.418712986290798	2.372552	1.5403091
14.436379572334793	2.368757	1.5390767
14.454046503342123	2.3543577	1.5343916
14.471713779752946	2.3998096	1.5491319
14.489381402007504	2.4109235	1.5527148
14.507049370546113	2.4121552	1.5531114
14.524717685809168	2.4025092	1.5500029
14.542386348237134	2.385615	1.5445436
14.560055358270553	2.3872948	1.5450873
14.577724716350051	2.4389758	1.561722
14.595394422916325	2.4614553	1.5689026
14.61306447841015	2.4610772	1.5687821
14.63073488327237	2.4728987	1.5725453
14.648405637943917	2.490639	1.5781758
14.6660767428658	2.5151625	1.5859264
14.683748198479094	2.5524979	1.5976539
14.701420005224954	2.5931993	1.6103413
14.719092163544628	2.6353872	1.6233876
14.73676467387942	2.6545851	1.6292897
14.754437536670727	2.6786747	1.6366657
14.772110752360014	2.6763873	1.6359668
14.78978432138882	2.6513376	1.6282928
14.807458244198777	2.6896122	1.6400037
14.82513252123159	2.7152517	1.6478021
14.842807152929028	2.7604008	1.6614454
14.860482139732962	2.7082982	1.6456908
14.87815748208531	2.6640282	1.6321851
14.8958331804281	2.6644087	1.6323017
14.91350923520342	2.6835575	1.6381568
14.931185646853438	2.6681354	1.6334428
14.948862415820408	2.6081913	1.6149895
14.966539542546656	2.577835	1.6055638
14.98421702747459	2.6048903	1.6139673
15.001894871046696	2.6411695	1.6251675
15.019573073705542	2.70877	1.6458341
15.037251635893766	2.6910377	1.6404382
15.054930558054092	2.6856594	1.6387981
15.072609840629323	2.6751468	1.6355876
15.090289484062351	2.7856014	1.6690121
15.107969488796124	2.9482155	1.7170368
15.125649855273691	3.118723	1.7659906
15.14333058393817	3.4560056	1.8590335
15.161011675232768	4.0175357	2.004379
15.17869312960076	4.730691	2.1750152
15.196374947485506	5.4081016	2.3255324
15.214057129330447	6.7181053	2.5919309
15.231739675579114	8.8730135	2.9787605
15.249422586675102	13.58881	3.6863003
15.267105863062092	18.224823	4.269054
15.284789505183847	25.470585	5.046839
15.302473513484218	30.513346	5.5238886
15.320157888407127	34.590233	5.881346
15.337842630396578	33.342255	5.7742753
15.355527739896656	30.471489	5.5200987
15.37321321735153	23.734058	4.8717613
15.39089906320545	16.25819	4.0321445
15.408585277902748	10.363415	3.219226
15.42627186188783	6.376078	2.5250897
15.443958815605198	4.5575647	2.1348453
15.461646139499424	3.75904	1.9388244
15.479333834015168	3.403055	1.844737
15.497021899597165	3.1256006	1.7679368
15.514710336690234	2.8958788	1.7017282
15.53239914573928	2.731779	1.6528095
15.550088327189297	2.656818	1.6299748
15.567777881485336	2.6145506	1.6169572
15.58546780907256	2.627104	1.6208344
15.6031581103962	2.6149402	1.6170777
15.620848785901568	2.6040087	1.6136941
15.638539836034063	2.574146	1.6044146
15.656231261239173	2.5296807	1.590497
15.673923061962451	2.4781795	1.5742234
15.691615238649552	2.4797988	1.5747377
15.709307791746202	2.4833326	1.5758593
15.727000721698221	2.5071158	1.5833875
15.744694028951498	2.4755602	1.5733913
15.76238771395202	2.4544334	1.5666631
15.780081777145844	2.4369032	1.5610584
15.797776218979125	2.4470801	1.5643146
15.815471039898094	2.4524584	1.5660326
15.833166240349064	2.4451578	1.5637001
15.850861820778437	2.4583395	1.5679092
15.868557781632699	2.47712	1.5738869
15.886254123358412	2.4919045	1.5785767
15.903950846402232	2.529226	1.5903541
15.921647951210897	2.5195863	1.5873204
15.939345438231225	2.5284634	1.5901142
15.957043307910133	2.5047693	1.5826463
15.974741560694602	2.5212193	1.5878347
15.992440197031714	2.5510902	1.5972133
16.01013921736862	2.5720792	1.6037703
16.02783862215259	2.5611365	1.6003551
16.045538411830933	2.4942935	1.5793332
16.06323858685107	2.44025	1.56213
16.080939147660512	2.4026952	1.550063
16.09864009470684	2.367314	1.5386078
16.11634142843774	2.383569	1.5438812
16.134043149300954	2.4380126	1.5614136
16.15174525774433	2.470505	1.571784
16.169447754215817	2.4665303	1.5705191
16.18715063916342	2.4626865	1.5692949
16.204853913035244	2.4466386	1.5641735
16.222557576279478	2.4738834	1.5728583
16.240261629344403	22.462255	4.739436
16.257966072678386	43.002148	6.5576024
16.275670906729868	38.105972	6.1730037
16.293376131947387	2.5171092	1.58654
16.31108174877957	2.5503323	1.596976
16.328787757675133	2.5864139	1.6082331
16.34649415908287	2.6250474	1.6201998
16.364200953451657	2.6299317	1.6217064
16.38190814123048	2.6377919	1.624128
16.39961572286839	2.6674728	1.63324
16.41732369881455	2.7082634	1.6456802
16.43503206951817	2.7584484	1.6608577
16.45274083542859	2.7865987	1.6693108
16.47044999699522	2.7916718	1.6708297
16.488159554667558	2.83764	1.6845297
16.505869508895184	2.8934526	1.7010152
16.523579860127786	2.9676287	1.7226807
16.541290608815117	3.0292594	1.7404767
16.559001755407035	3.0779834	1.7544183
16.57671330035348	3.1872985	1.7853007
16.59442524410448	3.2605119	1.8056887
16.61213758711015	3.4224415	1.8499842
16.629850329820705	3.497246	1.8700925
16.647563472686436	3.5776837	1.8914766
16.665277016157724	3.5297153	1.8787537
16.682990960685053	3.5371861	1.8807409
16.70070530671898	3.4860103	1.867086
16.718420054710155	3.5282245	1.8783568
16.736135205109335	3.5470684	1.8833662
16.753850758367335	3.6069486	1.8991969
16.771566714935087	3.6929843	1.921714
16.789283075263597	3.7585635	1.9387015
16.80699983980398	3.829545	1.9569223
16.82471700900741	3.8609252	1.9649237
16.84243458332518	3.9657085	1.9914087
16.860152563208665	3.9879465	1.9969844
16.87787094910932	4.019685	2.0049152
16.89558974147871	4.01135	2.0028355
16.913308940768466	4.0808473	2.0201106
16.931028547430333	4.189953	2.0469375
16.94874856191613	4.338281	2.082854
16.966468984677785	4.4121265	2.1005063
16.98418981616729	4.4284425	2.1043866
17.00191105683676	4.4401793	2.1071732
17.019632707138374	4.546942	2.132356
17.03735476752442	4.5911174	2.1426892
17.05507723844728	4.609177	2.1468995
17.072800120359403	4.582945	2.1407814
17.090523413713353	4.609656	2.1470108
17.108247118961785	4.655043	2.1575549
17.125971236557437	4.7101164	2.1702802
17.143695766953133	4.7490015	2.1792204
17.161420710601806	4.7687087	2.1837373
17.179146067956477	4.749301	2.179289
17.19687183947025	4.732094	2.1753376
17.21459802559634	4.673128	2.161742
17.232324626788028	4.678962	2.163091
17.25005164349871	4.6334176	2.1525376
17.267779076181863	4.6415563	2.154427
17.285506925291074	4.617674	2.1488774
17.30323519127999	4.6169047	2.1486983
17.320963874602384	4.597489	2.1441755
17.33869297571211	4.5972366	2.1441166
17.356422495063114	4.5588093	2.1351368
17.37415243310944	4.533627	2.1292315
17.391882790305218	4.508258	2.1232657
17.40961356710468	4.564811	2.1365418
17.42734476396215	4.6579065	2.1582184
17.445076381332044	4.716018	2.1716394
17.462808419668868	4.766006	2.1831183
17.48054087942723	4.821267	2.1957383
17.498273761061835	4.916888	2.2174058
17.51600706502747	5.201797	2.2807448
17.533740791779024	5.785694	2.4053469
17.551474941771485	6.6632066	2.5813189
17.56920951545993	8.619984	2.9359808
17.586944513299528	9.919234	3.1494815
17.60467993574556	12.888489	3.590054
17.622415783253373	15.657024	3.9568958
17.64015205627843	18.62708	4.3159103
17.657888755276293	21.025108	4.5853143
17.675625880702604	22.475456	4.7408285
17.69336343301311	20.856907	4.5669365
17.71110141266366	18.617268	4.314773
17.728839820110178	15.838057	3.9797056
17.746578655808705	12.687305	3.5619245
17.764317920215372	10.485827	3.2381828
17.7820576137864	8.782837	2.9635851
17.79979773697811	7.403373	2.720914
17.81753829024692	6.0756216	2.4648776
17.835279274049356	5.270178	2.2956867
17.85302068884201	4.492962	2.1196609
17.870762535081607	4.099843	2.024807
17.888504813224934	3.8648572	1.965924
17.90624752372891	3.725235	1.9300867
17.923990667050536	3.6089857	1.8997331
17.941734243646895	3.4953613	1.8695885
17.959478253975185	3.4632204	1.860973
17.9772226984927	3.4574745	1.8594285
17.994967577656833	3.4490397	1.857159
18.01271289192506	3.4176264	1.8486823
18.030458641754965	3.4106348	1.8467904
18.04820482760425	3.3868814	1.8403481
18.06595144993067	3.3586373	1.8326585
18.083698509192125	3.35139	1.8306801
18.101446005846576	3.329208	1.8246117
18.119193940352105	3.285789	1.8126745
18.136942313166887	3.2318232	1.7977272
18.1546911247492	3.1877105	1.785416
18.1724403755574	3.175126	1.7818884
18.19019006604997	3.158907	1.7773314
18.207940196685467	3.1561234	1.7765481
18.225690767922575	3.121611	1.7668082
18.243441780220046	3.1114578	1.7639325
18.261193234036764	3.1004608	1.7608125
18.278945129831676	3.0942583	1.7590504
18.29669746806386	3.1083682	1.7630565
18.314450249192483	3.0556982	1.7480556
18.3322034736768	3.022695	1.73859
18.349957141976184	2.9977958	1.7314144
18.3677112545501	3.049374	1.7462457
18.385465811858108	3.077245	1.7542078
18.403220814359884	3.084469	1.7562656
18.420976262515172	3.076066	1.7538717
18.43873215678387	3.0935826	1.7588583
18.456488497625923	3.1494577	1.7746712
18.474245285501407	3.2623744	1.8062044
18.492002520870486	3.3105626	1.8194952
18.50976020419343	3.3765373	1.8375356
18.527518335930615	3.679283	1.9181457
18.545276916542516	4.283689	2.0697074
18.563035946489688	4.422241	2.1029127
18.580795426232832	4.844084	2.200928
18.598555356232698	4.7209625	2.1727777
18.616315736950185	5.085947	2.2552044
18.63407656884626	4.7331047	2.17557
18.65183785238201	4.880373	2.2091565
18.669599588018617	4.622091	2.1499047
18.68736177621737	4.609809	2.1470466
18.705124417439652	4.5985293	2.1444182
18.72288751214696	4.4272776	2.1041098
18.740651060800886	4.622756	2.1500595
18.758415063863115	4.3855586	2.0941725
18.77617952179546	4.5843835	2.1411173
18.793944435059814	4.2886796	2.0709128
18.811709804118184	4.278784	2.0685222
18.829475629432675	4.2266293	2.0558767
18.8472419114655	4.0151396	2.0037813
18.86500865067897	4.0589223	2.0146768
18.88277584753551	3.725677	1.9302013
18.90054350249763	3.7867575	1.9459592
18.918311616027957	3.4851322	1.8668509
18.936080188589226	3.4014404	1.8442994
18.953849220644265	3.0672479	1.751356
18.971618712656007	2.8478327	1.6875523
18.9893886650875	2.803266	1.6742957
19.007159078401887	7.9892983	2.8265347
19.024929953062408	32.883335	5.7343993
19.042701289532435	32.815697	5.7284985
19.060473088275405	25.391386	5.0389867
19.07824534975489	2.6607258	1.6311731
19.096018074434568	2.7049115	1.6446615
19.113791262778197	2.720808	1.6494873
19.13156491524966	2.673642	1.6351275
19.149339032312945	2.637406	1.6240093
19.167113614432136	2.6362996	1.6236686
19.184888662071433	2.6462123	1.6267183
19.202664175695123	2.585169	1.6078461
19.220440155767623	2.542526	1.59453
19.238216602753447	2.5345247	1.5920191
19.2559935171172	2.5496109	1.5967501
19.27377089932361	2.5615015	1.6004691
19.291548749837514	2.5480735	1.5962687
19.309327069123835	2.5092013	1.5840459
19.32710585764763	2.4805236	1.5749679
19.344885115874032	2.4880137	1.577344
19.362664844268313	2.5313509	1.5910219
19.380445043295822	2.5470138	1.5959367
19.39822571342203	2.5289469	1.5902663
19.41600685511252	2.51646	1.5863354
19.43378846883297	2.5072858	1.5834411
19.451570555049173	2.4811969	1.5751815
19.469353114227037	2.443611	1.5632054
19.48713614683254	2.4505138	1.5654117
19.50491965333182	2.4854846	1.576542
19.52270363419109	2.4983692	1.580623
19.540488089876686	2.5061004	1.5830668
19.55827302085503	2.4998088	1.5810784
19.576058427592674	2.4959466	1.5798565
19.593844310556282	2.4966118	1.580067
19.611630670212598	2.4626405	1.5692803
19.629417507028506	2.4567106	1.5673897
19.64720482147098	2.5125813	1.5851125
19.6649926140071	2.569422	1.6029416
19.682780885104084	2.573456	1.6041995
19.70056963522921	2.5469708	1.5959232
19.718358864849908	2.5262325	1.5894126
19.7361485744337	2.4966452	1.5800776
19.753938764448215	2.484894	1.5763546
19.771729435361202	2.503739	1.5823208
19.789520587640506	2.5290654	1.5903035
19.807312221754092	2.5140462	1.5855744
19.825104338170043	2.4886208	1.5775363
19.842896937356517	2.4882457	1.5774174
19.860690019781824	2.5224423	1.5882199
19.87848358591436	2.5402339	1.5938112
19.896277636222635	2.5366452	1.5926849
19.914072171175278	2.488624	1.5775373
19.931867191241015	2.4671774	1.5707251
19.94966269688869	2.4547715	1.566771
19.967458688587264	2.4564664	1.5673119
19.985255166805807	2.457599	1.5676731
20.00305213201348	2.465799	1.5702863
20.020849584679578	2.4708612	1.5718973
20.038647525273507	2.4818218	1.5753798
20.05644595426477	2.485669	1.5766004
20.07424487212299	2.4581156	1.5678378
20.092044279317903	2.4624448	1.5692179
20.109844176319353	2.4635816	1.5695801
20.127644563597304	2.468223	1.5710579
20.145445441621817	2.467444	1.57081
20.16324681086307	2.438051	1.5614259
20.181048671791373	2.4367263	1.5610017
20.198851024877122	2.4107645	1.5526637
20.216653870590836	2.3991	1.5489029
20.234457209403146	2.3867147	1.5448996
20.252261041784802	2.409115	1.5521325
20.270065368206662	2.4028335	1.5501076
20.287870189139685	2.3835795	1.5438845
20.305675505054968	2.3582487	1.5356591
20.323481316423702	2.3504522	1.5331185
20.341287623717207	2.3326168	1.5272907
20.359094427406884	2.3196824	1.5230503
20.376901727964288	2.3700933	1.5395107
20.39470952586107	2.4144135	1.5538383
20.41251782156899	2.435654	1.5606582
20.430326615559935	2.3840716	1.5440439
20.448135908305886	2.371602	1.5400007
20.465945700278965	2.3784103	1.5422095
20.483755991951384	2.408004	1.5517745
20.50156678379548	2.4363382	1.5608773
20.519378076283708	2.4211648	1.5560093
20.537189869888635	2.404727	1.5507182
20.55500216508294	2.3907697	1.5462114
20.572814962339415	2.3673866	1.5386314
20.59062826213098	2.3367276	1.5286359
20.60844206493066	2.2973006	1.5156848
20.626256371211593	2.3266027	1.5253205
20.644071181447032	2.357902	1.5355462
20.66188649611036	2.3430266	1.5306948
20.67970231567506	2.3165884	1.5220343
20.697518640614742	2.2908077	1.5135415
20.715335471403122	2.2883346	1.5127243
20.73315280851404	2.2763753	1.5087662
20.750970652421447	2.302407	1.5173684
20.768789003599412	2.3078194	1.5191509
20.786607862522136	2.2820642	1.5106503
20.8044272296639	2.2990139	1.5162499
20.82224710549913	2.3236632	1.5243566
20.84006749050237	2.3317876	1.5270191
20.857888385148268	3.8445277	1.9607468
20.8757097899116	45.937454	6.7777176
20.893531705267254	64.78001	8.048603
20.911354131690224	83.806496	9.154589
20.92917706965566	69.063065	8.310419
20.94700051963877	50.131954	7.0803924
20.96482448211493	29.372042	5.419598
20.982648957559622	4.1279726	2.0317414
21.00047394644843	2.2605991	1.503529
21.01829944925707	2.2702901	1.5067482
21.036125466461375	2.2769575	1.508959
21.053951998537297	2.2622397	1.5040743
21.071779045960906	2.2374485	1.4958103
21.089606609208378	2.2324922	1.4941527
21.10743468875603	2.2680635	1.5060091
21.12526328508028	2.2395544	1.4965141
21.143092398657675	2.258082	1.5026915
21.16092202996488	2.2487879	1.4995959
21.17875217947867	2.2304063	1.4934545
21.19658284767596	2.2246335	1.4915205
21.21441403503377	2.2182517	1.4893796
21.232245742029225	2.2349684	1.494981
21.2500779691396	2.1885922	1.4793891
21.26791071684227	2.177038	1.4754789
21.28574398561475	2.1740832	1.4744773
21.30357777593465	2.1776147	1.4756743
21.321412088279704	2.1786528	1.476026
21.339246923127792	2.1909149	1.480174
21.357082280956888	2.2207792	1.4902279
21.3749181622451	2.2374794	1.4958206
21.392754567470647	2.2245274	1.491485
21.41059149711187	2.2092438	1.4863526
21.42842895164726	2.1513102	1.4667345
21.446266931555378	2.151176	1.4666888
21.464105437314945	2.147225	1.4653412
21.481944469404798	2.184213	1.4779083
21.49978402830388	2.1709082	1.4734002
21.51762411449127	2.1677206	1.472318
21.53546472844617	2.1290298	1.4591196
21.553305870647876	2.1301532	1.4595045
21.571147541575865	2.117517	1.4551691
21.58898974170967	2.0887163	1.4452392
21.60683247152899	2.090783	1.4459541
21.62467573151363	2.0555756	1.4337279
21.642519522143523	2.071991	1.4394412
21.660363843898722	2.089175	1.4453979
21.6782086972594	2.059631	1.4351414
21.696054082705864	2.0527363	1.4327374
21.713900000718535	2.0501542	1.431836
21.73174645177795	2.0489159	1.4314035
21.749593436364794	2.039923	1.4282587
21.767440954959845	2.0379257	1.4275594
21.785289008044032	2.039881	1.428244
21.803137596098388	2.0516152	1.4323461
21.820986719604086	2.0264742	1.4235429
21.838836379042412	2.0235538	1.4225167
21.85668657489478	2.0294244	1.4245787
21.87453730764273	2.0519996	1.4324802
21.892388577767914	2.0588622	1.4348736
21.91024038575213	2.0900526	1.4457015
21.928092732077285	2.065388	1.4371458
21.945945617225426	2.0469055	1.430701
21.963799041678694	2.0197227	1.4211695
21.981653005919398	31.340405	5.59825
21.999507510429943	78.11942	8.838519
22.01736255569286	73.08043	8.548709
22.035218142190818	4.2042027	2.0504153
22.05307427040661	2.021541	1.4218091
22.07093094082315	2.004902	1.4159455
22.088788153923474	2.0089982	1.4173913
22.106645910190746	2.004545	1.4158195
22.12450421010827	1.986023	1.4092633
22.142363054159464	1.9718698	1.4042329
22.16022244282787	1.9697272	1.4034697
22.178082376597164	1.9861808	1.4093193
22.195942855951145	1.9954107	1.41259
22.213803881373742	1.9837577	1.4084593
22.231665453349002	1.9859548	1.409239
22.24952757236111	1.9867138	1.4095083
22.26739023889438	2.008154	1.4170935
22.28525345343323	1.984532	1.4087342
22.30311721646225	1.9903848	1.41081
22.320981528466113	1.9946501	1.4123209
22.33884638992964	1.9949758	1.4124361
22.356711801337788	1.9701493	1.40362
22.37457776317561	1.9815387	1.4076713
22.392444275928337	1.9959234	1.4127716
22.410311340081282	2.0030665	1.4152974
22.428178956119904	1.9772781	1.4061573
22.446047124529805	1.9817168	1.4077346
22.46391584579669	2.0013127	1.4146776
22.481785120406414	1.9929413	1.4117157
22.49965494884496	1.995038	1.4124582
22.51752533159841	1.9998634	1.4141653
22.53539626915302	1.9981712	1.4135668
22.553267761995137	1.9895837	1.410526
22.571139810611264	1.9860178	1.4092615
22.589012415488025	1.9598012	1.399929
22.60688557711216	1.9568332	1.3988686
22.624759295970566	1.993364	1.4118655
22.642633572550263	2.0220668	1.421994
22.660508407338362	2.021961	1.4219568
22.67838380082217	2.0068362	1.4166285
22.696259753489077	2.0043075	1.4157357
22.714136265826614	1.9802316	1.407207
22.73201333832246	1.9575344	1.3991191
22.74989097146439	1.9309165	1.3895743
22.76776916574035	1.9465071	1.3951728
22.785647921638393	1.9528297	1.3974369
22.803527239646712	1.9634552	1.4012334
22.82140712025363	1.9555764	1.3984193
22.839287563947593	1.9460077	1.3949938
22.85716857121719	1.9644601	1.401592
22.875050142551135	1.9474286	1.395503
22.892932278438277	1.9562544	1.3986616
22.910814979367604	1.9070039	1.3809431
22.928698245828222	1.8961829	1.3770195
22.946582078309387	1.8442992	1.3580498
22.96446647730047	1.8889549	1.3743925
22.98235144329098	1.9037225	1.3797545
23.000236976770562	1.9135503	1.3833114
23.018123078229	1.8878263	1.373982
23.03600974815619	1.8809478	1.3714765
23.053896987042194	1.8981335	1.3777276
23.071784795377173	1.9612592	1.4004496
23.08967317365145	1.9951888	1.4125116
23.10756212235546	1.9598812	1.3999575
23.125451641979787	1.9488703	1.3960195
23.143341733015134	1.9329053	1.3902897
23.161232395952357	1.973049	1.4046526
23.179123631282426	2.005774	1.4162536
23.197015439496468	2.0051036	1.4160168
23.214907821085717	1.9710042	1.4039246
23.23280077654157	1.9664024	1.4022847
23.250694306355538	1.9901891	1.4107406
23.268588411019277	1.9890908	1.4103513
23.28648309102458	1.9675584	1.4026968
23.304378346863356	1.9819751	1.4078264
23.322274179027676	2.01884	1.420859
23.340170588009723	2.0160842	1.4198889
23.358067574301852	1.9814948	1.4076558
23.37596513839651	1.9388204	1.3924153
23.39386328078629	1.9177178	1.3848169
23.411762001963947	1.9035808	1.3797032
23.429661302422353	1.9399395	1.3928171
23.4475611826545	1.9672712	1.4025944
23.46546164315356	2.0128424	1.4187468
23.48336268441279	2.04359	1.429542
23.501264306925638	2.049507	1.4316099
23.51916651118564	2.0219595	1.4219562
23.537069297686497	1.9948273	1.4123836
23.554972666922037	1.9750842	1.4053769
23.57287661938623	1.9378575	1.3920695
23.59078115557318	1.9258982	1.3877673
23.608686275977128	1.9492638	1.3961604
23.62659198109246	1.9744334	1.4051453
23.6444982714137	1.9607056	1.400252
23.66240514743549	1.9285985	1.38874
23.68031260965263	1.9209585	1.3859864
23.698220658560068	1.9346712	1.3909246
23.716129294652845	1.9348829	1.3910006
23.7340385184262	1.9065471	1.3807777
23.75194833037546	1.8824751	1.3720332
23.769858730996123	1.8824263	1.3720154
23.78776972078382	1.9373192	1.3918761
23.80568130023431	1.9586741	1.3995264
23.823593469843495	1.8936703	1.376107
23.841506230107424	1.8665954	1.3662341
23.859419581522275	1.8948102	1.376521
23.87733352458438	1.9418211	1.3934925
23.89524805979019	1.9537462	1.3977647
23.913163187636318	1.9784284	1.4065661
23.931078908619508	1.9669031	1.4024632
23.948995223236633	1.9891562	1.4103745
23.966912131984735	1.9923525	1.4115071
23.98482963536096	2.0699117	1.4387188
24.002747733862616	2.0951793	1.4474734
24.020666427987155	2.1090314	1.4522505
24.038585718232156	2.0991068	1.4488294
24.056505605095353	2.0518308	1.4324213
24.074426089074617	2.06054	1.4354581
24.092347170667946	2.0550578	1.4335473
24.110268850373515	2.0590317	1.4349327
24.128191128689586	2.0765493	1.4410237
24.146114006114626	2.0700982	1.4387835
24.164037483147187	2.0558286	1.4338161
24.181961560286005	2.068185	1.4381186
24.199886238029926	2.0757582	1.4407492
24.21781151687797	2.107253	1.4516381
24.235737397329274	2.0698202	1.438687
24.253663879883135	2.0548396	1.4334712
24.271590965038975	2.0956173	1.4476247
24.289518653296376	2.1044505	1.4506724
24.30744694515505	2.0600247	1.4352787
24.32537584111486	2.0354273	1.426684
24.34330534167581	2.0487342	1.43134
24.361235447338046	2.0806108	1.4424323
24.379166158601876	2.048839	1.4313767
24.39709747596772	2.0158544	1.4198079
24.41502939993615	2.0130258	1.4188114
24.432961931007917	2.0092957	1.4174963
24.450895069683856	2.0115497	1.4182911
24.468828816465	2.0183244	1.4206774
24.4867631718525	1.9929508	1.4117191
24.504698136347656	1.9612538	1.4004477
24.52263371045192	1.9503692	1.3965563
24.540569894666874	1.951384	1.3969195
24.558506689494266	1.9444441	1.3944333
24.57644409543597	1.975716	1.4056016
24.594382112994012	1.9945837	1.4122974
24.61232074267057	2.0162218	1.4199373
24.630259984967953	2.0366075	1.4270976
24.64819984038863	2.0389974	1.4279346
24.66614030943522	1.989841	1.4106172
24.684081392610462	1.9727762	1.4045556
24.702023090417274	2.0035992	1.4154855
24.7199654033587	2.0400333	1.4282974
24.737908331937927	2.0644965	1.4368356
24.755851876658305	2.0698078	1.4386827
24.773796038023324	2.0242016	1.4227444
24.79174081653661	2.04202	1.4289926
24.809686212701962	2.0734415	1.439945
24.827632227023294	2.0920012	1.4463753
24.8455788600047	2.112339	1.4533888
24.8635261121504	2.1300209	1.4594591
24.88147398396475	2.137092	1.4618796
24.899422475952303	2.167193	1.4721389
24.917371588617698	2.1692803	1.4728477
24.935321322465768	2.1774683	1.4756247
24.953271678001478	2.2342122	1.4947281
24.97122265572994	2.4158876	1.5543126
24.989174256156414	2.768787	1.6639673
25.00712647978632	3.3845482	1.8397142
25.02507932712521	4.4623184	2.11242
25.043032798678798	6.048625	2.4593952
25.060986894952933	7.777392	2.7887976
25.078941616453637	9.216461	3.0358624
25.096896963687055	10.066753	3.1728148
25.114852937159508	10.6668625	3.2660162
25.132809537377444	10.597858	3.2554352
25.150766764847468	9.947343	3.153941
25.168724620076347	8.664602	2.9435697
25.186683103570985	7.3280926	2.707045
25.204642215838426	5.9150114	2.4320796
25.222601957385894	4.7376256	2.1766088
25.24056232872074	3.7088337	1.9258332
25.25852333035048	2.9773643	1.725504
25.276484962782778	2.4468632	1.5642452
25.294447226525435	2.2314947	1.4938188
25.312410122086423	2.101845	1.4497741
25.330373649973843	2.04272	1.4292376
25.348337810695988	1.9873646	1.4097393
25.366302604761245	1.9488784	1.3960223
25.384268032678207	1.941985	1.3935512
25.40223409495558	1.9868597	1.4095601
25.420200792102257	1.9652452	1.401872
25.438168124627246	1.9404507	1.3930006
25.45613609303974	1.8940511	1.3762453
25.474104697849057	1.8560652	1.3623748
25.492073939564698	1.8736995	1.3688314
25.510043818696285	1.900168	1.3784658
25.528014335753614	1.9163874	1.3843365
25.54598549124664	1.8594887	1.3636308
25.56395728568544	1.853523	1.3614415
25.58192971958028	1.8633097	1.365031
25.59990279344156	1.9064779	1.3807527
25.617876507779833	1.9233422	1.3868462
25.635850863105826	1.9132534	1.3832041
25.653825859930386	1.8702806	1.3675821
25.671801498764548	1.8662318	1.3661009
25.68977778011949	1.9142057	1.3835483
25.707754704506524	1.930584	1.3894546
25.725732272437153	1.9067438	1.3808489
25.743710484423012	1.8710946	1.3678796
25.761689340975888	1.8968534	1.3772631
25.77966884260774	1.903026	1.379502
25.797648989830662	1.8955737	1.3767984
25.815629783156922	1.8587608	1.3633637
25.83361122309895	1.8473343	1.3591667
25.85159331016929	1.8588535	1.3633977
25.869576044880695	1.8779662	1.3703891
25.887559427746034	1.8953965	1.376734
25.90554345927836	1.8768753	1.369991
25.92352813999086	1.87092	1.3678157
25.94151347039689	1.892243	1.3755883
25.959499451009965	1.8693374	1.3672372
25.97748608234374	1.833121	1.353928
25.995473364912062	1.8457569	1.3585863
26.013461299228904	1.8930632	1.3758863
26.03144988580839	1.9034382	1.3796514
26.04943912516483	1.8267732	1.3515817
26.067429017812675	1.8085827	1.3448355
26.085419564266537	1.8124825	1.3462847
26.103410765041186	1.8459022	1.3586398
26.12140262065155	1.889528	1.374601
26.139395131612723	1.8990489	1.3780599
26.157388298439948	1.8984497	1.3778424
26.17538212164861	1.8824798	1.3720349
26.193376601754295	1.839635	1.3563315
26.211371739272714	1.8197321	1.3489745
26.229367534719746	1.8097436	1.3452672
26.247363988611433	1.751132	1.3233035
26.26536110146397	1.7966635	1.3403968
26.283358873793727	1.850505	1.3603327
26.301357306117204	1.879684	1.3710157
26.319356398951104	1.8383625	1.3558623
26.33735615281224	1.8309375	1.3531214
26.35535656821762	1.8205968	1.3492949
26.373357645684404	1.851078	1.3605433
26.39135938572991	1.8635318	1.3651124
26.409361788871614	1.8699971	1.3674784
26.427364855627165	1.8416802	1.3570852
26.445368586514352	1.8273079	1.3517796
26.46337298205115	1.8337702	1.3541677
26.48137804275568	1.8545393	1.3618147
26.499383769146217	1.8960705	1.3769788
26.517390161741215	1.929137	1.3889338
26.53539722105928	1.8798729	1.3710846
26.553404947619182	1.8816786	1.3717428
26.571413341939856	1.8443056	1.3580521
26.589422404540397	1.8706517	1.3677177
26.60743213594006	1.8989458	1.3780224
26.62544253665827	1.9189184	1.3852503
26.64345360721459	1.8708502	1.3677902
26.66146534812879	1.822832	1.3501229
26.679477759920758	1.8682051	1.366823
26.69749084311057	1.8906503	1.3750092
26.71550459821847	1.8695916	1.3673301
26.733519025764842	1.8627464	1.3648247
26.751534126270258	1.820097	1.3491096
26.769549900255434	1.7776165	1.3332728
26.787566348241267	1.7816406	1.3347812
26.80558347074881	1.7926215	1.3388882
26.823601268299267	1.8241799	1.350622
26.841619741414036	1.8397095	1.3563589
26.85963889061465	1.8230392	1.3501997
26.877658716422832	1.8034786	1.3429365
26.89567921936045	1.8001615	1.3417009
26.913700399949544	1.7963791	1.3402907
26.93172225871233	1.7835879	1.3355104
26.949744796171174	1.8159821	1.3475838
26.967768012848605	1.8648394	1.3655913
26.98579190926733	1.895571	1.3767973
27.003816485950225	1.8849465	1.3729335
27.021841743420318	1.8545659	1.3618245
27.039867682200814	1.8741242	1.3689866
27.057894302815072	1.8577944	1.3630093
27.07592160578664	1.8155283	1.3474154
27.0939495916392	1.750356	1.3230102
27.111978260896635	1.7243049	1.3131279
27.13000761408296	1.7335706	1.3166512
27.148037651722397	1.8035338	1.3429571
27.166068374339304	1.8660115	1.3660203
27.184099782458215	1.8223153	1.3499316
27.20213187660384	1.7741534	1.3319734
27.22016465730105	1.7889789	1.3375272
27.23819812507487	1.8291862	1.3524741
27.256232280450533	1.86024	1.3639061
27.274267123953383	1.848375	1.3595495
27.292302656108987	1.8628274	1.3648543
27.31033887744306	1.868118	1.3667911
27.32837578848146	1.8693409	1.3672384
27.34641338975026	1.867042	1.3663974
27.364451681775673	1.8817064	1.371753
27.382490665084074	1.8954091	1.3767385
27.400530340202046	1.8844963	1.3727696
27.41857070765629	1.829681	1.3526571
27.436611767973726	1.7649447	1.3285122
27.454653521681404	1.7476147	1.3219738
27.472695969306564	1.7985862	1.3411138
27.490739111376627	1.8331325	1.3539323
27.508782948419153	1.8283476	1.352164
27.526827480961902	1.8193877	1.3488468
27.54487270953279	1.8348113	1.354552
27.562918634659898	1.8845474	1.3727882
27.580965256871508	1.8876901	1.3739324
27.599012576696026	1.8422014	1.3572772
27.617060594662068	1.7820657	1.3349403
27.63510931129842	1.7923526	1.3387877
27.65315872713401	1.8101894	1.3454328
27.67120884269797	1.8409811	1.3568276
27.68925965851958	1.8352389	1.3547099
27.707311175128307	1.8855078	1.373138
27.725363393053787	1.8888851	1.3743672
27.74341631282583	1.9257463	1.3877126
27.7614699349744	1.9580238	1.399294
27.77952426002968	2.1556535	1.4682144
27.797579288521973	2.1815214	1.4769974
27.815635020981784	2.6072268	1.6146909
27.83369145793979	2.660368	1.6310635
27.85174859992682	2.5578449	1.5993264
27.869806447473923	2.4384995	1.5615696
27.887865001112267	2.1182196	1.4554105
27.905924261373233	1.9626887	1.40096
27.92398422878836	1.9530884	1.3975294
27.94204490388936	1.9673903	1.4026369
27.96010628720813	1.9511118	1.396822
27.978168379276728	1.8843354	1.372711
27.9962311806274	1.8430487	1.3575892
28.014294691792568	1.829344	1.3525325
28.0323589133048	1.8841845	1.372656
28.050423845696887	1.9273756	1.3882995
28.068489489501758	1.9290813	1.3889138
28.086555845252523	1.9040134	1.3798599
28.104622913482487	1.8832594	1.372319
28.122690694725115	1.8894321	1.3745662
28.14075918951405	1.9255677	1.3876482
28.15882839838312	2.0174117	1.4203562
28.176898321866304	2.0530598	1.4328502
28.1949689604978	1.9622121	1.4007899
28.213040314811945	1.9444993	1.394453
28.23111238534327	1.935299	1.3911502
28.249185172626493	1.9441744	1.3943366
28.267258677196473	1.9624236	1.4008653
28.285332899588294	1.9620916	1.4007468
28.303407840337172	1.9399786	1.3928311
28.321483499978545	1.9252074	1.3875184
28.33955987904799	1.9244342	1.3872398
28.357636978081285	1.9511541	1.3968372
28.37571479761439	1.9710896	1.403955
28.393793338183425	2.0193603	1.421042
28.41187260032469	2.022972	1.4223123
28.429952584574686	1.9921699	1.4114425
28.448033291470065	1.9941986	1.412161
28.46611472154769	1.9859784	1.4092474
28.484196875344566	1.9950148	1.41245
28.502279753397914	2.0638578	1.4366133
28.52036335624511	2.113125	1.4536592
28.538447684423716	2.092833	1.4466628
28.556532738471482	2.0713525	1.4392194
28.574618518926325	2.1122134	1.4533455
28.59270502632635	2.1097386	1.4524939
28.61079226120985	2.0602891	1.4353707
28.628880224115274	2.0172281	1.4202915
28.646968915581287	2.0706482	1.4389747
28.66505833614671	2.1075666	1.4517461
28.68314848635055	2.1427963	1.4638293
28.701239366732004	2.1711853	1.4734943
28.71933097783044	2.1181614	1.4553905
28.737423320185403	2.0787575	1.4417897
28.75551639433665	2.1087606	1.4521573
28.773610200824074	2.1850054	1.4781764
28.791704740187793	2.2317467	1.4939032
28.80980001296809	2.2085536	1.4861203
28.827896019705413	2.1684635	1.4725704
28.845992760940433	2.2299247	1.4932933
28.86409023721397	2.2248235	1.4915842
28.88218844906704	2.181587	1.4770197
28.900287397040845	2.1799505	1.4764656
28.918387081676755	2.223139	1.4910195
28.936487503516343	2.235143	1.4950395
28.954588663101365	2.2995474	1.5164258
28.97269056097374	2.3371584	1.5287768
28.990793197675597	2.3282306	1.5258541
29.00889657374923	2.302124	1.5172752
29.027000689737125	2.3929126	1.5469042
29.04510554618196	2.4306395	1.5590508
29.06321114362659	2.438046	1.5614244
29.08131748261405	2.4564102	1.5672939
29.099424563687567	2.5060601	1.5830541
29.11753238739057	2.521942	1.5880623
29.13564095426663	2.5345006	1.5920115
29.15375026485954	2.5550876	1.5984641
29.171860319713275	2.6339269	1.6229377
29.18997111937199	2.7491121	1.6580447
29.20808266438002	2.8131194	1.6772356
29.226194955281898	2.845364	1.6868207
29.244307992622335	2.89739	1.7021722
29.26242177694624	2.9346044	1.7130687
29.2805363087987	2.8977733	1.7022847
29.29865158872498	2.933778	1.7128274
29.316767617270557	2.9589026	1.7201461
29.334884394981064	2.9844384	1.7275528
29.353001922402367	2.9998078	1.7319953
29.37112020008047	3.1200178	1.7663572
29.389239228561596	3.298457	1.8161654
29.407359008392152	3.472363	1.8634278
29.42547954011872	3.721547	1.9291312
29.44360082428809	4.168015	2.0415716
29.46172286144722	5.0158615	2.2396119
29.479845652143283	6.74899	2.5978818
29.497969196923606	9.453949	3.0747275
29.516093496335728	13.0879345	3.6177251
29.5342185509274	16.373857	4.0464625
29.55234436124651	19.51938	4.418074
29.570470927841175	20.951172	4.577245
29.588598251259686	20.873938	4.5688004
29.60672633205055	19.19537	4.3812523
29.624855170762405	16.237965	4.029636
29.642984767944146	12.918785	3.5942712
29.66111512414481	9.668897	3.109485
29.67924623991366	7.020655	2.649652
29.697378115800138	5.1720004	2.2742033
29.71551075235387	4.292619	2.0718637
29.733644150124675	3.8313715	1.957389
29.751778309662576	3.5942724	1.8958566
29.769913231517766	3.4735355	1.8637424
29.78804891624066	3.4374743	1.8540426
29.806185364381818	3.4094973	1.8464824
29.82432257649206	3.4174757	1.8486416
29.842460553122333	3.4193215	1.8491408
29.86059929482382	3.3726509	1.8364779
29.878738802147872	3.3315165	1.8252442
29.896879075646048	3.361417	1.8334168
29.915020115870114	3.3708613	1.8359905
29.933161923371976	3.3890162	1.8409281
29.951304498703777	3.417256	1.8485821
29.969447842417857	3.3929613	1.8419993
29.987591955066733	3.348728	1.829953
30.005736837203123	3.2859943	1.8127311
30.023882489379943	3.2450364	1.8013984
30.04202891215028	3.29425	1.8150069
30.060176106067455	3.3687434	1.8354137
30.078324071684946	3.3779461	1.837919
30.09647280955646	3.292016	1.8143914
30.114622320235863	3.2337909	1.7982744
30.132772604277257	3.2020051	1.7894148
30.1509236622349	3.1497133	1.7747432
30.16907549466328	3.1364467	1.7710016
30.18722810211705	3.0498564	1.7463838
30.205381485151097	3.0030985	1.7329451
30.22353564432045	3.0484314	1.7459757
30.241690580180403	3.153742	1.7758778
30.25984629328638	3.0989714	1.7603896
30.278002784194037	3.0789444	1.7546921
30.296160053459246	3.0877326	1.7571945
30.314318101638033	3.0004613	1.7321839
30.332476929286646	2.9058979	1.7046695
30.35063653696153	2.9365065	1.7136238
30.368796925219307	2.9616206	1.720936
30.386958094616844	2.971414	1.723779
30.40512004571115	2.9094768	1.7057189
30.423282779059463	2.8761227	1.6959136
30.441446295219233	2.9292889	1.7115165
30.459610594748067	2.9492693	1.7173437
30.47777567820382	2.9215806	1.7092632
30.495941546144504	2.905491	1.7045501
30.51410819912835	2.9286494	1.7113297
30.532275637713795	2.9343297	1.7129885
30.55044386245946	2.884482	1.6983763
30.56861287392416	2.8767633	1.6961024
30.586782672666956	2.884168	1.6982838
30.604953259247047	2.873	1.6949925
30.623124634223885	2.8497186	1.688111
30.641296798157075	2.8338597	1.6834072
30.659469751606462	2.7988796	1.6729852
30.677643495132074	2.7705119	1.6644855
30.695818029294152	2.7907887	1.6705654
30.713993354653116	2.799787	1.6732564
30.73216947176962	2.715743	1.6479511
30.75034638120448	2.7278726	1.6516273
30.768524083518756	2.805226	1.6748809
30.786702579273673	2.812067	1.6769218
30.80488186903069	2.9088821	1.7055445
30.82306195335144	3.0994287	1.7605194
30.841242832797782	3.4028006	1.8446681
30.85942450793176	3.7059216	1.9250771
30.877606979315637	4.060702	2.0151184
30.895790247511883	4.47828	2.1161947
30.913974313083134	4.9130983	2.216551
30.932159176592283	5.3002214	2.302221
30.95034483860237	5.6148086	2.3695588
30.968531299676698	5.625411	2.371795
30.98671856037873	5.360625	2.3153024
31.00490662127215	4.9923215	2.2343504
31.023095482920848	4.433876	2.1056771
31.04128514588892	3.8550496	1.963428
31.059475610740662	3.2738628	1.8093818
31.07766687804056	2.8473344	1.6874046
31.09585894835335	2.6017785	1.6130029
31.11405182224393	2.5469933	1.5959302
31.132245500277417	2.5615053	1.6004703
31.15043998301914	2.549029	1.5965679
31.168635271034628	2.5290987	1.590314
31.18683136488964	2.51437	1.5856766
31.20502826515008	2.537399	1.5929215
31.223225972382135	2.5831685	1.6072239
31.241424487152155	2.5884151	1.6088552
31.259623810026692	2.4686317	1.571188
31.27782394157253	2.4648604	1.5699874
31.296024882356644	2.5048058	1.5826578
31.314226632946237	2.4815981	1.5753089
31.332429193908684	2.459319	1.5682217
31.350632565811598	2.4087944	1.5520291
31.368836749222787	2.4464273	1.5641059
31.387041744710295	2.5240312	1.58872
31.40524755284232	2.591581	1.6098388
31.423454174187317	2.5796475	1.6061281
31.441661609313922	2.5457938	1.5955544
31.459869858791002	2.4885004	1.5774981
31.478078923187628	2.40745	1.5515959
31.496288803073064	2.400561	1.5493745
31.514499499016807	2.381114	1.5430858
31.532711011588546	2.3845985	1.5442145
31.550923341358178	2.3786404	1.5422841
31.56913648889584	2.3772578	1.5418359
31.587350454771844	2.402064	1.5498594
31.605565239556732	2.391137	1.5463301
31.62378084382127	2.3523974	1.5337527
31.641997268136382	2.2971833	1.5156461
31.660214513073274	2.2561417	1.5020459
31.67843257920331	2.2695315	1.5064964
31.6966514670981	2.2746472	1.5081934
31.71487117732944	2.3410397	1.5300456
31.733091710469346	2.3881264	1.5453564
31.751313067090052	2.3334396	1.52756
31.769535247764008	2.2777512	1.509222
31.787758253063878	2.284055	1.511309
31.805982083562526	2.3594556	1.536052
31.824206739833024	2.3625185	1.5370487
31.84243222244869	2.3864186	1.5448037
31.860658531983013	2.3820453	1.5433877
31.878885669009737	2.363784	1.5374603
31.897113634102784	2.2912955	1.5137026
31.91534242783632	2.2688403	1.5062671
31.933572050784694	2.3557222	1.5348362
31.951802503522508	2.401066	1.5495374
31.970033786624548	2.3778753	1.542036
31.988265900665834	2.2524724	1.5008239
32.006498846221575	2.153306	1.4674147
32.02473262386724	2.1111312	1.4529732
32.04296723417845	2.1625597	1.4705645
32.0612026777311	2.1619394	1.4703535
32.07943895510129	2.2420158	1.4973363
32.097676066865304	2.2350426	1.4950058
32.115914013599685	2.1476216	1.4654766
32.13415279588115	2.082261	1.4430041
32.152392414286666	2.1253161	1.4578464
32.1706328693934	2.164776	1.4713178
32.18887416177875	2.23525	1.4950752
32.20711629202032	2.2749355	1.508289
32.225359260695924	2.239374	1.4964538
32.243603068383614	2.237194	1.4957253
32.26184771566166	2.243655	1.4978834
32.28009320310852	2.192852	1.4808282
32.2983395313029	2.2294667	1.4931399
32.31658670082372	2.1568525	1.4686227
32.33483471225012	2.1584847	1.4691782
32.35308356616143	2.2560532	1.5020164
32.371333263137245	2.2732148	1.5077184
32.38958380375734	2.2291455	1.4930323
32.407835188601744	2.2360888	1.4953557
32.42608741825067	2.2111335	1.4869881
32.444340493284585	2.0741293	1.4401838
32.46259441428416	2.0634134	1.4364586
32.48084918183028	2.0751612	1.440542
32.49910479650405	2.0455508	1.4302275
32.51736125888683	2.0256977	1.4232701
32.53561856956014	2.1419475	1.4635394
32.5538767291058	2.0702093	1.4388222
32.572135738105764	2.0189974	1.4209143
32.59039559714228	2.0994644	1.4489529
32.608656306797776	2.138274	1.4622838
32.62691786765491	2.1274168	1.4585667
32.645180280296586	2.1090777	1.4522665
32.663443545305896	2.1275818	1.4586233
32.68170766326619	2.1391163	1.4625719
32.69997263476099	2.181259	1.4769086
32.7182384603741	2.1346514	1.4610447
32.7365051406895	2.0968456	1.448049
32.75477267629144	2.0585048	1.434749
32.77304106776434	2.1124918	1.4534414
32.79131031569289	2.053195	1.4328974
32.809580420661966	2.0282483	1.4241658
32.827851383256714	2.1946676	1.481441
32.84612320406245	2.2612214	1.5037358
32.86439588366476	2.1447303	1.4644898
32.88266942264945	2.0782716	1.4416212
32.9009438216025	2.0099082	1.4177123
32.9192190811102	2.0259972	1.4233752
32.937495201758985	2.0148253	1.4194454
32.95577218413556	2.0613613	1.4357442
32.974050028826866	1.9547464	1.3981224
32.992328736420035	1.8706934	1.367733
33.010608307502444	1.9513494	1.3969071
33.02888874266169	2.0531247	1.4328729
33.047170042485604	2.0805762	1.4424202
33.06545220756225	2.0299098	1.424749
33.083735238479896	1.9592007	1.3997145
33.10201913582707	1.9145364	1.3836677
33.12030390019248	1.982761	1.4081055
33.138589532165135	2.0107796	1.4180197
33.15687603233419	1.981768	1.4077529
33.17516340128909	1.9017392	1.3790356
33.19345163961947	1.9123191	1.3828663
33.211740747915215	2.0230112	1.422326
33.23003072676643	2.0163076	1.4199674
33.248321576763466	2.000733	1.4144727
33.266613298496885	1.9349734	1.3910332
33.28490589255747	1.976829	1.4059975
33.30319935953626	2.066735	1.4376143
33.32149370002451	2.0885913	1.4451959
33.339788914613706	1.9996438	1.4140877
33.358085003895575	1.9397186	1.3927379
33.376381968462034	1.9318454	1.3899084
33.39467980890529	1.9522835	1.3972414
33.41297852581774	2.0253172	1.4231364
33.43127811979204	2.040091	1.4283175
33.44957859142105	2.0100224	1.4177526
33.467879941297866	1.9534593	1.397662
33.486182170015844	1.9867224	1.4095113
33.50448527816853	1.948751	1.3959767
33.522789266349754	1.9156562	1.3840723
33.541094135153514	1.9209194	1.3859724
33.55939988517411	1.9670031	1.4024988
33.57770651700602	1.9524161	1.3972888
33.59601403124398	1.8808607	1.3714447
33.61432242848296	1.8294572	1.3525742
33.632631709318154	1.8820364	1.3718734
33.650941874344994	2.0064642	1.4164972
33.66925292415916	2.0491312	1.4314786
33.68756485935654	1.9058616	1.3805295
33.70587768053328	1.7223208	1.3123722
33.724191388285746	1.794806	1.3397037
33.74250598321054	1.9796462	1.406999
33.760821465904506	2.0821414	1.4429628
33.77913783696474	2.0590153	1.4349269
33.79745509698852	2.0440626	1.4297072
33.815773246573414	2.0332763	1.42593
33.8340922863172	1.9076549	1.3811789
33.852412216817896	1.8079981	1.3446182
33.87073303867377	1.8369577	1.3553442
33.889054752483304	1.9273813	1.3883016
33.907377358845245	1.9867823	1.4095327
33.92570085835853	2.035305	1.4266412
33.94402525162239	2.022312	1.4220802
33.96235053923627	1.9035764	1.3797015
33.980676721799824	1.8883566	1.3741748
33.999003799912984	1.9138281	1.3834118
34.01733177417592	1.9310286	1.3896146
34.03566064518901	1.9780992	1.4064492
34.0539904135529	2.0860705	1.4443235
34.07232107986846	2.0555153	1.4337069
34.090652644736785	2.0589175	1.4348929
34.108985108759235	2.0776374	1.4414012
34.12731847253742	2.112318	1.4533815
34.14565273667313	2.070133	1.4387957
34.16398790176847	1.8955196	1.3767787
34.18232396842574	1.8767126	1.3699316
34.20066093724749	1.992963	1.4117234
34.21899880883651	2.0439467	1.4296666
34.23733758379583	2.145003	1.4645829
34.25567726272874	2.1382358	1.4622707
34.27401784623872	2.090066	1.445706
34.29235933492957	2.0663614	1.4374844
34.31070172940526	2.0766926	1.4410734
34.32904503027003	2.0703835	1.4388827
34.347389238128386	2.0038385	1.41557
34.36573435358502	1.8508338	1.3604535
34.38408037724492	1.791783	1.338575
34.402427309713296	1.776278	1.3327708
34.42077515159559	1.8295983	1.3526264
34.43912390349752	1.9690142	1.4032156
34.45747356602499	2.1204605	1.4561801
34.47582413978423	2.2213817	1.49043
34.49417562538163	2.1996076	1.4831074
34.51252802342388	2.0988538	1.4487422
34.53088133451789	1.9427869	1.3938389
34.54923555927084	1.9114228	1.3825421
34.567590698290104	1.9468704	1.395303
34.58594675218336	1.986558	1.409453
34.6043037215585	1.998715	1.4137592
34.62266160702365	1.9948722	1.4123994
34.641020409187234	1.9774053	1.4062024
34.65938012865785	1.9096726	1.381909
34.677740766044394	1.8318105	1.353444
34.69610232195598	1.8717159	1.3681067
34.714464797002016	1.8599548	1.3638016
34.73282819179208	1.8280067	1.352038
34.751192506936064	1.918188	1.3849866
34.76955774304408	1.9399459	1.3928194
34.7879239007265	1.9271889	1.3882322
34.80629098059391	2.0740483	1.4401556
34.824658983257194	2.0813584	1.4426913
34.843027909327446	1.9915817	1.4112341
34.86139775941603	2.059395	1.4350593
34.879768534134534	1.9585111	1.3994682
34.89814023409483	1.8942747	1.3763266
34.91651285990901	1.957325	1.3990443
34.93488641218944	1.9859647	1.4092426
34.95326089154871	2.0185194	1.4207461
34.97163629859967	2.0425034	1.4291618
34.99001263395542	2.1249304	1.4577141
35.00838989822934	2.179626	1.4763557
35.02676809203499	2.1283193	1.458876
35.04514721598624	1.8988128	1.3779742
35.063527270697215	2.0402558	1.4283752
35.081908256782256	2.3615627	1.5367377
35.10029017485597	2.1513324	1.466742
35.11867302553321	1.785995	1.3364112
35.137056809429104	1.7744563	1.3320872
35.155441527159006	2.1495938	1.4661493
35.173827179338524	2.147958	1.4655913
35.19221376658354	1.7051183	1.3058017
35.21060128951017	1.764512	1.3283494
35.2289897487348	2.0540898	1.4332097
35.24737914487405	2.0203214	1.42138
35.26576947854479	1.8753097	1.3694195
35.28416075036418	1.8861449	1.3733699
35.30255296094958	1.921753	1.386273
35.32094611091867	2.0122023	1.4185212
35.33934020088932	2.2380474	1.4960104
35.35773523147969	2.3464456	1.5318112
35.3761312033082	2.2536266	1.5012084
35.394528116993506	2.2759378	1.5086212
35.41292597315452	2.4476726	1.5645039
35.431324772410434	2.2856321	1.5118307
35.449724515380666	2.1681952	1.4724793
35.46812520268491	2.1901748	1.479924
35.486526834943106	2.43221	1.5595545
35.504929412775454	2.203727	1.4844955
35.52333293680242	1.9631722	1.4011325
35.54173740764471	2.0937474	1.4469787
35.560142825923286	2.4355354	1.5606202
35.5785491922594	2.5941467	1.6106355
35.59695650727454	1.896304	1.3770635
35.61536477159042	1.3168815	1.1475546
