0.008763373481513119	0.56609195	0.7523908
0.026290120649546365	0.18888974	0.43461448
0.043816868432600686	0.0908709	0.30144802
0.06134361724069026	0.0	0.0
0.07887036748382949	0.050206266	0.22406755
0.0963971195720331	0.12024821	0.34676823
0.11392387391531617	0.09854952	0.31392598
0.1314506309236943	0.09205408	0.30340415
0.1489773910071836	0.07398078	0.27199408
0.16650415457580078	0.12389681	0.35198978
0.18403092203956356	0.13452107	0.36677113
0.20155769380849	0.11687346	0.3418676
0.2190844702925996	0.076015316	0.27570876
0.2366112519019124	0.12753269	0.3571172
0.2541380390464497	0.13051389	0.36126706
0.27166483213623416	0.119326696	0.34543696
0.28919163158128947	0.10289696	0.32077557
0.3067184377916406	0.15839301	0.3979862
0.324245251177314	0.19532391	0.44195464
0.34177207214833777	0.20785527	0.45591146
0.3592989011147415	0.21850504	0.46744522
0.37682573848655654	0.24582079	0.49580318
0.39435258467381573	0.26000163	0.50990355
0.41187944008655414	0.21757464	0.46644896
0.42940630513480854	0.1990369	0.44613552
0.446933180228618	0.17577648	0.41925704
0.4644600657780234	0.14875077	0.3856822
0.48198696219306775	0.14989877	0.38716763
0.49951386988379676	0.11309245	0.3362922
0.5170407892602581	0.11650779	0.34133238
0.5345677207325025	0.11872056	0.3445585
0.5520946647105822	0.1251399	0.35375118
0.5696216216045534	0.12833974	0.35824537
0.5871485918244737	0.1417217	0.37645942
0.6046755757804043	0.11406317	0.3377324
0.6222025738824094	0.12097563	0.3478155
0.6397295865405557	0.1587148	0.39839026
0.6572566141649129	0.18521163	0.4303622
0.6747836571655547	0.22324157	0.47248447
0.6923107159525568	0.2286167	0.47813877
0.7098377909359992	0.23818174	0.48803866
0.7273648825259653	0.20834626	0.45644963
0.7448919911325411	0.20411605	0.45179203
0.762419117165817	0.17695008	0.42065436
0.7799462610358868	0.18603474	0.43131745
0.7974734231528482	0.17753994	0.4213549
0.8150006039268024	0.19643413	0.4432089
0.8325278037678551	0.20235266	0.44983625
0.8500550230861152	0.21711491	0.4659559
0.8675822622916969	0.21034797	0.4586371
0.8851095217947171	0.18101372	0.42545706
0.9026368020052984	0.1782332	0.42217675
0.9201641033335665	0.16887274	0.4109413
0.9376914261896523	0.19174622	0.43788835
0.9552187709836915	0.22839609	0.47790805
0.9727461381258234	0.23590997	0.48570564
0.990273528026193	0.24820732	0.49820408
1.0078009410949496	0.24291733	0.49286643
1.0253283777422473	0.23620883	0.4860132
1.0428558383782454	0.23915067	0.48903033
1.0603833234131086	0.28725895	0.53596544
1.0779108332570058	0.35782748	0.59818685
1.0954383683201119	0.36485657	0.6040336
1.112965929012607	0.36206502	0.60171837
1.1304935157446763	0.46930876	0.68506116
1.1480211289265108	0.4953893	0.703839
1.1655487689683062	1.3510154	1.1623319
1.1830764362802655	1.6331956	1.2779654
1.200604131272596	2.0294964	1.4246039
1.2181318543555117	2.338303	1.5291511
1.235659605939232	2.365213	1.5379249
1.253187386433982	3.891902	1.9727904
1.270715196249994	6.0983124	2.4694762
1.2882430357975057	11.698435	3.4202974
1.3057709054867608	16.6381	4.078983
1.3232988057280106	22.485958	4.741936
1.3408267369315112	27.516422	5.2456098
1.358354699507526	30.992785	5.5671163
1.3758826938663256	34.97618	5.9140663
1.3934107204181858	36.75588	6.0626626
1.410938779573391	37.083107	6.08959
1.4284668717422309	37.970215	6.161998
1.4459949973350033	37.667152	6.137357
1.4635231567620117	37.36142	6.1123986
1.4810513504335687	37.022583	6.0846186
1.4985795787599925	36.62647	6.0519805
1.5161078421516088	36.8861	6.073393
1.5336361410187505	36.059444	6.0049515
1.5511644757717598	35.73041	5.977492
1.5686928468209842	35.9109	5.9925704
1.58622125457678	36.278168	6.023136
1.6037496994495108	37.167446	6.096511
1.621278181849548	36.837585	6.0693974
1.6388067021872719	37.99591	6.1640825
1.6563352608730693	37.785942	6.147027
1.673863858317336	36.98085	6.081188
1.6913924949304753	36.208958	6.017388
1.7089211711228998	34.918922	5.9092236
1.7264498873050296	34.120953	5.8413143
1.7439786438872935	33.239544	5.7653747
1.7615074412801288	32.59658	5.7093415
1.779036279893981	32.18954	5.6735826
1.796565160139305	30.982958	5.5662336
1.814094082426564	30.15452	5.491313
1.8316230471662298	29.236542	5.4070826
1.849152054768784	28.563814	5.3445125
1.8666811056447168	27.91236	5.283215
1.8842102002045273	27.255636	5.220693
1.901739338858724	26.68544	5.1657953
1.9192685220178245	25.78799	5.078188
1.9367977500923557	24.94121	4.9941177
1.9543270234928547	24.60749	4.9605937
1.971856342629867	24.18564	4.9178896
1.9893857079139496	23.811176	4.8796697
2.006915119755667	23.278801	4.824811
2.0244445785655945	22.604418	4.7544103
2.0419740847543175	22.11115	4.7022495
2.0595036387324317	21.855894	4.675029
2.0770332409105414	21.588999	4.646396
2.094562891699263	21.022951	4.585079
2.1120925915092217	20.240713	4.498968
2.129622340751053	19.746944	4.4437532
2.1471521398354043	188.07443	13.714024
2.1646819891729323	444.66367	21.08705
2.182211889174303	440.87704	20.997072
2.1997418402501974	453.1028	21.286211
2.2172718428113023	432.90887	20.806463
2.234801897268317	320.5942	17.905146
2.2523320040319548	17.039146	4.12785
2.269862163512935	16.689325	4.085257
2.287392376121992	16.378353	4.0470176
2.304922642269869	16.190903	4.0237923
2.322452962367322	16.006374	4.000797
2.3399833368251164	15.799583	3.974869
2.357513766054032	15.629903	3.9534671
2.3750442504648586	15.337378	3.9162965
2.3925747904683963	14.950772	3.866623
2.410105386475459	14.816493	3.8492198
2.4276360388968707	14.37608	3.7915802
2.445166748143469	14.157214	3.7626073
2.4626975146261025	13.691542	3.7002084
2.4802283387556323	13.339509	3.6523292
2.4977592209429305	13.02302	3.6087422
2.5152901615988825	12.719205	3.5663993
2.5328211611343865	12.661513	3.558302
2.5503522199603523	12.47567	3.5320914
2.5678833384877024	12.45261	3.5288255
2.5854145171273712	12.303998	3.5077055
2.6029457562903064	12.252794	3.500399
2.620477056387469	12.003934	3.4646695
2.6380084178298326	11.718706	3.4232595
2.655539841028383	11.433587	3.3813589
2.673071326394119	11.133026	3.336619
2.6906028743380523	11.066024	3.3265634
2.708134485271211	10.87306	3.2974324
2.7256661596046325	10.890136	3.3000205
2.743197897749369	10.702671	3.2714937
2.760729700116486	10.536794	3.2460427
2.778261567117063	10.4192	3.2278786
2.795793499162193	10.267296	3.204262
2.8133254966629817	10.203943	3.1943612
2.830857560030551	10.064882	3.17252
2.8483896896760337	10.049732	3.1701312
2.865921886010578	9.809534	3.1320176
2.883454149445347	9.493657	3.081178
2.9009864803915177	9.285472	3.047207
2.91851887926028	9.032649	3.0054367
2.9360513464628384	8.978795	2.9964638
2.953583882410413	8.985946	2.9976566
2.9711164875142373	8.925001	2.987474
2.9886491621855606	8.877714	2.9795494
3.0061819068356455	8.684737	2.9469879
3.023714721875769	8.570798	2.9275925
3.041247607717225	8.474062	2.911024
3.0587805647713213	8.354342	2.890388
3.0763135934493806	8.235155	2.869696
3.0938466941627407	8.1117325	2.8481104
3.1113798673227544	8.114177	2.8485394
3.1289131133407904	8.088853	2.844091
3.1464464326282315	8.028164	2.8334014
3.1639798255964786	7.9310145	2.8162057
3.1815132926569443	7.756973	2.7851343
3.1990468342210603	7.614656	2.7594666
3.216580450700272	7.410351	2.7221959
3.2341141425060416	7.2891717	2.6998465
3.251647910049847	7.239363	2.6906064
3.2691817537431813	7.17954	2.6794665
3.286715673997555	7.166163	2.676969
3.3042496712244938	7.115091	2.6674128
3.32178374583554	7.0523367	2.6556237
3.339317898242251	7.1132107	2.6670604
3.3568521288562034	7.0537744	2.6558943
3.3743864380889876	7.0194783	2.6494298
3.3919208263522127	6.818513	2.6112282
3.4094552940575023	6.635068	2.5758626
3.4269898416164972	6.554214	2.5601199
3.444524469440858	6.49242	2.5480227
3.4620591779422587	6.4411454	2.5379412
3.479593967532391	6.4727006	2.5441504
3.4971288386229658	6.497667	2.5490522
3.5146637916257086	6.5182686	2.55309
3.5321988269523628	6.4813275	2.5458453
3.5497339450146903	6.4523053	2.5401387
3.5672691462244708	6.3938684	2.52861
3.5848044309934988	6.3750052	2.5248773
3.60233979973359	6.2472816	2.4994562
3.619875252856575	6.2959304	2.5091693
3.6374107907743034	6.3184934	2.5136614
3.6549464138986427	6.3033953	2.5106564
3.6724821226414788	6.212828	2.4925544
3.690017917414714	6.2414546	2.4982903
3.7075537986302702	6.3262677	2.5152073
3.7250897667000857	6.39195	2.5282307
3.7426258220361235	6.501543	2.5498123
3.7601619650503553	6.68253	2.585059
3.777698196154779	7.272825	2.6968176
3.7952345157614067	8.243488	2.8711476
3.8127709242822716	9.148302	3.024616
3.830307422129425	11.475554	3.3875587
3.847844009714936	30.35625	5.5096507
3.8653806874508954	97.89426	9.894153
3.882917455749409	97.04892	9.851341
3.900454315022606	96.80554	9.838981
3.917991265682631	41.372074	6.4321127
3.9355283081416506	11.004498	3.3173027
3.9530654428118495	8.883024	2.9804404
3.970602670105433	7.6017466	2.7571266
3.9881399904346244	6.666545	2.5819652
4.005677404211669	6.529438	2.5552764
4.023214911848827	6.520454	2.553518
4.0407525137583855	6.557862	2.5608323
4.058290210352644	6.5899606	2.567092
4.075828002043927	6.513241	2.5521052
4.0933658892445814	6.3457046	2.5190682
4.110903872366966	6.3551226	2.5209367
4.128441951823468	6.2549953	2.500999
4.145980128026488	6.34379	2.5186882
4.163518401388452	6.230884	2.4961739
4.181056772321807	6.1352553	2.4769447
4.1985952412390155	6.0697284	2.463682
4.216133808552567	6.1019573	2.4702141
4.233672474674966	6.286172	2.5072238
4.251211240018741	6.5033364	2.550164
4.268750104996445	6.765433	2.6010447
4.286289070020643	7.600509	2.756902
4.303828135503928	9.182281	3.030228
4.3213673018589125	29.429955	5.424938
4.3389065694982305	90.57814	9.517255
4.356445938834537	165.86119	12.878711
4.3739854102805085	171.50598	13.096029
4.391524984248844	172.41422	13.130659
4.409064661152262	136.51039	11.683766
4.426604441403504	96.703896	9.833814
4.444144325415337	75.85266	8.709343
4.461684313600543	22.028786	4.6934834
4.47922440637193	22.516823	4.7451897
4.496764604142329	20.69927	4.549645
4.5143049073245916	18.59337	4.312003
4.531845316331589	16.415043	4.051548
4.5493858315762195	13.539051	3.679545
4.566926453471405	11.295781	3.3609197
4.584467182430081	9.433413	3.071386
4.602008018865218	8.338473	2.8876414
4.619548963189798	7.7245827	2.7793133
4.637090015816834	7.079907	2.6608095
4.654631177159353	6.700997	2.5886283
4.672172447630417	6.3751135	2.5248988
4.689713827643102	6.2178535	2.4935625
4.7072553176105085	6.075224	2.464797
4.724796917945764	5.9564037	2.4405744
4.742338629062015	5.8738785	2.4236085
4.759880451372434	5.841708	2.4169626
4.777422385290215	5.8243876	2.4133768
4.794964431228581	5.662904	2.3796856
4.812506589600768	5.660235	2.3791249
4.830048860820047	5.6401424	2.3748984
4.847591245299709	5.7112694	2.3898263
4.8651337434530655	5.5952163	2.365421
4.882676355693457	5.5476255	2.3553398
4.900219082434242	5.5365467	2.3529868
4.917761924088813	5.5114775	2.3476536
4.935304881070575	5.595952	2.3655765
4.952847953792969	5.597459	2.365895
4.970391142669449	5.5263767	2.3508246
4.9879344481135055	5.5463133	2.3550613
5.005477870538642	5.5085073	2.3470209
5.023021410358394	5.514995	2.3484027
5.040565067986324	5.5660567	2.359249
5.05810884383601	5.5850782	2.363277
5.075652738321066	5.5390673	2.3535223
5.09319675185512	5.468292	2.338438
5.110740884851836	5.4558535	2.3357768
5.128285137724894	5.4050035	2.3248663
5.145829510888007	5.43308	2.3308969
5.163374004754908	5.4297576	2.330184
5.1809186197393595	5.3847675	2.3205101
5.198463356255145	5.376831	2.3187995
5.216008214716077	5.328387	2.3083298
5.233553195535998	5.360259	2.3152232
5.251098299128764	5.384273	2.3204036
5.268643525908272	5.401228	2.3240542
5.286188876288432	5.367596	2.3168073
5.3037343506831895	5.274893	2.2967136
5.32127994950651	5.3000946	2.3021934
5.3388256731723915	5.27145	2.2959638
5.356371522094851	5.3151083	2.3054519
5.373917496687938	5.309296	2.3041909
5.391463597365729	5.357291	2.3145823
5.40900982454232	5.3340607	2.3095586
5.426556178631843	5.291247	2.300271
5.444102660048449	5.180518	2.2760751
5.4616492692063225	5.1175294	2.2621956
5.479196006519669	5.133967	2.265826
5.496742872402727	5.0779557	2.253432
5.514289867269756	5.0772767	2.2532814
5.531836991535049	5.0623693	2.249971
5.549384245612924	5.0838647	2.2547426
5.566931629917724	5.0246906	2.2415822
5.584479144863822	5.1012774	2.2586007
5.6020267908656205	5.144675	2.2681875
5.619574568337545	5.25524	2.292431
5.637122477694054	5.247726	2.2907915
5.654670519349629	5.17619	2.275124
5.672218693718784	5.128211	2.2645555
5.689767001216059	5.1570544	2.2709148
5.707315442256021	5.135273	2.266114
5.724864017253266	5.1398177	2.2671165
5.7424127266224225	5.1435204	2.2679331
5.75996157077814	5.2324104	2.2874463
5.777510550135105	5.285874	2.2991028
5.795059665108022	5.267915	2.295194
5.812608916111639	5.217175	2.2841136
5.830158303560715	5.32367	2.307308
5.847707827870055	5.3312564	2.3089514
5.86525748945448	5.5098352	2.3473039
5.8828072887288485	5.5698557	2.3600543
5.900357226108044	5.6194835	2.370545
5.917907302006979	5.6803527	2.383349
5.9354575168406	6.387019	2.5272553
5.9530078710238765	7.0190444	2.649348
5.970558364971812	7.578729	2.7529492
5.988108999099438	7.847803	2.801393
6.005659773821818	8.30934	2.8825924
6.023210689554039	8.048822	2.8370447
6.040761746711227	8.466399	2.9097078
6.058312945708531	7.9086423	2.8122308
6.075864286961132	7.4630933	2.7318664
6.093415770884244	6.8386054	2.6150727
6.1109673978931065	6.2154675	2.493084
6.128519168402993	5.5270877	2.350976
6.146071082829204	5.3568015	2.3144765
6.163623141587075	5.2663183	2.294846
6.181175345091969	5.281518	2.2981553
6.198727693759281	5.2304025	2.2870073
6.216280188004435	5.1991944	2.2801743
6.233832828242885	5.136375	2.2663572
6.251385614890126	5.2164474	2.2839544
6.268938548361669	5.2322445	2.28741
6.286491629073067	5.1654534	2.2727635
6.304044857439898	5.061982	2.2498848
6.321598233877777	4.9756374	2.2306137
6.339151758802344	4.9800515	2.231603
6.356705432629277	4.9632416	2.2278333
6.37425925577428	4.9261656	2.2194967
6.391813228653095	4.931665	2.2207353
6.409367351681486	5.0031066	2.2367625
6.426921625275259	5.0719175	2.252092
6.44447604985025	5.0568504	2.2487442
6.46203062582232	5.0743914	2.252641
6.47958535360737	5.1016135	2.258675
6.497140233621328	5.095379	2.2572947
6.514695266280161	5.0425653	2.2455657
6.532250451999859	5.005017	2.2371895
6.549805791196454	4.958357	2.2267368
6.567361284286002	4.9973273	2.2354703
6.584916931684597	5.0688634	2.2514136
6.602472733808367	5.0783467	2.2535188
6.6200286910734665	5.0858917	2.2551923
6.637584803896092	5.1204057	2.2628314
6.655141072692462	5.1041603	2.259239
6.672697497878842	5.1125894	2.2611036
6.690254079871514	5.051856	2.2476335
6.707810819086808	5.0468082	2.2465103
6.725367715941078	4.977087	2.2309387
6.742924770850719	5.021958	2.2409725
6.760481984232151	5.055509	2.248446
6.778039356501836	5.0584817	2.249107
6.795596888076266	5.0399747	2.2449887
6.813154579371963	5.0389028	2.24475
6.830712430805492	5.057058	2.2487903
6.84827044279344	5.0963693	2.257514
6.865828615752445	5.050804	2.2473993
6.883386950099159	5.001772	2.2364643
6.900945446250287	4.9531813	2.2255743
6.918504104622553	4.999952	2.2360573
6.936062925632727	5.0731635	2.2523685
6.953621909697607	5.1111445	2.2607841
6.971181057234028	5.0832186	2.2545993
6.988740368658859	5.0846457	2.254916
7.006299844389007	5.134482	2.2659395
7.023859484841407	5.186967	2.2774913
7.041419290433036	5.286787	2.2993014
7.058979261580902	5.462457	2.33719
7.0765393987020495	5.701085	2.3876946
7.094099702213559	6.073738	2.4644954
7.111660172532549	6.445934	2.5388844
7.129220810076164	6.8113203	2.6098506
7.146781615261595	7.4188895	2.723764
7.16434258850606	7.6075096	2.7581713
7.181903730226821	8.029281	2.8335986
7.1994650408411704	8.124117	2.8502836
7.217026520766437	8.223733	2.867705
7.234588170419983	8.360645	2.891478
7.252149990219215	8.385552	2.8957818
7.269711980581568	8.361614	2.8916457
7.2872741419245175	8.186528	2.861211
7.304836474665574	7.789277	2.7909276
7.322398979222286	7.4785657	2.7346966
7.339961656012233	7.203999	2.6840267
7.357524505453039	6.890768	2.6250272
7.375087527962357	6.537839	2.5569198
7.392650723957886	6.226724	2.4953406
7.410214093857353	5.891909	2.4273255
7.427777638078528	5.678241	2.382906
7.445341357039213	5.4958553	2.344324
7.4629052511572525	5.3396964	2.3107784
7.480469320850524	5.279579	2.2977335
7.498033566536948	5.235005	2.2880132
7.5155979886344735	5.19942	2.2802236
7.5331625875610975	5.1413646	2.2674577
7.550727363734844	5.111318	2.2608225
7.568292317573788	5.1102057	2.2605765
7.585857449496025	5.150631	2.2695003
7.603422759919705	5.159439	2.2714398
7.620988249263007	5.123396	2.2634919
7.638553917944147	5.141126	2.2674053
7.656119766381391	5.1375976	2.2666268
7.673685794993023	5.184693	2.276992
7.691252004197388	5.250279	2.2913487
7.70881839441285	5.2894897	2.299889
7.726384966057826	5.315919	2.3056276
7.743951719550762	5.3079085	2.3038898
7.761518655310149	5.3054395	2.303354
7.779085773754511	5.3308153	2.3088558
7.796653075302419	5.320997	2.3067286
7.814220560372475	5.3448296	2.3118887
7.831788229383323	5.3033595	2.3029025
7.8493560827536495	5.2828774	2.2984512
7.866924120902174	5.248406	2.29094
7.884492344247663	5.1848793	2.277033
7.9020607532089135	5.270229	2.295698
7.919629348204771	5.342553	2.3113964
7.937198129654115	5.424824	2.3291252
7.954767097975865	5.450396	2.3346083
7.972336253588986	5.455009	2.335596
7.989905596912472	5.4529686	2.3351593
8.007475128365371	5.4492807	2.3343694
8.025044848366756	5.4737134	2.3395967
8.042614757335754	5.560146	2.3579962
8.060184855691523	5.616774	2.3699734
8.07775514385327	5.73122	2.3939967
8.095325622240228	5.839171	2.4164376
8.112896291271687	5.9429126	2.437809
8.130467151366968	5.994525	2.448372
8.148038202945436	5.962101	2.4417415
8.165609446426497	5.9430366	2.4378345
8.183180882229594	5.933572	2.4358923
8.200752510774217	5.9676237	2.442872
8.218324332479893	5.9944277	2.448352
8.235896347766193	6.005997	2.4507136
8.253468557052724	5.935292	2.4362454
8.27104096075914	5.923845	2.4338949
8.288613559305137	5.958066	2.440915
8.306186353110448	6.0446935	2.4585958
8.32375934259485	6.1033955	2.470505
8.341332528178162	6.1350985	2.476913
8.358905910280246	6.2104936	2.4920862
8.376479489321003	6.242083	2.4984162
8.394053265720377	6.322707	2.5144994
8.411627239898356	6.3109117	2.512153
8.42920141227497	6.324803	2.5149162
8.44677578327029	6.367504	2.5233915
8.464350353304427	6.337684	2.5174758
8.48192512279754	6.329609	2.5158713
8.499500092169827	6.225545	2.495104
8.51707526184153	6.213113	2.4926116
8.534650632232934	6.242227	2.498445
8.552226203764365	6.2394376	2.4978867
8.569801976856192	6.263181	2.5026348
8.587377951928834	6.2902293	2.508033
8.60495412940274	6.3483806	2.5195992
8.622530509698416	6.406761	2.531158
8.6401070932364	6.5274158	2.5548809
8.657683880437283	6.5702972	2.5632591
8.675260871721695	6.716696	2.5916588
8.692838067510303	6.861956	2.6195335
8.710415468223834	7.072418	2.659402
8.727993074283043	7.277338	2.6976542
8.745570886108737	7.2527304	2.6930895
8.763148904121765	7.2750635	2.6972325
8.78072712874302	7.1917887	2.681751
8.798305560393441	7.438354	2.7273345
8.815884199494006	7.6394076	2.7639477
8.833463046465745	7.8188977	2.7962291
8.851042101729728	7.925017	2.8151407
8.86862136570707	8.181119	2.8602655
8.886200838818924	8.359954	2.8913584
8.903780521486505	8.421634	2.9020052
8.921360414131055	8.536326	2.9216993
8.938940517173874	8.70418	2.9502847
8.956520831036297	8.910611	2.9850647
8.97410135613971	9.112402	3.0186756
8.99168209290554	9.2191515	3.0363057
9.009263041755265	9.465825	3.076658
9.026844203110405	9.728249	3.119014
9.044425577392525	9.962442	3.1563337
9.062007165023239	10.0239525	3.1660626
9.079588966424197	10.2655	3.2039819
9.097170982017108	10.357568	3.2183175
9.11475321222372	11.313793	3.3635983
9.132335657465825	12.280076	3.504294
9.149918318165264	12.350307	3.5143003
9.167501194743924	12.944276	3.5978155
9.18508428762374	12.67146	3.5596995
9.202667597226693	12.615371	3.5518124
9.220251123974803	12.243344	3.499049
9.237834868290143	11.9443445	3.4560592
9.255418830594836	11.799032	3.434972
9.273003011311046	11.411607	3.378107
9.290587410860985	11.232354	3.3514705
9.308172029666911	10.6204	3.2588956
9.32575686815113	10.305093	3.2101545
9.343341926735997	8.84558	2.974152
9.360927205843916	8.573993	2.928138
9.378512705897327	8.375457	2.8940382
9.396098427318728	8.265096	2.874908
9.413684370530664	8.185931	2.8611066
9.431270535955722	8.037466	2.8350425
9.448856924016539	7.9354324	2.81699
9.466443535135806	7.7528243	2.7843895
9.484030369736251	7.774226	2.78823
9.501617428240658	7.7716575	2.7877693
9.519204711071852	7.92816	2.8156989
9.536792218652714	7.9956717	2.827662
9.55437995140617	7.960902	2.821507
9.571967909755191	7.8887973	2.8087003
9.589556094122802	7.805042	2.7937505
9.60714450493207	7.855587	2.802782
9.624733142606116	7.891726	2.8092215
9.642322007568108	7.905167	2.8116128
9.659911100241267	7.943308	2.8183875
9.677500421048851	7.9579935	2.8209915
9.695089970414175	8.067801	2.8403876
9.712679748760609	8.155152	2.8557227
9.730269756511557	8.258304	2.8737264
9.747859994090492	8.251462	2.8725357
9.765450461920915	8.225638	2.8680375
9.78304116042639	8.230943	2.868962
9.800632090030527	8.228213	2.8684862
9.81822325115699	8.288543	2.878983
9.835814644229481	8.372192	2.893474
9.853406269671762	8.386824	2.8960013
9.870998127907646	8.417842	2.9013517
9.888590219360985	8.422433	2.9021428
9.906182544455698	8.410545	2.900094
9.923775103615734	8.322749	2.8849175
9.941367897265108	8.260376	2.874087
9.958960925827878	8.281689	2.8777924
9.97655418972816	8.310423	2.8827803
9.994147689390106	8.377707	2.8944268
10.011741425237934	8.35183	2.8899531
10.029335397695904	8.359928	2.891354
10.04692960718833	8.316869	2.8838983
10.06452405413958	8.31957	2.8843665
10.082118738974064	8.320516	2.8845303
10.099713662116246	8.255392	2.8732197
10.117308823990651	8.274031	2.8764615
10.134904225021844	8.289668	2.8791783
10.152499865634445	8.280556	2.8775954
10.170095746253125	8.285595	2.878471
10.18769186730261	8.194619	2.8626246
10.205288229207675	8.1600275	2.8565762
10.222884832393145	8.179474	2.859978
10.2404816772839	8.234389	2.8695626
10.258078764304868	8.267804	2.8753788
10.275676093881035	8.247556	2.8718557
10.293273666437438	8.218219	2.8667436
10.310871482399158	8.244799	2.8713758
10.32846954219134	8.205523	2.8645284
10.346067846239173	8.16722	2.8578348
10.363666394967908	8.092705	2.844768
10.38126518880283	8.139049	2.8529017
10.398864228169298	8.258384	2.8737404
10.416463513492713	8.309468	2.8826149
10.434063045198531	8.268209	2.8754494
10.451662823712262	8.2412405	2.8707561
10.469262849459467	8.233173	2.8693507
10.486863122865758	8.221698	2.8673503
10.504463644356806	8.212956	2.8658257
10.522064414358338	8.072722	2.8412538
10.539665433296118	7.9645452	2.8221526
10.557266701595987	7.850083	2.8018
10.574868219683818	7.75581	2.7849255
10.592469987985552	7.634317	2.7630267
10.610072006927185	7.529956	2.7440765
10.627674276934751	7.4367776	2.7270455
10.64527679843435	7.4101367	2.7221565
10.662879571852143	7.3305244	2.707494
10.680482597614331	7.2688785	2.6960857
10.698085876147173	7.115738	2.667534
10.715689407876988	6.992461	2.6443262
10.733293193230146	6.881879	2.6233335
10.750897232633072	6.8097253	2.609545
10.76850152651225	6.7179327	2.5918975
10.786106075294207	6.6678634	2.5822206
10.803710879405534	6.544467	2.5582156
10.821315939272877	6.461006	2.541851
10.83892125532294	6.3502655	2.5199733
10.856526827982472	6.3172264	2.5134094
10.874132657678285	6.289463	2.5078802
10.891738744837243	6.3145967	2.512886
10.909345089886271	6.2557516	2.5011501
10.926951693252343	6.1360865	2.4771125
10.944558555362494	6.096966	2.4692035
10.96216567664381	5.9822016	2.445854
10.979773057523436	5.910139	2.4310777
10.997380698428573	5.8494635	2.4185665
11.014988599786477	5.761014	2.4002113
11.032596762024461	5.685691	2.3844688
11.050205185569892	5.652858	2.377574
11.067813870850198	5.654642	2.3779492
11.085422818292859	5.6265016	2.3720248
11.10303202832541	5.5438175	2.3545313
11.120641501375454	5.42877	2.329972
11.138251237870636	5.3368983	2.3101728
11.155861238238671	5.2700815	2.2956657
11.173471502907317	5.234535	2.2879107
11.191082032304402	5.1810217	2.2761858
11.208692826857805	5.088105	2.255683
11.226303886995465	4.9852653	2.2327707
11.243915213145371	4.9575386	2.226553
11.261526805735578	4.924544	2.2191312
11.279138665194196	4.8902583	2.2113929
11.296750791949393	4.805291	2.1920974
11.314363186429393	4.7928295	2.189253
11.331975849062479	4.7740426	2.1849582
11.34958878027699	4.6922636	2.1661634
11.36720198050133	4.667832	2.1605165
11.384815450163948	4.573426	2.138557
11.402429189693366	4.5247974	2.1271572
11.420043199518153	4.5162992	2.1251585
11.437657480066942	63.46143	7.966268
11.455272031768422	85.1666	9.228576
11.472886855051353	107.53947	10.370124
11.490501950344528	99.12211	9.956009
11.508117318076819	84.50293	9.192548
11.52573295867715	45.917786	6.7762666
11.543348872574514	4.218518	2.053903
11.560965060197946	4.1813407	2.0448327
11.57858152197655	4.104208	2.0258844
11.59619825833949	4.045759	2.0114074
11.613815269715985	3.9928145	1.9982028
11.631432556535323	38.507847	6.205469
11.649050119226837	83.04572	9.112943
11.666667958219929	93.40118	9.664429
11.68428607394406	107.67526	10.376669
11.701904466828756	82.50782	9.083382
11.719523137303586	65.38604	8.0861635
11.737142085798196	4.603407	2.1455553
11.754761312742286	3.7151628	1.9274757
11.772380818565619	3.6835515	1.9192581
11.790000603698015	3.6658392	1.9146382
11.80762066856935	3.6235244	1.9035558
11.825241013609572	3.5573642	1.8860977
11.842861639248683	3.5190163	1.8759041
11.860482545916748	3.5091853	1.873282
11.878103734043883	3.4699807	1.8627884
11.895725204060282	3.442036	1.8552724
11.91334695639619	3.3994403	1.8437572
11.930968991481919	3.39083	1.8414207
11.948591309747824	3.4045484	1.8451419
11.966213911624347	3.4075136	1.8459452
11.98383679754198	3.374694	1.8370341
12.001459967931268	3.3145728	1.8205968
12.019083423222835	3.2622607	1.806173
12.036707163847352	3.2536378	1.8037843
12.05433119023556	3.2306294	1.7973952
12.071955502818259	3.223074	1.7952921
12.089580102026313	3.2056394	1.79043
12.107204988290643	3.181854	1.7837752
12.12483016204224	3.1959028	1.7877089
12.142455623712152	3.1978064	1.7882411
12.16008137373149	3.185793	1.784879
12.177707412531431	3.1367438	1.7710855
12.19533374054321	3.1137836	1.7645916
12.212960358198126	3.0996897	1.7605935
12.230587265927545	3.1158376	1.7651736
12.248214464162889	3.0902855	1.7579207
12.265841953335649	3.0944285	1.7590988
12.283469733877375	3.0496945	1.7463374
12.301097806219685	3.0680168	1.7515755
12.31872617079425	3.0429606	1.7444084
12.336354828032825	3.022628	1.7385707
12.353983778367205	2.983307	1.7272252
12.371613022229262	2.9521227	1.7181742
12.389242560050928	2.9528396	1.7183828
12.406872392264201	2.9757788	1.7250446
12.424502519301143	2.9374938	1.7139119
12.442132941593874	2.8961887	1.7018193
12.459763659574586	2.8750362	1.6955932
12.477394673675532	2.9063478	1.7048014
12.49502598432903	2.9155905	1.70751
12.51265759196746	2.9239147	1.7099458
12.530289497023267	2.8700213	1.6941137
12.547921699928967	2.8479102	1.6875752
12.565554201117134	2.8228557	1.6801356
12.583187001020404	2.8281236	1.6817026
12.600820100071486	2.8346465	1.6836408
12.618453498703152	2.8139043	1.6774696
12.636087197348235	2.8078492	1.6756638
12.65372119643964	2.8164036	1.6782144
12.671355496410326	2.8213067	1.6796746
12.68899009769333	2.8605118	1.6913048
12.706625000721749	2.8940105	1.7011791
12.724260205928752	2.952957	1.7184169
12.741895713747551	2.9584525	1.7200153
12.759531524611454	3.0153096	1.7364646
12.777167638953818	3.0578547	1.7486722
12.794804057208072	3.0787811	1.7546456
12.812440779807702	3.0836442	1.7560308
12.830077807186271	3.2237318	1.7954754
12.847715139777405	3.235917	1.7988656
12.865352778014795	3.4456983	1.8562592
12.882990722332197	3.5490017	1.8838794
12.90062897316344	3.6816304	1.9187576
12.918267530942412	3.7719371	1.9421476
12.935906396103071	3.6721263	1.9162793
12.953545569079449	3.780906	1.9444551
12.971185050305628	3.5745254	1.8906416
12.988824840215775	3.5609787	1.8870555
13.006464939244115	3.574914	1.8907443
13.024105347824943	3.4683108	1.8623401
13.041746066392617	3.5600023	1.8867968
13.05938709538157	3.3501008	1.830328
13.077028435226296	3.376886	1.8376305
13.094670086361363	3.2822921	1.8117098
13.112312049221401	3.2459269	1.8016456
13.129954324241112	3.153037	1.7756793
13.147596911855258	2.9312716	1.7120956
13.165239812498685	2.8828704	1.6979017
13.182883026606293	2.8314297	1.6826853
13.200526554613058	2.7973027	1.6725138
13.218170396954017	2.7434359	1.656332
13.235814554064284	2.7389688	1.654983
13.253459026379034	2.7224839	1.6499951
13.271103814333523	2.7296262	1.652158
13.288748918363058	2.7185166	1.6487925
13.306394338903031	2.7281861	1.6517222
13.32404007638889	2.7140296	1.6474313
13.341686131256164	2.6871274	1.639246
13.359332503940449	2.656211	1.6297886
13.376979194877402	2.6292737	1.6215035
13.394626204502751	2.681638	1.6375707
13.412273533252307	2.689966	1.6401116
13.429921181561937	2.7066169	1.6451799
13.447569149867581	2.7213078	1.6496387
13.465217438605247	2.7537868	1.6594537
13.482866048211022	2.7285905	1.6518446
13.500514979121052	2.7384665	1.6548313
13.518164231771568	2.6919053	1.6407027
13.535813806598844	2.6851857	1.6386536
13.553463704039254	2.6534748	1.628949
13.571113924529229	2.666351	1.6328965
13.588764468505275	2.6752012	1.6356043
13.606415336403956	2.692828	1.6409838
13.624066528661917	2.7406843	1.6555012
13.641718045715882	2.83906	1.6849511
13.659369888002635	2.902923	1.7037966
13.67702205595903	2.9479465	1.7169585
13.694674550021993	3.028008	1.7401172
13.712327370628532	3.0716374	1.7526088
13.729980518215713	3.1672509	1.7796772
13.747633993220681	3.2193632	1.7942584
13.765287796080647	3.2577379	1.8049204
13.7829419272329	3.2946987	1.8151305
13.800596387114801	3.3368037	1.826692
13.818251176163775	3.3945851	1.84244
13.835906294817324	3.4564452	1.8591517
13.853561743513023	3.4721386	1.8633676
13.871217522688525	3.4843626	1.8666447
13.888873632781538	3.4830134	1.8662833
13.906530074229858	3.497925	1.8702741
13.92418684747135	3.5259802	1.8777593
13.941843952943948	3.5647593	1.888057
13.959501391085665	3.5190208	1.8759053
13.977159162334578	3.4129689	1.8474222
13.994817267128846	3.3682163	1.83527
14.012475705906693	3.3029914	1.8174133
14.030134479106424	3.2201505	1.7944778
14.047793587166414	3.1254203	1.7678858
14.065453030525108	3.059622	1.7491776
14.083112809621026	2.986439	1.7281317
14.100772924892766	2.9275544	1.7110097
14.118433376778997	2.896946	1.7020417
14.136094165718458	2.850188	1.68825
14.153755292149969	2.798088	1.6727487
14.171416756512416	2.7116525	1.6467096
14.189078559244768	2.6655192	1.6326418
14.20674070078606	2.6125178	1.6163285
14.224403181575408	2.547697	1.5961508
14.242066002051999	2.5061493	1.5830822
14.259729162655093	2.4781106	1.5742016
14.277392663824022	2.4538944	1.5664911
14.295056505998208	2.465977	1.5703429
14.312720689617128	2.464579	1.5698978
14.330385215120348	2.4698565	1.5715777
14.348050082947497	2.4718893	1.5722243
14.3657152935383	2.4538095	1.5664641
14.383380847332528	2.433214	1.5598762
14.401046744770051	2.3892264	1.5457122
14.418712986290798	2.3285055	1.5259441
14.436379572334793	2.300998	1.5169041
14.454046503342123	2.3093247	1.5196463
14.471713779752946	2.3309379	1.5267409
14.489381402007504	2.3808303	1.5429939
14.507049370546113	2.3916385	1.5464923
14.524717685809168	2.3953333	1.5476865
14.542386348237134	2.3847976	1.544279
14.560055358270553	2.3751793	1.5411617
14.577724716350051	2.415025	1.5540351
14.595394422916325	2.4374504	1.5612336
14.61306447841015	2.4739034	1.5728648
14.63073488327237	2.478845	1.5744348
14.648405637943917	2.491049	1.5783057
14.6660767428658	2.4742198	1.5729653
14.683748198479094	2.5276315	1.5898527
14.701420005224954	2.5759795	1.6049858
14.719092163544628	2.673623	1.6351217
14.73676467387942	2.7362604	1.6541646
14.754437536670727	2.743	1.6562005
14.772110752360014	2.728649	1.6518623
14.78978432138882	2.7078638	1.6455588
14.807458244198777	2.7145867	1.6476003
14.82513252123159	2.7092774	1.6459882
14.842807152929028	2.7117472	1.6467383
14.860482139732962	2.7188864	1.6489046
14.87815748208531	2.701253	1.6435488
14.8958331804281	2.70329	1.6441685
14.91350923520342	2.6680453	1.6334152
14.931185646853438	2.668404	1.633525
14.948862415820408	2.6528676	1.6287626
14.966539542546656	2.6405206	1.6249678
14.98421702747459	2.584288	1.6075721
15.001894871046696	2.6319156	1.6223179
15.019573073705542	2.667952	1.6333867
15.037251635893766	2.6553328	1.6295192
15.054930558054092	2.6912265	1.6404958
15.072609840629323	2.7689512	1.6640166
15.090289484062351	2.8903449	1.7001014
15.107969488796124	3.1287274	1.7688209
15.125649855273691	3.5343008	1.8799736
15.14333058393817	4.0778728	2.0193744
15.161011675232768	5.0648656	2.2505257
15.17869312960076	6.4344916	2.53663
15.196374947485506	8.302806	2.881459
15.214057129330447	11.405231	3.3771632
15.231739675579114	16.041931	4.005238
15.249422586675102	21.189106	4.603163
15.267105863062092	24.3966	4.9392915
15.284789505183847	24.771255	4.977073
15.302473513484218	22.763151	4.7710743
15.320157888407127	19.015995	4.3607335
15.337842630396578	14.816958	3.8492804
15.355527739896656	11.427324	3.3804326
15.37321321735153	8.939341	2.989873
15.39089906320545	6.565599	2.5623424
15.408585277902748	4.9369674	2.2219288
15.42627186188783	3.8087628	1.9516052
15.443958815605198	3.2665036	1.807347
15.461646139499424	2.9818177	1.726794
15.479333834015168	2.826609	1.6812521
15.497021899597165	2.740727	1.6555141
15.514710336690234	2.6614676	1.6314005
15.53239914573928	2.6084707	1.6150761
15.550088327189297	2.5563931	1.5988724
15.567777881485336	2.5204928	1.587606
15.58546780907256	2.526559	1.5895153
15.6031581103962	2.5351052	1.5922014
15.620848785901568	2.523022	1.5884023
15.638539836034063	2.5110087	1.5846163
15.656231261239173	2.4847093	1.5762961
15.673923061962451	2.4642138	1.5697814
15.691615238649552	2.4264517	1.5577072
15.709307791746202	2.4290202	1.5585314
15.727000721698221	2.4463952	1.5640956
15.744694028951498	2.4170773	1.5546952
15.76238771395202	2.3886395	1.5455223
15.780081777145844	2.3787503	1.5423198
15.797776218979125	2.3701437	1.539527
15.815471039898094	2.3685317	1.5390035
15.833166240349064	2.334505	1.5279087
15.850861820778437	2.3417184	1.5302675
15.868557781632699	2.3442912	1.5311078
15.886254123358412	2.3465555	1.5318471
15.903950846402232	2.3717551	1.5400504
15.921647951210897	2.3583794	1.5357016
15.939345438231225	2.3528445	1.5338985
15.957043307910133	2.367047	1.538521
15.974741560694602	2.4013226	1.5496202
15.992440197031714	2.4373004	1.5611856
16.01013921736862	2.4122555	1.5531437
16.02783862215259	2.3698702	1.5394382
16.045538411830933	2.3379042	1.5290207
16.06323858685107	2.3673112	1.5386069
16.080939147660512	2.4122868	1.5531538
16.09864009470684	2.443791	1.5632629
16.11634142843774	2.4642894	1.5698055
16.134043149300954	2.4661937	1.5704119
16.15174525774433	2.4661465	1.5703969
16.169447754215817	2.4810555	1.5751367
16.18715063916342	2.4587114	1.5680279
16.204853913035244	2.437418	1.5612233
16.222557576279478	2.4406571	1.5622603
16.240261629344403	22.4158	4.734533
16.257966072678386	42.948715	6.553527
16.275670906729868	38.08451	6.171265
16.293376131947387	2.5320592	1.5912446
16.31108174877957	2.6045702	1.6138681
16.328787757675133	2.6146996	1.6170033
16.34649415908287	2.5539317	1.5981026
16.364200953451657	2.5240638	1.5887302
16.38190814123048	2.5310028	1.5909126
16.39961572286839	2.5923057	1.6100639
16.41732369881455	2.6742995	1.6353285
16.43503206951817	2.73699	1.6543851
16.45274083542859	2.806915	1.675385
16.47044999699522	2.8071222	1.6754469
16.488159554667558	2.839378	1.6850455
16.505869508895184	2.8529534	1.6890688
16.523579860127786	2.875816	1.6958232
16.541290608815117	2.8992684	1.7027239
16.559001755407035	2.9413977	1.7150503
16.57671330035348	3.0069351	1.7340517
16.59442524410448	3.088654	1.7574567
16.61213758711015	3.2026267	1.7895885
16.629850329820705	3.3165054	1.8211275
16.647563472686436	3.364779	1.8343334
16.665277016157724	3.4130015	1.8474311
16.682990960685053	3.4347389	1.8533049
16.70070530671898	3.4683316	1.8623457
16.718420054710155	3.5290382	1.8785734
16.736135205109335	3.5782678	1.891631
16.753850758367335	3.5988228	1.8970563
16.771566714935087	3.6300821	1.9052775
16.789283075263597	3.7021706	1.9241025
16.80699983980398	3.7906296	1.9469539
16.82471700900741	3.9018826	1.9753183
16.84243458332518	3.946132	1.9864874
16.860152563208665	3.980609	1.9951464
16.87787094910932	4.027095	2.0067623
16.89558974147871	4.0894294	2.0222337
16.913308940768466	4.1661835	2.0411232
16.931028547430333	4.251562	2.0619316
16.94874856191613	4.281619	2.0692074
16.966468984677785	4.3822765	2.0933888
16.98418981616729	4.439146	2.106928
17.00191105683676	4.462575	2.1124806
17.019632707138374	4.4486923	2.1091924
17.03735476752442	4.4858155	2.1179743
17.05507723844728	4.503247	2.1220856
17.072800120359403	4.563218	2.136169
17.090523413713353	4.5624924	2.1359992
17.108247118961785	4.634249	2.1527307
17.125971236557437	4.688354	2.1652608
17.143695766953133	4.7458067	2.1784873
17.161420710601806	4.7267957	2.1741195
17.179146067956477	4.695184	2.1668375
17.19687183947025	4.675629	2.1623204
17.21459802559634	4.6784935	2.1629825
17.232324626788028	4.6862416	2.164773
17.25005164349871	4.6896873	2.1655686
17.267779076181863	4.656677	2.1579335
17.285506925291074	4.6264606	2.1509209
17.30323519127999	4.58195	2.140549
17.320963874602384	4.545315	2.1319745
17.33869297571211	4.532804	2.1290383
17.356422495063114	4.550255	2.1331327
17.37415243310944	4.5575457	2.134841
17.391882790305218	4.5348763	2.129525
17.40961356710468	4.519689	2.125956
17.42734476396215	4.501201	2.1216035
17.445076381332044	4.5265923	2.127579
17.462808419668868	4.5755033	2.1390426
17.48054087942723	4.6853247	2.164561
17.498273761061835	4.9971538	2.2354314
17.51600706502747	5.534035	2.352453
17.533740791779024	6.205971	2.4911785
17.551474941771485	7.6186795	2.7601955
17.56920951545993	8.714737	2.9520733
17.586944513299528	10.985845	3.31449
17.60467993574556	12.713339	3.565577
17.622415783253373	14.507445	3.808864
17.64015205627843	15.834453	3.9792528
17.657888755276293	16.9949	4.122487
17.675625880702604	17.477411	4.180599
17.69336343301311	17.367685	4.1674557
17.71110141266366	16.520351	4.0645237
17.728839820110178	15.522292	3.939834
17.746578655808705	14.4814825	3.8054543
17.764317920215372	12.992538	3.6045165
17.7820576137864	11.430768	3.3809419
17.79979773697811	9.461525	3.0759592
17.81753829024692	7.536962	2.7453527
17.835279274049356	5.915311	2.4321413
17.85302068884201	4.87768	2.2085469
17.870762535081607	4.2394843	2.0590007
17.888504813224934	3.9102983	1.9774474
17.90624752372891	3.7040246	1.9245843
17.923990667050536	3.5770106	1.8912987
17.941734243646895	3.5196705	1.8760785
17.959478253975185	3.4712389	1.863126
17.9772226984927	3.4515831	1.8578436
17.994967577656833	3.390423	1.8413101
18.01271289192506	3.370575	1.8359126
18.030458641754965	3.3766034	1.8375536
18.04820482760425	3.376166	1.8374346
18.06595144993067	3.3203843	1.8221922
18.083698509192125	3.28806	1.8133008
18.101446005846576	3.2883723	1.8133869
18.119193940352105	3.3080616	1.8188077
18.136942313166887	3.312666	1.820073
18.1546911247492	3.2951117	1.8152442
18.1724403755574	3.2855303	1.8126032
18.19019006604997	3.2496088	1.8026671
18.207940196685467	3.227074	1.7964058
18.225690767922575	3.153792	1.7758919
18.243441780220046	3.084956	1.7564043
18.261193234036764	3.0466664	1.7454703
18.278945129831676	3.0593436	1.749098
18.29669746806386	3.0487096	1.7460555
18.314450249192483	3.027296	1.7399126
18.3322034736768	3.0335016	1.741695
18.349957141976184	3.0714552	1.7525568
18.3677112545501	3.0867634	1.7569187
18.385465811858108	3.1214755	1.7667698
18.403220814359884	3.1119118	1.7640612
18.420976262515172	3.101107	1.760996
18.43873215678387	3.095765	1.7594787
18.456488497625923	3.1788433	1.7829311
18.474245285501407	3.2830262	1.8119123
18.492002520870486	3.3879247	1.8406316
18.50976020419343	3.4320114	1.8525689
18.527518335930615	3.7024798	1.9241829
18.545276916542516	4.2695127	2.06628
18.563035946489688	4.443814	2.1080356
18.580795426232832	4.8768964	2.2083697
18.598555356232698	4.7518134	2.1798654
18.616315736950185	5.099987	2.258315
18.63407656884626	4.746491	2.1786442
18.65183785238201	4.8946943	2.2123957
18.669599588018617	4.620574	2.149552
18.68736177621737	4.5903616	2.1425128
18.705124417439652	4.6144843	2.1481352
18.72288751214696	4.4690475	2.1140122
18.740651060800886	4.6005735	2.1448948
18.758415063863115	4.299584	2.0735438
18.77617952179546	4.4361887	2.1062262
18.793944435059814	4.1741776	2.0430803
18.811709804118184	4.208149	2.0513773
18.829475629432675	4.258282	2.0635605
18.8472419114655	4.0854626	2.0212526
18.86500865067897	4.167608	2.041472
18.88277584753551	3.8180025	1.9539709
18.90054350249763	3.8253846	1.9558591
18.918311616027957	3.4982016	1.870348
18.936080188589226	3.3718169	1.8362508
18.953849220644265	3.0431187	1.7444537
18.971618712656007	2.8726537	1.6948905
18.9893886650875	2.8495448	1.6880594
19.007159078401887	8.02566	2.8329594
19.024929953062408	32.88167	5.7342544
19.042701289532435	32.83313	5.73002
19.060473088275405	25.435484	5.04336
19.07824534975489	2.7362134	1.6541504
19.096018074434568	2.6929102	1.6410089
19.113791262778197	2.6249835	1.6201801
19.13156491524966	2.5836766	1.6073819
19.149339032312945	2.565144	1.6016067
19.167113614432136	2.5390716	1.5934465
19.184888662071433	2.538278	1.5931975
19.202664175695123	2.529258	1.5903641
19.220440155767623	2.5096774	1.5841961
19.238216602753447	2.5100055	1.5842997
19.2559935171172	2.4970298	1.5801992
19.27377089932361	2.5241697	1.5887636
19.291548749837514	2.5423734	1.5944822
19.309327069123835	2.5889728	1.6090286
19.32710585764763	2.5307596	1.5908362
19.344885115874032	2.484939	1.5763689
19.362664844268313	2.4538426	1.5664746
19.380445043295822	2.4420235	1.5626975
19.39822571342203	2.4436631	1.563222
19.41600685511252	2.4402475	1.5621291
19.43378846883297	2.4642944	1.5698072
19.451570555049173	2.4638538	1.5696667
19.469353114227037	2.4964244	1.5800078
19.48713614683254	2.5018394	1.5817204
19.50491965333182	2.5049264	1.582696
19.52270363419109	2.5119283	1.5849065
19.540488089876686	2.5271807	1.5897108
19.55827302085503	2.531298	1.5910053
19.576058427592674	2.489792	1.5779076
19.593844310556282	2.4717517	1.5721805
19.611630670212598	2.4991195	1.5808604
19.629417507028506	2.495055	1.5795743
19.64720482147098	2.4848995	1.5763564
19.6649926140071	2.452069	1.5659084
19.682780885104084	2.4737182	1.5728059
19.70056963522921	2.5046027	1.5825937
19.718358864849908	2.5076833	1.5835667
19.7361485744337	2.5090053	1.583984
19.753938764448215	2.4887495	1.5775771
19.771729435361202	2.4964156	1.5800049
19.789520587640506	2.4946656	1.5794511
19.807312221754092	2.4692376	1.5713807
19.825104338170043	2.4324467	1.5596303
19.842896937356517	2.4521527	1.5659351
19.860690019781824	2.4803452	1.5749112
19.87848358591436	2.4672375	1.5707443
19.896277636222635	2.4891248	1.5776961
19.914072171175278	2.5082107	1.5837331
19.931867191241015	2.493424	1.5790579
19.94966269688869	2.4959488	1.5798572
19.967458688587264	2.5004692	1.5812871
19.985255166805807	2.5070226	1.583358
20.00305213201348	2.5234528	1.5885379
20.020849584679578	2.499268	1.5809073
20.038647525273507	2.4727201	1.5724885
20.05644595426477	2.4331918	1.5598692
20.07424487212299	2.4311352	1.5592098
20.092044279317903	2.4220586	1.5562965
20.109844176319353	2.4489393	1.5649087
20.127644563597304	2.4375932	1.5612793
20.145445441621817	2.432973	1.559799
20.16324681086307	2.4214602	1.5561042
20.181048671791373	2.4189904	1.5553104
20.198851024877122	2.3913116	1.5463866
20.216653870590836	2.3762572	1.5415113
20.234457209403146	2.3519075	1.533593
20.252261041784802	2.3512475	1.5333778
20.270065368206662	2.3527324	1.5338619
20.287870189139685	2.3896255	1.5458413
20.305675505054968	2.3972747	1.5483135
20.323481316423702	2.397788	1.5484793
20.341287623717207	2.3774784	1.5419074
20.359094427406884	2.373478	1.5406096
20.376901727964288	2.3303134	1.5265365
20.39470952586107	2.3139222	1.5211582
20.41251782156899	2.3226185	1.524014
20.430326615559935	2.374243	1.5408579
20.448135908305886	2.37525	1.5411847
20.465945700278965	2.3540702	1.534298
20.483755991951384	2.337877	1.5290117
20.50156678379548	2.3800666	1.5427464
20.519378076283708	2.3989308	1.5488483
20.537189869888635	2.3956633	1.547793
20.55500216508294	2.343336	1.5307959
20.572814962339415	2.3459728	1.5316569
20.59062826213098	2.3406377	1.5299143
20.60844206493066	2.3741148	1.5408163
20.626256371211593	2.383574	1.5438827
20.644071181447032	2.3692775	1.5392457
20.66188649611036	2.3723288	1.5402366
20.67970231567506	2.3754008	1.5412335
20.697518640614742	2.3780098	1.5420797
20.715335471403122	2.3823369	1.5434821
20.73315280851404	2.3544977	1.5344373
20.750970652421447	2.2986848	1.5161414
20.768789003599412	2.2523477	1.5007824
20.786607862522136	2.2514224	1.5004741
20.8044272296639	2.2919846	1.5139302
20.82224710549913	2.3434563	1.5308352
20.84006749050237	2.3592815	1.5359952
20.857888385148268	3.9385922	1.9845886
20.8757097899116	45.997314	6.782132
20.893531705267254	64.80366	8.050072
20.911354131690224	83.78587	9.153462
20.92917706965566	69.04274	8.309196
20.94700051963877	50.099827	7.078123
20.96482448211493	29.405195	5.4226556
20.982648957559622	4.1449723	2.0359206
21.00047394644843	2.2404392	1.4968097
21.01829944925707	2.2365336	1.4955045
21.036125466461375	2.2151756	1.4883466
21.053951998537297	2.2079701	1.485924
21.071779045960906	2.244002	1.4979993
21.089606609208378	2.3007617	1.5168262
21.10743468875603	2.2904937	1.5134377
21.12526328508028	2.2492573	1.4997524
21.143092398657675	2.230093	1.4933496
21.16092202996488	2.2261164	1.4920175
21.17875217947867	2.2159147	1.4885949
21.19658284767596	2.2165363	1.4888036
21.21441403503377	2.2198398	1.4899126
21.232245742029225	2.229641	1.4931983
21.2500779691396	2.2470512	1.4990168
21.26791071684227	2.2160802	1.4886504
21.28574398561475	2.2136862	1.4878461
21.30357777593465	2.1941054	1.4812512
21.321412088279704	2.144014	1.4642452
21.339246923127792	2.1542335	1.4677308
21.357082280956888	2.1782744	1.4758978
21.3749181622451	2.229287	1.4930797
21.392754567470647	2.1733673	1.4742345
21.41059149711187	2.1524982	1.4671395
21.42842895164726	2.127301	1.458527
21.446266931555378	2.1457398	1.4648343
21.464105437314945	2.1200988	1.4560559
21.481944469404798	2.1163514	1.4547685
21.49978402830388	2.1057837	1.4511318
21.51762411449127	2.1250112	1.4577419
21.53546472844617	2.1320407	1.460151
21.553305870647876	2.1148546	1.4542539
21.571147541575865	2.1046524	1.450742
21.58898974170967	2.1046312	1.4507347
21.60683247152899	2.0843458	1.4437264
21.62467573151363	2.0661721	1.4374186
21.642519522143523	2.0587919	1.434849
21.660363843898722	2.0570261	1.4342337
21.6782086972594	2.0877056	1.4448894
21.696054082705864	2.1415303	1.4633968
21.713900000718535	2.1174297	1.455139
21.73174645177795	2.0535295	1.4330142
21.749593436364794	2.0348194	1.426471
21.767440954959845	2.0137	1.419049
21.785289008044032	2.013346	1.4189242
21.803137596098388	2.0315976	1.4253412
21.820986719604086	2.0046344	1.4158511
21.838836379042412	1.9998897	1.4141746
21.85668657489478	1.9919101	1.4113505
21.87453730764273	2.0209298	1.4215941
21.892388577767914	2.0201776	1.4213295
21.91024038575213	2.0215406	1.421809
21.928092732077285	1.985985	1.4092498
21.945945617225426	1.9655471	1.4019797
21.963799041678694	1.9648503	1.4017311
21.981653005919398	31.323614	5.5967503
21.999507510429943	78.114456	8.838239
22.01736255569286	73.05125	8.547002
22.035218142190818	4.0874786	2.0217514
22.05307427040661	1.9272246	1.3882451
22.07093094082315	1.9641715	1.401489
22.088788153923474	2.011724	1.4183526
22.106645910190746	2.0246053	1.4228863
22.12450421010827	2.017766	1.4204808
22.142363054159464	1.9925478	1.4115764
22.16022244282787	1.986123	1.4092988
22.178082376597164	1.9780933	1.406447
22.195942855951145	1.9781629	1.4064717
22.213803881373742	1.9627123	1.4009683
22.231665453349002	1.946296	1.3950971
22.24952757236111	1.9380108	1.3921245
22.26739023889438	1.9361291	1.3914486
22.28525345343323	1.9317439	1.3898718
22.30311721646225	1.9607687	1.4002745
22.320981528466113	1.9442123	1.3943502
22.33884638992964	1.9109313	1.3823644
22.356711801337788	1.8902552	1.3748655
22.37457776317561	1.9432276	1.393997
22.392444275928337	1.9865003	1.4094326
22.410311340081282	2.0042298	1.4157082
22.428178956119904	1.989715	1.4105725
22.446047124529805	1.9783695	1.4065453
22.46391584579669	1.9525629	1.3973414
22.481785120406414	1.9187613	1.3851936
22.49965494884496	1.9253931	1.3875854
22.51752533159841	1.9136205	1.3833367
22.53539626915302	1.9091668	1.381726
22.553267761995137	1.9287442	1.3887924
22.571139810611264	1.9556123	1.3984321
22.589012415488025	1.950296	1.39653
22.60688557711216	1.9476166	1.3955704
22.624759295970566	1.9450631	1.3946552
22.642633572550263	1.9560665	1.3985945
22.660508407338362	1.958442	1.3994435
22.67838380082217	1.9940501	1.4121084
22.696259753489077	1.9755411	1.4055394
22.714136265826614	1.961038	1.4003707
22.73201333832246	1.9410956	1.3932321
22.74989097146439	1.9070176	1.3809481
22.76776916574035	1.8988001	1.3779696
22.785647921638393	1.9054692	1.3803873
22.803527239646712	1.907623	1.3811673
22.82140712025363	1.938762	1.3923943
22.839287563947593	1.9621323	1.4007614
22.85716857121719	2.0049424	1.4159598
22.875050142551135	1.9882356	1.4100481
22.892932278438277	1.9634542	1.4012331
22.910814979367604	1.9149872	1.3838307
22.928698245828222	1.923381	1.3868601
22.946582078309387	1.9110538	1.3824087
22.96446647730047	1.8979475	1.3776602
22.98235144329098	1.9127586	1.3830252
23.000236976770562	1.9281693	1.3885853
23.018123078229	1.9450072	1.3946352
23.03600974815619	1.9131509	1.383167
23.053896987042194	1.9096441	1.3818988
23.071784795377173	1.9055899	1.380431
23.08967317365145	1.9254053	1.3875897
23.10756212235546	1.9459593	1.3949765
23.125451641979787	1.918588	1.385131
23.143341733015134	1.9017797	1.3790503
23.161232395952357	1.8999987	1.3784044
23.179123631282426	1.9508642	1.3967334
23.197015439496468	1.9552413	1.3982995
23.214907821085717	1.9561034	1.3986077
23.23280077654157	1.9761616	1.4057602
23.250694306355538	1.9771519	1.4061123
23.268588411019277	1.9207549	1.385913
23.28648309102458	1.8925896	1.3757142
23.304378346863356	1.8689159	1.367083
23.322274179027676	1.9159895	1.3841927
23.340170588009723	1.9461495	1.3950446
23.358067574301852	1.9339678	1.3906717
23.37596513839651	1.9390545	1.3924993
23.39386328078629	1.9310945	1.3896383
23.411762001963947	1.9297128	1.389141
23.429661302422353	1.9402558	1.3929306
23.4475611826545	1.9284782	1.3886966
23.46546164315356	1.9048178	1.3801514
23.48336268441279	1.9253248	1.3875607
23.501264306925638	1.914444	1.3836343
23.51916651118564	1.9246838	1.3873297
23.537069297686497	1.9095185	1.3818532
23.554972666922037	1.9108932	1.3823506
23.57287661938623	1.9550476	1.3982302
23.59078115557318	2.0029917	1.4152709
23.608686275977128	1.9502785	1.3965237
23.62659198109246	1.8927013	1.3757548
23.6444982714137	1.892951	1.3758456
23.66240514743549	1.9369286	1.3917358
23.68031260965263	1.9223821	1.3865
23.698220658560068	1.9103475	1.3821532
23.716129294652845	1.8712554	1.3679384
23.7340385184262	1.8496926	1.360034
23.75194833037546	1.8506948	1.3604025
23.769858730996123	1.8901119	1.3748134
23.78776972078382	1.9537939	1.3977817
23.80568130023431	1.9846113	1.4087623
23.823593469843495	1.9779967	1.4064127
23.841506230107424	1.9189593	1.385265
23.859419581522275	1.9115669	1.3825942
23.87733352458438	1.9244883	1.3872592
23.89524805979019	1.9147148	1.3837322
23.913163187636318	1.8868861	1.3736397
23.931078908619508	1.8709779	1.367837
23.948995223236633	1.8934454	1.3760252
23.966912131984735	1.9511198	1.3968248
23.98482963536096	2.0199065	1.4212341
24.002747733862616	2.0283408	1.4241983
24.020666427987155	2.0293026	1.4245359
24.038585718232156	2.038977	1.4279275
24.056505605095353	2.0383146	1.4276955
24.074426089074617	2.0964677	1.4479184
24.092347170667946	2.0934439	1.4468738
24.110268850373515	2.096584	1.4479586
24.128191128689586	2.0726652	1.4396753
24.146114006114626	2.0482535	1.4311721
24.164037483147187	2.0096455	1.4176197
24.181961560286005	2.0077047	1.416935
24.199886238029926	2.0466886	1.4306252
24.21781151687797	2.0659401	1.4373379
24.235737397329274	2.0846446	1.4438298
24.253663879883135	2.0659595	1.4373446
24.271590965038975	2.071889	1.4394058
24.289518653296376	2.0537639	1.4330959
24.30744694515505	2.05555	1.4337189
24.32537584111486	2.0628424	1.4362599
24.34330534167581	2.0431256	1.4293795
24.361235447338046	1.993221	1.4118148
24.379166158601876	1.9975951	1.413363
24.39709747596772	2.0429559	1.4293201
24.41502939993615	2.103211	1.4502451
24.432961931007917	2.0685008	1.4382284
24.450895069683856	2.0308244	1.4250699
24.468828816465	1.9463	1.3950986
24.4867631718525	1.9294591	1.3890498
24.504698136347656	1.9643643	1.4015578
24.52263371045192	1.9900347	1.4106859
24.540569894666874	2.0443907	1.4298218
24.558506689494266	2.0494518	1.4315907
24.57644409543597	2.0307922	1.4250587
24.594382112994012	1.9797289	1.4070284
24.61232074267057	1.9754226	1.4054973
24.630259984967953	1.9684603	1.4030182
24.64819984038863	1.9738566	1.40494
24.66614030943522	1.98636	1.4093828
24.684081392610462	2.0071414	1.4167361
24.702023090417274	1.9979408	1.4134853
24.7199654033587	1.9882469	1.4100521
24.737908331937927	2.0161884	1.4199255
24.755851876658305	2.0661304	1.437404
24.773796038023324	2.1355371	1.4613477
24.79174081653661	2.1273623	1.458548
24.809686212701962	2.0932553	1.4468087
24.827632227023294	2.0519552	1.4324647
24.8455788600047	2.050328	1.4318967
24.8635261121504	2.1198123	1.4559575
24.88147398396475	2.1369228	1.4618218
24.899422475952303	2.189244	1.4796094
24.917371588617698	2.171027	1.4734405
24.935321322465768	2.2179198	1.4892682
24.953271678001478	2.293634	1.5144747
24.97122265572994	2.4976687	1.5804014
24.989174256156414	2.80559	1.6749896
25.00712647978632	3.259268	1.8053443
25.02507932712521	3.8289893	1.9567803
25.043032798678798	4.4027615	2.098276
25.060986894952933	5.044558	2.2460093
25.078941616453637	5.7010393	2.3876848
25.096896963687055	6.646168	2.5780163
25.114852937159508	7.7981257	2.7925124
25.132809537377444	8.360992	2.8915381
25.150766764847468	8.413656	2.9006302
25.168724620076347	7.8873577	2.808444
25.186683103570985	6.868989	2.6208756
25.204642215838426	5.587864	2.3638663
25.222601957385894	4.1707416	2.0422394
25.24056232872074	3.1631072	1.7785126
25.25852333035048	2.569252	1.6028887
25.276484962782778	2.2299368	1.4932973
25.294447226525435	2.066116	1.437399
25.312410122086423	1.9696661	1.403448
25.330373649973843	1.9043317	1.3799752
25.348337810695988	1.907547	1.3811398
25.366302604761245	1.9567212	1.3988285
25.384268032678207	2.0074518	1.4168457
25.40223409495558	2.004871	1.4159347
25.420200792102257	1.9521595	1.397197
25.438168124627246	1.9087281	1.3815672
25.45613609303974	1.8885304	1.3742381
25.474104697849057	1.8824826	1.372036
25.492073939564698	1.9065386	1.3807746
25.510043818696285	1.9001163	1.378447
25.528014335753614	1.8801652	1.3711911
25.54598549124664	1.8587309	1.3633528
25.56395728568544	1.8877827	1.3739661
25.58192971958028	1.9037215	1.3797542
25.59990279344156	1.8881528	1.3741007
25.617876507779833	1.880748	1.3714037
25.635850863105826	1.8717784	1.3681295
25.653825859930386	1.8913233	1.3752539
25.671801498764548	1.8902426	1.3748609
25.68977778011949	1.8680936	1.3667822
25.707754704506524	1.8582466	1.3631752
25.725732272437153	1.8740188	1.3689481
25.743710484423012	1.8564941	1.3625323
25.761689340975888	1.784734	1.3359394
25.77966884260774	1.8167983	1.3478866
25.797648989830662	1.881379	1.3716336
25.815629783156922	1.8772609	1.3701317
25.83361122309895	1.8486608	1.3596547
25.85159331016929	1.843912	1.3579072
25.869576044880695	1.8315326	1.3533412
25.887559427746034	1.8292813	1.3525093
25.90554345927836	1.8508749	1.3604686
25.92352813999086	1.8787574	1.3706777
25.94151347039689	1.8583024	1.3631957
25.959499451009965	1.8604528	1.3639841
25.97748608234374	1.7905549	1.3381162
25.995473364912062	1.8254255	1.351083
26.013461299228904	1.9083637	1.3814354
26.03144988580839	1.9532038	1.3975707
26.04943912516483	1.8710859	1.3678764
26.067429017812675	1.8283271	1.3521564
26.085419564266537	1.8484037	1.3595601
26.103410765041186	1.8732505	1.3686674
26.12140262065155	1.8753123	1.3694204
26.139395131612723	1.8647795	1.3655692
26.157388298439948	1.8893065	1.3745204
26.17538212164861	1.891661	1.3753767
26.193376601754295	1.8680282	1.3667582
26.211371739272714	1.8723764	1.3683481
26.229367534719746	1.8467836	1.3589642
26.247363988611433	1.8701717	1.3675421
26.26536110146397	1.9012803	1.3788692
26.283358873793727	1.8330559	1.3539039
26.301357306117204	1.7768507	1.3329856
26.319356398951104	1.7847553	1.3359474
26.33735615281224	1.8396621	1.3563415
26.35535656821762	1.8441343	1.3579891
26.373357645684404	1.866353	1.3661454
26.39135938572991	1.8269966	1.3516644
26.409361788871614	1.7765256	1.3328637
26.427364855627165	1.7558589	1.3250883
26.445368586514352	1.7540225	1.3243952
26.46337298205115	1.7824383	1.3350799
26.48137804275568	1.8219463	1.3497949
26.499383769146217	1.8493772	1.3599181
26.517390161741215	1.8495444	1.3599795
26.53539722105928	1.7957407	1.3400525
26.553404947619182	1.7597933	1.3265721
26.571413341939856	1.7849618	1.3360246
26.589422404540397	1.8538369	1.3615568
26.60743213594006	1.8409107	1.3568016
26.62544253665827	1.8326379	1.3537495
26.64345360721459	1.8461157	1.3587184
26.66146534812879	1.8861579	1.3733746
26.679477759920758	1.8474655	1.359215
26.69749084311057	1.8421249	1.357249
26.71550459821847	1.8586317	1.3633164
26.733519025764842	1.8695905	1.3673297
26.751534126270258	1.8647343	1.3655528
26.769549900255434	1.7897729	1.337824
26.787566348241267	1.7858769	1.336367
26.80558347074881	1.8177013	1.3482215
26.823601268299267	1.8157398	1.3474939
26.841619741414036	1.7800065	1.3341689
26.85963889061465	1.7632897	1.3278892
26.877658716422832	1.81575	1.3474977
26.89567921936045	1.8253993	1.3510734
26.913700399949544	1.7940439	1.3394192
26.93172225871233	1.7626065	1.327632
26.949744796171174	1.7655083	1.3287243
26.967768012848605	1.8033931	1.3429047
26.98579190926733	1.8284324	1.3521954
27.003816485950225	1.7789457	1.3337712
27.021841743420318	1.7355822	1.317415
27.039867682200814	1.7695109	1.3302296
27.057894302815072	1.8296926	1.3526613
27.07592160578664	1.8289909	1.352402
27.0939495916392	1.8427023	1.3574617
27.111978260896635	1.8264239	1.3514525
27.13000761408296	1.8310626	1.3531677
27.148037651722397	1.8116782	1.3459859
27.166068374339304	1.8694717	1.3672862
27.184099782458215	1.8967196	1.3772144
27.20213187660384	1.8857085	1.373211
27.22016465730105	1.807215	1.344327
27.23819812507487	1.8303815	1.3529159
27.256232280450533	1.8661146	1.3660581
27.274267123953383	1.8783344	1.3705235
27.292302656108987	1.8517888	1.3608044
27.31033887744306	1.8280389	1.35205
27.32837578848146	1.7921703	1.3387196
27.34641338975026	1.808487	1.3448
27.364451681775673	1.8191448	1.3487568
27.382490665084074	1.8107814	1.3456528
27.400530340202046	1.7993706	1.3414062
27.41857070765629	1.8193597	1.3488364
27.436611767973726	1.8198268	1.3490096
27.454653521681404	1.8209004	1.3494074
27.472695969306564	1.8032821	1.3428634
27.490739111376627	1.8252403	1.3510145
27.508782948419153	1.8489702	1.3597684
27.526827480961902	1.8515551	1.3607186
27.54487270953279	1.8308514	1.3530896
27.562918634659898	1.8222252	1.3498982
27.580965256871508	1.8407316	1.3567357
27.599012576696026	1.8381246	1.3557745
27.617060594662068	1.7887946	1.3374583
27.63510931129842	1.809722	1.3452591
27.65315872713401	1.8455415	1.358507
27.67120884269797	1.808179	1.3446854
27.68925965851958	1.8135606	1.346685
27.707311175128307	1.8009039	1.3419776
27.725363393053787	1.8199995	1.3490735
27.74341631282583	1.839834	1.3564048
27.7614699349744	1.867909	1.3667147
27.77952426002968	1.9974986	1.4133289
27.797579288521973	2.0477817	1.4310073
27.815635020981784	2.5174067	1.5866338
27.83369145793979	2.6141582	1.6168358
27.85174859992682	2.493032	1.5789338
27.869806447473923	2.362305	1.5369792
27.887865001112267	2.0828912	1.4432225
27.905924261373233	1.9223295	1.386481
27.92398422878836	1.9000596	1.3784264
27.94204490388936	1.9520499	1.3971578
27.96010628720813	1.9633075	1.4011807
27.978168379276728	1.9157602	1.3841099
27.9962311806274	1.8590121	1.3634559
28.014294691792568	1.8044466	1.3432969
28.0323589133048	1.7580518	1.3259155
28.050423845696887	1.7787946	1.3337146
28.068489489501758	1.8098284	1.3452986
28.086555845252523	1.8281541	1.3520925
28.104622913482487	1.8546176	1.3618435
28.122690694725115	1.8717728	1.3681275
28.14075918951405	1.8690171	1.36712
28.15882839838312	1.901337	1.3788898
28.176898321866304	1.9702656	1.4036615
28.1949689604978	1.9772748	1.4061561
28.213040314811945	1.919431	1.3854353
28.23111238534327	1.897852	1.3776255
28.249185172626493	1.8994431	1.3782029
28.267258677196473	1.874251	1.3690329
28.285332899588294	1.880447	1.3712939
28.303407840337172	1.8912785	1.3752376
28.321483499978545	1.8913493	1.3752633
28.33955987904799	1.8943863	1.3763671
28.357636978081285	1.9177814	1.3848398
28.37571479761439	1.878704	1.3706582
28.393793338183425	1.9435952	1.3941288
28.41187260032469	1.9981203	1.4135488
28.429952584574686	1.9802803	1.4072243
28.448033291470065	1.9277391	1.3884305
28.46611472154769	1.919065	1.3853033
28.484196875344566	1.9049574	1.3802019
28.502279753397914	1.9244328	1.3872392
28.52036335624511	1.9584346	1.3994408
28.538447684423716	1.9556863	1.3984586
28.556532738471482	2.0037158	1.4155266
28.574618518926325	2.0007727	1.4144868
28.59270502632635	1.990812	1.4109614
28.61079226120985	1.948451	1.3958693
28.628880224115274	1.9601637	1.4000585
28.646968915581287	2.025567	1.4232242
28.66505833614671	2.0607584	1.4355341
28.68314848635055	2.0738583	1.4400897
28.701239366732004	2.086757	1.4445611
28.71933097783044	2.1053772	1.4509917
28.737423320185403	2.1349857	1.461159
28.75551639433665	2.1970205	1.482235
28.773610200824074	2.244044	1.4980134
28.791704740187793	2.2081587	1.4859874
28.80980001296809	2.1624262	1.4705191
28.827896019705413	2.1283727	1.4588944
28.845992760940433	2.1615434	1.4702188
28.86409023721397	2.2056394	1.4851395
28.88218844906704	2.2339041	1.4946251
28.900287397040845	2.2169662	1.488948
28.918387081676755	2.2222106	1.4907081
28.936487503516343	2.2465029	1.4988339
28.954588663101365	2.2984083	1.5160502
28.97269056097374	2.3311865	1.5268223
28.990793197675597	2.3882818	1.5454067
29.00889657374923	2.4082565	1.5518558
29.027000689737125	2.388389	1.5454414
29.04510554618196	2.330484	1.5265923
29.06321114362659	2.39148	1.5464411
29.08131748261405	2.4672666	1.5707535
29.099424563687567	2.534754	1.5920911
29.11753238739057	2.5580995	1.599406
29.13564095426663	2.5405352	1.5939057
29.15375026485954	2.5924935	1.6101222
29.171860319713275	2.683296	1.6380769
29.18997111937199	2.7472403	1.6574801
29.20808266438002	2.7563367	1.6602219
29.226194955281898	2.7943132	1.6716199
29.244307992622335	2.8671894	1.6932777
29.26242177694624	2.8775392	1.6963311
29.2805363087987	2.8215475	1.6797463
29.29865158872498	2.8596902	1.6910619
29.316767617270557	2.8608465	1.6914037
29.334884394981064	2.8725157	1.6948497
29.353001922402367	2.9027624	1.7037495
29.37112020008047	2.9196217	1.70869
29.389239228561596	3.0360537	1.7424275
29.407359008392152	3.2913291	1.8142021
29.42547954011872	3.7342882	1.9324306
29.44360082428809	4.434508	2.105827
29.46172286144722	5.4616866	2.3370252
29.479845652143283	6.9490423	2.6361036
29.497969196923606	9.088385	3.0146947
29.516093496335728	11.690215	3.4190958
29.5342185509274	14.465368	3.8033364
29.55234436124651	16.865168	4.1067224
29.570470927841175	18.316593	4.279789
29.588598251259686	18.154331	4.26079
29.60672633205055	16.633726	4.0784464
29.624855170762405	14.345236	3.7875104
29.642984767944146	11.611036	3.4074972
29.66111512414481	8.937669	2.9895935
29.67924623991366	6.604277	2.5698788
29.697378115800138	5.1052203	2.2594736
29.71551075235387	4.2811937	2.0691047
29.733644150124675	3.8609807	1.9649378
29.751778309662576	3.5597038	1.8867178
29.769913231517766	3.455612	1.8589276
29.78804891624066	3.4150362	1.8479817
29.806185364381818	3.3615375	1.8334496
29.82432257649206	3.3456643	1.8291157
29.842460553122333	3.4135106	1.8475689
29.86059929482382	3.446481	1.85647
29.878738802147872	3.4176333	1.8486842
29.896879075646048	3.3687994	1.835429
29.915020115870114	3.3784897	1.8380668
29.933161923371976	3.344561	1.8288141
29.951304498703777	3.3237987	1.8231288
29.969447842417857	3.24801	1.8022236
29.987591955066733	3.1903856	1.786165
30.005736837203123	3.1897686	1.7859923
30.023882489379943	3.2484434	1.8023438
30.04202891215028	3.265288	1.8070108
30.060176106067455	3.2452605	1.8014606
30.078324071684946	3.1708903	1.7806994
30.09647280955646	3.176401	1.782246
30.114622320235863	3.2111368	1.7919645
30.132772604277257	3.1411936	1.7723413
30.1509236622349	3.068556	1.7517295
30.16907549466328	2.9800792	1.7262906
30.18722810211705	3.0437424	1.7446325
30.205381485151097	3.0854661	1.7565495
30.22353564432045	3.0985224	1.760262
30.241690580180403	3.0781186	1.7544568
30.25984629328638	3.1309617	1.7694523
30.278002784194037	3.1326897	1.7699406
30.296160053459246	2.999506	1.7319082
30.314318101638033	2.9634233	1.7214596
30.332476929286646	2.9781818	1.7257409
30.35063653696153	2.9503176	1.7176489
30.368796925219307	2.9444435	1.7159381
30.386958094616844	2.938034	1.7140695
30.40512004571115	2.8887672	1.6996374
30.423282779059463	2.8434584	1.6862557
30.441446295219233	2.7953217	1.6719216
30.459610594748067	2.787013	1.6694349
30.47777567820382	2.8469415	1.6872882
30.495941546144504	2.8106182	1.6764898
30.51410819912835	2.7334616	1.6533184
30.532275637713795	2.7456925	1.6570132
30.55044386245946	2.7902663	1.670409
30.56861287392416	2.8293133	1.6820563
30.586782672666956	2.8108718	1.6765655
30.604953259247047	2.7682445	1.6638042
30.623124634223885	2.7873874	1.6695471
30.641296798157075	2.7546575	1.6597161
30.659469751606462	2.7493763	1.6581243
30.677643495132074	2.7860081	1.6691339
30.695818029294152	2.713303	1.6472107
30.713993354653116	2.6886942	1.6397238
30.73216947176962	2.6825187	1.6378397
30.75034638120448	2.6950412	1.6416581
30.768524083518756	2.7267604	1.6512905
30.786702579273673	2.8112035	1.6766644
30.80488186903069	2.8863635	1.6989301
30.82306195335144	2.9600542	1.7204808
30.841242832797782	3.1259906	1.7680471
30.85942450793176	3.3887534	1.8408567
30.877606979315637	3.7550228	1.9377881
30.895790247511883	4.1163387	2.0288763
30.913974313083134	4.517864	2.125527
30.932159176592283	4.758396	2.1813748
30.95034483860237	4.770656	2.1841831
30.968531299676698	4.6076517	2.1465442
30.98671856037873	4.443145	2.1078768
31.00490662127215	4.056165	2.0139923
31.023095482920848	3.5484056	1.8837212
31.04128514588892	3.030186	1.7407429
31.059475610740662	2.716763	1.6482606
31.07766687804056	2.6082227	1.6149993
31.09585894835335	2.5507512	1.5971072
31.11405182224393	2.4388728	1.5616891
31.132245500277417	2.4428594	1.5629649
31.15043998301914	2.4899561	1.5779595
31.168635271034628	2.480903	1.5750883
31.18683136488964	2.4467466	1.564208
31.20502826515008	2.404721	1.5507163
31.223225972382135	2.4447505	1.5635698
31.241424487152155	2.5111928	1.5846744
31.259623810026692	2.4996622	1.581032
31.27782394157253	2.4538796	1.5664864
31.296024882356644	2.4175305	1.554841
31.314226632946237	2.3840213	1.5440276
31.332429193908684	2.4211178	1.5559942
31.350632565811598	2.4570606	1.5675014
31.368836749222787	2.4739769	1.572888
31.387041744710295	2.5356994	1.5923879
31.40524755284232	2.6570148	1.6300353
31.423454174187317	2.5984764	1.611979
31.441661609313922	2.4985526	1.5806811
31.459869858791002	2.409407	1.5522264
31.478078923187628	2.4187636	1.5552375
31.496288803073064	2.408893	1.552061
31.514499499016807	2.37831	1.542177
31.532711011588546	2.3592303	1.5359786
31.550923341358178	2.3612208	1.5366265
31.56913648889584	2.3687243	1.5390661
31.587350454771844	2.3341627	1.5277966
31.605565239556732	2.316492	1.5220027
31.62378084382127	2.390847	1.5462364
31.641997268136382	2.381536	1.5432225
31.660214513073274	2.2946877	1.5148227
31.67843257920331	2.2759528	1.5086261
31.6966514670981	2.3880036	1.5453167
31.71487117732944	2.4225564	1.5564563
31.733091710469346	2.395946	1.5478843
31.751313067090052	2.2962148	1.5153266
31.769535247764008	2.2555277	1.5018414
31.787758253063878	2.2903647	1.5133951
31.805982083562526	2.288322	1.5127201
31.824206739833024	2.295924	1.5152307
31.84243222244869	2.272113	1.507353
31.860658531983013	2.216961	1.4889462
31.878885669009737	2.1766	1.4753305
31.897113634102784	2.19678	1.4821538
31.91534242783632	2.2617471	1.5039107
31.933572050784694	2.239216	1.4964011
31.951802503522508	2.1909146	1.4801738
31.970033786624548	2.214413	1.4880904
31.988265900665834	2.2045665	1.4847783
32.006498846221575	2.118921	1.4556514
32.02473262386724	2.1067538	1.4514661
32.04296723417845	2.1848996	1.4781406
32.0612026777311	2.20981	1.4865429
32.07943895510129	2.152807	1.4672447
32.097676066865304	2.109535	1.4524238
32.115914013599685	2.1160264	1.4546568
32.13415279588115	2.2263227	1.4920866
32.152392414286666	2.2659645	1.5053121
32.1706328693934	2.2370808	1.4956874
32.18887416177875	2.1226618	1.4569358
32.20711629202032	2.0394356	1.4280881
32.225359260695924	2.0485299	1.4312686
32.243603068383614	2.124143	1.457444
32.26184771566166	2.2102735	1.4866989
32.28009320310852	2.2034485	1.4844017
32.2983395313029	2.0825944	1.4431196
32.31658670082372	2.0254087	1.4231685
32.33483471225012	2.1450634	1.4646035
32.35308356616143	2.2320335	1.4939991
32.371333263137245	2.21562	1.488496
32.38958380375734	2.2235205	1.4911474
32.407835188601744	2.2207437	1.490216
32.42608741825067	2.1420288	1.4635671
32.444340493284585	2.065732	1.4372655
32.46259441428416	2.0270512	1.4237455
32.48084918183028	2.101742	1.4497386
32.49910479650405	2.1374605	1.4620056
32.51736125888683	2.084738	1.4438622
32.53561856956014	2.0947459	1.4473237
32.5538767291058	2.1066806	1.4514409
32.572135738105764	2.152057	1.466989
32.59039559714228	2.0804522	1.4423773
32.608656306797776	2.0541863	1.4332433
32.62691786765491	2.1038494	1.4504652
32.645180280296586	2.0752895	1.4405866
32.663443545305896	2.0517116	1.4323797
32.68170766326619	2.0116885	1.4183401
32.69997263476099	1.9668947	1.4024602
32.7182384603741	1.8956876	1.3768398
32.7365051406895	1.9157017	1.3840888
32.75477267629144	2.0540104	1.4331819
32.77304106776434	2.1433837	1.4640299
32.79131031569289	2.054313	1.4332875
32.809580420661966	1.9943626	1.412219
32.827851383256714	1.9288797	1.3888412
32.84612320406245	1.9306058	1.3894624
32.86439588366476	1.9238303	1.3870221
32.88266942264945	1.8906366	1.3750042
32.9009438216025	1.9202992	1.3857486
32.9192190811102	2.003726	1.4155303
32.937495201758985	2.0445535	1.4298788
32.95577218413556	2.126376	1.4582099
32.974050028826866	2.203937	1.4845663
32.992328736420035	2.1283703	1.4588935
33.010608307502444	1.9684653	1.40302
33.02888874266169	1.9210906	1.3860341
33.047170042485604	1.9043856	1.3799948
33.06545220756225	1.9745613	1.4051908
33.083735238479896	2.0101392	1.4177938
33.10201913582707	2.0523155	1.4325905
33.12030390019248	2.0958085	1.4476907
33.138589532165135	2.057017	1.4342304
33.15687603233419	1.978117	1.4064555
33.17516340128909	2.0047255	1.4158833
33.19345163961947	1.9808006	1.4074092
33.211740747915215	1.856446	1.3625146
33.23003072676643	1.8254097	1.3510772
33.248321576763466	1.9599748	1.399991
33.266613298496885	2.01291	1.4187706
33.28490589255747	1.9975306	1.4133402
33.30319935953626	1.9594158	1.3997914
33.32149370002451	1.9297787	1.3891648
33.339788914613706	1.9425626	1.3937584
33.358085003895575	1.9337205	1.3905828
33.376381968462034	1.9661973	1.4022115
33.39467980890529	1.9998276	1.4141526
33.41297852581774	1.9822952	1.40794
33.43127811979204	1.9742503	1.4050802
33.44957859142105	2.0128512	1.4187499
33.467879941297866	2.0184467	1.4207205
33.486182170015844	1.9176018	1.384775
33.50448527816853	1.7990171	1.3412744
33.522789266349754	1.8369944	1.3553576
33.541094135153514	1.8961016	1.3769901
33.55939988517411	1.9146929	1.3837243
33.57770651700602	1.8923454	1.3756255
33.59601403124398	1.8897748	1.3746908
33.61432242848296	1.8330034	1.3538846
33.632631709318154	1.8024285	1.3425455
33.650941874344994	1.8576782	1.3629667
33.66925292415916	1.8831264	1.3722705
33.68756485935654	1.925447	1.3876047
33.70587768053328	1.9661124	1.4021813
33.724191388285746	1.9442694	1.3943707
33.74250598321054	1.9165016	1.3843777
33.760821465904506	1.9726535	1.4045118
33.77913783696474	1.9711919	1.4039915
33.79745509698852	1.9806705	1.4073629
33.815773246573414	1.951813	1.397073
33.8340922863172	1.9137986	1.383401
33.852412216817896	1.8625481	1.364752
33.87073303867377	1.9774867	1.4062314
33.889054752483304	2.078309	1.4416342
33.907377358845245	1.9897566	1.4105873
33.92570085835853	1.9440882	1.3943056
33.94402525162239	2.060466	1.4354323
33.96235053923627	2.1600277	1.4697033
33.980676721799824	2.1322799	1.4602329
33.999003799912984	2.1524343	1.4671177
34.01733177417592	2.0349054	1.4265012
34.03566064518901	1.9261788	1.3878684
34.0539904135529	1.9531342	1.3975458
34.07232107986846	1.8803749	1.3712677
34.090652644736785	1.8711401	1.3678962
34.108985108759235	1.9149944	1.3838332
34.12731847253742	1.8987368	1.3779466
34.14565273667313	1.8634708	1.36509
34.16398790176847	1.9284467	1.3886852
34.18232396842574	1.9918283	1.4113215
34.20066093724749	2.0175252	1.4203961
34.21899880883651	1.9992354	1.4139432
34.23733758379583	1.9497741	1.3963431
34.25567726272874	1.9080327	1.3813156
34.27401784623872	1.9015791	1.3789775
34.29235933492957	1.9567564	1.398841
34.31070172940526	2.0502641	1.4318744
34.32904503027003	2.1148531	1.4542534
34.347389238128386	2.109413	1.4523818
34.36573435358502	2.0584152	1.4347178
34.38408037724492	1.9946737	1.4123292
34.402427309713296	1.9312569	1.3896967
34.42077515159559	1.9579688	1.3992743
34.43912390349752	2.1654186	1.4715362
34.45747356602499	2.1722834	1.4738668
34.47582413978423	2.0228915	1.4222839
34.49417562538163	2.0270908	1.4237593
34.51252802342388	2.0010617	1.4145889
34.53088133451789	2.0765874	1.4410369
34.54923555927084	2.183234	1.4775771
34.567590698290104	2.030949	1.4251137
34.58594675218336	1.8634089	1.3650674
34.6043037215585	1.8994436	1.378203
34.62266160702365	2.012801	1.4187322
34.641020409187234	1.9571302	1.3989747
34.65938012865785	1.8877242	1.3739448
34.677740766044394	2.0391223	1.4279784
34.69610232195598	2.0057154	1.4162328
34.714464797002016	1.8699007	1.3674431
34.73282819179208	1.8900495	1.3747907
34.751192506936064	1.8780758	1.370429
34.76955774304408	1.9165738	1.3844037
34.7879239007265	2.179847	1.4764305
34.80629098059391	2.196526	1.4820682
34.824658983257194	2.0035813	1.4154792
34.843027909327446	2.0451286	1.4300799
34.86139775941603	2.103004	1.4501737
34.879768534134534	1.8779182	1.3703716
34.89814023409483	1.6997114	1.3037298
34.91651285990901	1.8580884	1.3631171
34.93488641218944	1.9683983	1.4029962
34.95326089154871	2.1620786	1.4704008
34.97163629859967	2.1848881	1.4781367
34.99001263395542	2.1008983	1.4494476
35.00838989822934	2.0359645	1.4268723
35.02676809203499	2.0657165	1.43726
35.04514721598624	2.088406	1.4451319
35.063527270697215	1.980659	1.4073589
35.081908256782256	2.11517	1.4543624
35.10029017485597	2.2253346	1.4917556
35.11867302553321	2.276677	1.5088661
35.137056809429104	2.418865	1.5552701
35.155441527159006	2.3720841	1.5401572
35.173827179338524	2.000876	1.4145232
35.19221376658354	1.9015541	1.3789685
35.21060128951017	1.9401622	1.392897
35.2289897487348	1.908764	1.3815802
35.24737914487405	1.7430845	1.3202593
35.26576947854479	1.6441183	1.2822318
35.28416075036418	1.8803946	1.3712748
35.30255296094958	1.9413713	1.393331
35.32094611091867	1.9036758	1.3797376
35.33934020088932	1.8789164	1.3707358
35.35773523147969	2.0279627	1.4240656
35.3761312033082	2.4722939	1.572353
35.394528116993506	2.3592098	1.5359719
35.41292597315452	2.0808518	1.4425157
35.431324772410434	2.1840694	1.4778597
35.449724515380666	2.075089	1.440517
35.46812520268491	2.0018396	1.4148638
35.486526834943106	1.7135535	1.3090277
35.504929412775454	1.928831	1.3888236
35.52333293680242	1.8424685	1.3573756
35.54173740764471	1.6421146	1.2814502
35.560142825923286	1.7238535	1.312956
35.5785491922594	1.9023657	1.3792627
35.59695650727454	2.1099453	1.4525651
35.61536477159042	1.8569168	1.3626873
