0.008763373481513119	0.0	0.0
0.026290120649546365	0.11242709	0.3353015
0.043816868432600686	0.12596065	0.35490936
0.06134361724069026	0.16758075	0.40936628
0.07887036748382949	0.19644284	0.44321874
0.0963971195720331	0.16043486	0.4005432
0.11392387391531617	0.108404115	0.3292478
0.1314506309236943	0.07222906	0.26875463
0.1489773910071836	0.035577133	0.18861902
0.16650415457580078	0.0312147	0.17667682
0.18403092203956356	0.11280347	0.33586228
0.20155769380849	0.13444142	0.36666253
0.2190844702925996	0.16752706	0.4093007
0.2366112519019124	0.19077836	0.43678182
0.2541380390464497	0.12755115	0.35714304
0.27166483213623416	0.08395505	0.28974998
0.28919163158128947	0.04098817	0.20245536
0.3067184377916406	0.064316325	0.25360665
0.324245251177314	0.10160749	0.3187593
0.34177207214833777	0.09887434	0.3144429
0.3592989011147415	0.13003	0.36059675
0.37682573848655654	0.14600964	0.3821121
0.39435258467381573	0.18458745	0.42963642
0.41187944008655414	0.17506434	0.4184069
0.42940630513480854	0.14777006	0.3844087
0.446933180228618	0.10746934	0.32782516
0.4644600657780234	0.111620404	0.3340964
0.48198696219306775	0.12124447	0.34820175
0.49951386988379676	0.17780176	0.42166546
0.5170407892602581	0.18182611	0.42641073
0.5345677207325025	0.20256904	0.4500767
0.5520946647105822	0.20539793	0.45320848
0.5696216216045534	0.23243047	0.48211044
0.5871485918244737	0.20494443	0.4527079
0.6046755757804043	0.16852608	0.41051927
0.6222025738824094	0.12637945	0.35549888
0.6397295865405557	0.10242672	0.32004175
0.6572566141649129	0.104711436	0.32359147
0.6747836571655547	0.12762775	0.35725024
0.6923107159525568	0.17325291	0.4162366
0.7098377909359992	0.21173935	0.46015143
0.7273648825259653	0.23316799	0.48287472
0.7448919911325411	0.24215926	0.4920968
0.762419117165817	0.24168165	0.49161127
0.7799462610358868	0.23769596	0.48754072
0.7974734231528482	0.23567994	0.48546878
0.8150006039268024	0.24597065	0.49595428
0.8325278037678551	0.24165016	0.49157926
0.8500550230861152	0.19810939	0.4450948
0.8675822622916969	0.19120555	0.43727055
0.8851095217947171	0.20209919	0.44955444
0.9026368020052984	0.20044753	0.44771367
0.9201641033335665	0.18424334	0.42923576
0.9376914261896523	0.1847314	0.4298039
0.9552187709836915	0.21760966	0.4664865
0.9727461381258234	0.24624488	0.49623066
0.990273528026193	0.25903463	0.50895447
1.0078009410949496	0.28196326	0.5310021
1.0253283777422473	0.3113388	0.55797744
1.0428558383782454	0.2958891	0.5439569
1.0603833234131086	0.29782987	0.5457379
1.0779108332570058	0.36567315	0.60470915
1.0954383683201119	0.41295323	0.64261436
1.112965929012607	0.43472052	0.6593334
1.1304935157446763	0.5136078	0.7166644
1.1480211289265108	0.51743054	0.71932644
1.1655487689683062	1.4686891	1.2118949
1.1830764362802655	1.7989823	1.3412614
1.200604131272596	2.2365394	1.4955064
1.2181318543555117	2.4165711	1.5545324
1.235659605939232	2.4700167	1.5716287
1.253187386433982	4.0162396	2.0040557
1.270715196249994	6.3636227	2.522622
1.2882430357975057	12.0754	3.4749677
1.3057709054867608	16.67135	4.0830564
1.3232988057280106	22.504435	4.743884
1.3408267369315112	27.057652	5.201697
1.358354699507526	30.611647	5.532779
1.3758826938663256	34.824932	5.901265
1.3934107204181858	36.888607	6.0735993
1.410938779573391	37.129097	6.093365
1.4284668717422309	37.419426	6.117142
1.4459949973350033	37.15234	6.095272
1.4635231567620117	37.441227	6.1189237
1.4810513504335687	37.51553	6.1249924
1.4985795787599925	37.012585	6.083797
1.5161078421516088	36.395287	6.0328507
1.5336361410187505	35.096592	5.9242377
1.5511644757717598	34.674393	5.888497
1.5686928468209842	34.7228	5.892606
1.58622125457678	35.016304	5.9174576
1.6037496994495108	36.412777	6.0343
1.621278181849548	36.484165	6.040212
1.6388067021872719	37.51305	6.1247897
1.6563352608730693	37.041157	6.0861444
1.673863858317336	36.41105	6.034157
1.6913924949304753	35.81265	5.984367
1.7089211711228998	34.93829	5.910862
1.7264498873050296	33.760456	5.8103747
1.7439786438872935	32.767128	5.724258
1.7615074412801288	31.68858	5.629261
1.779036279893981	31.156912	5.5818377
1.796565160139305	30.327505	5.5070415
1.814094082426564	29.437376	5.425622
1.8316230471662298	28.612968	5.349109
1.849152054768784	27.822197	5.274675
1.8666811056447168	27.250141	5.2201667
1.8842102002045273	26.376968	5.1358514
1.901739338858724	25.85692	5.08497
1.9192685220178245	25.678854	5.0674305
1.9367977500923557	25.05503	5.0055
1.9543270234928547	24.909195	4.990911
1.971856342629867	24.026634	4.901697
1.9893857079139496	23.350971	4.8322845
2.006915119755667	22.711088	4.765615
2.0244445785655945	22.01239	4.691736
2.0419740847543175	21.707024	4.6590796
2.0595036387324317	21.278124	4.6128216
2.0770332409105414	20.766964	4.5570784
2.094562891699263	20.267885	4.501987
2.1120925915092217	19.681116	4.4363403
2.129622340751053	19.522406	4.4184165
2.1471521398354043	188.00395	13.711453
2.1646819891729323	444.52206	21.083693
2.182211889174303	440.9064	20.997772
2.1997418402501974	453.25327	21.289745
2.2172718428113023	433.03052	20.809385
2.234801897268317	320.80655	17.911074
2.2523320040319548	17.08729	4.1336775
2.269862163512935	16.632929	4.0783486
2.287392376121992	16.215845	4.0268903
2.304922642269869	16.007853	4.0009813
2.322452962367322	15.891488	3.986413
2.3399833368251164	15.65645	3.9568233
2.357513766054032	15.216794	3.900871
2.3750442504648586	14.754998	3.8412235
2.3925747904683963	14.40326	3.7951627
2.410105386475459	14.294959	3.7808676
2.4276360388968707	14.104145	3.7555485
2.445166748143469	14.122583	3.7580025
2.4626975146261025	13.801101	3.7149832
2.4802283387556323	13.427352	3.664335
2.4977592209429305	13.185724	3.6312153
2.5152901615988825	12.907991	3.5927694
2.5328211611343865	12.730271	3.5679505
2.5503522199603523	12.553354	3.5430713
2.5678833384877024	12.310042	3.508567
2.5854145171273712	12.262693	3.501813
2.6029457562903064	12.108564	3.4797363
2.620477056387469	11.973376	3.4602566
2.6380084178298326	11.812114	3.4368756
2.655539841028383	11.572347	3.4018152
2.673071326394119	11.412661	3.378263
2.6906028743380523	11.136238	3.3371003
2.708134485271211	10.866014	3.2963636
2.7256661596046325	10.584753	3.2534218
2.743197897749369	10.420069	3.228013
2.760729700116486	10.310707	3.211029
2.778261567117063	10.048951	3.1700082
2.795793499162193	9.953502	3.154917
2.8133254966629817	9.892209	3.1451883
2.830857560030551	9.909023	3.14786
2.8483896896760337	9.849296	3.1383588
2.865921886010578	9.615578	3.1008995
2.883454149445347	9.342832	3.0566046
2.9009864803915177	9.082745	3.0137591
2.91851887926028	8.982564	2.9970925
2.9360513464628384	8.96487	2.9941394
2.953583882410413	8.883877	2.9805832
2.9711164875142373	8.823143	2.9703777
2.9886491621855606	8.754463	2.958794
3.0061819068356455	8.658886	2.9425986
3.023714721875769	8.582113	2.9295244
3.041247607717225	8.593891	2.9315338
3.0587805647713213	8.514013	2.9178782
3.0763135934493806	8.395245	2.8974547
3.0938466941627407	8.106704	2.8472273
3.1113798673227544	7.871955	2.8057005
3.1289131133407904	7.72949	2.780196
3.1464464326282315	7.639196	2.7639096
3.1639798255964786	7.6288733	2.7620416
3.1815132926569443	7.6490774	2.7656965
3.1990468342210603	7.7064567	2.7760506
3.216580450700272	7.7036886	2.775552
3.2341141425060416	7.505321	2.7395842
3.251647910049847	7.3336635	2.7080739
3.2691817537431813	7.1120467	2.666842
3.286715673997555	7.0463176	2.65449
3.3042496712244938	7.0103903	2.6477141
3.32178374583554	6.9110107	2.62888
3.339317898242251	6.8633065	2.6197913
3.3568521288562034	6.7476497	2.5976238
3.3743864380889876	6.765357	2.6010299
3.3919208263522127	6.7157364	2.5914738
3.4094552940575023	6.686539	2.5858343
3.4269898416164972	6.611245	2.5712342
3.444524469440858	6.5953226	2.568136
3.4620591779422587	6.5932245	2.5677276
3.479593967532391	6.591425	2.567377
3.4971288386229658	6.5092554	2.5513241
3.5146637916257086	6.437344	2.537192
3.5321988269523628	6.4354205	2.536813
3.5497339450146903	6.3678036	2.5234506
3.5672691462244708	6.2820377	2.5063994
3.5848044309934988	6.2950277	2.5089893
3.60233979973359	6.2973337	2.509449
3.619875252856575	6.2138352	2.4927566
3.6374107907743034	6.16727	2.483399
3.6549464138986427	6.119887	2.4738405
3.6724821226414788	6.176601	2.485277
3.690017917414714	6.1623564	2.4824095
3.7075537986302702	6.316255	2.513216
3.7250897667000857	6.352632	2.5204427
3.7426258220361235	6.5257583	2.5545564
3.7601619650503553	6.827331	2.6129162
3.777698196154779	7.318779	2.7053242
3.7952345157614067	8.394428	2.897314
3.8127709242822716	9.192204	3.031865
3.830307422129425	11.381451	3.3736405
3.847844009714936	30.199108	5.4953713
3.8653806874508954	97.70924	9.884799
3.882917455749409	96.8838	9.842957
3.900454315022606	96.54765	9.825867
3.917991265682631	41.080715	6.409424
3.9355283081416506	10.777613	3.2829275
3.9530654428118495	8.78049	2.9631891
3.970602670105433	7.6465936	2.7652476
3.9881399904346244	6.8153205	2.610617
4.005677404211669	6.704762	2.5893555
4.023214911848827	6.561082	2.561461
4.0407525137583855	6.477431	2.5450797
4.058290210352644	6.4742093	2.5444467
4.075828002043927	6.385262	2.5269077
4.0933658892445814	6.365038	2.5229027
4.110903872366966	6.2920012	2.5083861
4.128441951823468	6.184254	2.4868162
4.145980128026488	6.1699944	2.4839473
4.163518401388452	6.2166457	2.4933202
4.181056772321807	6.242406	2.4984808
4.1985952412390155	6.229018	2.4958
4.216133808552567	6.1844373	2.486853
4.233672474674966	6.189793	2.4879296
4.251211240018741	6.330124	2.5159738
4.268750104996445	6.5938582	2.5678508
4.286289070020643	7.533022	2.744635
4.303828135503928	9.2458725	3.0407026
4.3213673018589125	29.54542	5.43557
4.3389065694982305	90.804695	9.52915
4.356445938834537	166.16196	12.890383
4.3739854102805085	171.69693	13.103317
4.391524984248844	172.54758	13.135736
4.409064661152262	136.58679	11.687036
4.426604441403504	96.88366	9.84295
4.444144325415337	75.86623	8.710122
4.461684313600543	21.604006	4.6480107
4.47922440637193	21.83938	4.673262
4.496764604142329	20.331255	4.5090194
4.5143049073245916	18.563047	4.3084855
4.531845316331589	16.590363	4.073127
4.5493858315762195	13.584561	3.685724
4.566926453471405	11.2856455	3.3594115
4.584467182430081	9.229086	3.037941
4.602008018865218	8.161847	2.8568947
4.619548963189798	7.5401554	2.7459342
4.637090015816834	7.064183	2.6578531
4.654631177159353	6.7980223	2.6073017
4.672172447630417	6.5394273	2.5572305
4.689713827643102	6.312655	2.5124998
4.7072553176105085	5.990213	2.4474912
4.724796917945764	5.7617836	2.4003716
4.742338629062015	5.6754727	2.3823252
4.759880451372434	5.7364078	2.3950799
4.777422385290215	5.744063	2.3966775
4.794964431228581	5.757353	2.3994484
4.812506589600768	5.7178392	2.3912003
4.830048860820047	5.7370243	2.3952086
4.847591245299709	5.7214684	2.3919592
4.8651337434530655	5.6941977	2.3862517
4.882676355693457	5.704268	2.388361
4.900219082434242	5.6757493	2.382383
4.917761924088813	5.572605	2.3606367
4.935304881070575	5.546975	2.3552017
4.952847953792969	5.5038104	2.3460202
4.970391142669449	5.4963627	2.3444324
4.9879344481135055	5.522243	2.3499453
5.005477870538642	5.5029936	2.345846
5.023021410358394	5.428808	2.3299804
5.040565067986324	5.4361954	2.331565
5.05810884383601	5.4028845	2.3244107
5.075652738321066	5.413844	2.326767
5.09319675185512	5.4417663	2.3327594
5.110740884851836	5.417577	2.3275688
5.128285137724894	5.39728	2.3232048
5.145829510888007	5.3009415	2.3023775
5.163374004754908	5.298734	2.301898
5.1809186197393595	5.2627873	2.2940767
5.198463356255145	5.214868	2.2836087
5.216008214716077	5.1871243	2.277526
5.233553195535998	5.157478	2.271008
5.251098299128764	5.242183	2.2895815
5.268643525908272	5.2744117	2.2966087
5.286188876288432	5.360328	2.3152382
5.3037343506831895	5.398977	2.3235698
5.32127994950651	5.417372	2.327525
5.3388256731723915	5.325084	2.3076143
5.356371522094851	5.1878114	2.2776768
5.373917496687938	5.086548	2.2553377
5.391463597365729	5.103446	2.259081
5.40900982454232	5.125198	2.26389
5.426556178631843	5.218639	2.284434
5.444102660048449	5.199092	2.2801518
5.4616492692063225	5.192114	2.278621
5.479196006519669	5.1504936	2.26947
5.496742872402727	5.07836	2.2535217
5.514289867269756	5.193583	2.2789433
5.531836991535049	5.2415733	2.2894483
5.549384245612924	5.176925	2.2752857
5.566931629917724	5.0255175	2.2417667
5.584479144863822	4.9551816	2.2260237
5.6020267908656205	4.9001813	2.2136352
5.619574568337545	5.029204	2.2425888
5.637122477694054	5.0930047	2.2567687
5.654670519349629	5.172824	2.2743843
5.672218693718784	5.148783	2.269093
5.689767001216059	5.081371	2.2541897
5.707315442256021	5.105004	2.2594256
5.724864017253266	5.097532	2.2577715
5.7424127266224225	5.1129975	2.2611938
5.75996157077814	5.057819	2.2489595
5.777510550135105	5.04823	2.2468266
5.795059665108022	5.0213532	2.2408376
5.812608916111639	5.0231624	2.2412412
5.830158303560715	5.18554	2.277178
5.847707827870055	5.284862	2.2988827
5.86525748945448	5.436106	2.3315458
5.8828072887288485	5.5370464	2.353093
5.900357226108044	5.5415087	2.3540409
5.917907302006979	5.471846	2.3391976
5.9354575168406	6.051221	2.459923
5.9530078710238765	6.808936	2.6093938
5.970558364971812	7.4206495	2.724087
5.988108999099438	7.8195367	2.7963436
6.005659773821818	8.295383	2.8801708
6.023210689554039	8.028551	2.8334699
6.040761746711227	8.494176	2.9144769
6.058312945708531	7.8169017	2.7958722
6.075864286961132	7.374576	2.7156172
6.093415770884244	6.6731734	2.5832486
6.1109673978931065	6.134528	2.476798
6.128519168402993	5.538732	2.353451
6.146071082829204	5.376568	2.3187428
6.163623141587075	5.2906337	2.3001378
6.181175345091969	5.21027	2.2826016
6.198727693759281	5.167371	2.2731853
6.216280188004435	5.158382	2.271207
6.233832828242885	5.1803966	2.2760484
6.251385614890126	5.19258	2.2787235
6.268938548361669	5.1571455	2.270935
6.286491629073067	5.051392	2.2475302
6.304044857439898	5.0030594	2.236752
6.321598233877777	4.9247	2.2191665
6.339151758802344	4.9249396	2.2192204
6.356705432629277	4.9519567	2.2252994
6.37425925577428	4.9561377	2.2262385
6.391813228653095	4.9330883	2.2210557
6.409367351681486	4.950951	2.2250733
6.426921625275259	4.957346	2.2265098
6.44447604985025	4.978124	2.2311711
6.46203062582232	5.002037	2.2365234
6.47958535360737	4.984301	2.232555
6.497140233621328	5.007643	2.2377765
6.514695266280161	4.9782906	2.2312083
6.532250451999859	4.9218926	2.218534
6.549805791196454	4.961618	2.227469
6.567361284286002	4.999085	2.2358634
6.584916931684597	5.07239	2.2521968
6.602472733808367	5.1125946	2.2611048
6.6200286910734665	5.137349	2.266572
6.637584803896092	5.120575	2.2628686
6.655141072692462	5.0608735	2.2496386
6.672697497878842	4.9719462	2.2297862
6.690254079871514	4.942737	2.2232268
6.707810819086808	4.9248934	2.2192101
6.725367715941078	4.999923	2.2360508
6.742924770850719	5.033601	2.2435687
6.760481984232151	5.093116	2.2567933
6.778039356501836	5.0710745	2.2519047
6.795596888076266	5.0774612	2.2533224
6.813154579371963	4.9998016	2.2360237
6.830712430805492	4.9253173	2.2193055
6.84827044279344	4.8973393	2.2129934
6.865828615752445	4.913043	2.2165384
6.883386950099159	4.974631	2.2303882
6.900945446250287	5.0371156	2.2443519
6.918504104622553	5.0551863	2.2483742
6.936062925632727	5.1256433	2.2639883
6.953621909697607	5.0964503	2.257532
6.971181057234028	5.1411815	2.2674174
6.988740368658859	5.159682	2.2714932
7.006299844389007	5.21137	2.2828426
7.023859484841407	5.2669296	2.2949793
7.041419290433036	5.3541193	2.313897
7.058979261580902	5.447128	2.3339083
7.0765393987020495	5.6888704	2.3851354
7.094099702213559	6.0734673	2.4644406
7.111660172532549	6.36042	2.5219874
7.129220810076164	6.6572	2.580155
7.146781615261595	7.1793036	2.6794224
7.16434258850606	7.46392	2.7320175
7.181903730226821	7.966142	2.8224356
7.1994650408411704	8.070008	2.840776
7.217026520766437	8.203638	2.8641994
7.234588170419983	8.381163	2.8950238
7.252149990219215	8.36824	2.892791
7.269711980581568	8.279427	2.8773992
7.2872741419245175	8.070805	2.8409162
7.304836474665574	7.674781	2.7703395
7.322398979222286	7.3769073	2.7160463
7.339961656012233	7.099062	2.6644065
7.357524505453039	6.756227	2.5992744
7.375087527962357	6.4853525	2.5466356
7.392650723957886	6.2613034	2.5022597
7.410214093857353	5.937383	2.4366746
7.427777638078528	5.725194	2.3927379
7.445341357039213	5.5332475	2.3522856
7.4629052511572525	5.3618417	2.315565
7.480469320850524	5.3048086	2.303217
7.498033566536948	5.2630506	2.294134
7.5155979886344735	5.196405	2.2795625
7.5331625875610975	5.1435266	2.2679343
7.550727363734844	5.1578135	2.271082
7.568292317573788	5.1617785	2.2719548
7.585857449496025	5.181848	2.2763672
7.603422759919705	5.2057705	2.2816157
7.620988249263007	5.1765656	2.2752068
7.638553917944147	5.2166076	2.2839894
7.656119766381391	5.2092137	2.28237
7.673685794993023	5.2386336	2.2888062
7.691252004197388	5.2463427	2.2904897
7.70881839441285	5.2603707	2.2935498
7.726384966057826	5.2144876	2.2835252
7.743951719550762	5.183364	2.2767003
7.761518655310149	5.1760755	2.275099
7.779085773754511	5.2072253	2.2819345
7.796653075302419	5.2117224	2.2829196
7.814220560372475	5.2620807	2.2939227
7.831788229383323	5.293515	2.300764
7.8493560827536495	5.366788	2.316633
7.866924120902174	5.3152294	2.305478
7.884492344247663	5.257872	2.293005
7.9020607532089135	5.2458596	2.290384
7.919629348204771	5.3211274	2.306757
7.937198129654115	5.412713	2.3265238
7.954767097975865	5.4003143	2.3238575
7.972336253588986	5.368302	2.3169596
7.989905596912472	5.304069	2.3030565
8.007475128365371	5.346492	2.3122482
8.025044848366756	5.4218125	2.3284786
8.042614757335754	5.5641656	2.3588483
8.060184855691523	5.6467876	2.376297
8.07775514385327	5.733614	2.3944967
8.095325622240228	5.813332	2.4110854
8.112896291271687	5.895064	2.4279752
8.130467151366968	5.945193	2.4382765
8.148038202945436	5.9569345	2.4406831
8.165609446426497	5.8484716	2.4183614
8.183180882229594	5.894393	2.4278371
8.200752510774217	5.9446244	2.43816
8.218324332479893	6.0008826	2.4496698
8.235896347766193	6.038952	2.457428
8.253468557052724	6.036909	2.4570122
8.27104096075914	6.052502	2.4601834
8.288613559305137	6.113074	2.4724631
8.306186353110448	6.182205	2.4864042
8.32375934259485	6.22227	2.494448
8.341332528178162	6.2346964	2.4969375
8.358905910280246	6.2477994	2.4995599
8.376479489321003	6.2035236	2.4906874
8.394053265720377	6.1688986	2.4837267
8.411627239898356	6.1442814	2.4787662
8.42920141227497	6.22277	2.494548
8.44677578327029	6.2487097	2.499742
8.464350353304427	6.278042	2.5056021
8.48192512279754	6.221348	2.494263
8.499500092169827	6.1879354	2.4875562
8.51707526184153	6.1725264	2.484457
8.534650632232934	6.1300964	2.4759033
8.552226203764365	6.1524153	2.4804063
8.569801976856192	6.253625	2.5007248
8.587377951928834	6.3243895	2.514834
8.60495412940274	6.3416204	2.5182574
8.622530509698416	6.318442	2.5136511
8.6401070932364	6.418438	2.5334637
8.657683880437283	6.517215	2.5528836
8.675260871721695	6.6913247	2.5867596
8.692838067510303	6.8256626	2.612597
8.710415468223834	7.072136	2.6593487
8.727993074283043	7.2237506	2.6877036
8.745570886108737	7.2039485	2.6840172
8.763148904121765	7.208829	2.6849263
8.78072712874302	7.1768126	2.6789575
8.798305560393441	7.4466796	2.7288604
8.815884199494006	7.5677805	2.7509599
8.833463046465745	7.751692	2.7841861
8.851042101729728	7.821432	2.7966824
8.86862136570707	8.101104	2.8462439
8.886200838818924	8.265866	2.875042
8.903780521486505	8.352436	2.890058
8.921360414131055	8.489622	2.9136956
8.938940517173874	8.667402	2.9440453
8.956520831036297	8.704241	2.950295
8.97410135613971	8.881691	2.9802165
8.99168209290554	9.020315	3.0033839
9.009263041755265	9.333831	3.055132
9.026844203110405	9.600379	3.0984478
9.044425577392525	9.78974	3.128856
9.062007165023239	9.919402	3.1495082
9.079588966424197	10.236499	3.1994529
9.097170982017108	10.36007	3.2187064
9.11475321222372	11.346511	3.3684583
9.132335657465825	12.183779	3.490527
9.149918318165264	12.298656	3.506944
9.167501194743924	12.908361	3.592821
9.18508428762374	12.591951	3.548514
9.202667597226693	12.591462	3.548445
9.220251123974803	12.287125	3.5052996
9.237834868290143	11.966641	3.4592834
9.255418830594836	11.829627	3.4394224
9.273003011311046	11.316137	3.3639467
9.290587410860985	11.063581	3.3261962
9.308172029666911	10.4582	3.2339141
9.32575686815113	10.164563	3.1881912
9.343341926735997	8.823206	2.9703882
9.360927205843916	8.546677	2.92347
9.378512705897327	8.282169	2.8778758
9.396098427318728	8.098497	2.8457859
9.413684370530664	8.040711	2.835615
9.431270535955722	7.9338875	2.8167157
9.448856924016539	7.8958263	2.8099513
9.466443535135806	7.763408	2.7862892
9.484030369736251	7.782245	2.7896676
9.501617428240658	7.775303	2.788423
9.519204711071852	7.7674217	2.7870095
9.536792218652714	7.774182	2.788222
9.55437995140617	7.841784	2.8003185
9.571967909755191	7.886078	2.808216
9.589556094122802	7.893107	2.8094673
9.60714450493207	7.8415904	2.800284
9.624733142606116	7.858073	2.8032255
9.642322007568108	7.930152	2.8160524
9.659911100241267	8.015442	2.8311555
9.677500421048851	8.060858	2.839165
9.695089970414175	8.057814	2.8386288
9.712679748760609	8.032235	2.8341198
9.730269756511557	8.033748	2.8343866
9.747859994090492	8.073499	2.8413904
9.765450461920915	8.099135	2.845898
9.78304116042639	8.109721	2.847757
9.800632090030527	8.163544	2.8571916
9.81822325115699	8.177699	2.8596675
9.835814644229481	8.264158	2.874745
9.853406269671762	8.215365	2.866246
9.870998127907646	8.241482	2.870798
9.888590219360985	8.233039	2.8693273
9.906182544455698	8.291793	2.8795474
9.923775103615734	8.27723	2.8770175
9.941367897265108	8.328914	2.8859859
9.958960925827878	8.296914	2.8804364
9.97655418972816	8.273025	2.8762865
9.994147689390106	8.23838	2.8702579
10.011741425237934	8.27271	2.876232
10.029335397695904	8.260855	2.8741703
10.04692960718833	8.269152	2.8756132
10.06452405413958	8.237716	2.8701422
10.082118738974064	8.21842	2.8667786
10.099713662116246	8.221592	2.8673317
10.117308823990651	8.221235	2.8672698
10.134904225021844	8.208446	2.8650384
10.152499865634445	8.201024	2.863743
10.170095746253125	8.228236	2.8684902
10.18769186730261	8.139114	2.8529134
10.205288229207675	8.130949	2.851482
10.222884832393145	8.126499	2.8507016
10.2404816772839	8.132644	2.851779
10.258078764304868	8.16561	2.8575532
10.275676093881035	8.214936	2.8661711
10.293273666437438	8.13036	2.8513784
10.310871482399158	8.062219	2.8394046
10.32846954219134	8.053371	2.8378463
10.346067846239173	8.050674	2.837371
10.363666394967908	8.052071	2.8376172
10.38126518880283	8.072886	2.8412826
10.398864228169298	8.176031	2.859376
10.416463513492713	8.217593	2.8666344
10.434063045198531	8.152554	2.8552678
10.451662823712262	8.084997	2.8434129
10.469262849459467	8.080752	2.8426664
10.486863122865758	8.088426	2.8440158
10.504463644356806	8.143115	2.8536143
10.522064414358338	8.105389	2.8469963
10.539665433296118	8.073725	2.84143
10.557266701595987	7.9590955	2.8211868
10.574868219683818	7.860645	2.8036842
10.592469987985552	7.701335	2.775128
10.610072006927185	7.561826	2.7498775
10.627674276934751	7.4757247	2.734177
10.64527679843435	7.3723197	2.7152016
10.662879571852143	7.286516	2.699355
10.680482597614331	7.2361164	2.6900032
10.698085876147173	7.125251	2.6693165
10.715689407876988	7.015327	2.6486464
10.733293193230146	6.8279305	2.613031
10.750897232633072	6.722317	2.5927432
10.76850152651225	6.6792984	2.5844338
10.786106075294207	6.5982738	2.5687106
10.803710879405534	6.50804	2.551086
10.821315939272877	6.3862896	2.5271108
10.83892125532294	6.301124	2.510204
10.856526827982472	6.2346334	2.4969249
10.874132657678285	6.2547746	2.5009546
10.891738744837243	6.2307267	2.4961424
10.909345089886271	6.157667	2.4814646
10.926951693252343	6.1030307	2.4704313
10.944558555362494	6.0699778	2.4637325
10.96216567664381	6.0696654	2.463669
10.979773057523436	5.9997706	2.4494429
10.997380698428573	5.901348	2.429269
11.014988599786477	5.7944827	2.4071732
11.032596762024461	5.7167783	2.3909786
11.050205185569892	5.613595	2.3693027
11.067813870850198	5.5710998	2.3603177
11.085422818292859	5.5256824	2.350677
11.10303202832541	5.4602866	2.3367257
11.120641501375454	5.362585	2.3157256
11.138251237870636	5.273923	2.2965024
11.155861238238671	5.2821608	2.2982953
11.173471502907317	5.2635736	2.2942479
11.191082032304402	5.2160497	2.2838674
11.208692826857805	5.1358786	2.2662477
11.226303886995465	5.0811076	2.2541313
11.243915213145371	5.015291	2.2394845
11.261526805735578	4.9305263	2.2204788
11.279138665194196	4.879424	2.208942
11.296750791949393	4.8006606	2.191041
11.314363186429393	4.7221622	2.1730537
11.331975849062479	4.671685	2.1614082
11.34958878027699	4.6247787	2.1505299
11.36720198050133	4.6138697	2.147992
11.384815450163948	4.581413	2.1404235
11.402429189693366	4.545659	2.132055
11.420043199518153	4.506886	2.1229427
11.437657480066942	63.48235	7.9675813
11.455272031768422	85.16831	9.228668
11.472886855051353	107.57004	10.371597
11.490501950344528	99.15276	9.957548
11.508117318076819	84.49662	9.192204
11.52573295867715	45.86813	6.7726016
11.543348872574514	4.182306	2.0450687
11.560965060197946	4.1162376	2.0288513
11.57858152197655	4.0836697	2.0208092
11.59619825833949	4.0264597	2.006604
11.613815269715985	3.9892144	1.9973018
11.631432556535323	38.517323	6.2062325
11.649050119226837	83.094925	9.115642
11.666667958219929	93.48303	9.668662
11.68428607394406	107.70258	10.377986
11.701904466828756	82.532646	9.084748
11.719523137303586	65.38232	8.085934
11.737142085798196	4.640384	2.154155
11.754761312742286	3.7505438	1.936632
11.772380818565619	3.7186222	1.928373
11.790000603698015	3.667765	1.915141
11.80762066856935	3.6153803	1.9014153
11.825241013609572	3.5867584	1.8938739
11.842861639248683	3.5555906	1.8856274
11.860482545916748	3.5566115	1.8858981
11.878103734043883	3.5355825	1.8803145
11.895725204060282	3.4538095	1.8584428
11.91334695639619	3.3391898	1.827345
11.930968991481919	3.280339	1.8111706
11.948591309747824	3.3217134	1.8225569
11.966213911624347	3.3479621	1.8297437
11.98383679754198	3.3630335	1.8338575
12.001459967931268	3.3172607	1.8213348
12.019083423222835	3.299749	1.816521
12.036707163847352	3.2785487	1.8106763
12.05433119023556	3.2629497	1.8063637
12.071955502818259	3.2071552	1.7908533
12.089580102026313	3.150846	1.7750622
12.107204988290643	3.1281345	1.7686533
12.12483016204224	3.1125107	1.7642308
12.142455623712152	3.103358	1.7616351
12.16008137373149	3.108926	1.7632147
12.177707412531431	3.1084747	1.7630867
12.19533374054321	3.0784833	1.7545607
12.212960358198126	3.0417879	1.7440722
12.230587265927545	3.020134	1.7378533
12.248214464162889	3.018277	1.7373189
12.265841953335649	3.038664	1.7431765
12.283469733877375	3.0245702	1.7391292
12.301097806219685	3.0050395	1.733505
12.31872617079425	2.9768584	1.7253574
12.336354828032825	2.9294856	1.711574
12.353983778367205	2.9220707	1.7094065
12.371613022229262	2.878827	1.6967107
12.389242560050928	2.9132273	1.7068179
12.406872392264201	2.8752453	1.6956549
12.424502519301143	2.8720276	1.6947057
12.442132941593874	2.8514102	1.6886119
12.459763659574586	2.8260043	1.6810724
12.477394673675532	2.8293242	1.6820595
12.49502598432903	2.8025136	1.674071
12.51265759196746	2.8138177	1.6774439
12.530289497023267	2.7986057	1.6729034
12.547921699928967	2.7748253	1.6657807
12.565554201117134	2.7594388	1.6611558
12.583187001020404	2.7612906	1.6617131
12.600820100071486	2.7723584	1.66504
12.618453498703152	2.7920532	1.6709439
12.636087197348235	2.7897272	1.6702477
12.65372119643964	2.7811294	1.6676718
12.671355496410326	2.7545605	1.6596868
12.68899009769333	2.7575588	1.6605899
12.706625000721749	2.7957807	1.6720588
12.724260205928752	2.882322	1.6977403
12.741895713747551	2.9183316	1.7083125
12.759531524611454	3.0017242	1.7325485
12.777167638953818	3.0162532	1.7367364
12.794804057208072	3.0213852	1.7382132
12.812440779807702	3.0366366	1.7425948
12.830077807186271	3.2000206	1.7888601
12.847715139777405	3.218113	1.7939099
12.865352778014795	3.4317603	1.8525012
12.882990722332197	3.530231	1.8788909
12.90062897316344	3.595414	1.8961576
12.918267530942412	3.679886	1.9183029
12.935906396103071	3.5851908	1.89346
12.953545569079449	3.809005	1.9516672
12.971185050305628	3.665359	1.9145128
12.988824840215775	3.7126591	1.9268261
13.006464939244115	3.688807	1.9206268
13.024105347824943	3.535592	1.880317
13.041746066392617	3.599778	1.8973081
13.05938709538157	3.4053278	1.845353
13.077028435226296	3.4059007	1.8455082
13.094670086361363	3.282191	1.8116819
13.112312049221401	3.162071	1.7782212
13.129954324241112	3.0805686	1.7551548
13.147596911855258	2.903267	1.7038976
13.165239812498685	2.8467178	1.6872219
13.182883026606293	2.7723186	1.6650281
13.200526554613058	2.7029223	1.6440567
13.218170396954017	2.712646	1.6470113
13.235814554064284	2.7048318	1.6446373
13.253459026379034	2.696774	1.6421857
13.271103814333523	2.663074	1.6318928
13.288748918363058	2.6647472	1.6324054
13.306394338903031	2.6418693	1.6253828
13.32404007638889	2.6526167	1.6286856
13.341686131256164	2.6639197	1.6321518
13.359332503940449	2.6893332	1.6399187
13.376979194877402	2.6778889	1.6364256
13.394626204502751	2.732412	1.653001
13.412273533252307	2.7576153	1.6606069
13.429921181561937	2.7755294	1.665992
13.447569149867581	2.7865493	1.669296
13.465217438605247	2.7872548	1.6695074
13.482866048211022	2.7529078	1.6591889
13.500514979121052	2.7308335	1.6525234
13.518164231771568	2.7319455	1.6528598
13.535813806598844	2.719164	1.6489887
13.553463704039254	2.6965857	1.6421283
13.571113924529229	2.6705544	1.634183
13.588764468505275	2.700284	1.643254
13.606415336403956	2.7295232	1.6521269
13.624066528661917	2.7302263	1.6523397
13.641718045715882	2.766716	1.6633449
13.659369888002635	2.839904	1.6852015
13.67702205595903	2.8967252	1.7019769
13.694674550021993	2.9886346	1.7287668
13.712327370628532	3.0778985	1.754394
13.729980518215713	3.1849856	1.7846528
13.747633993220681	3.2200687	1.7944549
13.765287796080647	3.234619	1.7985046
13.7829419272329	3.255934	1.8044207
13.800596387114801	3.2727888	1.809085
13.818251176163775	3.2806206	1.8112483
13.835906294817324	3.3085172	1.818933
13.853561743513023	3.37955	1.8383552
13.871217522688525	3.428305	1.8515682
13.888873632781538	3.4320638	1.852583
13.906530074229858	3.4490619	1.857165
13.92418684747135	3.4676716	1.8621686
13.941843952943948	3.4610324	1.8603851
13.959501391085665	3.4590013	1.8598391
13.977159162334578	3.3951063	1.8425814
13.994817267128846	3.3654969	1.834529
14.012475705906693	3.2643757	1.8067583
14.030134479106424	3.1855655	1.7848152
14.047793587166414	3.130919	1.7694403
14.065453030525108	3.0843775	1.7562397
14.083112809621026	3.0404313	1.7436832
14.100772924892766	2.9155626	1.7075019
14.118433376778997	2.8482444	1.6876743
14.136094165718458	2.8164737	1.6782353
14.153755292149969	2.794046	1.67154
14.171416756512416	2.7165616	1.6481994
14.189078559244768	2.6412973	1.6252068
14.20674070078606	2.5561287	1.5987898
14.224403181575408	2.52843	1.5901037
14.242066002051999	2.4866257	1.5769038
14.259729162655093	2.4967318	1.580105
14.277392663824022	2.484411	1.5762014
14.295056505998208	2.4626367	1.5692791
14.312720689617128	2.4290838	1.5585518
14.330385215120348	2.3745487	1.5409571
14.348050082947497	2.3422484	1.5304406
14.3657152935383	2.3347566	1.527991
14.383380847332528	2.3285027	1.5259432
14.401046744770051	2.3448164	1.5312793
14.418712986290798	2.3912961	1.5463816
14.436379572334793	2.4188771	1.555274
14.454046503342123	2.4072812	1.5515416
14.471713779752946	2.3945854	1.5474448
14.489381402007504	2.3989894	1.5488671
14.507049370546113	2.3680162	1.538836
14.524717685809168	2.3746386	1.5409862
14.542386348237134	2.378123	1.5421164
14.560055358270553	2.395969	1.5478917
14.577724716350051	2.4300168	1.5588511
14.595394422916325	2.4107862	1.5526706
14.61306447841015	2.396627	1.5481043
14.63073488327237	2.4114506	1.5528846
14.648405637943917	2.436149	1.5608168
14.6660767428658	2.4342384	1.5602046
14.683748198479094	2.4689333	1.5712839
14.701420005224954	2.5258236	1.589284
14.719092163544628	2.5896893	1.6092511
14.73676467387942	2.6379008	1.6241616
14.754437536670727	2.6609166	1.6312317
14.772110752360014	2.6863348	1.6390042
14.78978432138882	2.6712708	1.6344023
14.807458244198777	2.7049408	1.6446704
14.82513252123159	2.7065415	1.645157
14.842807152929028	2.7217488	1.6497724
14.860482139732962	2.6556506	1.6296167
14.87815748208531	2.6436296	1.6259242
14.8958331804281	2.6746721	1.6354425
14.91350923520342	2.7018073	1.6437175
14.931185646853438	2.7352755	1.6538669
14.948862415820408	2.7045395	1.6445484
14.966539542546656	2.6786213	1.6366494
14.98421702747459	2.6001256	1.6124905
15.001894871046696	2.6021845	1.6131288
15.019573073705542	2.573071	1.6040795
15.037251635893766	2.5531125	1.5978462
15.054930558054092	2.5512555	1.597265
15.072609840629323	2.56302	1.6009434
15.090289484062351	2.7270575	1.6513804
15.107969488796124	3.0622337	1.749924
15.125649855273691	3.5307384	1.8790259
15.14333058393817	4.041421	2.0103285
15.161011675232768	4.98336	2.232344
15.17869312960076	6.3372407	2.5173876
15.196374947485506	8.180786	2.8602073
15.214057129330447	11.190994	3.3452942
15.231739675579114	15.848529	3.9810212
15.249422586675102	20.953966	4.5775504
15.267105863062092	24.144978	4.913754
15.284789505183847	24.59814	4.9596515
15.302473513484218	22.630589	4.7571616
15.320157888407127	19.142466	4.3752103
15.337842630396578	14.853493	3.854023
15.355527739896656	11.496536	3.3906543
15.37321321735153	8.810543	2.968256
15.39089906320545	6.3893743	2.5277212
15.408585277902748	4.7981725	2.190473
15.42627186188783	3.7834024	1.945097
15.443958815605198	3.2557318	1.8043647
15.461646139499424	2.9607844	1.720693
15.479333834015168	2.7893722	1.6701413
15.497021899597165	2.68869	1.6397225
15.514710336690234	2.6071603	1.6146704
15.53239914573928	2.5486124	1.5964375
15.550088327189297	2.5177457	1.5867406
15.567777881485336	2.521989	1.5880772
15.58546780907256	2.558958	1.5996743
15.6031581103962	2.5545094	1.5982833
15.620848785901568	2.5170622	1.5865252
15.638539836034063	2.480721	1.5750304
15.656231261239173	2.4735947	1.5727665
15.673923061962451	2.4557881	1.5670954
15.691615238649552	2.4749827	1.5732077
15.709307791746202	2.4328322	1.5597539
15.727000721698221	2.41668	1.5545675
15.744694028951498	2.4021027	1.5498718
15.76238771395202	2.3759615	1.5414155
15.780081777145844	2.3732224	1.5405266
15.797776218979125	2.3808613	1.543004
15.815471039898094	2.3770373	1.5417644
15.833166240349064	2.3657606	1.5381029
15.850861820778437	2.3555284	1.5347731
15.868557781632699	2.3600419	1.5362427
15.886254123358412	2.3773093	1.5418526
15.903950846402232	2.4003074	1.5492926
15.921647951210897	2.4013553	1.5496306
15.939345438231225	2.4159205	1.5543232
15.957043307910133	2.4105008	1.5525787
15.974741560694602	2.4084187	1.551908
15.992440197031714	2.4017203	1.5497484
16.01013921736862	2.4007635	1.5494398
16.02783862215259	2.427951	1.5581884
16.045538411830933	2.4467204	1.5641996
16.06323858685107	2.442862	1.5629658
16.080939147660512	2.4428208	1.5629526
16.09864009470684	2.4277134	1.5581121
16.11634142843774	2.428622	1.5584037
16.134043149300954	2.4212484	1.5560361
16.15174525774433	2.375604	1.5412995
16.169447754215817	2.3709097	1.5397758
16.18715063916342	2.3646498	1.5377418
16.204853913035244	2.4241998	1.5569842
16.222557576279478	2.460614	1.5686344
16.240261629344403	22.476856	4.7409763
16.257966072678386	42.997322	6.5572343
16.275670906729868	38.094448	6.17207
16.293376131947387	2.5351794	1.5922247
16.31108174877957	2.5483205	1.596346
16.328787757675133	2.5853226	1.6078938
16.34649415908287	2.5977461	1.6117525
16.364200953451657	2.6185722	1.6182003
16.38190814123048	2.6342502	1.6230373
16.39961572286839	2.6579814	1.6303316
16.41732369881455	2.7041817	1.6444396
16.43503206951817	2.7561123	1.6601543
16.45274083542859	2.771398	1.6647516
16.47044999699522	2.7813356	1.6677337
16.488159554667558	2.8581688	1.690612
16.505869508895184	2.851132	1.6885295
16.523579860127786	2.8697302	1.6940278
16.541290608815117	2.9208748	1.7090567
16.559001755407035	3.0306065	1.7408637
16.57671330035348	3.0891032	1.7575845
16.59442524410448	3.1639745	1.7787565
16.61213758711015	3.1783605	1.7827957
16.629850329820705	3.2354033	1.7987227
16.647563472686436	3.340896	1.8278117
16.665277016157724	3.4072068	1.845862
16.682990960685053	3.4160128	1.8482459
16.70070530671898	3.431452	1.852418
16.718420054710155	3.4795284	1.8653494
16.736135205109335	3.5097718	1.8734385
16.753850758367335	3.516691	1.8752842
16.771566714935087	3.5812526	1.8924198
16.789283075263597	3.6688309	1.9154192
16.80699983980398	3.7597713	1.939013
16.82471700900741	3.8170772	1.9537342
16.84243458332518	3.884055	1.9708005
16.860152563208665	3.938171	1.9844825
16.87787094910932	3.984594	1.9961448
16.89558974147871	4.0932965	2.0231898
16.913308940768466	4.145822	2.0361292
16.931028547430333	4.1709657	2.0422943
16.94874856191613	4.2295995	2.056599
16.966468984677785	4.304892	2.0748234
16.98418981616729	4.399396	2.0974736
17.00191105683676	4.4345813	2.1058445
17.019632707138374	4.4644094	2.1129148
17.03735476752442	4.4738173	2.11514
17.05507723844728	4.5248227	2.1271632
17.072800120359403	4.609347	2.146939
17.090523413713353	4.651447	2.1567214
17.108247118961785	4.672467	2.1615891
17.125971236557437	4.679932	2.163315
17.143695766953133	4.6527853	2.1570315
17.161420710601806	4.6822248	2.1638448
17.179146067956477	4.713827	2.171135
17.19687183947025	4.754674	2.1805215
17.21459802559634	4.711408	2.1705778
17.232324626788028	4.6806	2.1634696
17.25005164349871	4.65689	2.1579828
17.267779076181863	4.634282	2.1527383
17.285506925291074	4.5587173	2.1351154
17.30323519127999	4.560212	2.1354654
17.320963874602384	4.549837	2.1330347
17.33869297571211	4.5773444	2.139473
17.356422495063114	4.521729	2.1264358
17.37415243310944	4.4670115	2.1135306
17.391882790305218	4.4191303	2.1021729
17.40961356710468	4.4530077	2.1102152
17.42734476396215	4.475379	2.1155093
17.445076381332044	4.4985533	2.1209793
17.462808419668868	4.5554414	2.134348
17.48054087942723	4.73047	2.1749644
17.498273761061835	4.9762983	2.2307618
17.51600706502747	5.453034	2.3351731
17.533740791779024	6.15007	2.4799335
17.551474941771485	7.5833173	2.7537823
17.56920951545993	8.702185	2.9499466
17.586944513299528	10.841876	3.2927005
17.60467993574556	12.517447	3.5380006
17.622415783253373	14.285275	3.7795868
17.64015205627843	15.811712	3.9763944
17.657888755276293	17.00304	4.123474
17.675625880702604	17.554691	4.1898317
17.69336343301311	17.392437	4.170424
17.71110141266366	16.482452	4.059859
17.728839820110178	15.495014	3.9363706
17.746578655808705	14.548699	3.8142757
17.764317920215372	13.0802	3.6166558
17.7820576137864	11.517391	3.3937283
17.79979773697811	9.468622	3.0771127
17.81753829024692	7.5162635	2.7415805
17.835279274049356	5.8144403	2.411315
17.85302068884201	4.8176827	2.194922
17.870762535081607	4.2223296	2.0548308
17.888504813224934	3.9030294	1.9756086
17.90624752372891	3.6952446	1.9223019
17.923990667050536	3.5685356	1.8890568
17.941734243646895	3.5165224	1.8752393
17.959478253975185	3.4727614	1.8635347
17.9772226984927	3.4675167	1.862127
17.994967577656833	3.4123087	1.8472435
18.01271289192506	3.4012167	1.8442388
18.030458641754965	3.3763173	1.8374758
18.04820482760425	3.310952	1.8196021
18.06595144993067	3.261196	1.8058782
18.083698509192125	3.226973	1.7963778
18.101446005846576	3.213363	1.7925855
18.119193940352105	3.2238784	1.7955161
18.136942313166887	3.213281	1.7925627
18.1546911247492	3.1934743	1.7870295
18.1724403755574	3.1517293	1.7753111
18.19019006604997	3.1477807	1.7741987
18.207940196685467	3.2013607	1.7892346
18.225690767922575	3.2204342	1.7945569
18.243441780220046	3.191006	1.7863387
18.261193234036764	3.1074903	1.7628075
18.278945129831676	3.0547247	1.7477771
18.29669746806386	3.0499783	1.7464187
18.314450249192483	3.0214055	1.738219
18.3322034736768	3.0157979	1.7366053
18.349957141976184	3.0029478	1.7329016
18.3677112545501	3.069312	1.7519453
18.385465811858108	3.0706859	1.7523372
18.403220814359884	3.0875487	1.7571422
18.420976262515172	3.119174	1.7661183
18.43873215678387	3.1946898	1.7873695
18.456488497625923	3.2194545	1.7942839
18.474245285501407	3.2518096	1.8032775
18.492002520870486	3.262136	1.8061384
18.50976020419343	3.3312151	1.8251617
18.527518335930615	3.6319518	1.905768
18.545276916542516	4.240457	2.059237
18.563035946489688	4.429943	2.104743
18.580795426232832	4.89905	2.2133799
18.598555356232698	4.805029	2.1920376
18.616315736950185	5.124853	2.2638137
18.63407656884626	4.761357	2.1820533
18.65183785238201	4.8923626	2.2118685
18.669599588018617	4.6269364	2.1510315
18.68736177621737	4.583348	2.1408756
18.705124417439652	4.583332	2.1408718
18.72288751214696	4.428956	2.1045084
18.740651060800886	4.591855	2.1428614
18.758415063863115	4.3092265	2.0758677
18.77617952179546	4.482765	2.1172543
18.793944435059814	4.2812395	2.0691156
18.811709804118184	4.2956796	2.072602
18.829475629432675	4.2417216	2.059544
18.8472419114655	4.0250406	2.0062504
18.86500865067897	4.0906787	2.0225427
18.88277584753551	3.7795475	1.9441059
18.90054350249763	3.7742443	1.9427414
18.918311616027957	3.474447	1.8639868
18.936080188589226	3.3543222	1.8314809
18.953849220644265	3.0193489	1.7376274
18.971618712656007	2.8180933	1.6787177
18.9893886650875	2.7571712	1.6604732
19.007159078401887	8.0329	2.834237
19.024929953062408	32.942936	5.7395935
19.042701289532435	32.935207	5.73892
19.060473088275405	25.435953	5.043407
19.07824534975489	2.6926394	1.6409264
19.096018074434568	2.6362991	1.6236684
19.113791262778197	2.64877	1.6275042
19.13156491524966	2.6138558	1.6167424
19.149339032312945	2.617011	1.6177179
19.167113614432136	2.5829513	1.6071563
19.184888662071433	2.5659187	1.6018485
19.202664175695123	2.532207	1.591291
19.220440155767623	2.5663006	1.6019677
19.238216602753447	2.5931814	1.6103358
19.2559935171172	2.5854125	1.6079218
19.27377089932361	2.5495203	1.5967218
19.291548749837514	2.5307727	1.5908402
19.309327069123835	2.516241	1.5862664
19.32710585764763	2.4864762	1.5768564
19.344885115874032	2.4577048	1.5677068
19.362664844268313	2.4754703	1.5733627
19.380445043295822	2.5057752	1.5829641
19.39822571342203	2.5183659	1.586936
19.41600685511252	2.5123186	1.5850295
19.43378846883297	2.4965856	1.5800587
19.451570555049173	2.4873493	1.5771333
19.469353114227037	2.5002606	1.5812212
19.48713614683254	2.512556	1.5851045
19.50491965333182	2.5146294	1.5857583
19.52270363419109	2.4826102	1.5756301
19.540488089876686	2.4872391	1.5770984
19.55827302085503	2.5116315	1.5848128
19.576058427592674	2.5343492	1.5919639
19.593844310556282	2.5199661	1.5874401
19.611630670212598	2.5239103	1.5886819
19.629417507028506	2.517643	1.5867082
19.64720482147098	2.497072	1.5802126
19.6649926140071	2.458	1.567801
19.682780885104084	2.4718885	1.572224
19.70056963522921	2.4889388	1.5776371
19.718358864849908	2.519093	1.5871651
19.7361485744337	2.5281746	1.5900235
19.753938764448215	2.5126162	1.5851234
19.771729435361202	2.521678	1.5879792
19.789520587640506	2.5059118	1.5830072
19.807312221754092	2.4636264	1.5695944
19.825104338170043	2.4634223	1.5695293
19.842896937356517	2.4573603	1.567597
19.860690019781824	2.469506	1.5714662
19.87848358591436	2.4667137	1.5705775
19.896277636222635	2.4809904	1.575116
19.914072171175278	2.4888034	1.5775942
19.931867191241015	2.5121276	1.5849693
19.94966269688869	2.4841146	1.5761074
19.967458688587264	2.473966	1.5728846
19.985255166805807	2.4560034	1.5671642
20.00305213201348	2.4958296	1.5798194
20.020849584679578	2.5077956	1.5836021
20.038647525273507	2.5331361	1.5915829
20.05644595426477	2.5387008	1.5933301
20.07424487212299	2.5186832	1.587036
20.092044279317903	2.4531455	1.5662521
20.109844176319353	2.3942344	1.5473313
20.127644563597304	2.4022977	1.5499347
20.145445441621817	2.4282153	1.5582732
20.16324681086307	2.4137492	1.5536245
20.181048671791373	2.4056275	1.5510086
20.198851024877122	2.4016116	1.5497134
20.216653870590836	2.4200616	1.5556548
20.234457209403146	2.4003923	1.54932
20.252261041784802	2.3725846	1.5403197
20.270065368206662	2.3390052	1.5293807
20.287870189139685	2.3205292	1.5233283
20.305675505054968	2.3221672	1.5238658
20.323481316423702	2.347821	1.5322601
20.341287623717207	2.384316	1.544123
20.359094427406884	2.40238	1.5499613
20.376901727964288	2.3642578	1.5376143
20.39470952586107	2.3395033	1.5295435
20.41251782156899	2.334429	1.5278839
20.430326615559935	2.3291883	1.5261679
20.448135908305886	2.3462484	1.5317469
20.465945700278965	2.3297439	1.5263499
20.483755991951384	2.346109	1.5317013
20.50156678379548	2.3378012	1.528987
20.519378076283708	2.3110366	1.5202094
20.537189869888635	2.287256	1.5123677
20.55500216508294	2.2772996	1.5090724
20.572814962339415	2.3083694	1.5193319
20.59062826213098	2.3312833	1.526854
20.60844206493066	2.342968	1.5306756
20.626256371211593	2.329276	1.5261966
20.644071181447032	2.297404	1.5157189
20.66188649611036	2.2472718	1.4990903
20.67970231567506	2.2642577	1.504745
20.697518640614742	2.2758358	1.5085874
20.715335471403122	2.291409	1.5137401
20.73315280851404	2.2693381	1.5064323
20.750970652421447	2.2722814	1.5074089
20.768789003599412	2.277136	1.5090183
20.786607862522136	2.260499	1.5034956
20.8044272296639	2.248277	1.4994255
20.82224710549913	2.2858996	1.5119191
20.84006749050237	2.271694	1.507214
20.857888385148268	3.8375592	1.9589689
20.8757097899116	45.914265	6.7760067
20.893531705267254	64.80107	8.0499115
20.911354131690224	83.85065	9.157
20.92917706965566	69.11831	8.313743
20.94700051963877	50.176834	7.083561
20.96482448211493	29.40996	5.423095
20.982648957559622	4.0968323	2.0240633
21.00047394644843	2.1951144	1.4815918
21.01829944925707	2.224042	1.4913222
21.036125466461375	2.26234	1.5041077
21.053951998537297	2.2617605	1.5039151
21.071779045960906	2.2383165	1.4961004
21.089606609208378	2.2399828	1.4966573
21.10743468875603	2.238361	1.4961152
21.12526328508028	2.2637346	1.5045712
21.143092398657675	2.271717	1.5072217
21.16092202996488	2.2493036	1.4997679
21.17875217947867	2.2207367	1.4902136
21.19658284767596	2.1969287	1.482204
21.21441403503377	2.2046008	1.4847898
21.232245742029225	2.2053177	1.4850312
21.2500779691396	2.2184932	1.4894607
21.26791071684227	2.223002	1.4909735
21.28574398561475	2.1793497	1.4762621
21.30357777593465	2.119195	1.4557455
21.321412088279704	2.0989347	1.44877
21.339246923127792	2.1414766	1.4633785
21.357082280956888	2.1641197	1.4710947
21.3749181622451	2.1677063	1.4723133
21.392754567470647	2.1384106	1.4623306
21.41059149711187	2.1287878	1.4590366
21.42842895164726	2.1166022	1.4548547
21.446266931555378	2.0846767	1.443841
21.464105437314945	2.0818443	1.4428598
21.481944469404798	2.0804513	1.442377
21.49978402830388	2.1138933	1.4539235
21.51762411449127	2.1492465	1.4660308
21.53546472844617	2.157358	1.4687947
21.553305870647876	2.1597214	1.469599
21.571147541575865	2.1133296	1.4537295
21.58898974170967	2.104575	1.4507153
21.60683247152899	2.1123452	1.453391
21.62467573151363	2.1007478	1.4493957
21.642519522143523	2.0553699	1.4336561
21.660363843898722	2.024058	1.422694
21.6782086972594	2.0102117	1.4178194
21.696054082705864	1.9914473	1.4111865
21.713900000718535	2.004564	1.4158263
21.73174645177795	2.0054677	1.4161453
21.749593436364794	2.0290942	1.4244628
21.767440954959845	2.0611932	1.4356856
21.785289008044032	2.0728898	1.4397534
21.803137596098388	2.06176	1.435883
21.820986719604086	2.0317032	1.4253783
21.838836379042412	2.0234303	1.4224733
21.85668657489478	2.0238001	1.4226032
21.87453730764273	2.0174196	1.420359
21.892388577767914	2.0106528	1.4179748
21.91024038575213	2.0365489	1.427077
21.928092732077285	2.072184	1.4395083
21.945945617225426	2.0731573	1.4398463
21.963799041678694	2.0549364	1.4335049
21.981653005919398	31.362978	5.600266
21.999507510429943	78.18065	8.841982
22.01736255569286	73.15112	8.552843
22.035218142190818	4.2181935	2.0538242
22.05307427040661	1.987567	1.409811
22.07093094082315	1.9782814	1.4065139
22.088788153923474	1.9906371	1.4108994
22.106645910190746	2.0054288	1.4161316
22.12450421010827	1.9942248	1.4121703
22.142363054159464	1.9896388	1.4105456
22.16022244282787	1.9953983	1.4125856
22.178082376597164	2.031574	1.4253329
22.195942855951145	2.0281856	1.4241438
22.213803881373742	2.003645	1.4155017
22.231665453349002	1.9613167	1.4004701
22.24952757236111	1.9412522	1.3932883
22.26739023889438	1.9090408	1.3816805
22.28525345343323	1.9280562	1.3885447
22.30311721646225	1.9763242	1.405818
22.320981528466113	2.0146298	1.4193766
22.33884638992964	1.9853785	1.4090346
22.356711801337788	1.9851555	1.4089555
22.37457776317561	1.9705164	1.4037509
22.392444275928337	1.9610398	1.4003713
22.410311340081282	1.936627	1.3916274
22.428178956119904	1.91218	1.382816
22.446047124529805	1.9191096	1.3853194
22.46391584579669	1.920911	1.3859693
22.481785120406414	1.9540699	1.3978804
22.49965494884496	1.9426697	1.3937969
22.51752533159841	1.9421381	1.3936062
22.53539626915302	1.9658691	1.4020945
22.553267761995137	1.9587035	1.3995368
22.571139810611264	1.9525181	1.3973254
22.589012415488025	1.9391495	1.3925335
22.60688557711216	1.967744	1.402763
22.624759295970566	1.9484776	1.3958788
22.642633572550263	1.9800302	1.4071355
22.660508407338362	1.9611856	1.4004234
22.67838380082217	1.9711896	1.4039906
22.696259753489077	1.9444224	1.3944255
22.714136265826614	1.9169488	1.3845392
22.73201333832246	1.9356749	1.3912853
22.74989097146439	1.9577854	1.3992088
22.76776916574035	1.9570594	1.3989494
22.785647921638393	1.9317681	1.3898805
22.803527239646712	1.9160419	1.3842117
22.82140712025363	1.9034045	1.3796393
22.839287563947593	1.9110122	1.3823936
22.85716857121719	1.9194565	1.3854445
22.875050142551135	1.9091116	1.381706
22.892932278438277	1.8881261	1.374091
22.910814979367604	1.8864701	1.3734883
22.928698245828222	1.8979151	1.3776484
22.946582078309387	1.9536681	1.3977368
22.96446647730047	1.9466546	1.3952256
22.98235144329098	1.9129165	1.3830823
23.000236976770562	1.9320363	1.3899771
23.018123078229	1.9045376	1.3800498
23.03600974815619	1.8752613	1.3694018
23.053896987042194	1.8831558	1.3722812
23.071784795377173	1.9212658	1.3860973
23.08967317365145	1.9334023	1.3904684
23.10756212235546	1.953281	1.3975983
23.125451641979787	1.967229	1.4025794
23.143341733015134	1.9965667	1.4129992
23.161232395952357	1.9820328	1.4078468
23.179123631282426	1.9664453	1.4023
23.197015439496468	1.9482418	1.3957944
23.214907821085717	1.9191979	1.3853512
23.23280077654157	1.8937868	1.3761493
23.250694306355538	1.9232577	1.3868157
23.268588411019277	1.9575756	1.3991338
23.28648309102458	1.9976181	1.4133712
23.304378346863356	1.9718195	1.4042149
23.322274179027676	1.9170631	1.3845805
23.340170588009723	1.8933724	1.3759987
23.358067574301852	1.9454188	1.3947827
23.37596513839651	1.976194	1.4057717
23.39386328078629	1.9938068	1.4120222
23.411762001963947	1.9597826	1.3999224
23.429661302422353	1.9209331	1.3859773
23.4475611826545	1.8909379	1.3751138
23.46546164315356	1.8888384	1.3743502
23.48336268441279	1.9158413	1.3841392
23.501264306925638	1.9478989	1.3956715
23.51916651118564	1.9396818	1.3927246
23.537069297686497	1.9056549	1.3804547
23.554972666922037	1.913891	1.3834345
23.57287661938623	1.95163	1.3970075
23.59078115557318	1.9215467	1.3861986
23.608686275977128	1.8768854	1.3699946
23.62659198109246	1.884955	1.3729366
23.6444982714137	1.9147618	1.3837491
23.66240514743549	1.92148	1.3861746
23.68031260965263	1.9170604	1.3845795
23.698220658560068	1.8976028	1.377535
23.716129294652845	1.9107305	1.3822918
23.7340385184262	1.9436047	1.3941323
23.75194833037546	1.9193686	1.3854128
23.769858730996123	1.8742478	1.3690317
23.78776972078382	1.8638731	1.3652374
23.80568130023431	1.8870467	1.3736982
23.823593469843495	1.8719529	1.3681933
23.841506230107424	1.8600549	1.3638383
23.859419581522275	1.867973	1.3667381
23.87733352458438	1.8967911	1.3772404
23.89524805979019	1.922672	1.3866045
23.913163187636318	1.9247202	1.3873428
23.931078908619508	1.9197255	1.3855416
23.948995223236633	1.9453173	1.3947463
23.966912131984735	1.9784627	1.4065784
23.98482963536096	2.0165462	1.4200515
24.002747733862616	2.0249417	1.4230045
24.020666427987155	2.0228615	1.4222734
24.038585718232156	2.0127323	1.418708
24.056505605095353	2.0220504	1.4219881
24.074426089074617	2.0677598	1.4379708
24.092347170667946	2.049199	1.4315023
24.110268850373515	2.0404286	1.4284357
24.128191128689586	2.0540004	1.4331784
24.146114006114626	2.0523288	1.4325951
24.164037483147187	2.0711336	1.4391434
24.181961560286005	2.0805793	1.4424213
24.199886238029926	2.0630352	1.436327
24.21781151687797	2.040501	1.4284611
24.235737397329274	2.031343	1.425252
24.253663879883135	2.0177302	1.4204683
24.271590965038975	2.039543	1.4281256
24.289518653296376	2.0652125	1.4370847
24.30744694515505	2.0613344	1.4357347
24.32537584111486	2.03478	1.4264572
24.34330534167581	2.01968	1.4211545
24.361235447338046	2.0113642	1.4182258
24.379166158601876	1.9792374	1.4068538
24.39709747596772	1.9787879	1.4066939
24.41502939993615	2.000026	1.4142227
24.432961931007917	2.011084	1.418127
24.450895069683856	1.9582195	1.399364
24.468828816465	1.9450226	1.3946407
24.4867631718525	1.9774562	1.4062206
24.504698136347656	1.9843587	1.4086727
24.52263371045192	1.9772427	1.4061446
24.540569894666874	1.9584206	1.3994359
24.558506689494266	1.9060355	1.3805925
24.57644409543597	1.9120299	1.3827617
24.594382112994012	1.9380891	1.3921527
24.61232074267057	1.9465932	1.3952036
24.630259984967953	1.9309173	1.3895745
24.64819984038863	1.932162	1.3900223
24.66614030943522	1.9662495	1.4022301
24.684081392610462	1.9719062	1.4042457
24.702023090417274	1.9998177	1.4141492
24.7199654033587	1.9911382	1.411077
24.737908331937927	1.9822338	1.4079182
24.755851876658305	1.969257	1.4033022
24.773796038023324	2.0169752	1.4202025
24.79174081653661	2.0679123	1.4380238
24.809686212701962	2.0791984	1.4419426
24.827632227023294	2.0474815	1.4309024
24.8455788600047	2.0759938	1.440831
24.8635261121504	2.1083732	1.4520239
24.88147398396475	2.1431277	1.4639425
24.899422475952303	2.1274087	1.4585639
24.917371588617698	2.1335316	1.4606613
24.935321322465768	2.1557493	1.468247
24.953271678001478	2.2806652	1.5101871
24.97122265572994	2.4900742	1.5779969
24.989174256156414	2.782611	1.668116
25.00712647978632	3.2594864	1.8054048
25.02507932712521	3.8280115	1.9565305
25.043032798678798	4.3971367	2.096935
25.060986894952933	5.026152	2.241908
25.078941616453637	5.751779	2.3982866
25.096896963687055	6.706013	2.5895972
25.114852937159508	7.8082004	2.7943158
25.132809537377444	8.307228	2.8822262
25.150766764847468	8.311125	2.8829021
25.168724620076347	7.721084	2.778684
25.186683103570985	6.806583	2.608943
25.204642215838426	5.636943	2.3742247
25.222601957385894	4.2340302	2.0576758
25.24056232872074	3.1232488	1.7672715
25.25852333035048	2.5594034	1.5998136
25.276484962782778	2.209477	1.4864309
25.294447226525435	2.055834	1.433818
25.312410122086423	1.9655644	1.4019859
25.330373649973843	1.938582	1.3923297
25.348337810695988	1.9285471	1.3887213
25.366302604761245	1.9379259	1.3920941
25.384268032678207	1.9040679	1.3798797
25.40223409495558	1.859021	1.3634592
25.420200792102257	1.8941084	1.3762661
25.438168124627246	1.9059186	1.3805501
25.45613609303974	1.8982626	1.3777745
25.474104697849057	1.8287191	1.3523015
25.492073939564698	1.8236486	1.3504254
25.510043818696285	1.8563919	1.3624947
25.528014335753614	1.8811814	1.3715616
25.54598549124664	1.8716921	1.368098
25.56395728568544	1.8617302	1.3644524
25.58192971958028	1.8225464	1.3500172
25.59990279344156	1.8188964	1.3486646
25.617876507779833	1.8430432	1.3575872
25.635850863105826	1.8396285	1.3563291
25.653825859930386	1.8191205	1.3487477
25.671801498764548	1.8018861	1.3423434
25.68977778011949	1.830579	1.352989
25.707754704506524	1.8673263	1.3665015
25.725732272437153	1.8856393	1.3731859
25.743710484423012	1.86995	1.3674612
25.761689340975888	1.8776863	1.370287
25.77966884260774	1.8990418	1.3780572
25.797648989830662	1.881613	1.371719
25.815629783156922	1.8355792	1.3548355
25.83361122309895	1.798612	1.3411235
25.85159331016929	1.7794695	1.3339676
25.869576044880695	1.7926239	1.338889
25.887559427746034	1.7945584	1.3396113
25.90554345927836	1.8032374	1.3428468
25.92352813999086	1.8065038	1.3440624
25.94151347039689	1.7996587	1.3415135
25.959499451009965	1.8260349	1.3513086
25.97748608234374	1.8500931	1.3601813
25.995473364912062	1.833216	1.353963
26.013461299228904	1.8284545	1.3522036
26.03144988580839	1.8404098	1.356617
26.04943912516483	1.8815482	1.3716954
26.067429017812675	1.8701901	1.367549
26.085419564266537	1.8243625	1.3506896
26.103410765041186	1.7946779	1.3396559
26.12140262065155	1.8204268	1.349232
26.139395131612723	1.8520733	1.360909
26.157388298439948	1.8677878	1.3666704
26.17538212164861	1.8341811	1.3543195
26.193376601754295	1.7994784	1.3414464
26.211371739272714	1.7665086	1.3291006
26.229367534719746	1.7901481	1.3379642
26.247363988611433	1.809143	1.3450439
26.26536110146397	1.8382529	1.3558218
26.283358873793727	1.8646789	1.3655324
26.301357306117204	1.8697995	1.3674061
26.319356398951104	1.8250102	1.3509294
26.33735615281224	1.7896959	1.3377951
26.35535656821762	1.8080902	1.3446524
26.373357645684404	1.8275471	1.351868
26.39135938572991	1.8456722	1.3585552
26.409361788871614	1.8255831	1.3511415
26.427364855627165	1.773689	1.3317991
26.445368586514352	1.765769	1.3288224
26.46337298205115	1.8470436	1.3590598
26.48137804275568	1.8769708	1.3700259
26.499383769146217	1.8548859	1.3619419
26.517390161741215	1.7861149	1.3364561
26.53539722105928	1.7884457	1.3373278
26.553404947619182	1.8259233	1.3512673
26.571413341939856	1.7873424	1.3369153
26.589422404540397	1.7627113	1.3276714
26.60743213594006	1.7720796	1.3311948
26.62544253665827	1.7834255	1.3354496
26.64345360721459	1.7859608	1.3363985
26.66146534812879	1.8265201	1.3514881
26.679477759920758	1.8803349	1.371253
26.69749084311057	1.8826681	1.3721036
26.71550459821847	1.81439	1.346993
26.733519025764842	1.7761567	1.3327253
26.751534126270258	1.758619	1.3261293
26.769549900255434	1.7679447	1.3296409
26.787566348241267	1.8177795	1.3482505
26.80558347074881	1.8364822	1.3551687
26.823601268299267	1.8395697	1.3563074
26.841619741414036	1.8102947	1.345472
26.85963889061465	1.7839246	1.3356364
26.877658716422832	1.8168429	1.3479031
26.89567921936045	1.8649424	1.365629
26.913700399949544	1.826574	1.351508
26.93172225871233	1.8103818	1.3455043
26.949744796171174	1.7749856	1.3322859
26.967768012848605	1.7369201	1.3179227
26.98579190926733	1.7269412	1.3141314
27.003816485950225	1.753494	1.3241956
27.021841743420318	1.7677824	1.3295798
27.039867682200814	1.7725499	1.3313714
27.057894302815072	1.8026125	1.342614
27.07592160578664	1.7787012	1.3336796
27.0939495916392	1.7406894	1.3193519
27.111978260896635	1.8067142	1.3441406
27.13000761408296	1.8535285	1.3614435
27.148037651722397	1.8468971	1.3590059
27.166068374339304	1.8338814	1.3542087
27.184099782458215	1.8504843	1.3603251
27.20213187660384	1.8450474	1.3583252
27.22016465730105	1.840251	1.3565586
27.23819812507487	1.8100569	1.3453835
27.256232280450533	1.8156103	1.3474458
27.274267123953383	1.8419671	1.3571908
27.292302656108987	1.8830624	1.3722472
27.31033887744306	1.848394	1.3595566
27.32837578848146	1.7982798	1.3409995
27.34641338975026	1.7436016	1.3204551
27.364451681775673	1.7964716	1.3403252
27.382490665084074	1.7895238	1.3377309
27.400530340202046	1.8101975	1.3454357
27.41857070765629	1.8092571	1.3450863
27.436611767973726	1.803773	1.3430462
27.454653521681404	1.820312	1.3491894
27.472695969306564	1.8758866	1.3696301
27.490739111376627	1.8501064	1.3601861
27.508782948419153	1.8234116	1.3503376
27.526827480961902	1.8205222	1.3492672
27.54487270953279	1.8603727	1.3639548
27.562918634659898	1.8537108	1.3615105
27.580965256871508	1.8444232	1.3580954
27.599012576696026	1.8104094	1.3455145
27.617060594662068	1.7958697	1.3401006
27.63510931129842	1.8370948	1.3553947
27.65315872713401	1.8416563	1.3570764
27.67120884269797	1.8135897	1.3466959
27.68925965851958	1.8168026	1.3478882
27.707311175128307	1.8118616	1.3460541
27.725363393053787	1.8623534	1.3646808
27.74341631282583	1.9122902	1.3828558
27.7614699349744	1.9249572	1.3874283
27.77952426002968	2.1172574	1.4550798
27.797579288521973	2.1518443	1.4669166
27.815635020981784	2.4707673	1.5718675
27.83369145793979	2.5258753	1.5893003
27.85174859992682	2.3896294	1.5458426
27.869806447473923	2.235435	1.4951371
27.887865001112267	1.9729929	1.4046327
27.905924261373233	1.9508033	1.3967116
27.92398422878836	1.9734334	1.4047894
27.94204490388936	1.9326687	1.3902045
27.96010628720813	1.8916568	1.3753752
27.978168379276728	1.8581636	1.3631448
27.9962311806274	1.8426787	1.357453
28.014294691792568	1.8568445	1.3626609
28.0323589133048	1.878044	1.3704175
28.050423845696887	1.9198494	1.3855863
28.068489489501758	1.9071834	1.3810081
28.086555845252523	1.8490206	1.359787
28.104622913482487	1.8608288	1.3641219
28.122690694725115	1.9206834	1.3858873
28.14075918951405	1.9037505	1.3797647
28.15882839838312	1.9124515	1.3829142
28.176898321866304	1.919121	1.3853234
28.1949689604978	1.9551804	1.3982776
28.213040314811945	1.9472901	1.3954533
28.23111238534327	1.9413719	1.3933313
28.249185172626493	1.8988599	1.3779912
28.267258677196473	1.902165	1.37919
28.285332899588294	1.9391059	1.3925178
28.303407840337172	1.9852487	1.4089885
28.321483499978545	2.0074825	1.4168565
28.33955987904799	1.9661888	1.4022086
28.357636978081285	1.9079685	1.3812923
28.37571479761439	1.8876568	1.3739202
28.393793338183425	1.9276291	1.3883908
28.41187260032469	1.9687926	1.4031367
28.429952584574686	1.9592785	1.3997422
28.448033291470065	1.9441864	1.3943409
28.46611472154769	1.996427	1.4129498
28.484196875344566	2.0140297	1.4191651
28.502279753397914	2.036737	1.427143
28.52036335624511	1.9625634	1.4009151
28.538447684423716	1.9443171	1.3943877
28.556532738471482	1.931009	1.3896075
28.574618518926325	1.9803813	1.4072602
28.59270502632635	1.9741607	1.4050483
28.61079226120985	1.963159	1.4011277
28.628880224115274	1.9380773	1.3921485
28.646968915581287	1.8725234	1.3684018
28.66505833614671	1.8832492	1.3723153
28.68314848635055	1.9889889	1.4103152
28.701239366732004	2.0453088	1.430143
28.71933097783044	2.0970178	1.4481083
28.737423320185403	2.1065605	1.4513994
28.75551639433665	2.1572669	1.4687637
28.773610200824074	2.124308	1.4575007
28.791704740187793	2.09316	1.4467757
28.80980001296809	2.0922267	1.4464532
28.827896019705413	2.1534653	1.467469
28.845992760940433	2.188488	1.4793539
28.86409023721397	2.2290697	1.493007
28.88218844906704	2.196317	1.4819976
28.900287397040845	2.1885426	1.4793724
28.918387081676755	2.1985974	1.4827669
28.936487503516343	2.267175	1.505714
28.954588663101365	2.2350144	1.4949964
28.97269056097374	2.2820249	1.5106373
28.990793197675597	2.332348	1.5272027
29.00889657374923	2.343929	1.5309895
29.027000689737125	2.3400211	1.5297128
29.04510554618196	2.3620129	1.5368842
29.06321114362659	2.344361	1.5311307
29.08131748261405	2.428325	1.5583084
29.099424563687567	2.5487812	1.5964903
29.11753238739057	2.5796878	1.6061406
29.13564095426663	2.5220711	1.5881029
29.15375026485954	2.5301852	1.5906556
29.171860319713275	2.6209812	1.6189445
29.18997111937199	2.703018	1.6440858
29.20808266438002	2.7106192	1.6463958
29.226194955281898	2.7552242	1.6598868
29.244307992622335	2.791712	1.6708417
29.26242177694624	2.822005	1.6798824
29.2805363087987	2.8431084	1.686152
29.29865158872498	2.8997726	1.7028719
29.316767617270557	2.9686067	1.7229645
29.334884394981064	2.996314	1.7309865
29.353001922402367	2.9726095	1.7241257
29.37112020008047	2.9606938	1.7206666
29.389239228561596	3.0982304	1.760179
29.407359008392152	3.3511949	1.8306268
29.42547954011872	3.6880689	1.9204346
29.44360082428809	4.2697506	2.0663376
29.46172286144722	5.36284	2.3157806
29.479845652143283	6.9637194	2.638886
29.497969196923606	9.048109	3.0080075
29.516093496335728	11.5987	3.4056864
29.5342185509274	14.504347	3.8084574
29.55234436124651	16.88599	4.1092567
29.570470927841175	18.422443	4.2921376
29.588598251259686	18.300644	4.277925
29.60672633205055	17.019804	4.1255064
29.624855170762405	14.796376	3.8466058
29.642984767944146	12.081417	3.4758332
29.66111512414481	9.267946	3.0443301
29.67924623991366	6.8355403	2.6144867
29.697378115800138	5.1023207	2.2588317
29.71551075235387	4.122185	2.0303166
29.733644150124675	3.713901	1.9271485
29.751778309662576	3.4874792	1.8674793
29.769913231517766	3.424505	1.8505418
29.78804891624066	3.3960633	1.8428411
29.806185364381818	3.3625839	1.833735
29.82432257649206	3.2688153	1.8079865
29.842460553122333	3.1704028	1.7805625
29.86059929482382	3.1743276	1.7816643
29.878738802147872	3.2666497	1.8073876
29.896879075646048	3.3374748	1.8268757
29.915020115870114	3.347271	1.8295548
29.933161923371976	3.2885027	1.8134229
29.951304498703777	3.2917602	1.8143209
29.969447842417857	3.3062043	1.8182971
29.987591955066733	3.2690809	1.8080599
30.005736837203123	3.2750225	1.8097023
30.023882489379943	3.2047176	1.7901725
30.04202891215028	3.18248	1.7839507
30.060176106067455	3.1796281	1.7831511
30.078324071684946	3.127291	1.7684149
30.09647280955646	3.1260192	1.7680552
30.114622320235863	3.15747	1.7769271
30.132772604277257	3.0928845	1.7586598
30.1509236622349	3.0345953	1.7420089
30.16907549466328	3.0598192	1.7492338
30.18722810211705	3.1226609	1.7671052
30.205381485151097	3.1325493	1.7699009
30.22353564432045	3.040284	1.743641
30.241690580180403	3.0300496	1.7407037
30.25984629328638	3.0376995	1.7428998
30.278002784194037	3.002984	1.7329121
30.296160053459246	2.9490545	1.7172811
30.314318101638033	2.9554942	1.7191551
30.332476929286646	2.9466252	1.7165737
30.35063653696153	2.913399	1.7068682
30.368796925219307	2.9259675	1.7105459
30.386958094616844	2.9258661	1.7105163
30.40512004571115	2.8951306	1.7015083
30.423282779059463	2.8856432	1.6987181
30.441446295219233	2.8729448	1.6949763
30.459610594748067	2.8064225	1.675238
30.47777567820382	2.7770896	1.6664602
30.495941546144504	2.7966893	1.6723305
30.51410819912835	2.8106143	1.6764886
30.532275637713795	2.7975757	1.6725955
30.55044386245946	2.8822742	1.6977261
30.56861287392416	2.9118288	1.7064081
30.586782672666956	2.9027648	1.7037503
30.604953259247047	2.874399	1.6954052
30.623124634223885	2.8015578	1.6737854
30.641296798157075	2.7461476	1.6571505
30.659469751606462	2.7088397	1.6458553
30.677643495132074	2.7130475	1.6471331
30.695818029294152	2.774264	1.6656122
30.713993354653116	2.8159811	1.6780885
30.73216947176962	2.7536366	1.6594085
30.75034638120448	2.6602323	1.6310219
30.768524083518756	2.7069943	1.6452945
30.786702579273673	2.7645693	1.6626993
30.80488186903069	2.777612	1.6666169
30.82306195335144	2.8993385	1.7027444
30.841242832797782	3.1766899	1.782327
30.85942450793176	3.5047338	1.8720934
30.877606979315637	3.723017	1.9295121
30.895790247511883	4.0870724	2.0216508
30.913974313083134	4.5848894	2.1412356
30.932159176592283	4.9442196	2.22356
30.95034483860237	4.880015	2.2090757
30.968531299676698	4.6399345	2.1540508
30.98671856037873	4.3842936	2.0938704
31.00490662127215	3.980194	1.9950423
31.023095482920848	3.4695692	1.8626779
31.04128514588892	3.0424235	1.7442545
31.059475610740662	2.7975914	1.6726002
31.07766687804056	2.6472187	1.6270275
31.09585894835335	2.5182538	1.5869007
31.11405182224393	2.490169	1.5780269
31.132245500277417	2.533654	1.5917456
31.15043998301914	2.4944112	1.5793705
31.168635271034628	2.445917	1.5639428
31.18683136488964	2.4238558	1.5568737
31.20502826515008	2.3660805	1.5382069
31.223225972382135	2.3811977	1.543113
31.241424487152155	2.3944454	1.5473995
31.259623810026692	2.3693194	1.5392594
31.27782394157253	2.3816087	1.5432462
31.296024882356644	2.4577558	1.5677232
31.314226632946237	2.4636579	1.5696044
31.332429193908684	2.4607866	1.5686895
31.350632565811598	2.4221666	1.5563312
31.368836749222787	2.3775058	1.5419163
31.387041744710295	2.433396	1.5599346
31.40524755284232	2.5425851	1.5945486
31.423454174187317	2.5718865	1.6037103
31.441661609313922	2.5636535	1.6011413
31.459869858791002	2.4932618	1.5790066
31.478078923187628	2.3823757	1.5434947
31.496288803073064	2.3598225	1.5361714
31.514499499016807	2.367477	1.5386608
31.532711011588546	2.3352337	1.5281471
31.550923341358178	2.320691	1.5233815
31.56913648889584	2.3675227	1.5386757
31.587350454771844	2.3525763	1.533811
31.605565239556732	2.2648635	1.5049464
31.62378084382127	2.2354164	1.4951309
31.641997268136382	2.2894158	1.5130816
31.660214513073274	2.304609	1.518094
31.67843257920331	2.2474077	1.4991356
31.6966514670981	2.1986775	1.4827938
31.71487117732944	2.206652	1.4854804
31.733091710469346	2.3188121	1.5227647
31.751313067090052	2.3566806	1.5351484
31.769535247764008	2.3381968	1.5291163
31.787758253063878	2.31443	1.5213251
31.805982083562526	2.2977824	1.5158437
31.824206739833024	2.2509346	1.5003115
31.84243222244869	2.241251	1.4970808
31.860658531983013	2.187248	1.4789348
31.878885669009737	2.1648943	1.471358
31.897113634102784	2.1291444	1.4591588
31.91534242783632	2.0963223	1.4478682
31.933572050784694	2.1173766	1.4551208
31.951802503522508	2.1787252	1.4760505
31.970033786624548	2.2407737	1.4969214
31.988265900665834	2.2815273	1.5104725
32.006498846221575	2.286138	1.511998
32.02473262386724	2.2215862	1.4904987
32.04296723417845	2.1732612	1.4741985
32.0612026777311	2.1316369	1.4600127
32.07943895510129	2.1277208	1.4586709
32.097676066865304	2.126043	1.4580957
32.115914013599685	2.1797585	1.4764005
32.13415279588115	2.1913123	1.4803082
32.152392414286666	2.0462432	1.4304695
32.1706328693934	2.099193	1.4488592
32.18887416177875	2.1410725	1.4632404
32.20711629202032	2.1386547	1.462414
32.225359260695924	2.0953994	1.4475495
32.243603068383614	2.1078212	1.4518337
32.26184771566166	2.0650573	1.4370307
32.28009320310852	2.1422071	1.463628
32.2983395313029	2.1543324	1.4677644
32.31658670082372	2.1046493	1.4507409
32.33483471225012	2.1372092	1.4619197
32.35308356616143	2.1816134	1.4770286
32.371333263137245	2.1053817	1.4509933
32.38958380375734	2.101664	1.4497117
32.407835188601744	2.1519973	1.4669688
32.42608741825067	2.1837566	1.4777539
32.444340493284585	2.140367	1.4629993
32.46259441428416	2.059049	1.4349387
32.48084918183028	1.9774758	1.4062275
32.49910479650405	1.9403011	1.3929468
32.51736125888683	1.9663011	1.4022486
32.53561856956014	2.0215178	1.4218009
32.5538767291058	1.9785374	1.4066049
32.572135738105764	1.9249481	1.387425
32.59039559714228	1.9461961	1.3950614
32.608656306797776	1.9811208	1.4075229
32.62691786765491	1.9923431	1.4115038
32.645180280296586	1.9780535	1.4064329
32.663443545305896	1.9984459	1.413664
32.68170766326619	1.9793614	1.4068978
32.69997263476099	2.0225408	1.4221606
32.7182384603741	2.0455534	1.4302285
32.7365051406895	2.0524697	1.4326444
32.75477267629144	2.0462923	1.4304867
32.77304106776434	2.0449271	1.4300095
32.79131031569289	2.015147	1.4195588
32.809580420661966	1.8890183	1.3744156
32.827851383256714	1.9308386	1.3895462
32.84612320406245	2.0183496	1.4206864
32.86439588366476	2.0283098	1.4241874
32.88266942264945	2.0113764	1.41823
32.9009438216025	2.0189435	1.4208953
32.9192190811102	1.9268589	1.3881134
32.937495201758985	1.857773	1.3630015
32.95577218413556	1.8770667	1.3700608
32.974050028826866	2.0654156	1.4371554
32.992328736420035	2.1000576	1.4491576
33.010608307502444	2.0502377	1.4318651
33.02888874266169	2.027396	1.4238665
33.047170042485604	1.9563627	1.3987004
33.06545220756225	1.9332314	1.3904068
33.083735238479896	2.0007834	1.4144906
33.10201913582707	1.9450262	1.394642
33.12030390019248	1.831593	1.3533636
33.138589532165135	1.8582187	1.3631649
33.15687603233419	1.805646	1.3437432
33.17516340128909	1.801971	1.3423752
33.19345163961947	1.9091338	1.3817141
33.211740747915215	2.0059826	1.4163271
33.23003072676643	1.9855586	1.4090985
33.248321576763466	2.0198436	1.421212
33.266613298496885	2.007614	1.4169029
33.28490589255747	1.9885242	1.4101504
33.30319935953626	1.9433125	1.3940275
33.32149370002451	1.9199574	1.3856252
33.339788914613706	1.892565	1.3757052
33.358085003895575	1.9256177	1.3876662
33.376381968462034	1.9563682	1.3987024
33.39467980890529	1.9593053	1.3997519
33.41297852581774	1.9874886	1.4097832
33.43127811979204	1.9643661	1.4015584
33.44957859142105	1.952958	1.3974828
33.467879941297866	1.9863536	1.4093806
33.486182170015844	2.000516	1.4143959
33.50448527816853	1.9592139	1.3997192
33.522789266349754	1.9480194	1.3957146
33.541094135153514	1.9200288	1.385651
33.55939988517411	1.8713393	1.367969
33.57770651700602	1.7836516	1.3355342
33.59601403124398	1.7411187	1.3195145
33.61432242848296	1.7779869	1.3334117
33.632631709318154	1.9160196	1.3842036
33.650941874344994	1.9713868	1.4040608
33.66925292415916	1.9169354	1.3845344
33.68756485935654	1.8689668	1.3671017
33.70587768053328	1.9302546	1.389336
33.724191388285746	2.0023272	1.4150361
33.74250598321054	1.9987239	1.4137623
33.760821465904506	1.8734094	1.3687254
33.77913783696474	1.6945853	1.3017623
33.79745509698852	1.6688055	1.2918226
33.815773246573414	1.8026222	1.3426176
33.8340922863172	1.9519551	1.3971238
33.852412216817896	2.0868633	1.444598
33.87073303867377	2.1854	1.4783099
33.889054752483304	2.0927618	1.4466381
33.907377358845245	1.9928554	1.4116853
33.92570085835853	1.8766034	1.3698918
33.94402525162239	1.8538315	1.3615549
33.96235053923627	1.8410164	1.3568406
33.980676721799824	1.8082521	1.3447126
33.999003799912984	1.6938771	1.3014903
34.01733177417592	1.7831174	1.3353342
34.03566064518901	1.9627641	1.4009868
34.0539904135529	2.0134814	1.4189719
34.07232107986846	1.9909284	1.4110026
34.090652644736785	1.9562466	1.3986589
34.108985108759235	2.0090969	1.4174261
34.12731847253742	2.078491	1.4416972
34.14565273667313	2.0402675	1.4283793
34.16398790176847	2.064456	1.4368215
34.18232396842574	2.0764441	1.4409872
34.20066093724749	2.0741627	1.4401953
34.21899880883651	1.9858177	1.4091904
34.23733758379583	1.8934205	1.3760161
34.25567726272874	1.9419085	1.3935238
34.27401784623872	1.8884438	1.3742067
34.29235933492957	1.8140603	1.3468705
34.31070172940526	1.8542886	1.3617227
34.32904503027003	1.860861	1.3641337
34.347389238128386	1.8946745	1.3764718
34.36573435358502	1.9625129	1.4008971
34.38408037724492	1.9773631	1.4061874
34.402427309713296	2.0564497	1.4340327
34.42077515159559	2.118535	1.4555188
34.43912390349752	1.9814352	1.4076346
34.45747356602499	1.8644193	1.3654374
34.47582413978423	1.795063	1.3397996
34.49417562538163	1.7346091	1.3170456
34.51252802342388	1.7023143	1.3047277
34.53088133451789	1.772688	1.3314233
34.54923555927084	1.8222089	1.3498921
34.567590698290104	1.899713	1.3783008
34.58594675218336	1.9418776	1.3935127
34.6043037215585	1.8494663	1.3599509
34.62266160702365	1.8496652	1.360024
34.641020409187234	1.885678	1.3731999
34.65938012865785	1.9516988	1.3970321
34.677740766044394	2.0662687	1.4374522
34.69610232195598	2.2212973	1.4904017
34.714464797002016	2.1265569	1.4582719
34.73282819179208	1.9177295	1.384821
34.751192506936064	2.0880945	1.445024
34.76955774304408	2.100666	1.4493675
34.7879239007265	2.0218582	1.4219207
34.80629098059391	1.8310145	1.3531499
34.824658983257194	1.7400995	1.3191283
34.843027909327446	1.8159345	1.3475661
34.86139775941603	1.9418423	1.3935
34.879768534134534	1.9417071	1.3934516
34.89814023409483	2.0342596	1.4262747
34.91651285990901	1.9810092	1.4074833
34.93488641218944	1.8333813	1.354024
34.95326089154871	1.7428751	1.3201799
34.97163629859967	2.0034866	1.4154457
34.99001263395542	2.1694264	1.4728973
35.00838989822934	2.1791396	1.4761909
35.02676809203499	2.1544418	1.4678017
35.04514721598624	2.1762462	1.4752105
35.063527270697215	2.1585534	1.4692016
35.081908256782256	1.9693083	1.4033204
35.10029017485597	1.9701294	1.403613
35.11867302553321	2.0116751	1.4183353
35.137056809429104	1.9402099	1.3929142
35.155441527159006	1.8922522	1.3755916
35.173827179338524	2.0885787	1.4451916
35.19221376658354	2.057039	1.4342381
35.21060128951017	2.0110784	1.4181249
35.2289897487348	1.908843	1.3816088
35.24737914487405	1.9801599	1.4071815
35.26576947854479	2.2256029	1.4918455
35.28416075036418	2.1732755	1.4742033
35.30255296094958	1.6953838	1.3020691
35.32094611091867	1.4850267	1.2186167
35.33934020088932	1.772812	1.3314699
35.35773523147969	2.0763614	1.4409585
35.3761312033082	2.0514526	1.4322892
35.394528116993506	2.0802155	1.4422952
35.41292597315452	2.2864301	1.5120946
35.431324772410434	2.2933562	1.5143831
35.449724515380666	2.01358	1.4190067
35.46812520268491	2.044977	1.4300269
35.486526834943106	2.1409295	1.4631915
35.504929412775454	2.355002	1.5346016
35.52333293680242	2.1752148	1.4748609
35.54173740764471	2.1455247	1.464761
35.560142825923286	1.8626842	1.3648019
35.5785491922594	1.2872046	1.1345505
35.59695650727454	1.0537949	1.0265452
35.61536477159042	1.2419951	1.1144483
