0.008763373481513119	0.43391317	0.65872085
0.026290120649546365	0.38063106	0.616953
0.043816868432600686	0.25542977	0.5054006
0.06134361724069026	0.10068898	0.31731528
0.07887036748382949	0.07310861	0.27038604
0.0963971195720331	0.15839194	0.39798483
0.11392387391531617	0.16299413	0.40372533
0.1314506309236943	0.20781198	0.45586398
0.1489773910071836	0.16639753	0.40791854
0.16650415457580078	0.24662302	0.49661154
0.18403092203956356	0.2570288	0.50698006
0.20155769380849	0.29164103	0.540038
0.2190844702925996	0.2309589	0.48058182
0.2366112519019124	0.15866306	0.39832532
0.2541380390464497	0.16559152	0.40692937
0.27166483213623416	0.14588651	0.3819509
0.28919163158128947	0.1605477	0.40068406
0.3067184377916406	0.11996005	0.3463525
0.324245251177314	0.11344097	0.33681
0.34177207214833777	0.099006906	0.31465364
0.3592989011147415	0.10434256	0.323021
0.37682573848655654	0.15453362	0.39310765
0.39435258467381573	0.1629943	0.40372553
0.41187944008655414	0.14853096	0.38539714
0.42940630513480854	0.13261466	0.36416295
0.446933180228618	0.140297	0.3745624
0.4644600657780234	0.16310933	0.40386796
0.48198696219306775	0.14977643	0.3870096
0.49951386988379676	0.1396616	0.37371325
0.5170407892602581	0.13656764	0.3695506
0.5345677207325025	0.13099658	0.3619345
0.5520946647105822	0.1571545	0.39642715
0.5696216216045534	0.15165482	0.38942885
0.5871485918244737	0.17794378	0.42183384
0.6046755757804043	0.2279743	0.47746655
0.6222025738824094	0.22931771	0.4788713
0.6397295865405557	0.20848048	0.4565966
0.6572566141649129	0.20666626	0.4546056
0.6747836571655547	0.2137958	0.4623806
0.6923107159525568	0.2334394	0.48315567
0.7098377909359992	0.2315012	0.4811457
0.7273648825259653	0.23691043	0.48673445
0.7448919911325411	0.2100994	0.458366
0.762419117165817	0.1863146	0.43164176
0.7799462610358868	0.15440008	0.39293775
0.7974734231528482	0.13218261	0.36356926
0.8150006039268024	0.13723949	0.37045848
0.8325278037678551	0.1451082	0.3809307
0.8500550230861152	0.15267423	0.3907355
0.8675822622916969	0.1750556	0.41839644
0.8851095217947171	0.22301836	0.4722482
0.9026368020052984	0.23188293	0.48154223
0.9201641033335665	0.22391634	0.473198
0.9376914261896523	0.21512964	0.4638207
0.9552187709836915	0.19470887	0.44125828
0.9727461381258234	0.18817148	0.43378738
0.990273528026193	0.19162092	0.43774527
1.0078009410949496	0.16355065	0.40441394
1.0253283777422473	0.1963801	0.44314793
1.0428558383782454	0.22489493	0.4742309
1.0603833234131086	0.25137085	0.501369
1.0779108332570058	0.2909036	0.5393548
1.0954383683201119	0.298616	0.54645765
1.112965929012607	0.37082645	0.6089552
1.1304935157446763	0.48433962	0.69594514
1.1480211289265108	0.52377886	0.7237257
1.1655487689683062	1.3664277	1.1689429
1.1830764362802655	1.6456605	1.282833
1.200604131272596	2.014961	1.4194932
1.2181318543555117	2.322908	1.5241089
1.235659605939232	2.3143802	1.5213087
1.253187386433982	3.8192031	1.9542781
1.270715196249994	6.221405	2.4942744
1.2882430357975057	11.644845	3.4124544
1.3057709054867608	16.577566	4.0715556
1.3232988057280106	22.364843	4.7291484
1.3408267369315112	27.271248	5.222188
1.358354699507526	31.080664	5.5750036
1.3758826938663256	34.95255	5.912068
1.3934107204181858	36.771584	6.0639577
1.410938779573391	37.04237	6.086244
1.4284668717422309	37.415318	6.116806
1.4459949973350033	37.129543	6.0934014
1.4635231567620117	37.254387	6.103637
1.4810513504335687	36.894783	6.0741076
1.4985795787599925	36.20197	6.016807
1.5161078421516088	36.0758	6.0063133
1.5336361410187505	35.44602	5.9536557
1.5511644757717598	35.186745	5.9318414
1.5686928468209842	35.6388	5.9698243
1.58622125457678	36.3797	6.0315585
1.6037496994495108	37.77488	6.146127
1.621278181849548	37.790295	6.1473813
1.6388067021872719	38.371002	6.194433
1.6563352608730693	37.494667	6.123289
1.673863858317336	36.44071	6.036614
1.6913924949304753	35.657352	5.971378
1.7089211711228998	34.49045	5.872857
1.7264498873050296	33.83371	5.816675
1.7439786438872935	33.022194	5.746494
1.7615074412801288	31.962265	5.6535177
1.779036279893981	31.036896	5.571077
1.796565160139305	29.951532	5.4727993
1.814094082426564	29.235937	5.407027
1.8316230471662298	28.672083	5.354632
1.849152054768784	27.950539	5.286827
1.8666811056447168	27.574411	5.2511344
1.8842102002045273	26.502209	5.14803
1.901739338858724	26.114035	5.1101894
1.9192685220178245	25.768328	5.0762515
1.9367977500923557	25.35232	5.0351086
1.9543270234928547	24.930851	4.99308
1.971856342629867	24.151293	4.9143963
1.9893857079139496	23.456842	4.8432264
2.006915119755667	22.696552	4.76409
2.0244445785655945	22.094992	4.700531
2.0419740847543175	21.823317	4.671543
2.0595036387324317	21.504372	4.6372805
2.0770332409105414	21.08183	4.5914955
2.094562891699263	20.770863	4.557506
2.1120925915092217	20.222775	4.496974
2.129622340751053	19.812975	4.4511766
2.1471521398354043	187.92609	13.708613
2.1646819891729323	444.24255	21.077063
2.182211889174303	440.5024	20.98815
2.1997418402501974	452.95807	21.282812
2.2172718428113023	432.90433	20.806353
2.234801897268317	320.92523	17.914387
2.2523320040319548	17.368254	4.167524
2.269862163512935	16.845814	4.1043653
2.287392376121992	16.531775	4.0659285
2.304922642269869	16.188189	4.0234547
2.322452962367322	15.883473	3.9854076
2.3399833368251164	15.721861	3.9650803
2.357513766054032	15.757337	3.969551
2.3750442504648586	15.380643	3.9218163
2.3925747904683963	14.930936	3.8640568
2.410105386475459	14.537448	3.8128006
2.4276360388968707	14.3087845	3.7826953
2.445166748143469	14.336289	3.7863293
2.4626975146261025	14.211428	3.7698047
2.4802283387556323	14.013318	3.7434366
2.4977592209429305	13.812475	3.7165139
2.5152901615988825	13.371441	3.656698
2.5328211611343865	12.963558	3.6004941
2.5503522199603523	12.548058	3.5423238
2.5678833384877024	12.277584	3.5039384
2.5854145171273712	12.116951	3.480941
2.6029457562903064	11.929542	3.4539168
2.620477056387469	11.952593	3.4572523
2.6380084178298326	11.87168	3.4455304
2.655539841028383	11.671358	3.416337
2.673071326394119	11.496157	3.3905983
2.6906028743380523	11.117604	3.3343072
2.708134485271211	10.991305	3.3153138
2.7256661596046325	10.771459	3.28199
2.743197897749369	10.6307	3.2604754
2.760729700116486	10.49331	3.239338
2.778261567117063	10.260449	3.2031937
2.795793499162193	10.113451	3.1801653
2.8133254966629817	9.816869	3.1331882
2.830857560030551	9.618592	3.1013856
2.8483896896760337	9.3915825	3.064569
2.865921886010578	9.223555	3.0370305
2.883454149445347	9.232376	3.0384824
2.9009864803915177	9.298492	3.0493429
2.91851887926028	9.301609	3.049854
2.9360513464628384	9.222268	3.0368187
2.953583882410413	8.99322	2.99887
2.9711164875142373	8.961006	2.993494
2.9886491621855606	8.867437	2.9778242
3.0061819068356455	8.720625	2.9530704
3.023714721875769	8.528651	2.9203854
3.041247607717225	8.357656	2.890961
3.0587805647713213	8.241344	2.8707743
3.0763135934493806	8.174499	2.859108
3.0938466941627407	8.130186	2.8513482
3.1113798673227544	8.1188	2.849351
3.1289131133407904	8.090385	2.8443604
3.1464464326282315	8.101762	2.8463595
3.1639798255964786	8.053128	2.8378034
3.1815132926569443	7.88593	2.8081899
3.1990468342210603	7.7228093	2.7789943
3.216580450700272	7.542996	2.7464516
3.2341141425060416	7.426948	2.7252429
3.251647910049847	7.33464	2.708254
3.2691817537431813	7.1820183	2.6799288
3.286715673997555	7.0979137	2.664191
3.3042496712244938	7.0121126	2.6480393
3.32178374583554	7.0536633	2.6558733
3.339317898242251	7.052929	2.655735
3.3568521288562034	7.0895405	2.662619
3.3743864380889876	6.926872	2.631895
3.3919208263522127	6.801274	2.6079252
3.4094552940575023	6.666172	2.5818932
3.4269898416164972	6.632396	2.5753438
3.444524469440858	6.546353	2.5585842
3.4620591779422587	6.4401636	2.5377479
3.479593967532391	6.4727883	2.5441675
3.4971288386229658	6.5507526	2.5594437
3.5146637916257086	6.559812	2.561213
3.5321988269523628	6.4158435	2.5329516
3.5497339450146903	6.2991376	2.5098083
3.5672691462244708	6.1731176	2.484576
3.5848044309934988	6.220003	2.4939935
3.60233979973359	6.3040953	2.5107958
3.619875252856575	6.414912	2.5327678
3.6374107907743034	6.4328384	2.536304
3.6549464138986427	6.4067736	2.5311606
3.6724821226414788	6.4123445	2.5322607
3.690017917414714	6.371407	2.5241647
3.7075537986302702	6.3981466	2.529456
3.7250897667000857	6.3551145	2.5209353
3.7426258220361235	6.482778	2.54613
3.7601619650503553	6.840514	2.6154377
3.777698196154779	7.3576427	2.7124975
3.7952345157614067	8.496349	2.9148498
3.8127709242822716	9.392081	3.0646503
3.830307422129425	11.677892	3.417293
3.847844009714936	30.434334	5.516732
3.8653806874508954	97.7311	9.885904
3.882917455749409	96.90572	9.84407
3.900454315022606	96.69722	9.833474
3.917991265682631	41.36865	6.4318466
3.9355283081416506	11.118045	3.3343732
3.9530654428118495	8.825403	2.970758
3.970602670105433	7.624265	2.761207
3.9881399904346244	6.604193	2.5698626
4.005677404211669	6.5076494	2.5510094
4.023214911848827	6.4875264	2.5470624
4.0407525137583855	6.511093	2.5516844
4.058290210352644	6.410504	2.5318973
4.075828002043927	6.210176	2.4920225
4.0933658892445814	6.1418858	2.478283
4.110903872366966	6.0952773	2.4688616
4.128441951823468	6.057476	2.461194
4.145980128026488	6.079338	2.4656315
4.163518401388452	6.085926	2.4669669
4.181056772321807	6.1327224	2.4764335
4.1985952412390155	6.157857	2.481503
4.216133808552567	6.2756233	2.5051193
4.233672474674966	6.375546	2.5249844
4.251211240018741	6.554714	2.5602176
4.268750104996445	6.7481103	2.5977125
4.286289070020643	7.5742183	2.7521298
4.303828135503928	9.219219	3.0363166
4.3213673018589125	29.479588	5.4295106
4.3389065694982305	90.75924	9.526764
4.356445938834537	166.0917	12.887657
4.3739854102805085	171.59348	13.099369
4.391524984248844	172.42973	13.13125
4.409064661152262	136.31915	11.675579
4.426604441403504	96.55781	9.826384
4.444144325415337	75.55295	8.69212
4.461684313600543	21.638819	4.6517544
4.47922440637193	22.078367	4.6987624
4.496764604142329	20.349821	4.5110774
4.5143049073245916	18.602446	4.313055
4.531845316331589	16.537474	4.0666294
4.5493858315762195	13.768255	3.7105598
4.566926453471405	11.394378	3.375556
4.584467182430081	9.330196	3.054537
4.602008018865218	8.131152	2.8515174
4.619548963189798	7.5000443	2.738621
4.637090015816834	7.07374	2.6596503
4.654631177159353	6.906844	2.6280875
4.672172447630417	6.6452293	2.5778341
4.689713827643102	6.4946256	2.5484555
4.7072553176105085	6.2045636	2.4908962
4.724796917945764	5.919729	2.4330494
4.742338629062015	5.7930026	2.4068658
4.759880451372434	5.7592583	2.3998454
4.777422385290215	5.790252	2.4062943
4.794964431228581	5.732647	2.3942947
4.812506589600768	5.674506	2.3821223
4.830048860820047	5.6396537	2.3747954
4.847591245299709	5.624307	2.3715622
4.8651337434530655	5.58888	2.3640811
4.882676355693457	5.552652	2.3564065
4.900219082434242	5.536947	2.3530717
4.917761924088813	5.5383716	2.3533745
4.935304881070575	5.577452	2.361663
4.952847953792969	5.5766172	2.3614862
4.970391142669449	5.493148	2.3437464
4.9879344481135055	5.4433665	2.3331022
5.005477870538642	5.4412966	2.3326588
5.023021410358394	5.4968104	2.3445277
5.040565067986324	5.457353	2.336098
5.05810884383601	5.395161	2.3227487
5.075652738321066	5.3713803	2.3176239
5.09319675185512	5.361997	2.3155987
5.110740884851836	5.352425	2.313531
5.128285137724894	5.359531	2.315066
5.145829510888007	5.337315	2.310263
5.163374004754908	5.361651	2.3155239
5.1809186197393595	5.33939	2.3107119
5.198463356255145	5.3026733	2.3027534
5.216008214716077	5.2669363	2.2949808
5.233553195535998	5.248047	2.2908616
5.251098299128764	5.3015842	2.302517
5.268643525908272	5.331252	2.3089504
5.286188876288432	5.3528	2.313612
5.3037343506831895	5.28671	2.2992847
5.32127994950651	5.237728	2.2886083
5.3388256731723915	5.202036	2.2807972
5.356371522094851	5.207861	2.2820737
5.373917496687938	5.213649	2.2833416
5.391463597365729	5.2399297	2.2890892
5.40900982454232	5.258021	2.2930374
5.426556178631843	5.267454	2.2950935
5.444102660048449	5.2459245	2.2903984
5.4616492692063225	5.2212853	2.2850132
5.479196006519669	5.230858	2.287107
5.496742872402727	5.186829	2.277461
5.514289867269756	5.1684704	2.273427
5.531836991535049	5.1514964	2.2696908
5.549384245612924	5.132092	2.265412
5.566931629917724	5.120845	2.2629285
5.584479144863822	5.1613417	2.2718587
5.6020267908656205	5.1710515	2.2739947
5.619574568337545	5.1366205	2.2664113
5.637122477694054	5.1153135	2.2617059
5.654670519349629	5.146304	2.2685466
5.672218693718784	5.1592345	2.2713947
5.689767001216059	5.145598	2.2683911
5.707315442256021	5.1144586	2.2615168
5.724864017253266	5.1088414	2.2602746
5.7424127266224225	5.159705	2.2714984
5.75996157077814	5.2009277	2.2805543
5.777510550135105	5.2094464	2.282421
5.795059665108022	5.164494	2.2725523
5.812608916111639	5.161746	2.2719476
5.830158303560715	5.3301864	2.3087196
5.847707827870055	5.4277673	2.329757
5.86525748945448	5.5874667	2.3637824
5.8828072887288485	5.6121836	2.3690047
5.900357226108044	5.6615067	2.3793921
5.917907302006979	5.6076303	2.3680437
5.9354575168406	6.153637	2.4806526
5.9530078710238765	6.7354794	2.5952802
5.970558364971812	7.2371564	2.6901963
5.988108999099438	7.5400763	2.74592
6.005659773821818	8.074438	2.8415556
6.023210689554039	7.9098034	2.8124373
6.040761746711227	8.423457	2.9023192
6.058312945708531	7.9005475	2.8107913
6.075864286961132	7.456499	2.730659
6.093415770884244	6.7329082	2.5947847
6.1109673978931065	6.1565375	2.4812372
6.128519168402993	5.555528	2.3570168
6.146071082829204	5.393854	2.3224673
6.163623141587075	5.312245	2.3048308
6.181175345091969	5.29283	2.300615
6.198727693759281	5.2772617	2.297229
6.216280188004435	5.231226	2.2871873
6.233832828242885	5.1960936	2.279494
6.251385614890126	5.158416	2.2712147
6.268938548361669	5.0954576	2.257312
6.286491629073067	4.992534	2.234398
6.304044857439898	4.980646	2.2317362
6.321598233877777	4.940478	2.2227185
6.339151758802344	4.950338	2.2249355
6.356705432629277	4.9555063	2.2260966
6.37425925577428	4.9880886	2.233403
6.391813228653095	5.030313	2.242836
6.409367351681486	5.065745	2.250721
6.426921625275259	5.0031686	2.2367764
6.44447604985025	4.942461	2.2231646
6.46203062582232	4.8573723	2.2039447
6.47958535360737	4.8323007	2.1982493
6.497140233621328	4.9049788	2.2147186
6.514695266280161	4.9158792	2.217178
6.532250451999859	4.983874	2.232459
6.549805791196454	4.987684	2.2333124
6.567361284286002	5.007831	2.2378185
6.584916931684597	4.972907	2.2300017
6.602472733808367	4.9757905	2.230648
6.6200286910734665	4.9369507	2.221925
6.637584803896092	4.9936976	2.2346582
6.655141072692462	5.0210032	2.2407596
6.672697497878842	5.017094	2.239887
6.690254079871514	4.960977	2.2273252
6.707810819086808	5.0134554	2.2390747
6.725367715941078	5.0189757	2.240307
6.742924770850719	5.06209	2.249909
6.760481984232151	5.0120153	2.238753
6.778039356501836	4.9022255	2.214097
6.795596888076266	4.8944845	2.2123482
6.813154579371963	4.899049	2.2133794
6.830712430805492	4.952055	2.2253213
6.84827044279344	4.9814825	2.2319236
6.865828615752445	4.9250646	2.2192485
6.883386950099159	4.923563	2.2189102
6.900945446250287	4.979875	2.2315633
6.918504104622553	5.0289335	2.2425284
6.936062925632727	5.0132213	2.2390225
6.953621909697607	5.0494156	2.2470906
6.971181057234028	5.14649	2.2685876
6.988740368658859	5.2129345	2.2831852
7.006299844389007	5.258755	2.2931976
7.023859484841407	5.3147264	2.3053691
7.041419290433036	5.388404	2.3212936
7.058979261580902	5.5674434	2.359543
7.0765393987020495	5.770043	2.4020913
7.094099702213559	6.126298	2.475136
7.111660172532549	6.346608	2.5192475
7.129220810076164	6.6812267	2.584807
7.146781615261595	7.307059	2.7031572
7.16434258850606	7.619551	2.7603536
7.181903730226821	8.002046	2.8287888
7.1994650408411704	8.091344	2.8445287
7.217026520766437	8.160889	2.856727
7.234588170419983	8.392976	2.8970633
7.252149990219215	8.444553	2.9059513
7.269711980581568	8.333317	2.8867486
7.2872741419245175	8.146968	2.8542893
7.304836474665574	7.6962748	2.7742162
7.322398979222286	7.344738	2.7101178
7.339961656012233	7.1174817	2.667861
7.357524505453039	6.8189335	2.6113088
7.375087527962357	6.6245937	2.5738287
7.392650723957886	6.401514	2.5301213
7.410214093857353	6.053968	2.4604812
7.427777638078528	5.8083253	2.4100468
7.445341357039213	5.6228805	2.3712614
7.4629052511572525	5.4873767	2.342515
7.480469320850524	5.398533	2.3234744
7.498033566536948	5.2728233	2.296263
7.5155979886344735	5.178365	2.275602
7.5331625875610975	5.147379	2.2687836
7.550727363734844	5.162989	2.272221
7.568292317573788	5.151132	2.2696106
7.585857449496025	5.207296	2.28195
7.603422759919705	5.2477055	2.290787
7.620988249263007	5.254233	2.2922113
7.638553917944147	5.174672	2.2747905
7.656119766381391	5.1462	2.2685237
7.673685794993023	5.1475954	2.2688313
7.691252004197388	5.1807117	2.2761178
7.70881839441285	5.1837473	2.2767844
7.726384966057826	5.1839814	2.276836
7.743951719550762	5.1736236	2.27456
7.761518655310149	5.2145643	2.2835422
7.779085773754511	5.264498	2.2944493
7.796653075302419	5.3203263	2.3065832
7.814220560372475	5.315727	2.305586
7.831788229383323	5.238023	2.2886727
7.8493560827536495	5.259613	2.2933846
7.866924120902174	5.3025293	2.3027222
7.884492344247663	5.3250003	2.3075962
7.9020607532089135	5.3265853	2.3079395
7.919629348204771	5.296958	2.301512
7.937198129654115	5.3481793	2.312613
7.954767097975865	5.363598	2.3159442
7.972336253588986	5.405205	2.3249097
7.989905596912472	5.4492126	2.3343549
8.007475128365371	5.451368	2.3348165
8.025044848366756	5.4653907	2.3378174
8.042614757335754	5.577059	2.3615797
8.060184855691523	5.585222	2.3633075
8.07775514385327	5.7724977	2.4026022
8.095325622240228	5.783473	2.4048853
8.112896291271687	5.8453536	2.4177165
8.130467151366968	5.8703046	2.422871
8.148038202945436	5.948703	2.4389963
8.165609446426497	5.9111686	2.4312894
8.183180882229594	5.9771833	2.4448278
8.200752510774217	5.9219584	2.4335074
8.218324332479893	5.9439116	2.4380138
8.235896347766193	5.8918424	2.4273117
8.253468557052724	5.889742	2.426879
8.27104096075914	5.881746	2.425231
8.288613559305137	5.978761	2.4451506
8.306186353110448	6.069244	2.4635835
8.32375934259485	6.1830354	2.486571
8.341332528178162	6.1677775	2.483501
8.358905910280246	6.177926	2.4855435
8.376479489321003	6.1956835	2.489113
8.394053265720377	6.3049393	2.510964
8.411627239898356	6.398911	2.5296068
8.42920141227497	6.393284	2.5284944
8.44677578327029	6.358788	2.5216637
8.464350353304427	6.255486	2.501097
8.48192512279754	6.235736	2.4971457
8.499500092169827	6.175249	2.485005
8.51707526184153	6.1619263	2.4823227
8.534650632232934	6.1206884	2.4740026
8.552226203764365	6.124067	2.4746852
8.569801976856192	6.143771	2.4786632
8.587377951928834	6.1858068	2.4871283
8.60495412940274	6.2359858	2.4971955
8.622530509698416	6.275898	2.5051742
8.6401070932364	6.3624516	2.5223901
8.657683880437283	6.5038733	2.5502694
8.675260871721695	6.644085	2.5776122
8.692838067510303	6.785419	2.6048837
8.710415468223834	6.954539	2.637146
8.727993074283043	7.102439	2.6650403
8.745570886108737	7.162889	2.6763575
8.763148904121765	7.2483516	2.6922762
8.78072712874302	7.271973	2.6966596
8.798305560393441	7.4752812	2.734096
8.815884199494006	7.522569	2.7427301
8.833463046465745	7.6702957	2.7695298
8.851042101729728	7.8448243	2.8008614
8.86862136570707	8.193151	2.862368
8.886200838818924	8.345135	2.8887947
8.903780521486505	8.394496	2.8973258
8.921360414131055	8.448834	2.906688
8.938940517173874	8.593709	2.9315028
8.956520831036297	8.821176	2.9700463
8.97410135613971	9.122835	3.0204031
8.99168209290554	9.279614	3.046246
9.009263041755265	9.509511	3.0837495
9.026844203110405	9.759414	3.124006
9.044425577392525	9.936127	3.1521623
9.062007165023239	10.032327	3.1673849
9.079588966424197	10.27862	3.2060287
9.097170982017108	10.386925	3.222875
9.11475321222372	11.39714	3.3759649
9.132335657465825	12.276984	3.5038528
9.149918318165264	12.388752	3.5197659
9.167501194743924	12.872015	3.587759
9.18508428762374	12.58937	3.5481503
9.202667597226693	12.639692	3.5552344
9.220251123974803	12.366888	3.5166585
9.237834868290143	12.029561	3.4683657
9.255418830594836	11.809969	3.4365635
9.273003011311046	11.325414	3.3653252
9.290587410860985	11.124181	3.3352933
9.308172029666911	10.497502	3.239985
9.32575686815113	10.198608	3.193526
9.343341926735997	8.8661585	2.9776096
9.360927205843916	8.570237	2.9274967
9.378512705897327	8.359926	2.8913536
9.396098427318728	8.100153	2.8460767
9.413684370530664	8.067796	2.8403866
9.431270535955722	7.966699	2.822534
9.448856924016539	7.9101877	2.8125055
9.466443535135806	7.721588	2.7787745
9.484030369736251	7.738289	2.781778
9.501617428240658	7.7670403	2.786941
9.519204711071852	7.8148274	2.7955012
9.536792218652714	7.8345885	2.7990334
9.55437995140617	7.779386	2.789155
9.571967909755191	7.798202	2.792526
9.589556094122802	7.8492255	2.801647
9.60714450493207	7.92943	2.8159244
9.624733142606116	7.952705	2.820054
9.642322007568108	7.9586496	2.8211079
9.659911100241267	7.9654865	2.8223193
9.677500421048851	7.97656	2.8242805
9.695089970414175	8.038291	2.835188
9.712679748760609	8.078856	2.8423328
9.730269756511557	8.103204	2.8466127
9.747859994090492	8.087179	2.8437967
9.765450461920915	8.136543	2.8524628
9.78304116042639	8.169368	2.8582106
9.800632090030527	8.222211	2.8674397
9.81822325115699	8.251338	2.8725142
9.835814644229481	8.329937	2.886163
9.853406269671762	8.361562	2.8916366
9.870998127907646	8.346079	2.888958
9.888590219360985	8.327188	2.8856866
9.906182544455698	8.313053	2.8832366
9.923775103615734	8.389895	2.8965316
9.941367897265108	8.440119	2.9051883
9.958960925827878	8.449954	2.9068804
9.97655418972816	8.424014	2.9024153
9.994147689390106	8.40242	2.8986928
10.011741425237934	8.338006	2.8875606
10.029335397695904	8.30472	2.881791
10.04692960718833	8.2936945	2.8798776
10.06452405413958	8.254407	2.8730483
10.082118738974064	8.295649	2.8802168
10.099713662116246	8.333847	2.8868403
10.117308823990651	8.4107485	2.900129
10.134904225021844	8.362623	2.89182
10.152499865634445	8.25239	2.8726974
10.170095746253125	8.210682	2.8654287
10.18769186730261	8.245185	2.871443
10.205288229207675	8.272221	2.8761468
10.222884832393145	8.279443	2.877402
10.2404816772839	8.156178	2.8559024
10.258078764304868	8.132905	2.8518248
10.275676093881035	8.044689	2.836316
10.293273666437438	7.9911194	2.8268569
10.310871482399158	8.026335	2.8330786
10.32846954219134	8.088673	2.8440592
10.346067846239173	8.220043	2.8670619
10.363666394967908	8.20286	2.8640635
10.38126518880283	8.253071	2.8728158
10.398864228169298	8.237481	2.8701012
10.416463513492713	8.267197	2.8752732
10.434063045198531	8.253271	2.8728507
10.451662823712262	8.226885	2.8682547
10.469262849459467	8.225158	2.8679535
10.486863122865758	8.113724	2.84846
10.504463644356806	8.058621	2.838771
10.522064414358338	7.9938955	2.8273478
10.539665433296118	8.012	2.8305476
10.557266701595987	7.962816	2.8218462
10.574868219683818	7.8419304	2.8003447
10.592469987985552	7.679235	2.7711432
10.610072006927185	7.5096436	2.740373
10.627674276934751	7.4817085	2.7352712
10.64527679843435	7.387447	2.7179859
10.662879571852143	7.3369145	2.708674
10.680482597614331	7.2348795	2.689773
10.698085876147173	7.181907	2.679908
10.715689407876988	7.0576825	2.6566298
10.733293193230146	6.889906	2.6248631
10.750897232633072	6.659226	2.5805476
10.76850152651225	6.564343	2.5620973
10.786106075294207	6.5076222	2.5510042
10.803710879405534	6.4209886	2.533967
10.821315939272877	6.3955092	2.5289345
10.83892125532294	6.3392677	2.5177903
10.856526827982472	6.2609773	2.5021944
10.874132657678285	6.2242103	2.4948368
10.891738744837243	6.172819	2.484516
10.909345089886271	6.1894255	2.4878557
10.926951693252343	6.1307106	2.4760273
10.944558555362494	6.0965805	2.4691255
10.96216567664381	6.009239	2.451375
10.979773057523436	5.9336767	2.435914
10.997380698428573	5.9221783	2.4335525
11.014988599786477	5.8565397	2.420029
11.032596762024461	5.7846017	2.40512
11.050205185569892	5.764157	2.4008658
11.067813870850198	5.6837826	2.3840685
11.085422818292859	5.688328	2.3850214
11.10303202832541	5.5466676	2.3551364
11.120641501375454	5.429328	2.330092
11.138251237870636	5.3183117	2.3061466
11.155861238238671	5.3044806	2.303146
11.173471502907317	5.2735434	2.2964196
11.191082032304402	5.1904263	2.2782507
11.208692826857805	5.0738297	2.2525163
11.226303886995465	5.0306034	2.2429006
11.243915213145371	4.9812098	2.2318623
11.261526805735578	4.9007554	2.213765
11.279138665194196	4.804489	2.1919146
11.296750791949393	4.765921	2.183099
11.314363186429393	4.7513337	2.1797554
11.331975849062479	4.741332	2.17746
11.34958878027699	4.7040033	2.1688714
11.36720198050133	4.613239	2.1478453
11.384815450163948	4.5691423	2.1375551
11.402429189693366	4.52508	2.1272235
11.420043199518153	4.547669	2.1325264
11.437657480066942	63.505894	7.9690585
11.455272031768422	85.285385	9.235008
11.472886855051353	107.69398	10.377571
11.490501950344528	99.21775	9.960811
11.508117318076819	84.51669	9.193296
11.52573295867715	45.856834	6.7717676
11.543348872574514	4.14922	2.0369635
11.560965060197946	4.1284537	2.0318596
11.57858152197655	4.087572	2.0217745
11.59619825833949	4.0590386	2.0147057
11.613815269715985	4.0241575	2.0060303
11.631432556535323	38.584522	6.211644
11.649050119226837	83.11196	9.116576
11.666667958219929	93.46985	9.66798
11.68428607394406	107.70129	10.377923
11.701904466828756	82.54739	9.08556
11.719523137303586	65.38996	8.086406
11.737142085798196	4.605249	2.1459844
11.754761312742286	3.7187347	1.9284021
11.772380818565619	3.6753764	1.9171271
11.790000603698015	3.664584	1.9143103
11.80762066856935	3.6124847	1.9006537
11.825241013609572	3.5580537	1.8862804
11.842861639248683	3.549028	1.8838863
11.860482545916748	3.551993	1.8846731
11.878103734043883	3.518439	1.8757503
11.895725204060282	3.428286	1.8515631
11.91334695639619	3.3415403	1.827988
11.930968991481919	3.337038	1.8267561
11.948591309747824	3.3321035	1.825405
11.966213911624347	3.3436122	1.8285546
11.98383679754198	3.3298862	1.8247976
12.001459967931268	3.351721	1.8307706
12.019083423222835	3.3471825	1.8295307
12.036707163847352	3.3170702	1.8212826
12.05433119023556	3.2811315	1.8113893
12.071955502818259	3.2565134	1.8045812
12.089580102026313	3.252735	1.803534
12.107204988290643	3.2519467	1.8033155
12.12483016204224	3.2169962	1.7935987
12.142455623712152	3.1433141	1.7729394
12.16008137373149	3.0606413	1.7494688
12.177707412531431	2.9940495	1.7303323
12.19533374054321	2.9976366	1.7313684
12.212960358198126	2.9738176	1.724476
12.230587265927545	2.993836	1.7302705
12.248214464162889	2.9963138	1.7309864
12.265841953335649	3.0261784	1.7395915
12.283469733877375	3.004093	1.7332319
12.301097806219685	2.9890547	1.7288883
12.31872617079425	3.001214	1.7324013
12.336354828032825	2.9887466	1.7287992
12.353983778367205	2.956392	1.7194161
12.371613022229262	2.9192543	1.7085825
12.389242560050928	2.903198	1.7038773
12.406872392264201	2.9259095	1.710529
12.424502519301143	2.9213848	1.7092059
12.442132941593874	2.9164448	1.7077602
12.459763659574586	2.886501	1.6989706
12.477394673675532	2.841263	1.6856047
12.49502598432903	2.8421035	1.685854
12.51265759196746	2.8486784	1.6878028
12.530289497023267	2.8887556	1.699634
12.547921699928967	2.851316	1.688584
12.565554201117134	2.8224366	1.6800109
12.583187001020404	2.8107624	1.6765329
12.600820100071486	2.8512201	1.6885556
12.618453498703152	2.8411584	1.6855736
12.636087197348235	2.7810624	1.6676518
12.65372119643964	2.7585688	1.6608939
12.671355496410326	2.8076575	1.6756066
12.68899009769333	2.8696446	1.6940025
12.706625000721749	2.9038866	1.7040794
12.724260205928752	2.9314032	1.7121341
12.741895713747551	2.9447944	1.7160404
12.759531524611454	2.9769146	1.7253737
12.777167638953818	2.9808495	1.7265137
12.794804057208072	2.9811776	1.7266086
12.812440779807702	3.0105212	1.7350854
12.830077807186271	3.1863925	1.7850469
12.847715139777405	3.2437088	1.8010299
12.865352778014795	3.4628527	1.8608742
12.882990722332197	3.6190798	1.902388
12.90062897316344	3.7030182	1.9243228
12.918267530942412	3.7531893	1.937315
12.935906396103071	3.5978556	1.8968014
12.953545569079449	3.7410305	1.9341744
12.971185050305628	3.5815198	1.8924904
12.988824840215775	3.565766	1.8883237
13.006464939244115	3.544719	1.8827424
13.024105347824943	3.3600473	1.8330432
13.041746066392617	3.4290304	1.8517641
13.05938709538157	3.2577474	1.804923
13.077028435226296	3.3308332	1.825057
13.094670086361363	3.286193	1.812786
13.112312049221401	3.2304285	1.7973393
13.129954324241112	3.120166	1.7663991
13.147596911855258	2.8806076	1.6972352
13.165239812498685	2.8231435	1.6802213
13.182883026606293	2.7639601	1.6625162
13.200526554613058	2.7309973	1.652573
13.218170396954017	2.76082	1.6615715
13.235814554064284	2.704963	1.6446772
13.253459026379034	2.6771824	1.6362097
13.271103814333523	2.6372476	1.6239605
13.288748918363058	2.6244671	1.6200207
13.306394338903031	2.6218355	1.6192083
13.32404007638889	2.6270714	1.6208243
13.341686131256164	2.6694624	1.633849
13.359332503940449	2.6873229	1.6393056
13.376979194877402	2.6580424	1.6303504
13.394626204502751	2.6464329	1.6267861
13.412273533252307	2.6673534	1.6332034
13.429921181561937	2.6939695	1.6413317
13.447569149867581	2.73715	1.6544334
13.465217438605247	2.7230976	1.650181
13.482866048211022	2.6972106	1.6423186
13.500514979121052	2.6869125	1.6391804
13.518164231771568	2.6650372	1.6324942
13.535813806598844	2.6591425	1.6306877
13.553463704039254	2.6470444	1.626974
13.571113924529229	2.6803257	1.6371701
13.588764468505275	2.7205973	1.6494234
13.606415336403956	2.7410247	1.655604
13.624066528661917	2.765416	1.662954
13.641718045715882	2.80617	1.6751627
13.659369888002635	2.8323498	1.6829586
13.67702205595903	2.865433	1.692759
13.694674550021993	2.9601219	1.7205005
13.712327370628532	3.0323403	1.7413616
13.729980518215713	3.0998235	1.7606316
13.747633993220681	3.0992982	1.7604824
13.765287796080647	3.1163228	1.765311
13.7829419272329	3.19805	1.7883092
13.800596387114801	3.2979674	1.8160306
13.818251176163775	3.4089694	1.8463395
13.835906294817324	3.4992719	1.8706341
13.853561743513023	3.5176592	1.8755424
13.871217522688525	3.495208	1.8695475
13.888873632781538	3.5124834	1.8741621
13.906530074229858	3.510481	1.8736278
13.92418684747135	3.4748266	1.8640887
13.941843952943948	3.4558933	1.8590033
13.959501391085665	3.406041	1.8455462
13.977159162334578	3.382012	1.8390247
13.994817267128846	3.3408997	1.8278128
14.012475705906693	3.249426	1.8026164
14.030134479106424	3.171703	1.7809275
14.047793587166414	3.0910733	1.7581449
14.065453030525108	3.0178132	1.7371855
14.083112809621026	2.9570696	1.7196132
14.100772924892766	2.9066522	1.7048907
14.118433376778997	2.901751	1.7034527
14.136094165718458	2.8577056	1.690475
14.153755292149969	2.7591798	1.6610779
14.171416756512416	2.6843414	1.638396
14.189078559244768	2.630841	1.6219867
14.20674070078606	2.6213944	1.6190721
14.224403181575408	2.5678282	1.6024444
14.242066002051999	2.545078	1.5953301
14.259729162655093	2.4928343	1.5788713
14.277392663824022	2.4383419	1.561519
14.295056505998208	2.3969018	1.5481931
14.312720689617128	2.3552008	1.5346663
14.330385215120348	2.3270597	1.5254704
14.348050082947497	2.318253	1.5225811
14.3657152935383	2.3517857	1.5335532
14.383380847332528	2.420004	1.5556362
14.401046744770051	2.4289134	1.5584972
14.418712986290798	2.3762321	1.5415032
14.436379572334793	2.3416533	1.5302461
14.454046503342123	2.3285348	1.5259538
14.471713779752946	2.383142	1.5437429
14.489381402007504	2.4254594	1.5573887
14.507049370546113	2.419162	1.5553656
14.524717685809168	2.4217803	1.5562071
14.542386348237134	2.4063368	1.5512372
14.560055358270553	2.4296448	1.5587318
14.577724716350051	2.4371567	1.5611396
14.595394422916325	2.4297087	1.5587523
14.61306447841015	2.4337294	1.5600414
14.63073488327237	2.4708211	1.5718846
14.648405637943917	2.518948	1.5871195
14.6660767428658	2.510441	1.5844371
14.683748198479094	2.4980543	1.5805234
14.701420005224954	2.5163875	1.5863125
14.719092163544628	2.5836747	1.6073813
14.73676467387942	2.6274958	1.6209552
14.754437536670727	2.6494248	1.6277053
14.772110752360014	2.6664608	1.6329302
14.78978432138882	2.643688	1.6259422
14.807458244198777	2.664098	1.6322064
14.82513252123159	2.6599195	1.630926
14.842807152929028	2.6817257	1.6375976
14.860482139732962	2.6459906	1.6266501
14.87815748208531	2.6408029	1.6250547
14.8958331804281	2.6671746	1.6331487
14.91350923520342	2.647172	1.6270132
14.931185646853438	2.6870003	1.6392072
14.948862415820408	2.6636438	1.6320673
14.966539542546656	2.6927018	1.6409454
14.98421702747459	2.6334548	1.6227922
15.001894871046696	2.6282735	1.6211951
15.019573073705542	2.6497579	1.6278077
15.037251635893766	2.6653662	1.632595
15.054930558054092	2.696113	1.6419845
15.072609840629323	2.747738	1.6576302
15.090289484062351	2.871054	1.6944184
15.107969488796124	3.1207488	1.7665641
15.125649855273691	3.4728785	1.863566
15.14333058393817	3.9587011	1.9896485
15.161011675232768	4.9525623	2.2254353
15.17869312960076	6.343809	2.518692
15.196374947485506	8.246279	2.8716335
15.214057129330447	11.344507	3.3681607
15.231739675579114	16.117636	4.0146775
15.249422586675102	21.233711	4.608005
15.267105863062092	24.561619	4.955968
15.284789505183847	24.911657	4.991158
15.302473513484218	22.80157	4.7750993
15.320157888407127	19.120974	4.3727536
15.337842630396578	14.840493	3.8523362
15.355527739896656	11.481174	3.3883882
15.37321321735153	8.830051	2.9715402
15.39089906320545	6.4437795	2.53846
15.408585277902748	4.904605	2.2146342
15.42627186188783	3.8461235	1.9611536
15.443958815605198	3.280701	1.8112705
15.461646139499424	2.937904	1.7140315
15.479333834015168	2.7718573	1.6648896
15.497021899597165	2.7194316	1.6490699
15.514710336690234	2.6757076	1.635759
15.53239914573928	2.6456764	1.6265535
15.550088327189297	2.6025019	1.6132271
15.567777881485336	2.572634	1.6039432
15.58546780907256	2.5009599	1.5814424
15.6031581103962	2.474426	1.5730308
15.620848785901568	2.4559586	1.5671499
15.638539836034063	2.4512033	1.565632
15.656231261239173	2.4374256	1.5612257
15.673923061962451	2.4012725	1.5496039
15.691615238649552	2.4170673	1.554692
15.709307791746202	2.4117389	1.5529774
15.727000721698221	2.4057062	1.5510339
15.744694028951498	2.416496	1.5545083
15.76238771395202	2.4051902	1.5508676
15.780081777145844	2.4545958	1.566715
15.797776218979125	2.4457564	1.5638914
15.815471039898094	2.4536998	1.566429
15.833166240349064	2.3955543	1.5477579
15.850861820778437	2.359562	1.5360866
15.868557781632699	2.3435206	1.5308561
15.886254123358412	2.3664923	1.5383408
15.903950846402232	2.394625	1.5474576
15.921647951210897	2.3842483	1.5441011
15.939345438231225	2.3671486	1.5385541
15.957043307910133	2.3389332	1.5293571
15.974741560694602	2.3519905	1.53362
15.992440197031714	2.384292	1.5441152
16.01013921736862	2.403099	1.5501932
16.02783862215259	2.3858314	1.5446136
16.045538411830933	2.3692985	1.5392525
16.06323858685107	2.3734431	1.5405983
16.080939147660512	2.3588443	1.5358529
16.09864009470684	2.352556	1.5338044
16.11634142843774	2.362158	1.5369314
16.134043149300954	2.3730297	1.5404642
16.15174525774433	2.3967142	1.5481325
16.169447754215817	2.3777273	1.5419881
16.18715063916342	2.3735669	1.5406384
16.204853913035244	2.3593304	1.5360112
16.222557576279478	2.388265	1.5454012
16.240261629344403	22.405401	4.733434
16.257966072678386	42.925926	6.551788
16.275670906729868	38.01382	6.165535
16.293376131947387	2.4464025	1.564098
16.31108174877957	2.5103421	1.5844059
16.328787757675133	2.601532	1.6129265
16.34649415908287	2.6377914	1.6241279
16.364200953451657	2.6556005	1.6296014
16.38190814123048	2.658812	1.6305864
16.39961572286839	2.6816354	1.6375699
16.41732369881455	2.7266774	1.6512654
16.43503206951817	2.715675	1.6479305
16.45274083542859	2.7417066	1.65581
16.47044999699522	2.7715826	1.6648071
16.488159554667558	2.8811133	1.6973842
16.505869508895184	2.9603536	1.7205678
16.523579860127786	2.9967184	1.7311032
16.541290608815117	3.0074039	1.7341868
16.559001755407035	2.9841547	1.7274706
16.57671330035348	2.9976656	1.7313768
16.59442524410448	3.0956714	1.759452
16.61213758711015	3.1704175	1.7805667
16.629850329820705	3.2231715	1.7953193
16.647563472686436	3.3221154	1.8226671
16.665277016157724	3.428522	1.8516269
16.682990960685053	3.5165126	1.8752366
16.70070530671898	3.5657666	1.8883238
16.718420054710155	3.561632	1.8872286
16.736135205109335	3.5652888	1.8881972
16.753850758367335	3.5815127	1.8924885
16.771566714935087	3.6358147	1.9067812
16.789283075263597	3.6953456	1.9223282
16.80699983980398	3.77096	1.941896
16.82471700900741	3.8074994	1.9512814
16.84243458332518	3.9171038	1.9791675
16.860152563208665	4.03736	2.0093184
16.87787094910932	4.12769	2.0316718
16.89558974147871	4.127536	2.0316339
16.913308940768466	4.1514273	2.0375051
16.931028547430333	4.2008176	2.0495896
16.94874856191613	4.284257	2.0698447
16.966468984677785	4.3360147	2.08231
16.98418981616729	4.413427	2.1008158
17.00191105683676	4.4830313	2.117317
17.019632707138374	4.52461	2.127113
17.03735476752442	4.4577637	2.1113417
17.05507723844728	4.429433	2.104622
17.072800120359403	4.4617496	2.1122854
17.090523413713353	4.5757675	2.1391044
17.108247118961785	4.5840926	2.1410494
17.125971236557437	4.5759826	2.1391547
17.143695766953133	4.6159334	2.1484723
17.161420710601806	4.6528716	2.1570516
17.179146067956477	4.6400285	2.1540725
17.19687183947025	4.6342607	2.1527333
17.21459802559634	4.6561604	2.1578138
17.232324626788028	4.6636977	2.1595597
17.25005164349871	4.7055893	2.1692371
17.267779076181863	4.7077594	2.169737
17.285506925291074	4.693352	2.1664145
17.30323519127999	4.6434584	2.1548686
17.320963874602384	4.638592	2.153739
17.33869297571211	4.590116	2.1424556
17.356422495063114	4.572459	2.138331
17.37415243310944	4.5151215	2.1248815
17.391882790305218	4.518816	2.1257508
17.40961356710468	4.5212164	2.126315
17.42734476396215	4.57507	2.1389413
17.445076381332044	4.608517	2.1467457
17.462808419668868	4.6200647	2.1494336
17.48054087942723	4.7137136	2.171109
17.498273761061835	5.009036	2.2380877
17.51600706502747	5.464971	2.3377278
17.533740791779024	6.16427	2.4827948
17.551474941771485	7.6320176	2.7626107
17.56920951545993	8.75834	2.9594493
17.586944513299528	10.955788	3.3099527
17.60467993574556	12.697819	3.5633998
17.622415783253373	14.49743	3.807549
17.64015205627843	15.930871	3.9913495
17.657888755276293	16.966158	4.1189995
17.675625880702604	17.494719	4.1826687
17.69336343301311	17.263847	4.1549788
17.71110141266366	16.447416	4.0555415
17.728839820110178	15.43434	3.928656
17.746578655808705	14.444194	3.800552
17.764317920215372	12.914476	3.5936718
17.7820576137864	11.373533	3.372467
17.79979773697811	9.401175	3.0661335
17.81753829024692	7.5288415	2.7438734
17.835279274049356	5.863962	2.421562
17.85302068884201	4.8468714	2.2015612
17.870762535081607	4.2179527	2.0537655
17.888504813224934	3.9152648	1.9787028
17.90624752372891	3.7252681	1.9300953
17.923990667050536	3.6233912	1.9035207
17.941734243646895	3.524572	1.8773843
17.959478253975185	3.4908605	1.8683845
17.9772226984927	3.4144695	1.8478283
17.994967577656833	3.3717103	1.8362217
18.01271289192506	3.3330116	1.8256538
18.030458641754965	3.3486726	1.8299379
18.04820482760425	3.3485482	1.8299038
18.06595144993067	3.3640232	1.8341274
18.083698509192125	3.3355496	1.8263487
18.101446005846576	3.2765746	1.8101311
18.119193940352105	3.244442	1.8012334
18.136942313166887	3.2117178	1.7921267
18.1546911247492	3.1864817	1.7850718
18.1724403755574	3.1624162	1.7783184
18.19019006604997	3.173738	1.7814988
18.207940196685467	3.1651306	1.7790813
18.225690767922575	3.141573	1.7724483
18.243441780220046	3.1169322	1.7654835
18.261193234036764	3.1102493	1.7635899
18.278945129831676	3.0811234	1.7553129
18.29669746806386	3.020585	1.737983
18.314450249192483	3.015904	1.7366358
18.3322034736768	3.0453029	1.7450796
18.349957141976184	3.0817964	1.7555046
18.3677112545501	3.0877242	1.7571921
18.385465811858108	3.058475	1.7488496
18.403220814359884	3.0506728	1.7466176
18.420976262515172	3.093376	1.7587996
18.43873215678387	3.1083672	1.7630562
18.456488497625923	3.1206367	1.7665324
18.474245285501407	3.1399786	1.7719985
18.492002520870486	3.21777	1.7938144
18.50976020419343	3.2887661	1.8134955
18.527518335930615	3.647834	1.9099303
18.545276916542516	4.254303	2.062596
18.563035946489688	4.458259	2.111459
18.580795426232832	4.9235616	2.21891
18.598555356232698	4.778175	2.1859038
18.616315736950185	5.045884	2.2463045
18.63407656884626	4.6493454	2.156234
18.65183785238201	4.8447804	2.2010863
18.669599588018617	4.61698	2.148716
18.68736177621737	4.6864204	2.1648142
18.705124417439652	4.666606	2.1602328
18.72288751214696	4.475851	2.1156206
18.740651060800886	4.582283	2.1406267
18.758415063863115	4.310323	2.0761318
18.77617952179546	4.4715214	2.1145973
18.793944435059814	4.265511	2.0653114
18.811709804118184	4.276113	2.0678763
18.829475629432675	4.188967	2.0466967
18.8472419114655	3.9739673	1.9934812
18.86500865067897	4.050418	2.012565
18.88277584753551	3.7293	1.9311396
18.90054350249763	3.773393	1.9425223
18.918311616027957	3.467353	1.862083
18.936080188589226	3.3605623	1.8331836
18.953849220644265	3.0398846	1.7435265
18.971618712656007	2.9302943	1.7118102
18.9893886650875	2.8583474	1.6906648
19.007159078401887	8.010117	2.830215
19.024929953062408	32.879642	5.7340775
19.042701289532435	32.85078	5.73156
19.060473088275405	25.378586	5.0377164
19.07824534975489	2.6106849	1.6157614
19.096018074434568	2.584588	1.6076654
19.113791262778197	2.5992422	1.6122166
19.13156491524966	2.618498	1.6181774
19.149339032312945	2.5973	1.6116141
19.167113614432136	2.5563488	1.5988586
19.184888662071433	2.5196018	1.5873253
19.202664175695123	2.540591	1.5939231
19.220440155767623	2.5491812	1.5966156
19.238216602753447	2.5450494	1.595321
19.2559935171172	2.5186763	1.5870337
19.27377089932361	2.5114326	1.58475
19.291548749837514	2.4759505	1.5735153
19.309327069123835	2.434872	1.5604076
19.32710585764763	2.4169874	1.5546663
19.344885115874032	2.4371698	1.5611438
19.362664844268313	2.4684663	1.5711354
19.380445043295822	2.4738095	1.5728348
19.39822571342203	2.4573605	1.567597
19.41600685511252	2.4474566	1.5644349
19.43378846883297	2.4668179	1.5706106
19.451570555049173	2.4598343	1.568386
19.469353114227037	2.4608045	1.5686952
19.48713614683254	2.4616256	1.5689569
19.50491965333182	2.50552	1.5828835
19.52270363419109	2.4811394	1.5751632
19.540488089876686	2.4854593	1.5765339
19.55827302085503	2.4683197	1.5710887
19.576058427592674	2.508565	1.583845
19.593844310556282	2.5353086	1.5922652
19.611630670212598	2.549536	1.5967267
19.629417507028506	2.49064	1.5781761
19.64720482147098	2.511675	1.5848265
19.6649926140071	2.5338216	1.5917982
19.682780885104084	2.5482078	1.5963106
19.70056963522921	2.5013673	1.5815711
19.718358864849908	2.4871473	1.5770692
19.7361485744337	2.4794197	1.5746173
19.753938764448215	2.497131	1.5802313
19.771729435361202	2.5017157	1.5816813
19.789520587640506	2.5222569	1.5881615
19.807312221754092	2.514378	1.585679
19.825104338170043	2.5019248	1.5817474
19.842896937356517	2.5283043	1.5900643
19.860690019781824	2.5398684	1.5936965
19.87848358591436	2.5510275	1.5971936
19.896277636222635	2.5237598	1.5886346
19.914072171175278	2.5457964	1.5955552
19.931867191241015	2.5045342	1.582572
19.94966269688869	2.4906254	1.5781715
19.967458688587264	2.4276967	1.5581068
19.985255166805807	2.4051313	1.5508486
20.00305213201348	2.444088	1.563358
20.020849584679578	2.4603724	1.5685575
20.038647525273507	2.4656043	1.5702243
20.05644595426477	2.4767628	1.5737734
20.07424487212299	2.4862962	1.5767994
20.092044279317903	2.480405	1.5749302
20.109844176319353	2.4334795	1.5599614
20.127644563597304	2.401751	1.5497584
20.145445441621817	2.3843997	1.5441501
20.16324681086307	2.395909	1.5478724
20.181048671791373	2.3898902	1.5459269
20.198851024877122	2.3778894	1.5420407
20.216653870590836	2.3844323	1.5441607
20.234457209403146	2.3872657	1.5450779
20.252261041784802	2.3795574	1.5425814
20.270065368206662	2.3586469	1.5357887
20.287870189139685	2.3558364	1.5348734
20.305675505054968	2.3678112	1.5387694
20.323481316423702	2.3482935	1.5324143
20.341287623717207	2.3482697	1.5324064
20.359094427406884	2.3555017	1.5347644
20.376901727964288	2.3678699	1.5387884
20.39470952586107	2.341558	1.530215
20.41251782156899	2.3148744	1.5214711
20.430326615559935	2.2681365	1.5060334
20.448135908305886	2.281501	1.5104638
20.465945700278965	2.3154888	1.5216731
20.483755991951384	2.3410335	1.5300436
20.50156678379548	2.334317	1.5278472
20.519378076283708	2.3237548	1.5243866
20.537189869888635	2.3453813	1.5314637
20.55500216508294	2.325523	1.5249665
20.572814962339415	2.3128092	1.5207922
20.59062826213098	2.3087268	1.5194495
20.60844206493066	2.3242629	1.5245533
20.626256371211593	2.3343747	1.527866
20.644071181447032	2.36368	1.5374264
20.66188649611036	2.3673189	1.5386094
20.67970231567506	2.348712	1.5325508
20.697518640614742	2.3127074	1.5207589
20.715335471403122	2.305611	1.5184238
20.73315280851404	2.3605764	1.5364168
20.750970652421447	2.368595	1.539024
20.768789003599412	2.3639286	1.5375073
20.786607862522136	2.3583565	1.5356941
20.8044272296639	2.3424692	1.5305127
20.82224710549913	2.3136065	1.5210544
20.84006749050237	2.2879965	1.5126125
20.857888385148268	3.8571768	1.9639697
20.8757097899116	45.983616	6.781122
20.893531705267254	64.8339	8.05195
20.911354131690224	83.83225	9.155995
20.92917706965566	69.08214	8.311566
20.94700051963877	50.136692	7.0807266
20.96482448211493	29.420076	5.424028
20.982648957559622	4.170906	2.0422797
21.00047394644843	2.2689676	1.5063093
21.01829944925707	2.2393372	1.4964415
21.036125466461375	2.2177625	1.4892154
21.053951998537297	2.216975	1.488951
21.071779045960906	2.2318978	1.4939537
21.089606609208378	2.2311711	1.4937105
21.10743468875603	2.2224908	1.490802
21.12526328508028	2.2113028	1.4870449
21.143092398657675	2.1716237	1.4736431
21.16092202996488	2.141402	1.463353
21.17875217947867	2.1646771	1.4712842
21.19658284767596	2.2029555	1.4842356
21.21441403503377	2.183931	1.477813
21.232245742029225	2.16492	1.4713668
21.2500779691396	2.1839738	1.4778274
21.26791071684227	2.2089996	1.4862704
21.28574398561475	2.1847355	1.478085
21.30357777593465	2.1703987	1.4732273
21.321412088279704	2.1505082	1.4664611
21.339246923127792	2.1145089	1.4541351
21.357082280956888	2.1049557	1.4508466
21.3749181622451	2.1175907	1.4551944
21.392754567470647	2.1576788	1.468904
21.41059149711187	2.1664057	1.4718715
21.42842895164726	2.1640153	1.4710592
21.446266931555378	2.1370735	1.4618733
21.464105437314945	2.1288335	1.4590523
21.481944469404798	2.1292093	1.4591811
21.49978402830388	2.1264243	1.4582264
21.51762411449127	2.1174498	1.455146
21.53546472844617	2.0929573	1.4467057
21.553305870647876	2.0633743	1.436445
21.571147541575865	2.0652301	1.4370909
21.58898974170967	2.0880122	1.4449955
21.60683247152899	2.1024535	1.449984
21.62467573151363	2.0663955	1.4374963
21.642519522143523	2.0149608	1.4194931
21.660363843898722	1.9889677	1.4103076
21.6782086972594	2.0308404	1.4250755
21.696054082705864	2.0605574	1.4354641
21.713900000718535	2.0864704	1.444462
21.73174645177795	2.109186	1.4523036
21.749593436364794	2.0758686	1.4407876
21.767440954959845	2.060724	1.4355222
21.785289008044032	2.0104737	1.4179118
21.803137596098388	1.9957082	1.4126954
21.820986719604086	1.9792576	1.406861
21.838836379042412	1.9978694	1.41346
21.85668657489478	2.00688	1.416644
21.87453730764273	2.0004985	1.4143898
21.892388577767914	1.9846075	1.408761
21.91024038575213	1.9622644	1.4008085
21.928092732077285	1.9738976	1.4049547
21.945945617225426	1.9895891	1.410528
21.963799041678694	1.9817978	1.4077634
21.981653005919398	31.313969	5.5958886
21.999507510429943	78.16559	8.84113
22.01736255569286	73.11664	8.550827
22.035218142190818	4.17558	2.0434237
22.05307427040661	1.9387434	1.3923876
22.07093094082315	1.9744788	1.4051615
22.088788153923474	1.997932	1.4134822
22.106645910190746	1.9817636	1.4077512
22.12450421010827	1.9676945	1.4027454
22.142363054159464	1.9641858	1.4014941
22.16022244282787	1.9543496	1.3979806
22.178082376597164	1.9468002	1.3952779
22.195942855951145	1.9569004	1.3988925
22.213803881373742	1.9601094	1.4000391
22.231665453349002	1.9780453	1.40643
22.24952757236111	2.0004184	1.4143615
22.26739023889438	2.0201864	1.4213326
22.28525345343323	2.0246255	1.4228934
22.30311721646225	1.9919976	1.4113815
22.320981528466113	1.9922477	1.41147
22.33884638992964	1.9767256	1.4059607
22.356711801337788	1.9772118	1.4061337
22.37457776317561	1.9942185	1.412168
22.392444275928337	1.9774154	1.406206
22.410311340081282	1.9831324	1.4082373
22.428178956119904	1.9414488	1.3933588
22.446047124529805	1.9418007	1.3934851
22.46391584579669	1.9213809	1.3861388
22.481785120406414	1.9350742	1.3910694
22.49965494884496	1.9323875	1.3901035
22.51752533159841	1.936825	1.3916986
22.53539626915302	1.941378	1.3933334
22.553267761995137	1.9485252	1.3958958
22.571139810611264	1.923863	1.3870339
22.589012415488025	1.9452302	1.3947151
22.60688557711216	1.9638	1.4013565
22.624759295970566	1.9771574	1.4061142
22.642633572550263	1.9388219	1.3924159
22.660508407338362	1.9326487	1.3901974
22.67838380082217	1.9146285	1.383701
22.696259753489077	1.901139	1.378818
22.714136265826614	1.9121507	1.3828053
22.73201333832246	1.91873	1.3851823
22.74989097146439	1.910347	1.382153
22.76776916574035	1.889713	1.3746684
22.785647921638393	1.8918307	1.3754383
22.803527239646712	1.9212725	1.3860997
22.82140712025363	1.935555	1.3912423
22.839287563947593	1.9432286	1.3939973
22.85716857121719	1.9294465	1.3890451
22.875050142551135	1.9456975	1.3948827
22.892932278438277	1.9430676	1.3939396
22.910814979367604	1.9602778	1.4000992
22.928698245828222	1.9519017	1.3971047
22.946582078309387	1.9262371	1.3878894
22.96446647730047	1.9160995	1.3842325
22.98235144329098	1.8856348	1.3731842
23.000236976770562	1.8526623	1.3611253
23.018123078229	1.8473862	1.3591858
23.03600974815619	1.8872697	1.3737794
23.053896987042194	1.896088	1.3769851
23.071784795377173	1.8979399	1.3776574
23.08967317365145	1.9088051	1.3815951
23.10756212235546	1.9111426	1.3824408
23.125451641979787	1.9230984	1.3867582
23.143341733015134	1.8747755	1.3692244
23.161232395952357	1.9107662	1.3823047
23.179123631282426	1.93357	1.3905287
23.197015439496468	1.9740462	1.4050076
23.214907821085717	1.9862124	1.4093305
23.23280077654157	1.9801507	1.4071783
23.250694306355538	1.9827139	1.4080888
23.268588411019277	1.9882313	1.4100466
23.28648309102458	1.9720663	1.4043027
23.304378346863356	1.952326	1.3972566
23.322274179027676	1.9368665	1.3917135
23.340170588009723	1.9407524	1.3931088
23.358067574301852	1.9416431	1.3934286
23.37596513839651	1.9391035	1.392517
23.39386328078629	1.9280808	1.3885535
23.411762001963947	1.9305512	1.3894428
23.429661302422353	1.915809	1.3841275
23.4475611826545	1.8916081	1.3753575
23.46546164315356	1.9152849	1.3839382
23.48336268441279	1.9494113	1.3962132
23.501264306925638	1.9616612	1.4005932
23.51916651118564	1.9353822	1.3911802
23.537069297686497	1.8871813	1.3737471
23.554972666922037	1.8741359	1.3689908
23.57287661938623	1.881214	1.3715736
23.59078115557318	1.9072373	1.3810276
23.608686275977128	1.9035989	1.3797097
23.62659198109246	1.8945135	1.3764132
23.6444982714137	1.9043257	1.379973
23.66240514743549	1.913979	1.3834664
23.68031260965263	1.8970025	1.3773171
23.698220658560068	1.8638726	1.3652372
23.716129294652845	1.8572541	1.3628111
23.7340385184262	1.8800453	1.3711474
23.75194833037546	1.8637047	1.3651757
23.769858730996123	1.8675996	1.3666015
23.78776972078382	1.8966997	1.3772072
23.80568130023431	1.8822527	1.3719522
23.823593469843495	1.8713222	1.3679627
23.841506230107424	1.8767489	1.3699448
23.859419581522275	1.8497499	1.3600551
23.87733352458438	1.8949779	1.376582
23.89524805979019	1.8952105	1.3766664
23.913163187636318	1.8687638	1.3670274
23.931078908619508	1.8616903	1.3644377
23.948995223236633	1.9294189	1.3890352
23.966912131984735	1.9679428	1.4028338
23.98482963536096	1.9954786	1.4126141
24.002747733862616	1.9883583	1.4100915
24.020666427987155	2.0087144	1.4172913
24.038585718232156	2.0260346	1.4233884
24.056505605095353	2.0734894	1.4399616
24.074426089074617	2.1082258	1.4519731
24.092347170667946	2.101723	1.4497321
24.110268850373515	2.0733404	1.4399098
24.128191128689586	2.093151	1.4467727
24.146114006114626	2.0882304	1.4450711
24.164037483147187	2.095439	1.447563
24.181961560286005	2.052955	1.4328136
24.199886238029926	2.0388281	1.4278754
24.21781151687797	2.066844	1.4376522
24.235737397329274	2.0769835	1.4411744
24.253663879883135	2.0452392	1.4301186
24.271590965038975	2.0168326	1.4201523
24.289518653296376	1.9928844	1.4116956
24.30744694515505	2.0255175	1.4232068
24.32537584111486	2.0685213	1.4382355
24.34330534167581	2.0516908	1.4323725
24.361235447338046	2.0800383	1.4422338
24.379166158601876	2.084315	1.4437157
24.39709747596772	2.1320553	1.460156
24.41502939993615	2.1115165	1.4531058
24.432961931007917	2.0601168	1.4353107
24.450895069683856	2.0374177	1.4273814
24.468828816465	2.019555	1.4211105
24.4867631718525	1.9822143	1.4079113
24.504698136347656	1.9707279	1.4038261
24.52263371045192	1.9930409	1.411751
24.540569894666874	1.9883317	1.4100821
24.558506689494266	1.9404539	1.3930018
24.57644409543597	1.9424272	1.3937099
24.594382112994012	1.9172632	1.3846527
24.61232074267057	1.9219571	1.3863467
24.630259984967953	1.8958111	1.3768846
24.64819984038863	1.9163216	1.3843127
24.66614030943522	1.9530303	1.3975086
24.684081392610462	1.9807489	1.4073908
24.702023090417274	2.0046058	1.415841
24.7199654033587	2.0029225	1.4152465
24.737908331937927	2.041914	1.4289556
24.755851876658305	2.0301118	1.42482
24.773796038023324	2.0307045	1.4250278
24.79174081653661	2.0411942	1.4287037
24.809686212701962	2.070193	1.4388165
24.827632227023294	2.073377	1.4399226
24.8455788600047	2.1230881	1.457082
24.8635261121504	2.1717618	1.4736898
24.88147398396475	2.1301408	1.4595002
24.899422475952303	2.0517168	1.4323815
24.917371588617698	2.0294802	1.4245982
24.935321322465768	2.0932145	1.4467945
24.953271678001478	2.2505841	1.5001947
24.97122265572994	2.5045524	1.5825777
24.989174256156414	2.8380194	1.6846422
25.00712647978632	3.283948	1.8121667
25.02507932712521	3.8812222	1.9700818
25.043032798678798	4.392097	2.095733
25.060986894952933	5.0834985	2.2546616
25.078941616453637	5.8115306	2.4107115
25.096896963687055	6.7865896	2.6051083
25.114852937159508	7.931067	2.816215
25.132809537377444	8.397032	2.8977633
25.150766764847468	8.445911	2.906185
25.168724620076347	7.8118215	2.7949636
25.186683103570985	6.7835803	2.6045308
25.204642215838426	5.56006	2.3579779
25.222601957385894	4.212017	2.05232
25.24056232872074	3.1678495	1.7798454
25.25852333035048	2.5431664	1.5947309
25.276484962782778	2.1818035	1.4770929
25.294447226525435	2.0509279	1.4321061
25.312410122086423	2.0083468	1.4171616
25.330373649973843	1.9510435	1.3967975
25.348337810695988	1.9432544	1.3940066
25.366302604761245	1.9360563	1.3914224
25.384268032678207	1.8946704	1.3764702
25.40223409495558	1.8464011	1.3588234
25.420200792102257	1.8436904	1.3578256
25.438168124627246	1.878327	1.3705207
25.45613609303974	1.8376826	1.3556116
25.474104697849057	1.8157524	1.3474985
25.492073939564698	1.7932581	1.3391259
25.510043818696285	1.8082265	1.3447031
25.528014335753614	1.8556561	1.3622247
25.54598549124664	1.9284678	1.3886929
25.56395728568544	1.9049951	1.3802156
25.58192971958028	1.8967494	1.3772253
25.59990279344156	1.8549069	1.3619497
25.617876507779833	1.8615235	1.3643765
25.635850863105826	1.8640805	1.3653134
25.653825859930386	1.8586944	1.3633394
25.671801498764548	1.8843428	1.3727137
25.68977778011949	1.8624506	1.3647163
25.707754704506524	1.8360391	1.3550051
25.725732272437153	1.7998921	1.3416005
25.743710484423012	1.7856652	1.3362879
25.761689340975888	1.7643292	1.3282806
25.77966884260774	1.8047171	1.3433976
25.797648989830662	1.8307267	1.3530436
25.815629783156922	1.8241845	1.3506237
25.83361122309895	1.8104972	1.3455472
25.85159331016929	1.7768165	1.3329728
25.869576044880695	1.7704372	1.3305777
25.887559427746034	1.7470908	1.3217757
25.90554345927836	1.7701042	1.3304526
25.92352813999086	1.8157505	1.3474978
25.94151347039689	1.8304857	1.3529544
25.959499451009965	1.8244718	1.3507301
25.97748608234374	1.828003	1.3520366
25.995473364912062	1.8606347	1.3640509
26.013461299228904	1.8893465	1.374535
26.03144988580839	1.874091	1.3689744
26.04943912516483	1.7821653	1.3349776
26.067429017812675	1.7566367	1.3253818
26.085419564266537	1.8011918	1.3420849
26.103410765041186	1.8776568	1.3702762
26.12140262065155	1.8541235	1.361662
26.139395131612723	1.8366678	1.3552371
26.157388298439948	1.8101021	1.3454003
26.17538212164861	1.8331959	1.3539556
26.193376601754295	1.8541447	1.3616698
26.211371739272714	1.8398875	1.3564246
26.229367534719746	1.7793523	1.3339237
26.247363988611433	1.7506402	1.3231176
26.26536110146397	1.7690449	1.3300545
26.283358873793727	1.7810036	1.3345425
26.301357306117204	1.7664751	1.3290881
26.319356398951104	1.7819135	1.3348833
26.33735615281224	1.8018028	1.3423125
26.35535656821762	1.8217155	1.3497094
26.373357645684404	1.8540756	1.3616444
26.39135938572991	1.8560997	1.3623875
26.409361788871614	1.8708495	1.36779
26.427364855627165	1.8789757	1.3707573
26.445368586514352	1.872597	1.3684287
26.46337298205115	1.8523554	1.3610126
26.48137804275568	1.8203872	1.3492173
26.499383769146217	1.7878231	1.337095
26.517390161741215	1.7738618	1.331864
26.53539722105928	1.7477788	1.3220358
26.553404947619182	1.7726749	1.3314184
26.571413341939856	1.8000902	1.3416744
26.589422404540397	1.7799988	1.3341659
26.60743213594006	1.7481244	1.3221666
26.62544253665827	1.745986	1.3213576
26.64345360721459	1.7507232	1.323149
26.66146534812879	1.7674781	1.3294654
26.679477759920758	1.7691745	1.3301032
26.69749084311057	1.7657077	1.3287994
26.71550459821847	1.8055075	1.3436917
26.733519025764842	1.818258	1.348428
26.751534126270258	1.8736843	1.3688259
26.769549900255434	1.8383658	1.3558635
26.787566348241267	1.8208132	1.3493751
26.80558347074881	1.8134048	1.3466272
26.823601268299267	1.8510821	1.3605448
26.841619741414036	1.8170366	1.347975
26.85963889061465	1.790656	1.338154
26.877658716422832	1.8148093	1.3471485
26.89567921936045	1.873805	1.36887
26.913700399949544	1.8570154	1.3627235
26.93172225871233	1.8104925	1.3455454
26.949744796171174	1.7868965	1.3367485
26.967768012848605	1.7826446	1.3351572
26.98579190926733	1.8065603	1.3440834
27.003816485950225	1.8382707	1.3558284
27.021841743420318	1.8215748	1.3496573
27.039867682200814	1.809529	1.3451873
27.057894302815072	1.8384743	1.3559035
27.07592160578664	1.8747696	1.3692223
27.0939495916392	1.9117227	1.3826506
27.111978260896635	1.856909	1.3626845
27.13000761408296	1.8496399	1.3600147
27.148037651722397	1.8168373	1.3479011
27.166068374339304	1.793862	1.3393513
27.184099782458215	1.7742484	1.3320092
27.20213187660384	1.801175	1.3420786
27.22016465730105	1.7972132	1.3406018
27.23819812507487	1.8108965	1.3456955
27.256232280450533	1.8256428	1.3511635
27.274267123953383	1.8482916	1.3595189
27.292302656108987	1.8268625	1.3516147
27.31033887744306	1.8138894	1.3468071
27.32837578848146	1.8386837	1.3559808
27.34641338975026	1.8280818	1.3520658
27.364451681775673	1.8488224	1.359714
27.382490665084074	1.8419085	1.3571693
27.400530340202046	1.8306583	1.3530183
27.41857070765629	1.7751446	1.3323455
27.436611767973726	1.7572836	1.3256258
27.454653521681404	1.7742532	1.332011
27.472695969306564	1.8276247	1.3518966
27.490739111376627	1.8353887	1.3547652
27.508782948419153	1.8865483	1.3735168
27.526827480961902	1.8694172	1.3672663
27.54487270953279	1.8301812	1.3528419
27.562918634659898	1.8082016	1.3446939
27.580965256871508	1.8115368	1.3459334
27.599012576696026	1.8355414	1.3548216
27.617060594662068	1.835953	1.3549734
27.63510931129842	1.851351	1.3606436
27.65315872713401	1.8740048	1.368943
27.67120884269797	1.8868698	1.3736337
27.68925965851958	1.8666933	1.3662698
27.707311175128307	1.8711684	1.3679066
27.725363393053787	1.8972876	1.3774207
27.74341631282583	1.9216658	1.3862416
27.7614699349744	1.9254053	1.3875897
27.77952426002968	2.0761392	1.4408814
27.797579288521973	2.1022096	1.4498998
27.815635020981784	2.5480707	1.5962677
27.83369145793979	2.6336737	1.6228597
27.85174859992682	2.4425743	1.5628737
27.869806447473923	2.2724993	1.5074811
27.887865001112267	2.0188668	1.4208683
27.905924261373233	1.9555149	1.3983972
27.92398422878836	1.9184017	1.3850638
27.94204490388936	1.8785061	1.370586
27.96010628720813	1.8638718	1.3652369
27.978168379276728	1.8250165	1.3509318
27.9962311806274	1.8005472	1.3418447
28.014294691792568	1.8427672	1.3574857
28.0323589133048	1.8358276	1.3549272
28.050423845696887	1.8420972	1.3572388
28.068489489501758	1.8629881	1.3649132
28.086555845252523	1.8589522	1.363434
28.104622913482487	1.8950888	1.3766222
28.122690694725115	1.876412	1.3698219
28.14075918951405	1.8592756	1.3635526
28.15882839838312	1.843835	1.3578788
28.176898321866304	1.8598721	1.3637713
28.1949689604978	1.8723353	1.3683331
28.213040314811945	1.9135697	1.3833183
28.23111238534327	1.9046872	1.3801041
28.249185172626493	1.9500618	1.3964461
28.267258677196473	1.9367756	1.3916808
28.285332899588294	1.9347341	1.3909472
28.303407840337172	1.912556	1.382952
28.321483499978545	1.9252712	1.3875414
28.33955987904799	1.9144841	1.3836489
28.357636978081285	1.8358161	1.3549229
28.37571479761439	1.8212793	1.3495479
28.393793338183425	1.8978264	1.3776162
28.41187260032469	1.9925021	1.4115602
28.429952584574686	2.0290468	1.4244461
28.448033291470065	2.0382204	1.4276626
28.46611472154769	2.0424595	1.4291464
28.484196875344566	1.9821863	1.4079014
28.502279753397914	1.9779022	1.4063791
28.52036335624511	2.0039127	1.4155962
28.538447684423716	1.9686366	1.4030812
28.556532738471482	1.9463533	1.3951176
28.574618518926325	1.9236662	1.386963
28.59270502632635	1.9309335	1.3895804
28.61079226120985	1.957197	1.3989985
28.628880224115274	2.0011003	1.4146025
28.646968915581287	2.0490096	1.4314362
28.66505833614671	2.0501645	1.4318396
28.68314848635055	1.9899522	1.4106567
28.701239366732004	1.9979326	1.4134824
28.71933097783044	2.022859	1.4222726
28.737423320185403	2.0476217	1.4309514
28.75551639433665	2.050225	1.4318607
28.773610200824074	2.0688837	1.4383614
28.791704740187793	2.107625	1.4517661
28.80980001296809	2.1565003	1.4685028
28.827896019705413	2.184493	1.478003
28.845992760940433	2.1697016	1.4729906
28.86409023721397	2.1252038	1.4578079
28.88218844906704	2.1435764	1.4640957
28.900287397040845	2.189916	1.4798365
28.918387081676755	2.2211888	1.4903653
28.936487503516343	2.2719934	1.5073133
28.954588663101365	2.265699	1.5052239
28.97269056097374	2.2517495	1.500583
28.990793197675597	2.3067222	1.5187896
29.00889657374923	2.3345435	1.5279213
29.027000689737125	2.3381188	1.5290909
29.04510554618196	2.4143186	1.5538077
29.06321114362659	2.462323	1.569179
29.08131748261405	2.4433877	1.563134
29.099424563687567	2.4558184	1.567105
29.11753238739057	2.5173256	1.5866082
29.13564095426663	2.590934	1.6096379
29.15375026485954	2.6964443	1.6420853
29.171860319713275	2.7326365	1.6530688
29.18997111937199	2.7042701	1.6444665
29.20808266438002	2.7399015	1.6552649
29.226194955281898	2.7502205	1.6583788
29.244307992622335	2.7820754	1.6679554
29.26242177694624	2.8059373	1.6750932
29.2805363087987	2.905131	1.7044445
29.29865158872498	2.9232898	1.709763
29.316767617270557	2.9215703	1.7092601
29.334884394981064	2.9374468	1.7138982
29.353001922402367	2.9246964	1.7101744
29.37112020008047	3.0049772	1.733487
29.389239228561596	3.1635416	1.7786348
29.407359008392152	3.3298273	1.8247814
29.42547954011872	3.7015548	1.9239426
29.44360082428809	4.370889	2.0906672
29.46172286144722	5.4234943	2.3288398
29.479845652143283	7.091833	2.6630497
29.497969196923606	9.270293	3.0447156
29.516093496335728	11.796967	3.4346712
29.5342185509274	14.621069	3.8237507
29.55234436124651	16.915249	4.1128154
29.570470927841175	18.492006	4.3002334
29.588598251259686	18.331112	4.2814846
29.60672633205055	16.716093	4.088532
29.624855170762405	14.277848	3.778604
29.642984767944146	11.494026	3.390284
29.66111512414481	8.768345	2.9611392
29.67924623991366	6.556653	2.5605962
29.697378115800138	5.010153	2.238337
29.71551075235387	4.169602	2.0419602
29.733644150124675	3.724114	1.9297963
29.751778309662576	3.4729407	1.8635827
29.769913231517766	3.3806102	1.8386436
29.78804891624066	3.3509429	1.8305581
29.806185364381818	3.3201036	1.8221152
29.82432257649206	3.3188586	1.8217735
29.842460553122333	3.3212843	1.8224391
29.86059929482382	3.3220289	1.8226434
29.878738802147872	3.35379	1.8313355
29.896879075646048	3.3782184	1.837993
29.915020115870114	3.368906	1.835458
29.933161923371976	3.3998642	1.8438721
29.951304498703777	3.370195	1.8358091
29.969447842417857	3.2457578	1.8015987
29.987591955066733	3.2311103	1.797529
30.005736837203123	3.2812505	1.8114222
30.023882489379943	3.3129892	1.8201618
30.04202891215028	3.2241898	1.7956029
30.060176106067455	3.1436534	1.773035
30.078324071684946	3.0616572	1.7497592
30.09647280955646	3.0716336	1.7526077
30.114622320235863	3.0934672	1.7588255
30.132772604277257	3.106482	1.7625215
30.1509236622349	3.1229074	1.767175
30.16907549466328	3.0785642	1.7545837
30.18722810211705	3.0688603	1.7518163
30.205381485151097	3.0887606	1.757487
30.22353564432045	3.0985653	1.7602742
30.241690580180403	3.0259683	1.739531
30.25984629328638	3.0348637	1.742086
30.278002784194037	3.022365	1.7384951
30.296160053459246	3.0204592	1.7379469
30.314318101638033	3.0167477	1.7368788
30.332476929286646	3.0093496	1.7347476
30.35063653696153	2.9800978	1.726296
30.368796925219307	2.9038167	1.7040589
30.386958094616844	2.86056	1.691319
30.40512004571115	2.8331065	1.6831834
30.423282779059463	2.8445055	1.6865662
30.441446295219233	2.7868176	1.6693764
30.459610594748067	2.7591553	1.6610705
30.47777567820382	2.7459223	1.6570824
30.495941546144504	2.7218246	1.6497953
30.51410819912835	2.755811	1.6600635
30.532275637713795	2.7802286	1.6674018
30.55044386245946	2.7689917	1.6640288
30.56861287392416	2.799506	1.6731725
30.586782672666956	2.8333983	1.6832701
30.604953259247047	2.8232439	1.6802511
30.623124634223885	2.805404	1.674934
30.641296798157075	2.7499945	1.6583108
30.659469751606462	2.7453191	1.6569004
30.677643495132074	2.749385	1.658127
30.695818029294152	2.711662	1.6467125
30.713993354653116	2.6754236	1.6356722
30.73216947176962	2.6997607	1.6430949
30.75034638120448	2.7185588	1.6488053
30.768524083518756	2.7103746	1.6463215
30.786702579273673	2.7634354	1.6623584
30.80488186903069	2.837634	1.6845279
30.82306195335144	2.901604	1.7034096
30.841242832797782	3.0949612	1.7592502
30.85942450793176	3.4244757	1.8505338
30.877606979315637	3.8052392	1.9507022
30.895790247511883	4.1380634	2.034223
30.913974313083134	4.460393	2.1119642
30.932159176592283	4.7641644	2.1826966
30.95034483860237	4.8246284	2.1965036
30.968531299676698	4.564674	2.1365097
30.98671856037873	4.3003063	2.073718
31.00490662127215	4.0617094	2.0153682
31.023095482920848	3.6772351	1.9176118
31.04128514588892	3.1960013	1.7877364
31.059475610740662	2.800272	1.6734014
31.07766687804056	2.6056774	1.6142111
31.09585894835335	2.548767	1.5964859
31.11405182224393	2.5150387	1.5858873
31.132245500277417	2.4715567	1.5721185
31.15043998301914	2.4640272	1.569722
31.168635271034628	2.4900336	1.5779841
31.18683136488964	2.5207305	1.5876808
31.20502826515008	2.5669026	1.6021556
31.223225972382135	2.5291064	1.5903164
31.241424487152155	2.4539008	1.5664932
31.259623810026692	2.3763578	1.541544
31.27782394157253	2.3377292	1.5289634
31.296024882356644	2.355	1.534601
31.314226632946237	2.3995595	1.5490512
31.332429193908684	2.4283931	1.5583302
31.350632565811598	2.4377475	1.5613288
31.368836749222787	2.5166874	1.5864071
31.387041744710295	2.5742822	1.604457
31.40524755284232	2.5944574	1.610732
31.423454174187317	2.5885108	1.6088849
31.441661609313922	2.5639963	1.6012484
31.459869858791002	2.4856226	1.5765858
31.478078923187628	2.501298	1.5815492
31.496288803073064	2.4822264	1.5755082
31.514499499016807	2.3968225	1.5481675
31.532711011588546	2.288612	1.5128158
31.550923341358178	2.2660315	1.5053344
31.56913648889584	2.2786112	1.509507
31.587350454771844	2.3352063	1.5281382
31.605565239556732	2.3197856	1.5230843
31.62378084382127	2.2832687	1.5110489
31.641997268136382	2.3858154	1.5446085
31.660214513073274	2.355923	1.5349016
31.67843257920331	2.2901394	1.5133207
31.6966514670981	2.2412026	1.4970647
31.71487117732944	2.2633395	1.50444
31.733091710469346	2.265491	1.5051548
31.751313067090052	2.2851195	1.5116612
31.769535247764008	2.3953524	1.5476925
31.787758253063878	2.3914225	1.5464225
31.805982083562526	2.3276765	1.5256724
31.824206739833024	2.3179004	1.5224652
31.84243222244869	2.3213594	1.5236008
31.860658531983013	2.2789354	1.5096143
31.878885669009737	2.2344358	1.494803
31.897113634102784	2.1973965	1.4823618
31.91534242783632	2.208039	1.4859471
31.933572050784694	2.1918612	1.4804935
31.951802503522508	2.2157962	1.4885551
31.970033786624548	2.1900306	1.4798752
31.988265900665834	2.2226338	1.4908501
32.006498846221575	2.230123	1.4933597
32.02473262386724	2.2063243	1.4853702
32.04296723417845	2.167065	1.4720954
32.0612026777311	2.1581626	1.4690686
32.07943895510129	2.1594453	1.4695051
32.097676066865304	2.1370757	1.461874
32.115914013599685	2.1270022	1.4584246
32.13415279588115	2.1046789	1.4507512
32.152392414286666	2.050242	1.4318666
32.1706328693934	2.110498	1.4527553
32.18887416177875	2.1422026	1.4636265
32.20711629202032	2.1384137	1.4623315
32.225359260695924	2.0563564	1.4340001
32.243603068383614	2.0755463	1.4406756
32.26184771566166	2.1644697	1.4712137
32.28009320310852	2.2057846	1.4851884
32.2983395313029	2.1610732	1.4700589
32.31658670082372	2.1075604	1.451744
32.33483471225012	2.0809054	1.4425343
32.35308356616143	2.0569212	1.4341971
32.371333263137245	2.103818	1.4504544
32.38958380375734	2.1456037	1.464788
32.407835188601744	2.1347456	1.4610769
32.42608741825067	2.1380804	1.4622176
32.444340493284585	2.1212156	1.4564394
32.46259441428416	2.180634	1.476697
32.48084918183028	2.218035	1.4893069
32.49910479650405	2.1700666	1.4731146
32.51736125888683	2.1466568	1.4651474
32.53561856956014	2.0810108	1.4425709
32.5538767291058	2.0037422	1.415536
32.572135738105764	1.9732062	1.4047086
32.59039559714228	2.014133	1.4192015
32.608656306797776	2.0364792	1.4270526
32.62691786765491	2.0656006	1.4372197
32.645180280296586	2.0328484	1.4257799
32.663443545305896	2.0030866	1.4153044
32.68170766326619	1.99306	1.4117577
32.69997263476099	1.9730183	1.4046417
32.7182384603741	1.9024254	1.3792844
32.7365051406895	1.9342161	1.390761
32.75477267629144	2.0422235	1.4290638
32.77304106776434	2.0454185	1.4301813
32.79131031569289	2.0020585	1.4149412
32.809580420661966	2.0217807	1.4218934
32.827851383256714	2.0442846	1.4297848
32.84612320406245	1.9823486	1.407959
32.86439588366476	1.8396393	1.356333
32.88266942264945	1.9071355	1.3809907
32.9009438216025	1.9923836	1.4115182
32.9192190811102	1.9927732	1.4116561
32.937495201758985	2.0004091	1.4143583
32.95577218413556	2.0553515	1.4336497
32.974050028826866	2.0423193	1.4290974
32.992328736420035	1.970902	1.4038881
33.010608307502444	1.9005796	1.3786151
33.02888874266169	1.8965747	1.3771619
33.047170042485604	1.9768753	1.406014
33.06545220756225	2.0102837	1.4178448
33.083735238479896	2.0184488	1.4207213
33.10201913582707	1.9953492	1.4125683
33.12030390019248	1.9792879	1.4068717
33.138589532165135	1.9757055	1.4055979
33.15687603233419	1.9086773	1.3815489
33.17516340128909	1.9073378	1.381064
33.19345163961947	1.9715226	1.4041091
33.211740747915215	1.9910262	1.4110372
33.23003072676643	1.8964069	1.377101
33.248321576763466	1.8159753	1.3475813
33.266613298496885	1.8513924	1.3606588
33.28490589255747	1.9419675	1.3935449
33.30319935953626	1.97791	1.4063818
33.32149370002451	1.9818236	1.4077725
33.339788914613706	1.9877895	1.4098899
33.358085003895575	1.9546789	1.3980983
33.376381968462034	1.8571045	1.3627563
33.39467980890529	1.7706928	1.3306738
33.41297852581774	1.8674412	1.3665435
33.43127811979204	1.9605325	1.4001902
33.44957859142105	1.9894862	1.4104915
33.467879941297866	1.9868982	1.4095738
33.486182170015844	2.0005069	1.4143927
33.50448527816853	1.9798306	1.4070646
33.522789266349754	1.8171176	1.348005
33.541094135153514	1.715822	1.3098938
33.55939988517411	1.751756	1.3235391
33.57770651700602	1.8083942	1.3447654
33.59601403124398	1.826475	1.3514714
33.61432242848296	1.839564	1.3563052
33.632631709318154	1.8206594	1.3493181
33.650941874344994	1.8492323	1.3598648
33.66925292415916	1.8611647	1.364245
33.68756485935654	1.8384788	1.3559052
33.70587768053328	1.8433832	1.3577125
33.724191388285746	1.905134	1.380266
33.74250598321054	1.9192224	1.38536
33.760821465904506	1.9061354	1.3806286
33.77913783696474	1.871798	1.3681366
33.79745509698852	1.8505768	1.3603591
33.815773246573414	1.9074085	1.3810896
33.8340922863172	1.8934314	1.3760202
33.852412216817896	1.8977044	1.377572
33.87073303867377	1.8924499	1.3756634
33.889054752483304	1.9403514	1.392965
33.907377358845245	1.8832711	1.3723233
33.92570085835853	1.8225404	1.3500149
33.94402525162239	1.8752409	1.3693944
33.96235053923627	1.8721168	1.3682532
33.980676721799824	1.8732795	1.368678
33.999003799912984	1.9639308	1.4014032
34.01733177417592	1.9980243	1.4135149
34.03566064518901	2.0252278	1.423105
34.0539904135529	2.0072975	1.4167913
34.07232107986846	2.0657413	1.4372687
34.090652644736785	1.996279	1.4128973
34.108985108759235	1.9548954	1.3981757
34.12731847253742	1.9710548	1.4039426
34.14565273667313	1.9960678	1.4128226
34.16398790176847	1.9667654	1.4024141
34.18232396842574	1.9524287	1.3972933
34.20066093724749	1.9760393	1.4057167
34.21899880883651	2.0581272	1.4346174
34.23733758379583	2.1133454	1.453735
34.25567726272874	2.0052633	1.4160732
34.27401784623872	2.0955548	1.4476031
34.29235933492957	2.135497	1.461334
34.31070172940526	2.200399	1.4833741
34.32904503027003	2.2370548	1.4956787
34.347389238128386	2.2045977	1.4847888
34.36573435358502	2.070915	1.4390674
34.38408037724492	1.9446251	1.3944981
34.402427309713296	1.8973681	1.3774499
34.42077515159559	2.0162637	1.419952
34.43912390349752	2.2026165	1.4841214
34.45747356602499	2.1446855	1.4644744
34.47582413978423	2.0024066	1.4150642
34.49417562538163	2.0330584	1.4258536
34.51252802342388	2.0079982	1.4170386
34.53088133451789	1.9380946	1.3921547
34.54923555927084	1.8860389	1.3733313
34.567590698290104	1.8811716	1.3715581
34.58594675218336	1.956556	1.3987695
34.6043037215585	1.959906	1.3999665
34.62266160702365	2.0620563	1.4359862
34.641020409187234	2.0857954	1.4442283
34.65938012865785	1.9002038	1.3784788
34.677740766044394	1.8259394	1.3512733
34.69610232195598	1.8292829	1.3525099
34.714464797002016	1.7464211	1.3215222
34.73282819179208	1.7382365	1.318422
34.751192506936064	1.7699271	1.330386
34.76955774304408	1.8291222	1.3524505
34.7879239007265	1.795849	1.3400929
34.80629098059391	1.8600363	1.3638315
34.824658983257194	1.9427364	1.3938208
34.843027909327446	1.9550898	1.3982452
34.86139775941603	1.9011904	1.3788366
34.879768534134534	1.7576207	1.3257529
34.89814023409483	1.9291219	1.3889283
34.91651285990901	2.022817	1.4222577
34.93488641218944	1.8965826	1.3771647
34.95326089154871	1.9373587	1.3918903
34.97163629859967	2.014918	1.419478
34.99001263395542	1.9079332	1.3812796
35.00838989822934	1.7584285	1.3260574
35.02676809203499	1.6729325	1.2934189
35.04514721598624	1.7180339	1.310738
35.063527270697215	1.8268657	1.3516159
35.081908256782256	1.8721365	1.3682604
35.10029017485597	2.1561918	1.4683977
35.11867302553321	2.2342222	1.4947314
35.137056809429104	2.0531454	1.4328802
35.155441527159006	1.9456954	1.3948818
35.173827179338524	1.7953894	1.3399215
35.19221376658354	1.8657944	1.3659408
35.21060128951017	1.966218	1.4022189
35.2289897487348	2.0909622	1.446016
35.24737914487405	2.1468027	1.4651971
35.26576947854479	2.097897	1.448412
35.28416075036418	2.2071338	1.4856426
35.30255296094958	1.953205	1.3975711
35.32094611091867	1.6285362	1.2761412
35.33934020088932	2.008227	1.4171193
35.35773523147969	2.3005905	1.5167698
35.3761312033082	2.1931543	1.4809302
35.394528116993506	1.9540907	1.397888
35.41292597315452	1.8669895	1.3663782
35.431324772410434	2.0705054	1.438925
35.449724515380666	2.2316222	1.4938616
35.46812520268491	2.0406513	1.4285136
35.486526834943106	1.9591221	1.3996865
35.504929412775454	2.016558	1.4200556
35.52333293680242	1.9826962	1.4080825
35.54173740764471	2.1020248	1.4498361
35.560142825923286	2.226444	1.4921273
35.5785491922594	1.8888229	1.3743446
35.59695650727454	1.4591975	1.2079725
35.61536477159042	1.7820303	1.3349271
