0.008763373481513119	0.0	0.0
0.026290120649546365	0.0	0.0
0.043816868432600686	0.0046239095	0.06799933
0.06134361724069026	0.11828661	0.34392822
0.07887036748382949	0.27702832	0.5263348
0.0963971195720331	0.22904283	0.4785842
0.11392387391531617	0.20591563	0.45377928
0.1314506309236943	0.056700155	0.23811795
0.1489773910071836	0.08384893	0.28956679
0.16650415457580078	0.11678299	0.34173527
0.18403092203956356	0.16207127	0.40258077
0.20155769380849	0.18826418	0.4338942
0.2190844702925996	0.15161987	0.38938397
0.2366112519019124	0.12359115	0.35155532
0.2541380390464497	0.10782208	0.32836273
0.27166483213623416	0.17408697	0.4172373
0.28919163158128947	0.20244572	0.44993967
0.3067184377916406	0.16398448	0.40494996
0.324245251177314	0.12734799	0.3568585
0.34177207214833777	0.09526818	0.30865544
0.3592989011147415	0.120398775	0.34698528
0.37682573848655654	0.13614173	0.36897388
0.39435258467381573	0.16087617	0.40109372
0.41187944008655414	0.16899139	0.4110856
0.42940630513480854	0.17605774	0.41959235
0.446933180228618	0.1539486	0.39236286
0.4644600657780234	0.11592616	0.3404793
0.48198696219306775	0.13831569	0.3719082
0.49951386988379676	0.12103573	0.3479019
0.5170407892602581	0.16276371	0.40343985
0.5345677207325025	0.22801073	0.4775047
0.5520946647105822	0.22120343	0.4703227
0.5696216216045534	0.23094477	0.48056713
0.5871485918244737	0.23978817	0.48968172
0.6046755757804043	0.24132225	0.4912456
0.6222025738824094	0.22606768	0.47546574
0.6397295865405557	0.17471471	0.4179889
0.6572566141649129	0.14902002	0.38603112
0.6747836571655547	0.15541106	0.3942221
0.6923107159525568	0.16912498	0.41124806
0.7098377909359992	0.16656832	0.4081278
0.7273648825259653	0.17220984	0.41498175
0.7448919911325411	0.21102183	0.45937112
0.762419117165817	0.22247286	0.4716703
0.7799462610358868	0.27240136	0.52192086
0.7974734231528482	0.24966484	0.49966472
0.8150006039268024	0.24059692	0.4905068
0.8325278037678551	0.22792274	0.47741255
0.8500550230861152	0.24590978	0.4958929
0.8675822622916969	0.26269114	0.512534
0.8851095217947171	0.28451872	0.533403
0.9026368020052984	0.25718254	0.5071317
0.9201641033335665	0.19801056	0.44498378
0.9376914261896523	0.18941906	0.435223
0.9552187709836915	0.19693899	0.4437781
0.9727461381258234	0.23224641	0.4819195
0.990273528026193	0.30477887	0.5520678
1.0078009410949496	0.29897198	0.5467833
1.0253283777422473	0.30521625	0.5524638
1.0428558383782454	0.28492233	0.5337812
1.0603833234131086	0.288245	0.53688455
1.0779108332570058	0.28790042	0.5365635
1.0954383683201119	0.28812736	0.536775
1.112965929012607	0.29040584	0.53889316
1.1304935157446763	0.3802978	0.6166829
1.1480211289265108	0.46364737	0.68091655
1.1655487689683062	1.3452294	1.1598402
1.1830764362802655	1.645044	1.2825927
1.200604131272596	2.0720901	1.4394757
1.2181318543555117	2.4075804	1.551638
1.235659605939232	2.3742318	1.5408542
1.253187386433982	3.7951243	1.9481078
1.270715196249994	6.3050303	2.510982
1.2882430357975057	12.057784	3.472432
1.3057709054867608	17.167318	4.1433463
1.3232988057280106	23.166096	4.813117
1.3408267369315112	27.838486	5.276219
1.358354699507526	31.270105	5.591968
1.3758826938663256	35.554665	5.9627733
1.3934107204181858	37.572495	6.1296406
1.410938779573391	38.13687	6.1755056
1.4284668717422309	38.492493	6.2042317
1.4459949973350033	37.939846	6.159533
1.4635231567620117	38.006474	6.164939
1.4810513504335687	36.954655	6.079034
1.4985795787599925	36.115803	6.0096426
1.5161078421516088	35.689636	5.9740806
1.5336361410187505	34.802254	5.8993435
1.5511644757717598	34.913486	5.9087634
1.5686928468209842	35.46037	5.954861
1.58622125457678	35.892723	5.9910536
1.6037496994495108	37.479095	6.1220174
1.621278181849548	37.486763	6.1226435
1.6388067021872719	38.29372	6.188192
1.6563352608730693	37.472935	6.1215143
1.673863858317336	36.585133	6.0485644
1.6913924949304753	35.94497	5.9954123
1.7089211711228998	35.142067	5.9280744
1.7264498873050296	34.51794	5.875197
1.7439786438872935	33.485676	5.7866807
1.7615074412801288	32.297546	5.683093
1.779036279893981	31.65937	5.626666
1.796565160139305	30.697184	5.540504
1.814094082426564	29.837051	5.4623303
1.8316230471662298	28.860811	5.3722258
1.849152054768784	28.099731	5.300918
1.8666811056447168	27.841583	5.2765126
1.8842102002045273	26.889547	5.185513
1.901739338858724	26.228086	5.1213365
1.9192685220178245	25.558506	5.055542
1.9367977500923557	25.205221	5.02048
1.9543270234928547	25.126291	5.0126133
1.971856342629867	24.438992	4.9435806
1.9893857079139496	23.621698	4.8602157
2.006915119755667	23.022778	4.798206
2.0244445785655945	22.524675	4.746017
2.0419740847543175	22.151438	4.7065315
2.0595036387324317	21.667805	4.654869
2.0770332409105414	21.169916	4.6010776
2.094562891699263	20.92933	4.5748587
2.1120925915092217	20.36649	4.5129247
2.129622340751053	19.974789	4.4693165
2.1471521398354043	188.07521	13.714051
2.1646819891729323	444.35422	21.079712
2.182211889174303	440.56512	20.989643
2.1997418402501974	452.81625	21.27948
2.2172718428113023	432.77432	20.803228
2.234801897268317	320.7872	17.910534
2.2523320040319548	17.481564	4.181096
2.269862163512935	17.158915	4.142332
2.287392376121992	16.663603	4.0821075
2.304922642269869	16.327026	4.0406713
2.322452962367322	16.034744	4.0043406
2.3399833368251164	15.817479	3.9771194
2.357513766054032	15.641753	3.9549656
2.3750442504648586	15.322049	3.9143388
2.3925747904683963	15.292055	3.9105058
2.410105386475459	14.971457	3.8692966
2.4276360388968707	14.590567	3.81976
2.445166748143469	14.398892	3.7945871
2.4626975146261025	13.943738	3.7341316
2.4802283387556323	13.595707	3.6872356
2.4977592209429305	13.402871	3.660993
2.5152901615988825	13.234647	3.6379454
2.5328211611343865	13.089966	3.6180058
2.5503522199603523	12.7123	3.5654314
2.5678833384877024	12.584038	3.5473988
2.5854145171273712	12.44502	3.52775
2.6029457562903064	12.332152	3.5117164
2.620477056387469	12.153582	3.4861987
2.6380084178298326	12.084417	3.476265
2.655539841028383	11.87535	3.446063
2.673071326394119	11.598054	3.4055915
2.6906028743380523	11.198583	3.3464284
2.708134485271211	10.944123	3.3081903
2.7256661596046325	10.690946	3.2697012
2.743197897749369	10.540352	3.2465909
2.760729700116486	10.467529	3.235356
2.778261567117063	10.364229	3.2193522
2.795793499162193	10.389425	3.223263
2.8133254966629817	10.337875	3.2152567
2.830857560030551	10.20171	3.1940114
2.8483896896760337	10.069591	3.173262
2.865921886010578	9.929879	3.151171
2.883454149445347	9.742427	3.1212862
2.9009864803915177	9.563666	3.0925179
2.91851887926028	9.337672	3.0557604
2.9360513464628384	9.214823	3.0355926
2.953583882410413	9.266962	3.0441685
2.9711164875142373	9.219864	3.036423
2.9886491621855606	9.085406	3.0142007
3.0061819068356455	8.920135	2.9866595
3.023714721875769	8.736927	2.9558294
3.041247607717225	8.542666	2.922784
3.0587805647713213	8.315626	2.8836827
3.0763135934493806	8.144524	2.853861
3.0938466941627407	8.14798	2.8544667
3.1113798673227544	8.148938	2.8546345
3.1289131133407904	8.155628	2.855806
3.1464464326282315	8.064395	2.8397877
3.1639798255964786	7.920722	2.8143778
3.1815132926569443	7.681254	2.7715075
3.1990468342210603	7.5425076	2.7463627
3.216580450700272	7.3841634	2.7173817
3.2341141425060416	7.374362	2.7155776
3.251647910049847	7.373097	2.7153447
3.2691817537431813	7.352227	2.711499
3.286715673997555	7.2608385	2.6945944
3.3042496712244938	7.1298137	2.670171
3.32178374583554	7.012543	2.6481206
3.339317898242251	7.016526	2.6488726
3.3568521288562034	6.9169555	2.6300106
3.3743864380889876	6.7877607	2.605333
3.3919208263522127	6.7192616	2.5921538
3.4094552940575023	6.7078967	2.5899608
3.4269898416164972	6.70547	2.5894923
3.444524469440858	6.5893717	2.5669773
3.4620591779422587	6.443428	2.5383909
3.479593967532391	6.3885345	2.527555
3.4971288386229658	6.475323	2.5446656
3.5146637916257086	6.597502	2.5685604
3.5321988269523628	6.5534787	2.5599763
3.5497339450146903	6.4538355	2.54044
3.5672691462244708	6.3835425	2.5265675
3.5848044309934988	6.3315864	2.5162644
3.60233979973359	6.2947216	2.5089283
3.619875252856575	6.3402	2.5179753
3.6374107907743034	6.2635255	2.5027037
3.6549464138986427	6.3625455	2.5224087
3.6724821226414788	6.2622466	2.502448
3.690017917414714	6.2126007	2.492509
3.7075537986302702	6.2433057	2.4986608
3.7250897667000857	6.3030562	2.510589
3.7426258220361235	6.5226746	2.5539527
3.7601619650503553	6.9477596	2.6358602
3.777698196154779	7.493954	2.7375088
3.7952345157614067	8.530476	2.9206977
3.8127709242822716	9.237867	3.039386
3.830307422129425	11.529115	3.3954551
3.847844009714936	30.238762	5.498978
3.8653806874508954	97.80259	9.889519
3.882917455749409	97.08164	9.853002
3.900454315022606	96.96311	9.846985
3.917991265682631	41.556274	6.4464154
3.9355283081416506	11.111306	3.3333626
3.9530654428118495	8.693285	2.9484377
3.970602670105433	7.395293	2.7194288
3.9881399904346244	6.539087	2.5571637
4.005677404211669	6.569255	2.5630558
4.023214911848827	6.5735264	2.563889
4.0407525137583855	6.4916673	2.5478752
4.058290210352644	6.51679	2.5528004
4.075828002043927	6.356006	2.5211122
4.0933658892445814	6.28348	2.5066872
4.110903872366966	6.2579694	2.5015934
4.128441951823468	6.1573524	2.4814012
4.145980128026488	6.1074677	2.4713292
4.163518401388452	6.042524	2.4581547
4.181056772321807	6.093156	2.468432
4.1985952412390155	6.2113376	2.4922554
4.216133808552567	6.3449764	2.5189238
4.233672474674966	6.3725653	2.524394
4.251211240018741	6.5688953	2.5629857
4.268750104996445	6.7775946	2.6033814
4.286289070020643	7.710849	2.7768414
4.303828135503928	9.353482	3.0583463
4.3213673018589125	29.668993	5.446925
4.3389065694982305	90.885445	9.533386
4.356445938834537	166.22023	12.892642
4.3739854102805085	172.07954	13.117909
4.391524984248844	172.91438	13.149692
4.409064661152262	136.82935	11.697408
4.426604441403504	96.79918	9.838657
4.444144325415337	75.76395	8.704248
4.461684313600543	21.707138	4.659092
4.47922440637193	22.12587	4.7038145
4.496764604142329	20.050339	4.4777603
4.5143049073245916	18.257633	4.2728953
4.531845316331589	16.136812	4.017065
4.5493858315762195	13.461913	3.669048
4.566926453471405	11.251233	3.3542857
4.584467182430081	9.33559	3.05542
4.602008018865218	8.279899	2.8774812
4.619548963189798	7.6086993	2.758387
4.637090015816834	7.1148844	2.6673741
4.654631177159353	6.827719	2.6129904
4.672172447630417	6.5707827	2.5633538
4.689713827643102	6.420337	2.5338385
4.7072553176105085	6.2049556	2.490975
4.724796917945764	6.098036	2.4694202
4.742338629062015	6.0326557	2.4561465
4.759880451372434	5.888093	2.4265394
4.777422385290215	5.792363	2.4067328
4.794964431228581	5.64272	2.375441
4.812506589600768	5.590164	2.3643527
4.830048860820047	5.522142	2.3499238
4.847591245299709	5.564514	2.3589222
4.8651337434530655	5.578309	2.3618443
4.882676355693457	5.5882196	2.3639414
4.900219082434242	5.5928564	2.364922
4.917761924088813	5.536715	2.3530226
4.935304881070575	5.4853387	2.3420799
4.952847953792969	5.4736724	2.3395882
4.970391142669449	5.535639	2.352794
4.9879344481135055	5.5729065	2.3607004
5.005477870538642	5.529306	2.3514476
5.023021410358394	5.4275975	2.3297205
5.040565067986324	5.411264	2.3262124
5.05810884383601	5.423858	2.3289177
5.075652738321066	5.4331074	2.3309026
5.09319675185512	5.4446006	2.3333669
5.110740884851836	5.4226623	2.328661
5.128285137724894	5.3819547	2.319904
5.145829510888007	5.406957	2.3252864
5.163374004754908	5.4557667	2.3357582
5.1809186197393595	5.4790726	2.3407419
5.198463356255145	5.4493537	2.3343852
5.216008214716077	5.357916	2.3147173
5.233553195535998	5.290562	2.3001223
5.251098299128764	5.318477	2.3061824
5.268643525908272	5.324072	2.307395
5.286188876288432	5.3539395	2.313858
5.3037343506831895	5.319318	2.3063645
5.32127994950651	5.23769	2.2886
5.3388256731723915	5.1550007	2.2704628
5.356371522094851	5.107783	2.2600405
5.373917496687938	5.1086826	2.2602396
5.391463597365729	5.1621575	2.2720382
5.40900982454232	5.2175374	2.284193
5.426556178631843	5.1725845	2.2743316
5.444102660048449	5.1901593	2.278192
5.4616492692063225	5.219667	2.2846591
5.479196006519669	5.2451572	2.2902308
5.496742872402727	5.190431	2.278252
5.514289867269756	5.1949873	2.2792516
5.531836991535049	5.2573595	2.2928932
5.549384245612924	5.3135424	2.3051121
5.566931629917724	5.26238	2.2939878
5.584479144863822	5.190253	2.2782125
5.6020267908656205	5.1865296	2.2773952
5.619574568337545	5.243247	2.2898138
5.637122477694054	5.261833	2.2938685
5.654670519349629	5.228635	2.2866209
5.672218693718784	5.126654	2.2642117
5.689767001216059	5.1146426	2.2615576
5.707315442256021	5.1514144	2.2696726
5.724864017253266	5.2112308	2.282812
5.7424127266224225	5.25551	2.2924898
5.75996157077814	5.231876	2.2873294
5.777510550135105	5.177892	2.2754982
5.795059665108022	5.214215	2.2834656
5.812608916111639	5.158034	2.2711306
5.830158303560715	5.29	2.3
5.847707827870055	5.288708	2.299719
5.86525748945448	5.465594	2.337861
5.8828072887288485	5.5778823	2.3617542
5.900357226108044	5.66341	2.379792
5.917907302006979	5.7144027	2.3904817
5.9354575168406	6.2837315	2.5067372
5.9530078710238765	6.8451552	2.6163247
5.970558364971812	7.4093876	2.722019
5.988108999099438	7.743553	2.7827241
6.005659773821818	8.322033	2.8847933
6.023210689554039	8.038427	2.835212
6.040761746711227	8.424202	2.9024477
6.058312945708531	7.7130103	2.7772307
6.075864286961132	7.2625217	2.6949067
6.093415770884244	6.653486	2.579435
6.1109673978931065	6.186675	2.4873028
6.128519168402993	5.626855	2.3720992
6.146071082829204	5.5068474	2.3466673
6.163623141587075	5.418848	2.327842
6.181175345091969	5.342237	2.311328
6.198727693759281	5.2483735	2.290933
6.216280188004435	5.190725	2.2783163
6.233832828242885	5.1339197	2.2658155
6.251385614890126	5.1701636	2.2737994
6.268938548361669	5.2157383	2.2837992
6.286491629073067	5.1879363	2.2777042
6.304044857439898	5.107859	2.2600572
6.321598233877777	4.963337	2.2278547
6.339151758802344	4.859816	2.204499
6.356705432629277	4.874902	2.207918
6.37425925577428	4.950618	2.2249985
6.391813228653095	5.006593	2.2375417
6.409367351681486	5.0724454	2.252209
6.426921625275259	5.086279	2.255278
6.44447604985025	5.04163	2.2453573
6.46203062582232	4.982043	2.232049
6.47958535360737	4.9138455	2.2167196
6.497140233621328	4.9369383	2.2219222
6.514695266280161	4.9458165	2.2239192
6.532250451999859	4.9716296	2.229715
6.549805791196454	5.022358	2.2410617
6.567361284286002	5.035088	2.2439003
6.584916931684597	5.010127	2.2383313
6.602472733808367	4.964931	2.2282126
6.6200286910734665	5.0010977	2.2363133
6.637584803896092	5.0248117	2.241609
6.655141072692462	5.066409	2.2508686
6.672697497878842	5.044387	2.2459712
6.690254079871514	4.9988832	2.2358181
6.707810819086808	4.990604	2.2339659
6.725367715941078	4.988469	2.233488
6.742924770850719	5.0297403	2.2427082
6.760481984232151	5.0689974	2.2514434
6.778039356501836	5.0539303	2.2480948
6.795596888076266	5.100434	2.258414
6.813154579371963	5.1083255	2.2601604
6.830712430805492	5.120828	2.2629247
6.84827044279344	5.0957575	2.2573783
6.865828615752445	5.0331583	2.2434702
6.883386950099159	5.033459	2.2435372
6.900945446250287	5.062932	2.250096
6.918504104622553	5.075811	2.2529562
6.936062925632727	5.089934	2.2560883
6.953621909697607	5.0736747	2.252482
6.971181057234028	5.1257415	2.26401
6.988740368658859	5.1842003	2.2768838
7.006299844389007	5.2920036	2.3004355
7.023859484841407	5.270661	2.295792
7.041419290433036	5.265071	2.2945743
7.058979261580902	5.3786592	2.3191936
7.0765393987020495	5.684228	2.384162
7.094099702213559	6.1652803	2.4829984
7.111660172532549	6.5290246	2.5551956
7.129220810076164	6.8935566	2.6255584
7.146781615261595	7.464629	2.7321475
7.16434258850606	7.7297435	2.7802417
7.181903730226821	8.197363	2.8631036
7.1994650408411704	8.23917	2.8703954
7.217026520766437	8.370092	2.8931112
7.234588170419983	8.552336	2.9244378
7.252149990219215	8.541103	2.9225166
7.269711980581568	8.423393	2.9023082
7.2872741419245175	8.218742	2.8668349
7.304836474665574	7.829008	2.7980366
7.322398979222286	7.5395217	2.7458189
7.339961656012233	7.3127236	2.7042048
7.357524505453039	6.966171	2.6393504
7.375087527962357	6.663712	2.5814166
7.392650723957886	6.3370605	2.5173519
7.410214093857353	5.995986	2.4486701
7.427777638078528	5.7752805	2.4031813
7.445341357039213	5.6103206	2.3686116
7.4629052511572525	5.4399185	2.3323634
7.480469320850524	5.3495436	2.312908
7.498033566536948	5.349995	2.3130057
7.5155979886344735	5.2691307	2.2954588
7.5331625875610975	5.2073665	2.2819655
7.550727363734844	5.154476	2.270347
7.568292317573788	5.1398315	2.2671196
7.585857449496025	5.2334476	2.287673
7.603422759919705	5.2145414	2.2835371
7.620988249263007	5.222016	2.285173
7.638553917944147	5.180248	2.2760158
7.656119766381391	5.2074537	2.2819846
7.673685794993023	5.205141	2.281478
7.691252004197388	5.2658234	2.2947383
7.70881839441285	5.259504	2.2933607
7.726384966057826	5.3187404	2.3062394
7.743951719550762	5.303615	2.302958
7.761518655310149	5.3020134	2.3026102
7.779085773754511	5.289546	2.2999012
7.796653075302419	5.2591386	2.293281
7.814220560372475	5.307507	2.3038027
7.831788229383323	5.3266053	2.307944
7.8493560827536495	5.387569	2.3211138
7.866924120902174	5.3813124	2.3197656
7.884492344247663	5.3508782	2.3131967
7.9020607532089135	5.426196	2.3294196
7.919629348204771	5.4692426	2.3386412
7.937198129654115	5.518457	2.3491397
7.954767097975865	5.4886565	2.3427882
7.972336253588986	5.4248686	2.3291347
7.989905596912472	5.4150586	2.3270278
8.007475128365371	5.4650993	2.3377552
8.025044848366756	5.549294	2.355694
8.042614757335754	5.70883	2.3893158
8.060184855691523	5.765545	2.401155
8.07775514385327	5.8429146	2.4172122
8.095325622240228	5.848325	2.418331
8.112896291271687	5.902198	2.4294438
8.130467151366968	6.020828	2.4537375
8.148038202945436	6.078613	2.4654844
8.165609446426497	6.0492997	2.4595325
8.183180882229594	6.0018144	2.44986
8.200752510774217	5.926799	2.4345016
8.218324332479893	5.9928913	2.4480383
8.235896347766193	6.0240617	2.4543965
8.253468557052724	6.049758	2.4596255
8.27104096075914	5.9891768	2.4472795
8.288613559305137	5.976561	2.4447007
8.306186353110448	6.087537	2.4672935
8.32375934259485	6.194913	2.4889581
8.341332528178162	6.2792425	2.5058417
8.358905910280246	6.2820663	2.506405
8.376479489321003	6.242795	2.4985585
8.394053265720377	6.3054557	2.5110667
8.411627239898356	6.320318	2.5140243
8.42920141227497	6.3230395	2.5145655
8.44677578327029	6.308065	2.5115862
8.464350353304427	6.2439423	2.498788
8.48192512279754	6.2641706	2.5028324
8.499500092169827	6.2231836	2.494631
8.51707526184153	6.2064147	2.4912677
8.534650632232934	6.156332	2.4811957
8.552226203764365	6.134008	2.476693
8.569801976856192	6.1178403	2.4734268
8.587377951928834	6.1895075	2.4878721
8.60495412940274	6.270124	2.5040216
8.622530509698416	6.376107	2.5250955
8.6401070932364	6.453938	2.54046
8.657683880437283	6.5774536	2.5646546
8.675260871721695	6.7706437	2.602046
8.692838067510303	6.961726	2.6385083
8.710415468223834	7.134211	2.6709943
8.727993074283043	7.2635193	2.6950917
8.745570886108737	7.291194	2.700221
8.763148904121765	7.294275	2.7007916
8.78072712874302	7.2987504	2.7016199
8.798305560393441	7.50147	2.738881
8.815884199494006	7.580864	2.753337
8.833463046465745	7.7421455	2.7824712
8.851042101729728	7.882491	2.8075774
8.86862136570707	8.205199	2.864472
8.886200838818924	8.360525	2.8914573
8.903780521486505	8.435581	2.9044073
8.921360414131055	8.494223	2.914485
8.938940517173874	8.592649	2.931322
8.956520831036297	8.786305	2.9641702
8.97410135613971	9.10476	3.0174096
8.99168209290554	9.291144	3.048138
9.009263041755265	9.577436	3.0947433
9.026844203110405	9.7463	3.1219065
9.044425577392525	9.864699	3.140812
9.062007165023239	10.030945	3.1671667
9.079588966424197	10.376842	3.2213106
9.097170982017108	10.542351	3.2468987
9.11475321222372	11.425865	3.3802168
9.132335657465825	12.254499	3.5006428
9.149918318165264	12.291661	3.5059466
9.167501194743924	12.83249	3.5822465
9.18508428762374	12.548798	3.5424283
9.202667597226693	12.578937	3.5466797
9.220251123974803	12.326305	3.5108838
9.237834868290143	12.033322	3.4689078
9.255418830594836	11.796544	3.4346097
9.273003011311046	11.225743	3.3504841
9.290587410860985	11.026827	3.3206666
9.308172029666911	10.383668	3.22237
9.32575686815113	10.142798	3.184776
9.343341926735997	8.884494	2.980687
9.360927205843916	8.621451	2.936231
9.378512705897327	8.442153	2.9055383
9.396098427318728	8.222583	2.8675046
9.413684370530664	8.169942	2.858311
9.431270535955722	8.033438	2.834332
9.448856924016539	7.9305034	2.816115
9.466443535135806	7.774488	2.788277
9.484030369736251	7.7810335	2.7894504
9.501617428240658	7.778869	2.7890625
9.519204711071852	7.71227	2.7770975
9.536792218652714	7.7061033	2.775987
9.55437995140617	7.7093887	2.7765787
9.571967909755191	7.809643	2.7945738
9.589556094122802	7.919146	2.8140976
9.60714450493207	7.9930453	2.8271976
9.624733142606116	7.9953003	2.8275962
9.642322007568108	7.928758	2.815805
9.659911100241267	7.987404	2.8261995
9.677500421048851	8.038082	2.8351512
9.695089970414175	8.11594	2.8488488
9.712679748760609	8.130868	2.8514676
9.730269756511557	8.137872	2.8526955
9.747859994090492	8.178255	2.8597648
9.765450461920915	8.167304	2.8578496
9.78304116042639	8.224399	2.8678212
9.800632090030527	8.290313	2.8792903
9.81822325115699	8.372449	2.8935184
9.835814644229481	8.351185	2.8898416
9.853406269671762	8.30656	2.8821104
9.870998127907646	8.28564	2.8784788
9.888590219360985	8.360427	2.8914404
9.906182544455698	8.33644	2.8872893
9.923775103615734	8.404617	2.8990717
9.941367897265108	8.467702	2.9099317
9.958960925827878	8.484698	2.9128506
9.97655418972816	8.475903	2.9113402
9.994147689390106	8.404868	2.899115
10.011741425237934	8.379106	2.8946686
10.029335397695904	8.29525	2.8801475
10.04692960718833	8.269816	2.8757288
10.06452405413958	8.218339	2.8667645
10.082118738974064	8.24953	2.8721995
10.099713662116246	8.237961	2.870185
10.117308823990651	8.259394	2.8739161
10.134904225021844	8.217416	2.8666036
10.152499865634445	8.262028	2.8743744
10.170095746253125	8.207511	2.8648753
10.18769186730261	8.22664	2.868212
10.205288229207675	8.182602	2.8605247
10.222884832393145	8.169195	2.8581803
10.2404816772839	8.149088	2.8546607
10.258078764304868	8.132231	2.8517067
10.275676093881035	8.121633	2.8498478
10.293273666437438	8.122292	2.8499634
10.310871482399158	8.151784	2.8551328
10.32846954219134	8.160373	2.8566365
10.346067846239173	8.2413	2.8707664
10.363666394967908	8.254709	2.873101
10.38126518880283	8.248239	2.8719747
10.398864228169298	8.253496	2.8728898
10.416463513492713	8.199168	2.863419
10.434063045198531	8.166491	2.8577073
10.451662823712262	8.15699	2.8560445
10.469262849459467	8.229496	2.8687098
10.486863122865758	8.221965	2.8673968
10.504463644356806	8.144567	2.8538687
10.522064414358338	8.055887	2.8382895
10.539665433296118	7.9130383	2.8130124
10.557266701595987	7.963852	2.8220298
10.574868219683818	7.8909006	2.8090746
10.592469987985552	7.808796	2.7944224
10.610072006927185	7.6896763	2.7730265
10.627674276934751	7.5694246	2.7512589
10.64527679843435	7.445397	2.7286255
10.662879571852143	7.388361	2.718154
10.680482597614331	7.28063	2.6982644
10.698085876147173	7.163308	2.6764357
10.715689407876988	7.0669665	2.6583767
10.733293193230146	6.9553623	2.6373022
10.750897232633072	6.9112797	2.6289313
10.76850152651225	6.7795086	2.603749
10.786106075294207	6.686719	2.585869
10.803710879405534	6.6137414	2.5717196
10.821315939272877	6.567882	2.562788
10.83892125532294	6.526164	2.5546358
10.856526827982472	6.4495044	2.5395875
10.874132657678285	6.3506126	2.5200422
10.891738744837243	6.2542067	2.5008411
10.909345089886271	6.1505475	2.4800298
10.926951693252343	6.135131	2.4769197
10.944558555362494	6.1415906	2.4782233
10.96216567664381	6.0945377	2.4687119
10.979773057523436	5.9839053	2.4462023
10.997380698428573	5.931042	2.435373
11.014988599786477	5.9305773	2.4352777
11.032596762024461	5.8687444	2.4225492
11.050205185569892	5.754971	2.398952
11.067813870850198	5.696123	2.3866553
11.085422818292859	5.6480355	2.3765595
11.10303202832541	5.5709863	2.3602936
11.120641501375454	5.498979	2.3449903
11.138251237870636	5.440374	2.3324609
11.155861238238671	5.3658266	2.3164253
11.173471502907317	5.2549453	2.2923667
11.191082032304402	5.161472	2.2718873
11.208692826857805	5.104287	2.2592669
11.226303886995465	5.0969405	2.2576404
11.243915213145371	5.0300884	2.242786
11.261526805735578	4.993628	2.2346427
11.279138665194196	4.9374228	2.222031
11.296750791949393	4.8580947	2.2041085
11.314363186429393	4.7497196	2.1793852
11.331975849062479	4.7322893	2.1753826
11.34958878027699	4.7372985	2.1765337
11.36720198050133	4.7136703	2.171099
11.384815450163948	4.6543446	2.157393
11.402429189693366	4.559516	2.1353023
11.420043199518153	4.4969826	2.120609
11.437657480066942	63.440926	7.964981
11.455272031768422	85.15682	9.228045
11.472886855051353	107.56239	10.371229
11.490501950344528	99.22437	9.9611435
11.508117318076819	84.545494	9.194862
11.52573295867715	45.910725	6.7757454
11.543348872574514	4.1820025	2.0449946
11.560965060197946	4.1029787	2.0255811
11.57858152197655	4.041151	2.0102615
11.59619825833949	4.0058646	2.0014656
11.613815269715985	4.0220423	2.005503
11.631432556535323	38.56818	6.2103286
11.649050119226837	83.08234	9.114951
11.666667958219929	93.45376	9.667149
11.68428607394406	107.6819	10.376989
11.701904466828756	82.513885	9.083715
11.719523137303586	65.34249	8.08347
11.737142085798196	4.552665	2.1336975
11.754761312742286	3.6955693	1.9223864
11.772380818565619	3.6806514	1.9185024
11.790000603698015	3.6569	1.9123023
11.80762066856935	3.603287	1.8982326
11.825241013609572	3.6103806	1.9001001
11.842861639248683	3.5953615	1.8961438
11.860482545916748	3.544852	1.8827777
11.878103734043883	3.4838748	1.8665141
11.895725204060282	3.4269228	1.851195
11.91334695639619	3.3874936	1.8405145
11.930968991481919	3.3748078	1.837065
11.948591309747824	3.3488455	1.8299851
11.966213911624347	3.380315	1.8385633
11.98383679754198	3.37071	1.8359493
12.001459967931268	3.3442724	1.8287352
12.019083423222835	3.319259	1.8218833
12.036707163847352	3.3015914	1.8170282
12.05433119023556	3.2908635	1.8140737
12.071955502818259	3.2149425	1.7930261
12.089580102026313	3.1592717	1.777434
12.107204988290643	3.1040084	1.7618196
12.12483016204224	3.136163	1.7709215
12.142455623712152	3.1657498	1.7792554
12.16008137373149	3.141511	1.7724308
12.177707412531431	3.1190434	1.7660813
12.19533374054321	3.068759	1.7517873
12.212960358198126	3.0811462	1.7553194
12.230587265927545	3.108332	1.7630461
12.248214464162889	3.1251442	1.7678077
12.265841953335649	3.112371	1.7641913
12.283469733877375	3.0730338	1.753007
12.301097806219685	2.982537	1.7270024
12.31872617079425	2.9016464	1.703422
12.336354828032825	2.8599136	1.6911279
12.353983778367205	2.9031513	1.7038636
12.371613022229262	2.9278662	1.7111009
12.389242560050928	2.9378722	1.7140223
12.406872392264201	2.9274383	1.7109758
12.424502519301143	2.898484	1.7024934
12.442132941593874	2.89317	1.7009321
12.459763659574586	2.8577075	1.6904756
12.477394673675532	2.8176887	1.6785972
12.49502598432903	2.827105	1.6813997
12.51265759196746	2.8586287	1.690748
12.530289497023267	2.8614972	1.691596
12.547921699928967	2.832641	1.6830451
12.565554201117134	2.7838333	1.6684823
12.583187001020404	2.7851677	1.6688821
12.600820100071486	2.8018923	1.6738853
12.618453498703152	2.81292	1.6771762
12.636087197348235	2.7704473	1.664466
12.65372119643964	2.7656856	1.663035
12.671355496410326	2.7664666	1.6632699
12.68899009769333	2.835526	1.683902
12.706625000721749	2.842857	1.6860774
12.724260205928752	2.8798802	1.697021
12.741895713747551	2.9474413	1.7168114
12.759531524611454	3.043694	1.7446185
12.777167638953818	3.0943856	1.7590866
12.794804057208072	3.0886934	1.7574679
12.812440779807702	3.0887365	1.7574801
12.830077807186271	3.2011538	1.7891768
12.847715139777405	3.2204733	1.7945677
12.865352778014795	3.434374	1.8532064
12.882990722332197	3.5562732	1.8858083
12.90062897316344	3.6627624	1.9138345
12.918267530942412	3.724302	1.9298451
12.935906396103071	3.6235304	1.9035573
12.953545569079449	3.7894258	1.9466448
12.971185050305628	3.5859203	1.8936527
12.988824840215775	3.6061656	1.8989908
13.006464939244115	3.6303313	1.9053428
13.024105347824943	3.52886	1.8785261
13.041746066392617	3.6016858	1.8978108
13.05938709538157	3.391056	1.841482
13.077028435226296	3.414926	1.8479519
13.094670086361363	3.3385592	1.8271724
13.112312049221401	3.22375	1.7954805
13.129954324241112	3.0999568	1.7606694
13.147596911855258	2.901631	1.7034175
13.165239812498685	2.865714	1.692842
13.182883026606293	2.8094273	1.6761346
13.200526554613058	2.8059125	1.6750858
13.218170396954017	2.7959676	1.6721147
13.235814554064284	2.7668135	1.6633742
13.253459026379034	2.7558825	1.6600851
13.271103814333523	2.7136126	1.6473047
13.288748918363058	2.7164354	1.6481612
13.306394338903031	2.6989906	1.6428605
13.32404007638889	2.696641	1.6421453
13.341686131256164	2.6719487	1.6346096
13.359332503940449	2.6595662	1.6308177
13.376979194877402	2.6140704	1.6168088
13.394626204502751	2.634359	1.6230708
13.412273533252307	2.660088	1.6309776
13.429921181561937	2.7074456	1.6454318
13.447569149867581	2.782082	1.6679574
13.465217438605247	2.7511535	1.6586602
13.482866048211022	2.7308917	1.652541
13.500514979121052	2.7258027	1.6510005
13.518164231771568	2.702161	1.6438252
13.535813806598844	2.7050848	1.6447142
13.553463704039254	2.6804028	1.6371936
13.571113924529229	2.699302	1.6429553
13.588764468505275	2.7299845	1.6522665
13.606415336403956	2.782979	1.6682264
13.624066528661917	2.7893016	1.6701202
13.641718045715882	2.831812	1.6827989
13.659369888002635	2.8651218	1.6926671
13.67702205595903	2.9426882	1.7154266
13.694674550021993	3.005106	1.7335242
13.712327370628532	3.0701935	1.7521968
13.729980518215713	3.1282697	1.7686915
13.747633993220681	3.1981733	1.7883437
13.765287796080647	3.2337182	1.7982543
13.7829419272329	3.2856152	1.8126266
13.800596387114801	3.3111646	1.8196605
13.818251176163775	3.3125443	1.8200396
13.835906294817324	3.3365464	1.8266215
13.853561743513023	3.417746	1.8487147
13.871217522688525	3.4705393	1.8629384
13.888873632781538	3.5071456	1.8727375
13.906530074229858	3.5447326	1.882746
13.92418684747135	3.5868711	1.8939037
13.941843952943948	3.5959837	1.896308
13.959501391085665	3.545285	1.8828927
13.977159162334578	3.4704294	1.8629088
13.994817267128846	3.3617332	1.833503
14.012475705906693	3.26462	1.806826
14.030134479106424	3.1942453	1.7872452
14.047793587166414	3.1395035	1.7718644
14.065453030525108	3.0785503	1.7545798
14.083112809621026	3.0286736	1.7403085
14.100772924892766	2.9709115	1.7236332
14.118433376778997	2.8930619	1.7009003
14.136094165718458	2.8236814	1.6803813
14.153755292149969	2.8144531	1.6776332
14.171416756512416	2.7958696	1.6720854
14.189078559244768	2.7405179	1.6554509
14.20674070078606	2.626568	1.620669
14.224403181575408	2.5432107	1.5947447
14.242066002051999	2.5537896	1.5980581
14.259729162655093	2.567316	1.6022847
14.277392663824022	2.5645254	1.6014136
14.295056505998208	2.499563	1.5810006
14.312720689617128	2.4484642	1.5647569
14.330385215120348	2.3936656	1.5471475
14.348050082947497	2.3941417	1.5473014
14.3657152935383	2.4103725	1.5525374
14.383380847332528	2.4233873	1.5567232
14.401046744770051	2.4351778	1.5605056
14.418712986290798	2.4359913	1.5607662
14.436379572334793	2.4453638	1.5637659
14.454046503342123	2.4430594	1.5630289
14.471713779752946	2.433053	1.5598247
14.489381402007504	2.4320726	1.5595104
14.507049370546113	2.4273229	1.5579869
14.524717685809168	2.41176	1.5529842
14.542386348237134	2.389179	1.545697
14.560055358270553	2.3674645	1.5386567
14.577724716350051	2.4107149	1.5526477
14.595394422916325	2.4167442	1.5545881
14.61306447841015	2.4649506	1.5700161
14.63073488327237	2.4446068	1.5635239
14.648405637943917	2.5134947	1.5854005
14.6660767428658	2.5382576	1.593191
14.683748198479094	2.563153	1.600985
14.701420005224954	2.5601902	1.6000594
14.719092163544628	2.6104958	1.6157029
14.73676467387942	2.6913464	1.6405324
14.754437536670727	2.7560718	1.6601421
14.772110752360014	2.7435467	1.6563655
14.78978432138882	2.7215486	1.6497116
14.807458244198777	2.7426558	1.6560966
14.82513252123159	2.7111676	1.6465623
14.842807152929028	2.6917887	1.6406672
14.860482139732962	2.67507	1.6355641
14.87815748208531	2.6735492	1.6350992
14.8958331804281	2.7301548	1.652318
14.91350923520342	2.6728246	1.6348776
14.931185646853438	2.6689165	1.6336819
14.948862415820408	2.6315744	1.6222128
14.966539542546656	2.6546922	1.6293226
14.98421702747459	2.6463325	1.6267552
15.001894871046696	2.665361	1.6325933
15.019573073705542	2.6818104	1.6376234
15.037251635893766	2.6644254	1.6323068
15.054930558054092	2.7093787	1.6460191
15.072609840629323	2.760371	1.6614364
15.090289484062351	2.89475	1.7013965
15.107969488796124	3.1984627	1.7884246
15.125649855273691	3.6642313	1.9142182
15.14333058393817	4.2341857	2.0577137
15.161011675232768	5.2531047	2.2919652
15.17869312960076	6.536566	2.556671
15.196374947485506	8.295882	2.8802574
15.214057129330447	11.272167	3.357405
15.231739675579114	15.85163	3.9814105
15.249422586675102	20.902098	4.5718813
15.267105863062092	24.052406	4.9043255
15.284789505183847	24.493853	4.9491262
15.302473513484218	22.486546	4.741998
15.320157888407127	18.986923	4.3573985
15.337842630396578	14.833833	3.8514714
15.355527739896656	11.502275	3.3915005
15.37321321735153	8.989542	2.9982564
15.39089906320545	6.5661397	2.562448
15.408585277902748	4.94405	2.223522
15.42627186188783	3.806707	1.9510784
15.443958815605198	3.254842	1.804118
15.461646139499424	2.954936	1.7189927
15.479333834015168	2.8276238	1.681554
15.497021899597165	2.7860656	1.6691512
15.514710336690234	2.7208436	1.649498
15.53239914573928	2.6608992	1.6312263
15.550088327189297	2.5895524	1.6092086
15.567777881485336	2.5796106	1.6061167
15.58546780907256	2.547344	1.5960401
15.6031581103962	2.5637426	1.6011691
15.620848785901568	2.5205195	1.5876144
15.638539836034063	2.495038	1.579569
15.656231261239173	2.5070746	1.5833744
15.673923061962451	2.5293071	1.5903796
15.691615238649552	2.5080662	1.5836875
15.709307791746202	2.4723125	1.5723588
15.727000721698221	2.4562857	1.5672542
15.744694028951498	2.438821	1.5616726
15.76238771395202	2.4077778	1.5517015
15.780081777145844	2.3869283	1.5449687
15.797776218979125	2.3827758	1.5436243
15.815471039898094	2.3996623	1.5490843
15.833166240349064	2.359872	1.5361875
15.850861820778437	2.3657513	1.5380999
15.868557781632699	2.3822885	1.5434663
15.886254123358412	2.381148	1.5430969
15.903950846402232	2.3767724	1.5416784
15.921647951210897	2.3882122	1.5453842
15.939345438231225	2.396652	1.5481124
15.957043307910133	2.3949716	1.5475696
15.974741560694602	2.3562388	1.5350045
15.992440197031714	2.3860493	1.5446842
16.01013921736862	2.4108622	1.5526952
16.02783862215259	2.43795	1.5613936
16.045538411830933	2.3881176	1.5453535
16.06323858685107	2.3899775	1.5459552
16.080939147660512	2.404181	1.5505421
16.09864009470684	2.4330368	1.5598195
16.11634142843774	2.4510334	1.5655776
16.134043149300954	2.4367862	1.5610209
16.15174525774433	2.4062178	1.5511988
16.169447754215817	2.378849	1.5423518
16.18715063916342	2.387783	1.5452453
16.204853913035244	2.4421248	1.56273
16.222557576279478	2.4610968	1.5687883
16.240261629344403	22.46128	4.739333
16.257966072678386	43.014565	6.558549
16.275670906729868	38.13036	6.1749787
16.293376131947387	2.5444624	1.5951371
16.31108174877957	2.5486894	1.5964615
16.328787757675133	2.5811858	1.606607
16.34649415908287	2.6113417	1.6159647
16.364200953451657	2.5922904	1.6100591
16.38190814123048	2.6087425	1.6151602
16.39961572286839	2.626163	1.6205441
16.41732369881455	2.6981711	1.642611
16.43503206951817	2.7480373	1.6577206
16.45274083542859	2.7968428	1.6723764
16.47044999699522	2.8411684	1.6855766
16.488159554667558	2.8812923	1.697437
16.505869508895184	2.9508348	1.7177994
16.523579860127786	2.9798622	1.7262278
16.541290608815117	3.0020943	1.7326553
16.559001755407035	3.0295088	1.7405484
16.57671330035348	3.0849352	1.7563983
16.59442524410448	3.1624444	1.7783263
16.61213758711015	3.2362378	1.7989546
16.629850329820705	3.2611468	1.8058646
16.647563472686436	3.3212433	1.8224279
16.665277016157724	3.3781717	1.8379803
16.682990960685053	3.4688466	1.862484
16.70070530671898	3.5208209	1.8763851
16.718420054710155	3.5231614	1.8770087
16.736135205109335	3.573367	1.8903352
16.753850758367335	3.649078	1.910256
16.771566714935087	3.7222912	1.929324
16.789283075263597	3.761644	1.9394958
16.80699983980398	3.8577309	1.9641107
16.82471700900741	3.935278	1.9837534
16.84243458332518	3.9980917	1.9995229
16.860152563208665	4.0275564	2.0068772
16.87787094910932	4.078363	2.0194957
16.89558974147871	4.11089	2.027533
16.913308940768466	4.16538	2.0409262
16.931028547430333	4.209133	2.0516171
16.94874856191613	4.291235	2.0715296
16.966468984677785	4.3950653	2.096441
16.98418981616729	4.496785	2.1205626
17.00191105683676	4.4799933	2.1165996
17.019632707138374	4.5040927	2.122285
17.03735476752442	4.500087	2.1213408
17.05507723844728	4.5783353	2.1397045
17.072800120359403	4.637766	2.1535473
17.090523413713353	4.6699634	2.1610098
17.108247118961785	4.6626	2.1593053
17.125971236557437	4.6221933	2.1499286
17.143695766953133	4.6510253	2.1566236
17.161420710601806	4.7446423	2.17822
17.179146067956477	4.780447	2.1864233
17.19687183947025	4.763469	2.1825373
17.21459802559634	4.745914	2.1785119
17.232324626788028	4.7392964	2.1769924
17.25005164349871	4.755513	2.180714
17.267779076181863	4.6821165	2.1638198
17.285506925291074	4.650932	2.156602
17.30323519127999	4.640063	2.1540804
17.320963874602384	4.6454954	2.1553411
17.33869297571211	4.624909	2.1505601
17.356422495063114	4.571018	2.137994
17.37415243310944	4.5502105	2.1331222
17.391882790305218	4.508854	2.1234062
17.40961356710468	4.5016947	2.1217198
17.42734476396215	4.516037	2.125097
17.445076381332044	4.5313363	2.1286936
17.462808419668868	4.6347284	2.152842
17.48054087942723	4.782535	2.1869009
17.498273761061835	5.1156054	2.2617705
17.51600706502747	5.6349874	2.373813
17.533740791779024	6.3822613	2.5263138
17.551474941771485	7.7591496	2.785525
17.56920951545993	8.832434	2.971941
17.586944513299528	10.883015	3.2989414
17.60467993574556	12.543538	3.5416858
17.622415783253373	14.251219	3.7750785
17.64015205627843	15.71738	3.964515
17.657888755276293	16.83218	4.102704
17.675625880702604	17.361895	4.166761
17.69336343301311	17.099136	4.1351104
17.71110141266366	16.294468	4.0366406
17.728839820110178	15.344653	3.9172251
17.746578655808705	14.498771	3.8077252
17.764317920215372	13.075645	3.6160262
17.7820576137864	11.5776205	3.4025903
17.79979773697811	9.5637665	3.092534
17.81753829024692	7.640192	2.7640898
17.835279274049356	5.94793	2.4388378
17.85302068884201	4.906628	2.215091
17.870762535081607	4.236389	2.058249
17.888504813224934	3.9154825	1.9787579
17.90624752372891	3.753308	1.9373456
17.923990667050536	3.6801164	1.918363
17.941734243646895	3.5667667	1.8885885
17.959478253975185	3.4966269	1.8699269
17.9772226984927	3.470143	1.862832
17.994967577656833	3.460143	1.8601459
18.01271289192506	3.4084973	1.8462117
18.030458641754965	3.3664725	1.834795
18.04820482760425	3.3652296	1.8344562
18.06595144993067	3.403501	1.844858
18.083698509192125	3.3982685	1.8434393
18.101446005846576	3.377846	1.8378917
18.119193940352105	3.326675	1.8239175
18.136942313166887	3.2699172	1.8082912
18.1546911247492	3.2062144	1.7905905
18.1724403755574	3.1761732	1.7821821
18.19019006604997	3.1684828	1.7800232
18.207940196685467	3.1246605	1.7676709
18.225690767922575	3.0880985	1.7572986
18.243441780220046	3.040969	1.7438374
18.261193234036764	3.0838737	1.7560961
18.278945129831676	3.0944812	1.7591138
18.29669746806386	3.102904	1.7615062
18.314450249192483	3.0537755	1.7475055
18.3322034736768	3.0567486	1.748356
18.349957141976184	3.0970376	1.7598403
18.3677112545501	3.1058962	1.7623553
18.385465811858108	3.09813	1.7601506
18.403220814359884	3.0659218	1.7509774
18.420976262515172	3.0624485	1.7499853
18.43873215678387	3.0529985	1.7472832
18.456488497625923	3.1069736	1.762661
18.474245285501407	3.2231746	1.7953202
18.492002520870486	3.3275218	1.8241496
18.50976020419343	3.3725588	1.8364528
18.527518335930615	3.656803	1.9122769
18.545276916542516	4.1901603	2.046988
18.563035946489688	4.351732	2.0860806
18.580795426232832	4.80662	2.1924005
18.598555356232698	4.6917863	2.166053
18.616315736950185	5.016758	2.2398121
18.63407656884626	4.707751	2.1697352
18.65183785238201	4.9397283	2.22255
18.669599588018617	4.7211637	2.172824
18.68736177621737	4.7318616	2.1752841
18.705124417439652	4.761755	2.1821446
18.72288751214696	4.5908513	2.1426272
18.740651060800886	4.67793	2.1628523
18.758415063863115	4.337193	2.082593
18.77617952179546	4.46992	2.1142185
18.793944435059814	4.2275414	2.0560987
18.811709804118184	4.2719393	2.066867
18.829475629432675	4.2434163	2.0599554
18.8472419114655	4.0229073	2.0057187
18.86500865067897	4.100004	2.0248468
18.88277584753551	3.7673302	1.9409611
18.90054350249763	3.790101	1.9468182
18.918311616027957	3.4758694	1.8643683
18.936080188589226	3.3568988	1.8321842
18.953849220644265	3.0169375	1.7369334
18.971618712656007	2.8190703	1.6790087
18.9893886650875	2.7551827	1.6598743
19.007159078401887	7.955865	2.8206143
19.024929953062408	32.892372	5.735187
19.042701289532435	32.86805	5.7330666
19.060473088275405	25.40768	5.040603
19.07824534975489	2.6629333	1.6318496
19.096018074434568	2.6406715	1.6250143
19.113791262778197	2.6234276	1.6196998
19.13156491524966	2.6275628	1.6209759
19.149339032312945	2.6041946	1.6137518
19.167113614432136	2.5571563	1.5991111
19.184888662071433	2.5183487	1.5869306
19.202664175695123	2.5410032	1.5940524
19.220440155767623	2.555889	1.5987147
19.238216602753447	2.5530276	1.5978197
19.2559935171172	2.5665016	1.6020305
19.27377089932361	2.578298	1.605708
19.291548749837514	2.5743449	1.6044765
19.309327069123835	2.5414484	1.594192
19.32710585764763	2.5268667	1.5896121
19.344885115874032	2.5337994	1.5917913
19.362664844268313	2.4901123	1.578009
19.380445043295822	2.4955451	1.5797294
19.39822571342203	2.515727	1.5861044
19.41600685511252	2.5502303	1.5969441
19.43378846883297	2.533613	1.5917327
19.451570555049173	2.5005524	1.5813135
19.469353114227037	2.4911704	1.5783442
19.48713614683254	2.5137713	1.5854877
19.50491965333182	2.5447762	1.5952355
19.52270363419109	2.5583715	1.599491
19.540488089876686	2.5284364	1.5901058
19.55827302085503	2.471108	1.5719758
19.576058427592674	2.4338434	1.560078
19.593844310556282	2.4569817	1.5674762
19.611630670212598	2.4564848	1.5673177
19.629417507028506	2.4478369	1.5645565
19.64720482147098	2.443444	1.563152
19.6649926140071	2.5235012	1.5885532
19.682780885104084	2.5640652	1.6012698
19.70056963522921	2.5761743	1.6050465
19.718358864849908	2.5273848	1.5897751
19.7361485744337	2.494315	1.57934
19.753938764448215	2.4738007	1.5728321
19.771729435361202	2.4814703	1.5752684
19.789520587640506	2.5341468	1.5919003
19.807312221754092	2.5701244	1.6031607
19.825104338170043	2.6017294	1.6129878
19.842896937356517	2.5721824	1.6038024
19.860690019781824	2.565667	1.6017699
19.87848358591436	2.5626926	1.6008413
19.896277636222635	2.5889864	1.6090328
19.914072171175278	2.5646627	1.6014564
19.931867191241015	2.5622718	1.6007098
19.94966269688869	2.5496495	1.5967622
19.967458688587264	2.4850504	1.5764043
19.985255166805807	2.436388	1.5608933
20.00305213201348	2.421195	1.556019
20.020849584679578	2.453689	1.5664256
20.038647525273507	2.4642968	1.5698079
20.05644595426477	2.460823	1.568701
20.07424487212299	2.4142578	1.5537882
20.092044279317903	2.4018762	1.5497987
20.109844176319353	2.3806577	1.542938
20.127644563597304	2.3679538	1.5388157
20.145445441621817	2.422008	1.5562801
20.16324681086307	2.4239638	1.5569084
20.181048671791373	2.4634206	1.5695288
20.198851024877122	2.4254375	1.5573816
20.216653870590836	2.4299688	1.5588357
20.234457209403146	2.4232333	1.5566738
20.252261041784802	2.4273643	1.5580001
20.270065368206662	2.4533477	1.5663166
20.287870189139685	2.4171255	1.5547107
20.305675505054968	2.367704	1.5387346
20.323481316423702	2.3417666	1.5302832
20.341287623717207	2.3353174	1.5281745
20.359094427406884	2.3608954	1.5365206
20.376901727964288	2.379594	1.5425932
20.39470952586107	2.4065428	1.5513036
20.41251782156899	2.4125414	1.5532358
20.430326615559935	2.3980227	1.548555
20.448135908305886	2.3848627	1.5443001
20.465945700278965	2.3886688	1.5455319
20.483755991951384	2.3867378	1.5449071
20.50156678379548	2.3600008	1.5362294
20.519378076283708	2.352021	1.53363
20.537189869888635	2.3470101	1.5319954
20.55500216508294	2.3650544	1.5378733
20.572814962339415	2.3743675	1.5408983
20.59062826213098	2.3615673	1.5367391
20.60844206493066	2.3499815	1.532965
20.626256371211593	2.3427997	1.5306207
20.644071181447032	2.3633738	1.5373268
20.66188649611036	2.3712885	1.5398989
20.67970231567506	2.3637426	1.5374467
20.697518640614742	2.349948	1.532954
20.715335471403122	2.34862	1.5325208
20.73315280851404	2.3313591	1.5268788
20.750970652421447	2.313569	1.5210421
20.768789003599412	2.298057	1.5159343
20.786607862522136	2.2866666	1.5121728
20.8044272296639	2.294892	1.5148901
20.82224710549913	2.3319001	1.527056
20.84006749050237	2.305899	1.5185187
20.857888385148268	3.8480635	1.9616481
20.8757097899116	45.954193	6.778952
20.893531705267254	64.880745	8.054858
20.911354131690224	83.886314	9.158947
20.92917706965566	69.1404	8.315071
20.94700051963877	50.17463	7.083405
20.96482448211493	29.412294	5.4233103
20.982648957559622	4.1064725	2.0264432
21.00047394644843	2.2106302	1.4868188
21.01829944925707	2.2123077	1.4873829
21.036125466461375	2.211573	1.4871358
21.053951998537297	2.2514162	1.500472
21.071779045960906	2.2643821	1.5047864
21.089606609208378	2.2512827	1.5004275
21.10743468875603	2.2029176	1.4842229
21.12526328508028	2.1621392	1.4704214
21.143092398657675	2.1704848	1.4732565
21.16092202996488	2.2287936	1.4929144
21.17875217947867	2.2589023	1.5029645
21.19658284767596	2.2183979	1.4894288
21.21441403503377	2.1952505	1.4816378
21.232245742029225	2.144591	1.4644423
21.2500779691396	2.12968	1.4593422
21.26791071684227	2.1292422	1.4591923
21.28574398561475	2.1667244	1.4719797
21.30357777593465	2.1804752	1.4766432
21.321412088279704	2.2030284	1.4842602
21.339246923127792	2.204033	1.4845985
21.357082280956888	2.187176	1.4789104
21.3749181622451	2.1790671	1.4761664
21.392754567470647	2.198825	1.4828435
21.41059149711187	2.1610703	1.470058
21.42842895164726	2.1704586	1.4732476
21.446266931555378	2.1556907	1.468227
21.464105437314945	2.1687245	1.472659
21.481944469404798	2.1490092	1.4659499
21.49978402830388	2.1406965	1.4631119
21.51762411449127	2.1095765	1.4524381
21.53546472844617	2.1092417	1.4523228
21.553305870647876	2.0907228	1.4459332
21.571147541575865	2.0848985	1.4439178
21.58898974170967	2.077962	1.4415138
21.60683247152899	2.099251	1.4488792
21.62467573151363	2.103366	1.4502985
21.642519522143523	2.1023402	1.4499449
21.660363843898722	2.0840614	1.4436278
21.6782086972594	2.0962622	1.4478475
21.696054082705864	2.1175556	1.4551823
21.713900000718535	2.101436	1.449633
21.73174645177795	2.039747	1.4281971
21.749593436364794	2.014989	1.4195031
21.767440954959845	2.0332358	1.4259157
21.785289008044032	2.044361	1.4298116
21.803137596098388	2.0229847	1.4223167
21.820986719604086	2.01145	1.418256
21.838836379042412	2.0242486	1.422761
21.85668657489478	2.0236812	1.4225615
21.87453730764273	2.0002058	1.4142863
21.892388577767914	2.01061	1.4179598
21.91024038575213	2.0100882	1.4177758
21.928092732077285	2.0186706	1.4207993
21.945945617225426	1.995531	1.4126326
21.963799041678694	2.0099638	1.4177319
21.981653005919398	31.3517	5.599259
21.999507510429943	78.14117	8.839749
22.01736255569286	73.081665	8.548781
22.035218142190818	4.168724	2.0417454
22.05307427040661	2.010489	1.4179171
22.07093094082315	1.9960703	1.4128236
22.088788153923474	2.0162425	1.4199445
22.106645910190746	2.0162876	1.4199604
22.12450421010827	2.0062377	1.4164172
22.142363054159464	1.990303	1.410781
22.16022244282787	1.9979175	1.4134771
22.178082376597164	1.9678612	1.4028047
22.195942855951145	1.9639655	1.4014156
22.213803881373742	1.9618107	1.4006466
22.231665453349002	1.9774299	1.4062111
22.24952757236111	1.9886339	1.4101893
22.26739023889438	1.98788	1.409922
22.28525345343323	1.9844519	1.4087057
22.30311721646225	1.966758	1.4024115
22.320981528466113	1.9862554	1.4093457
22.33884638992964	2.0092945	1.4174958
22.356711801337788	2.031738	1.4253905
22.37457776317561	1.9946688	1.4123274
22.392444275928337	1.9460671	1.3950151
22.410311340081282	1.9216775	1.3862458
22.428178956119904	1.9411097	1.3932371
22.446047124529805	1.9887116	1.4102168
22.46391584579669	2.0018482	1.4148668
22.481785120406414	1.973138	1.4046843
22.49965494884496	1.9537416	1.397763
22.51752533159841	1.940481	1.3930115
22.53539626915302	1.9113227	1.382506
22.553267761995137	1.8839003	1.3725525
22.571139810611264	1.9030794	1.3795215
22.589012415488025	1.9271939	1.3882341
22.60688557711216	1.925497	1.3876228
22.624759295970566	1.9285359	1.3887174
22.642633572550263	1.9866871	1.4094988
22.660508407338362	2.0356073	1.4267471
22.67838380082217	2.071622	1.4393129
22.696259753489077	2.0055296	1.4161673
22.714136265826614	1.9247289	1.387346
22.73201333832246	1.9080137	1.3813087
22.74989097146439	1.9215579	1.3862027
22.76776916574035	1.9381121	1.392161
22.785647921638393	1.9439493	1.3942559
22.803527239646712	1.9746947	1.4052383
22.82140712025363	1.9527044	1.397392
22.839287563947593	1.947449	1.3955103
22.85716857121719	1.9441898	1.3943421
22.875050142551135	1.9511158	1.3968235
22.892932278438277	1.9606327	1.400226
22.910814979367604	1.9255896	1.3876561
22.928698245828222	1.9000237	1.3784134
22.946582078309387	1.8729911	1.3685726
22.96446647730047	1.887615	1.3739051
22.98235144329098	1.9207906	1.3859259
23.000236976770562	1.9124275	1.3829055
23.018123078229	1.9003905	1.3785465
23.03600974815619	1.8967412	1.3772223
23.053896987042194	1.8763278	1.3697912
23.071784795377173	1.8742374	1.3690279
23.08967317365145	1.8934458	1.3760254
23.10756212235546	1.9520996	1.3971756
23.125451641979787	1.9622488	1.400803
23.143341733015134	1.9710258	1.4039322
23.161232395952357	1.9616078	1.4005741
23.179123631282426	1.9609535	1.4003404
23.197015439496468	1.9361246	1.391447
23.214907821085717	1.9720118	1.4042834
23.23280077654157	2.0269916	1.4237245
23.250694306355538	2.0504198	1.4319288
23.268588411019277	1.9993645	1.4139888
23.28648309102458	1.9449999	1.3946326
23.304378346863356	1.9294367	1.3890417
23.322274179027676	1.954879	1.3981699
23.340170588009723	1.974723	1.4052484
23.358067574301852	1.9816178	1.4076995
23.37596513839651	2.0120566	1.4184698
23.39386328078629	1.9375626	1.3919636
23.411762001963947	1.9197079	1.3855352
23.429661302422353	1.9252777	1.3875438
23.4475611826545	1.9495906	1.3962774
23.46546164315356	1.9284041	1.3886698
23.48336268441279	1.9396034	1.3926965
23.501264306925638	1.9491631	1.3961244
23.51916651118564	1.923039	1.3867368
23.537069297686497	1.9070275	1.3809516
23.554972666922037	1.9094453	1.3818268
23.57287661938623	1.9083807	1.3814416
23.59078115557318	1.8382356	1.3558155
23.608686275977128	1.8391345	1.3561469
23.62659198109246	1.8539044	1.3615816
23.6444982714137	1.8953753	1.3767263
23.66240514743549	1.8892294	1.3744924
23.68031260965263	1.9027429	1.3793994
23.698220658560068	1.913118	1.3831551
23.716129294652845	1.9250064	1.387446
23.7340385184262	1.9208161	1.3859351
23.75194833037546	1.9237746	1.387002
23.769858730996123	1.9213115	1.3861138
23.78776972078382	1.9546331	1.3980819
23.80568130023431	1.9314772	1.389776
23.823593469843495	1.9170069	1.3845601
23.841506230107424	1.92219	1.3864306
23.859419581522275	1.9735348	1.4048256
23.87733352458438	1.9729809	1.4046284
23.89524805979019	1.9613652	1.4004875
23.913163187636318	1.9194727	1.3854504
23.931078908619508	1.9385091	1.3923035
23.948995223236633	1.9902202	1.4107516
23.966912131984735	2.0579543	1.4345572
23.98482963536096	2.103374	1.4503014
24.002747733862616	2.0318935	1.425445
24.020666427987155	2.0094013	1.4175335
24.038585718232156	2.0179923	1.4205606
24.056505605095353	2.0252514	1.4231132
24.074426089074617	2.0220942	1.4220036
24.092347170667946	1.998335	1.4136248
24.110268850373515	2.0324502	1.4256402
24.128191128689586	2.0681777	1.4381161
24.146114006114626	2.081413	1.4427103
24.164037483147187	2.0779884	1.441523
24.181961560286005	2.0762892	1.4409335
24.199886238029926	2.0239432	1.4226536
24.21781151687797	2.006302	1.4164399
24.235737397329274	2.0463636	1.4305117
24.253663879883135	2.0536795	1.4330665
24.271590965038975	2.0632815	1.4364127
24.289518653296376	2.0454037	1.4301761
24.30744694515505	2.0458045	1.4303162
24.32537584111486	2.027327	1.4238423
24.34330534167581	2.0037246	1.4155297
24.361235447338046	1.9947369	1.4123516
24.379166158601876	1.9925989	1.4115944
24.39709747596772	2.005273	1.4160767
24.41502939993615	2.0101714	1.4178052
24.432961931007917	2.0332346	1.4259154
24.450895069683856	2.021231	1.4217
24.468828816465	1.9757409	1.4056106
24.4867631718525	1.9660289	1.4021516
24.504698136347656	1.9813398	1.4076008
24.52263371045192	1.9729894	1.4046314
24.540569894666874	1.9268624	1.3881147
24.558506689494266	1.873956	1.3689251
24.57644409543597	1.8407288	1.3567346
24.594382112994012	1.8545189	1.3618072
24.61232074267057	1.8791065	1.370805
24.630259984967953	1.8902718	1.3748715
24.64819984038863	1.8955764	1.3767993
24.66614030943522	1.9682761	1.4029527
24.684081392610462	1.9895637	1.410519
24.702023090417274	1.9993207	1.4139733
24.7199654033587	2.0007117	1.4144652
24.737908331937927	1.990826	1.4109664
24.755851876658305	2.0360548	1.426904
24.773796038023324	2.0794275	1.442022
24.79174081653661	2.1436086	1.4641068
24.809686212701962	2.1207502	1.4562795
24.827632227023294	2.1086607	1.4521228
24.8455788600047	2.1171553	1.4550447
24.8635261121504	2.1949108	1.4815232
24.88147398396475	2.2072318	1.4856756
24.899422475952303	2.1375146	1.4620241
24.917371588617698	2.105856	1.4511567
24.935321322465768	2.1735315	1.4742901
24.953271678001478	2.3613303	1.5366621
24.97122265572994	2.5628695	1.6008965
24.989174256156414	2.7912707	1.6707096
25.00712647978632	3.1587532	1.7772882
25.02507932712521	3.7233741	1.9296046
25.043032798678798	4.328327	2.0804632
25.060986894952933	5.031105	2.2430124
25.078941616453637	5.6981583	2.3870816
25.096896963687055	6.57696	2.5645585
25.114852937159508	7.7756453	2.7884843
25.132809537377444	8.289184	2.8790941
25.150766764847468	8.324754	2.8852649
25.168724620076347	7.688319	2.7727818
25.186683103570985	6.673453	2.5833027
25.204642215838426	5.5261235	2.350771
25.222601957385894	4.2594433	2.0638418
25.24056232872074	3.303489	1.8175503
25.25852333035048	2.7462034	1.6571673
25.276484962782778	2.362259	1.5369642
25.294447226525435	2.132672	1.4603671
25.312410122086423	2.0173924	1.4203494
25.330373649973843	1.9694903	1.4033853
25.348337810695988	1.9414988	1.3933767
25.366302604761245	1.9052876	1.3803216
25.384268032678207	1.9009072	1.3787339
25.40223409495558	1.9314018	1.3897488
25.420200792102257	1.9524024	1.3972839
25.438168124627246	1.9598968	1.3999631
25.45613609303974	1.9682981	1.4029604
25.474104697849057	1.9504797	1.3965957
25.492073939564698	1.9285066	1.3887068
25.510043818696285	1.9124409	1.3829103
25.528014335753614	1.8746387	1.3691745
25.54598549124664	1.8941898	1.3762957
25.56395728568544	1.9122516	1.3828418
25.58192971958028	1.9052842	1.3803203
25.59990279344156	1.8652247	1.3657323
25.617876507779833	1.8549554	1.3619674
25.635850863105826	1.8239086	1.3505216
25.653825859930386	1.8632683	1.3650159
25.671801498764548	1.8790246	1.3707752
25.68977778011949	1.9390986	1.3925152
25.707754704506524	1.9472748	1.3954479
25.725732272437153	1.9398153	1.3927726
25.743710484423012	1.9166828	1.3844432
25.761689340975888	1.8860267	1.3733269
25.77966884260774	1.8756198	1.3695327
25.797648989830662	1.9029912	1.3794894
25.815629783156922	1.9107105	1.3822845
25.83361122309895	1.8787261	1.3706663
25.85159331016929	1.8445485	1.3581415
25.869576044880695	1.89923	1.3781255
25.887559427746034	1.8696022	1.367334
25.90554345927836	1.8401164	1.3565089
25.92352813999086	1.8107194	1.3456297
25.94151347039689	1.8681365	1.3667979
25.959499451009965	1.8589582	1.3634362
25.97748608234374	1.8297255	1.3526734
25.995473364912062	1.8161397	1.3476423
26.013461299228904	1.8630977	1.3649534
26.03144988580839	1.8931797	1.3759286
26.04943912516483	1.8748035	1.3692347
26.067429017812675	1.8209692	1.349433
26.085419564266537	1.7889313	1.3375094
26.103410765041186	1.8235182	1.3503771
26.12140262065155	1.8754661	1.3694766
26.139395131612723	1.8757392	1.3695763
26.157388298439948	1.8443335	1.3580624
26.17538212164861	1.825467	1.3510984
26.193376601754295	1.8128599	1.3464248
26.211371739272714	1.8445425	1.3581394
26.229367534719746	1.8937452	1.3761342
26.247363988611433	1.9133606	1.3832427
26.26536110146397	1.8864766	1.3734907
26.283358873793727	1.8584739	1.3632586
26.301357306117204	1.8131785	1.3465432
26.319356398951104	1.8321189	1.3535578
26.33735615281224	1.8681229	1.3667929
26.35535656821762	1.8525591	1.3610874
26.373357645684404	1.849635	1.3600129
26.39135938572991	1.86992	1.3674502
26.409361788871614	1.8368658	1.3553102
26.427364855627165	1.7858204	1.3363459
26.445368586514352	1.7948844	1.339733
26.46337298205115	1.8296905	1.3526605
26.48137804275568	1.83489	1.3545811
26.499383769146217	1.8302679	1.3528739
26.517390161741215	1.8028288	1.3426946
26.53539722105928	1.859957	1.3638024
26.553404947619182	1.8707087	1.3677385
26.571413341939856	1.848087	1.3594437
26.589422404540397	1.8112327	1.3458204
26.60743213594006	1.82157	1.3496555
26.62544253665827	1.8107642	1.3456464
26.64345360721459	1.8310105	1.3531483
26.66146534812879	1.8806643	1.3713732
26.679477759920758	1.8550783	1.3620126
26.69749084311057	1.8151305	1.3472677
26.71550459821847	1.7632248	1.3278648
26.733519025764842	1.7679985	1.329661
26.751534126270258	1.8043863	1.3432745
26.769549900255434	1.807182	1.3443147
26.787566348241267	1.7943852	1.3395467
26.80558347074881	1.8161665	1.3476522
26.823601268299267	1.7972145	1.3406023
26.841619741414036	1.7771759	1.3331076
26.85963889061465	1.8102208	1.3454444
26.877658716422832	1.8300337	1.3527874
26.89567921936045	1.785636	1.3362769
26.913700399949544	1.7770255	1.3330512
26.93172225871233	1.7818775	1.3348699
26.949744796171174	1.8066682	1.3441236
26.967768012848605	1.7810365	1.3345548
26.98579190926733	1.737597	1.3181794
27.003816485950225	1.7858442	1.3363549
27.021841743420318	1.8353347	1.3547453
27.039867682200814	1.8218187	1.3497477
27.057894302815072	1.8297766	1.3526924
27.07592160578664	1.8741943	1.3690121
27.0939495916392	1.9061278	1.3806258
27.111978260896635	1.8792213	1.370847
27.13000761408296	1.8316419	1.3533816
27.148037651722397	1.8050989	1.3435397
27.166068374339304	1.8251202	1.3509701
27.184099782458215	1.8556144	1.3622094
27.20213187660384	1.8903766	1.3749096
27.22016465730105	1.8568399	1.3626591
27.23819812507487	1.7667233	1.3291814
27.256232280450533	1.7545167	1.3245817
27.274267123953383	1.7793686	1.3339298
27.292302656108987	1.7838544	1.3356102
27.31033887744306	1.7630689	1.327806
27.32837578848146	1.7721474	1.3312203
27.34641338975026	1.7821788	1.3349826
27.364451681775673	1.8213096	1.3495591
27.382490665084074	1.8227345	1.3500868
27.400530340202046	1.8687705	1.3670298
27.41857070765629	1.8555592	1.3621892
27.436611767973726	1.859672	1.3636979
27.454653521681404	1.8529246	1.3612217
27.472695969306564	1.8269744	1.3516562
27.490739111376627	1.8399745	1.3564566
27.508782948419153	1.8409739	1.3568249
27.526827480961902	1.8023301	1.3425089
27.54487270953279	1.7614069	1.32718
27.562918634659898	1.7730429	1.3315566
27.580965256871508	1.8073618	1.3443816
27.599012576696026	1.7952393	1.3398654
27.617060594662068	1.819761	1.3489852
27.63510931129842	1.8307474	1.3530512
27.65315872713401	1.8416946	1.3570905
27.67120884269797	1.8580134	1.3630897
27.68925965851958	1.8780473	1.3704187
27.707311175128307	1.9076619	1.3811814
27.725363393053787	1.9046065	1.3800749
27.74341631282583	1.8856661	1.3731956
27.7614699349744	1.9067878	1.3808649
27.77952426002968	2.1070223	1.4515586
27.797579288521973	2.2188919	1.4895946
27.815635020981784	2.6453166	1.6264429
27.83369145793979	2.6422424	1.6254976
27.85174859992682	2.4541676	1.5665783
27.869806447473923	2.3153458	1.521626
27.887865001112267	2.059781	1.4351938
27.905924261373233	1.9633349	1.4011905
27.92398422878836	1.9218361	1.3863031
27.94204490388936	1.8291438	1.3524584
27.96010628720813	1.826162	1.3513556
27.978168379276728	1.8297594	1.3526859
27.9962311806274	1.8332549	1.3539774
28.014294691792568	1.8895353	1.3746037
28.0323589133048	1.901892	1.379091
28.050423845696887	1.85066	1.3603896
28.068489489501758	1.8243635	1.35069
28.086555845252523	1.8110993	1.3457708
28.104622913482487	1.9184963	1.385098
28.122690694725115	1.9740772	1.4050186
28.14075918951405	2.0246158	1.42289
28.15882839838312	2.0301185	1.4248222
28.176898321866304	2.0348833	1.4264933
28.1949689604978	1.9433881	1.3940545
28.213040314811945	1.8752315	1.369391
28.23111238534327	1.8695018	1.3672973
28.249185172626493	1.8883371	1.3741678
28.267258677196473	1.8669624	1.3663683
28.285332899588294	1.907458	1.3811074
28.303407840337172	1.9447522	1.3945438
28.321483499978545	1.9202259	1.3857222
28.33955987904799	1.9222405	1.3864489
28.357636978081285	1.957007	1.3989307
28.37571479761439	1.9740453	1.4050072
28.393793338183425	1.9344	1.3908271
28.41187260032469	1.962245	1.4008015
28.429952584574686	1.9734809	1.4048064
28.448033291470065	1.990379	1.410808
28.46611472154769	1.9753815	1.4054826
28.484196875344566	1.9866042	1.4094695
28.502279753397914	1.980445	1.4072828
28.52036335624511	1.9523873	1.3972785
28.538447684423716	1.9284352	1.388681
28.556532738471482	1.9702048	1.4036398
28.574618518926325	1.9764116	1.4058491
28.59270502632635	2.0202076	1.4213401
28.61079226120985	2.0267189	1.4236288
28.628880224115274	2.06878	1.4383254
28.646968915581287	2.0596943	1.4351635
28.66505833614671	2.0870106	1.444649
28.68314848635055	2.1139488	1.4539425
28.701239366732004	2.0998352	1.4490808
28.71933097783044	2.0791454	1.4419242
28.737423320185403	2.1011105	1.4495208
28.75551639433665	2.1493037	1.4660504
28.773610200824074	2.1846707	1.4780631
28.791704740187793	2.1969671	1.482217
28.80980001296809	2.1815484	1.4770066
28.827896019705413	2.1887681	1.4794486
28.845992760940433	2.1589587	1.4693395
28.86409023721397	2.1277773	1.4586903
28.88218844906704	2.1873014	1.4789528
28.900287397040845	2.2271092	1.4923502
28.918387081676755	2.2795691	1.5098242
28.936487503516343	2.2767513	1.5088907
28.954588663101365	2.298065	1.515937
28.97269056097374	2.350401	1.5331017
28.990793197675597	2.3582392	1.535656
29.00889657374923	2.3194425	1.5229716
29.027000689737125	2.3151658	1.5215669
29.04510554618196	2.3570035	1.5352535
29.06321114362659	2.420549	1.5558113
29.08131748261405	2.446816	1.5642302
29.099424563687567	2.4740124	1.5728993
29.11753238739057	2.4908268	1.5782354
29.13564095426663	2.5340579	1.5918725
29.15375026485954	2.6154256	1.6172278
29.171860319713275	2.711826	1.6467623
29.18997111937199	2.7643206	1.6626246
29.20808266438002	2.6972418	1.6423281
29.226194955281898	2.6602871	1.6310387
29.244307992622335	2.7380588	1.654708
29.26242177694624	2.8162963	1.6781825
29.2805363087987	2.817639	1.6785824
29.29865158872498	2.9144611	1.7071793
29.316767617270557	2.9457917	1.7163309
29.334884394981064	2.915102	1.707367
29.353001922402367	2.891661	1.7004884
29.37112020008047	2.943904	1.7157809
29.389239228561596	3.092412	1.7585255
29.407359008392152	3.3367622	1.8266807
29.42547954011872	3.6801674	1.9183762
29.44360082428809	4.3132358	2.076833
29.46172286144722	5.3693333	2.317182
29.479845652143283	6.8852925	2.623984
29.497969196923606	8.806757	2.967618
29.516093496335728	11.278576	3.358359
29.5342185509274	14.146627	3.7612002
29.55234436124651	16.608622	4.0753675
29.570470927841175	17.96556	4.23858
29.588598251259686	17.692808	4.206282
29.60672633205055	16.387331	4.0481267
29.624855170762405	14.358303	3.789235
29.642984767944146	11.753973	3.4284067
29.66111512414481	9.097389	3.016188
29.67924623991366	6.7051954	2.5894392
29.697378115800138	5.093212	2.2568145
29.71551075235387	4.21845	2.0538867
29.733644150124675	3.7617722	1.9395288
29.751778309662576	3.5873826	1.8940387
29.769913231517766	3.48871	1.8678088
29.78804891624066	3.4300115	1.852029
29.806185364381818	3.3490283	1.8300351
29.82432257649206	3.3133147	1.8202512
29.842460553122333	3.3095918	1.8192283
29.86059929482382	3.2955017	1.8153517
29.878738802147872	3.2753701	1.8097984
29.896879075646048	3.2710264	1.8085979
29.915020115870114	3.2809803	1.8113476
29.933161923371976	3.258392	1.8051016
29.951304498703777	3.2073874	1.790918
29.969447842417857	3.274484	1.8095535
29.987591955066733	3.353775	1.8313315
30.005736837203123	3.3139992	1.8204393
30.023882489379943	3.216019	1.7933263
30.04202891215028	3.166218	1.779387
30.060176106067455	3.167629	1.7797834
30.078324071684946	3.1008952	1.7609359
30.09647280955646	3.1188111	1.7660156
30.114622320235863	3.1739159	1.7815487
30.132772604277257	3.17751	1.7825571
30.1509236622349	3.1115897	1.7639699
30.16907549466328	3.0368066	1.7426436
30.18722810211705	3.004704	1.7334082
30.205381485151097	3.0398662	1.7435212
30.22353564432045	3.0613887	1.7496824
30.241690580180403	2.9997718	1.731985
30.25984629328638	2.910488	1.7060152
30.278002784194037	2.963428	1.721461
30.296160053459246	3.0201209	1.7378495
30.314318101638033	3.0405078	1.7437052
30.332476929286646	3.0029948	1.7329152
30.35063653696153	2.9298794	1.7116891
30.368796925219307	2.929183	1.7114856
30.386958094616844	2.9156237	1.7075198
30.40512004571115	2.9425073	1.7153738
30.423282779059463	2.9703543	1.7234716
30.441446295219233	2.9495738	1.7174323
30.459610594748067	2.9513247	1.717942
30.47777567820382	2.9543867	1.718833
30.495941546144504	2.9094372	1.7057072
30.51410819912835	2.8036227	1.6744022
30.532275637713795	2.7629979	1.6622268
30.55044386245946	2.740805	1.6555376
30.56861287392416	2.752488	1.6590624
30.586782672666956	2.784358	1.6686395
30.604953259247047	2.7761059	1.666165
30.623124634223885	2.8135922	1.6773766
30.641296798157075	2.8139286	1.6774769
30.659469751606462	2.8136241	1.677386
30.677643495132074	2.7469811	1.6574019
30.695818029294152	2.6866376	1.6390966
30.713993354653116	2.6925278	1.6408924
30.73216947176962	2.7477963	1.6576478
30.75034638120448	2.7468855	1.6573731
30.768524083518756	2.7484438	1.6578431
30.786702579273673	2.7761357	1.6661739
30.80488186903069	2.7890987	1.6700594
30.82306195335144	2.8863244	1.6989186
30.841242832797782	3.1632462	1.7785517
30.85942450793176	3.5511749	1.8844562
30.877606979315637	3.85449	1.9632856
30.895790247511883	4.084194	2.0209389
30.913974313083134	4.461161	2.1121461
30.932159176592283	4.755141	2.1806285
30.95034483860237	4.7675037	2.1834614
30.968531299676698	4.6071773	2.1464336
30.98671856037873	4.3099766	2.0760484
31.00490662127215	3.9699192	1.9924656
31.023095482920848	3.5643113	1.8879384
31.04128514588892	3.1528535	1.7756276
31.059475610740662	2.8132322	1.6772692
31.07766687804056	2.6232657	1.6196499
31.09585894835335	2.4672456	1.5707468
31.11405182224393	2.4219222	1.5562526
31.132245500277417	2.4253051	1.5573391
31.15043998301914	2.4433136	1.5631102
31.168635271034628	2.489024	1.577664
31.18683136488964	2.4868164	1.5769643
31.20502826515008	2.4544697	1.5666747
31.223225972382135	2.467982	1.5709813
31.241424487152155	2.4828324	1.5757006
31.259623810026692	2.3982236	1.5486199
31.27782394157253	2.374221	1.5408508
31.296024882356644	2.425243	1.5573192
31.314226632946237	2.453875	1.5664849
31.332429193908684	2.3851712	1.5444
31.350632565811598	2.359289	1.5359977
31.368836749222787	2.4230733	1.5566224
31.387041744710295	2.494439	1.5793793
31.40524755284232	2.5036056	1.5822786
31.423454174187317	2.5423818	1.5944848
31.441661609313922	2.5414045	1.5941783
31.459869858791002	2.503938	1.5823836
31.478078923187628	2.427116	1.5579203
31.496288803073064	2.3989213	1.5488452
31.514499499016807	2.3800666	1.5427464
31.532711011588546	2.3183343	1.5226077
31.550923341358178	2.1773958	1.4756001
31.56913648889584	2.1805556	1.4766704
31.587350454771844	2.313222	1.520928
31.605565239556732	2.3580236	1.5355858
31.62378084382127	2.2836993	1.5111914
31.641997268136382	2.2512987	1.5004328
31.660214513073274	2.286007	1.5119547
31.67843257920331	2.2636013	1.504527
31.6966514670981	2.251844	1.5006145
31.71487117732944	2.3286357	1.5259868
31.733091710469346	2.3597884	1.5361602
31.751313067090052	2.2752066	1.5083787
31.769535247764008	2.267918	1.5059608
31.787758253063878	2.3802745	1.5428138
31.805982083562526	2.4175873	1.5548593
31.824206739833024	2.3312092	1.5268298
31.84243222244869	2.2839186	1.511264
31.860658531983013	2.2605023	1.5034966
31.878885669009737	2.284547	1.5114719
31.897113634102784	2.2898135	1.5132129
31.91534242783632	2.2388601	1.4962821
31.933572050784694	2.2112353	1.4870223
31.951802503522508	2.1917264	1.480448
31.970033786624548	2.1793044	1.4762467
31.988265900665834	2.2139807	1.4879451
32.006498846221575	2.2792645	1.5097233
32.02473262386724	2.2857296	1.511863
32.04296723417845	2.224911	1.4916135
32.0612026777311	2.2056	1.4851263
32.07943895510129	2.2453597	1.4984524
32.097676066865304	2.2500634	1.5000211
32.115914013599685	2.2241201	1.4913484
32.13415279588115	2.194856	1.4815046
32.152392414286666	2.1487021	1.4658452
32.1706328693934	2.0751688	1.4405446
32.18887416177875	2.1467695	1.4651859
32.20711629202032	2.1678045	1.4723465
32.225359260695924	2.1469414	1.4652445
32.243603068383614	2.1806417	1.4766996
32.26184771566166	2.18591	1.4784824
32.28009320310852	2.0721672	1.4395024
32.2983395313029	2.076509	1.4410098
32.31658670082372	2.1237369	1.4573046
32.33483471225012	2.1368814	1.4618076
32.35308356616143	2.0826356	1.443134
32.371333263137245	2.0695908	1.4386072
32.38958380375734	2.1016634	1.4497114
32.407835188601744	2.135357	1.4612861
32.42608741825067	2.0952907	1.4475119
32.444340493284585	2.10439	1.4506515
32.46259441428416	2.073984	1.4401333
32.48084918183028	2.0054321	1.4161328
32.49910479650405	1.9428872	1.3938749
32.51736125888683	1.9043628	1.3799865
32.53561856956014	1.9300132	1.3892491
32.5538767291058	2.0147076	1.4194039
32.572135738105764	2.1538792	1.46761
32.59039559714228	2.162288	1.470472
32.608656306797776	2.1008556	1.4494328
32.62691786765491	2.0805771	1.4424206
32.645180280296586	2.0265298	1.4235624
32.663443545305896	2.0214884	1.4217906
32.68170766326619	2.0572126	1.4342986
32.69997263476099	2.0694647	1.4385635
32.7182384603741	2.0286796	1.4243172
32.7365051406895	1.9389534	1.3924631
32.75477267629144	1.9842899	1.4086483
32.77304106776434	1.9916931	1.4112736
32.79131031569289	1.9579314	1.399261
32.809580420661966	1.9514918	1.3969581
32.827851383256714	1.960848	1.4003028
32.84612320406245	1.8879304	1.3740197
32.86439588366476	1.8527025	1.3611401
32.88266942264945	1.8993723	1.3781772
32.9009438216025	1.9270968	1.3881991
32.9192190811102	2.0384216	1.4277331
32.937495201758985	2.0762115	1.4409065
32.95577218413556	1.9573876	1.3990667
32.974050028826866	1.9866267	1.4094775
32.992328736420035	2.0415769	1.4288375
33.010608307502444	1.9635485	1.4012668
33.02888874266169	1.8763883	1.3698132
33.047170042485604	1.9368526	1.3917085
33.06545220756225	1.9836582	1.408424
33.083735238479896	1.9660419	1.4021561
33.10201913582707	2.0052197	1.4160578
33.12030390019248	2.0627947	1.4362433
33.138589532165135	2.1515317	1.46681
33.15687603233419	2.0790503	1.4418912
33.17516340128909	1.9318936	1.3899257
33.19345163961947	1.9314307	1.3897592
33.211740747915215	1.9751391	1.4053965
33.23003072676643	1.9195368	1.3854735
33.248321576763466	1.8968103	1.3772473
33.266613298496885	1.8626603	1.3647932
33.28490589255747	1.8857589	1.3732294
33.30319935953626	1.9001639	1.3784643
33.32149370002451	1.9381596	1.392178
33.339788914613706	1.917407	1.3847047
33.358085003895575	2.00798	1.4170321
33.376381968462034	2.0395353	1.428123
33.39467980890529	1.981113	1.4075202
33.41297852581774	2.02715	1.4237802
33.43127811979204	2.0111566	1.4181526
33.44957859142105	1.9432724	1.394013
33.467879941297866	1.9186099	1.385139
33.486182170015844	1.9302622	1.3893387
33.50448527816853	1.9829724	1.4081805
33.522789266349754	2.0698915	1.4387118
33.541094135153514	2.0035706	1.4154754
33.55939988517411	1.8291004	1.3524424
33.57770651700602	1.7955548	1.3399831
33.59601403124398	1.8539983	1.361616
33.61432242848296	1.8773209	1.3701535
33.632631709318154	1.9083729	1.3814387
33.650941874344994	1.9335991	1.3905392
33.66925292415916	1.9159191	1.3841673
33.68756485935654	1.9501301	1.3964705
33.70587768053328	1.8907521	1.3750463
33.724191388285746	1.8474112	1.359195
33.74250598321054	1.9043775	1.3799919
33.760821465904506	2.032436	1.4256352
33.77913783696474	2.0259976	1.4233755
33.79745509698852	2.0045698	1.4158283
33.815773246573414	2.042251	1.4290736
33.8340922863172	1.9333577	1.3904524
33.852412216817896	1.859819	1.3637519
33.87073303867377	1.776428	1.3328271
33.889054752483304	1.7506214	1.3231105
33.907377358845245	1.7536778	1.324265
33.92570085835853	1.859958	1.3638028
33.94402525162239	1.9775634	1.4062587
33.96235053923627	1.96424	1.4015135
33.980676721799824	1.9232396	1.3868091
33.999003799912984	1.8789524	1.3707489
34.01733177417592	1.9357173	1.3913006
34.03566064518901	1.9727099	1.404532
34.0539904135529	1.9546821	1.3980994
34.07232107986846	1.9205048	1.3858228
34.090652644736785	1.8429891	1.3575673
34.108985108759235	1.8232595	1.3502812
34.12731847253742	1.9308896	1.3895645
34.14565273667313	2.0565467	1.4340665
34.16398790176847	2.0253403	1.4231445
34.18232396842574	2.0360286	1.4268948
34.20066093724749	1.9824651	1.4080003
34.21899880883651	1.9803162	1.407237
34.23733758379583	1.9955148	1.4126269
34.25567726272874	1.9760005	1.4057028
34.27401784623872	1.8707409	1.3677503
34.29235933492957	1.8614041	1.3643328
34.31070172940526	1.9379764	1.3921121
34.32904503027003	1.9195586	1.3854814
34.347389238128386	1.9157866	1.3841194
34.36573435358502	2.0410047	1.4286374
34.38408037724492	2.1083455	1.4520143
34.402427309713296	2.0929453	1.4467015
34.42077515159559	1.9174263	1.3847116
34.43912390349752	1.8011476	1.3420684
34.45747356602499	1.913945	1.383454
34.47582413978423	1.8910217	1.3751442
34.49417562538163	1.8299958	1.3527733
34.51252802342388	1.8474808	1.3592206
34.53088133451789	1.8567258	1.3626173
34.54923555927084	1.7543805	1.3245302
34.567590698290104	1.7207389	1.3117694
34.58594675218336	1.9294987	1.389064
34.6043037215585	2.135815	1.4614427
34.62266160702365	2.0682628	1.4381456
34.641020409187234	1.9176958	1.3848089
34.65938012865785	1.9966438	1.4130265
34.677740766044394	2.0688987	1.4383667
34.69610232195598	1.9721589	1.4043357
34.714464797002016	1.8157752	1.347507
34.73282819179208	1.8721782	1.3682756
34.751192506936064	1.9181961	1.3849896
34.76955774304408	1.9718448	1.4042239
34.7879239007265	2.147572	1.4654597
34.80629098059391	2.2060921	1.485292
34.824658983257194	2.2393093	1.4964322
34.843027909327446	2.1200182	1.4560282
34.86139775941603	2.0846179	1.4438206
34.879768534134534	2.0400627	1.4283077
34.89814023409483	1.8872544	1.3737738
34.91651285990901	1.8923181	1.3756156
34.93488641218944	1.9814756	1.4076489
34.95326089154871	1.8979759	1.3776705
34.97163629859967	1.7973701	1.3406603
34.99001263395542	1.771556	1.3309982
35.00838989822934	1.7800293	1.3341774
35.02676809203499	1.6681777	1.2915796
35.04514721598624	1.5341299	1.2386
35.063527270697215	1.6548998	1.286429
35.081908256782256	1.796922	1.3404932
35.10029017485597	1.8459815	1.358669
35.11867302553321	1.9135358	1.3833061
35.137056809429104	2.0176458	1.4204386
35.155441527159006	2.0655417	1.4371992
35.173827179338524	1.7842464	1.3357569
35.19221376658354	1.7770319	1.3330536
35.21060128951017	1.8593221	1.3635696
35.2289897487348	1.8864528	1.373482
35.24737914487405	2.1129508	1.4535992
35.26576947854479	2.2548778	1.5016251
35.28416075036418	2.2530236	1.5010076
35.30255296094958	2.112235	1.453353
35.32094611091867	1.8382715	1.3558288
35.33934020088932	1.6811798	1.2966032
35.35773523147969	1.7004569	1.3040156
35.3761312033082	1.8951181	1.3766329
35.394528116993506	2.3892665	1.5457252
35.41292597315452	2.2167833	1.4888866
35.431324772410434	1.9435091	1.3940979
35.449724515380666	1.9429069	1.3938819
35.46812520268491	2.031689	1.4253733
35.486526834943106	2.0762374	1.4409155
35.504929412775454	2.139807	1.4628079
35.52333293680242	1.9552351	1.3982972
35.54173740764471	1.6114403	1.2694252
35.560142825923286	1.2499112	1.1179943
35.5785491922594	1.5058035	1.2271118
35.59695650727454	2.3557956	1.5348601
35.61536477159042	3.2147374	1.7929689
