0.008763373481513119	0.56609195	0.7523908
0.026290120649546365	0.30131683	0.5489233
0.043816868432600686	0.21220763	0.46065998
0.06134361724069026	0.09524083	0.30861112
0.07887036748382949	0.16209276	0.40260744
0.0963971195720331	0.24646059	0.49644798
0.11392387391531617	0.24235843	0.49229914
0.1314506309236943	0.15677562	0.395949
0.1489773910071836	0.084918	0.29140693
0.16650415457580078	0.13948493	0.3734768
0.18403092203956356	0.12741992	0.35695925
0.20155769380849	0.13346691	0.36533123
0.2190844702925996	0.06919583	0.263051
0.2366112519019124	0.11227042	0.33506778
0.2541380390464497	0.13748308	0.3707871
0.27166483213623416	0.12681262	0.3561076
0.28919163158128947	0.10818884	0.32892072
0.3067184377916406	0.16768983	0.4094995
0.324245251177314	0.21629085	0.46507078
0.34177207214833777	0.22020921	0.46926454
0.3592989011147415	0.15798633	0.39747494
0.37682573848655654	0.10193964	0.31927988
0.39435258467381573	0.10948341	0.3308828
0.41187944008655414	0.12450405	0.35285133
0.42940630513480854	0.16693407	0.40857565
0.446933180228618	0.18822242	0.4338461
0.4644600657780234	0.18335436	0.42819896
0.48198696219306775	0.17158681	0.41423038
0.49951386988379676	0.12798777	0.35775378
0.5170407892602581	0.11670195	0.3416167
0.5345677207325025	0.12289595	0.3505652
0.5520946647105822	0.1443474	0.3799308
0.5696216216045534	0.15747023	0.3968252
0.5871485918244737	0.16041501	0.40051842
0.6046755757804043	0.13786902	0.37130716
0.6222025738824094	0.13494745	0.36735195
0.6397295865405557	0.16649283	0.40803534
0.6572566141649129	0.17832772	0.4222887
0.6747836571655547	0.18911624	0.43487498
0.6923107159525568	0.16618454	0.40765738
0.7098377909359992	0.14919128	0.38625285
0.7273648825259653	0.19676247	0.44357917
0.7448919911325411	0.19605426	0.44278017
0.762419117165817	0.20689847	0.45486093
0.7799462610358868	0.1830668	0.42786306
0.7974734231528482	0.2001771	0.44741157
0.8150006039268024	0.19843967	0.44546568
0.8325278037678551	0.21127738	0.4596492
0.8500550230861152	0.22703175	0.4764785
0.8675822622916969	0.24349712	0.49345428
0.8851095217947171	0.23034738	0.47994518
0.9026368020052984	0.26440275	0.5142011
0.9201641033335665	0.24936947	0.49936908
0.9376914261896523	0.25095052	0.5009496
0.9552187709836915	0.21991348	0.46894935
0.9727461381258234	0.2201295	0.4691796
0.990273528026193	0.21937929	0.46837944
1.0078009410949496	0.22780456	0.47728875
1.0253283777422473	0.24782495	0.4978202
1.0428558383782454	0.24632831	0.49631473
1.0603833234131086	0.2408023	0.4907161
1.0779108332570058	0.2507289	0.50072837
1.0954383683201119	0.26317567	0.5130065
1.112965929012607	0.30928585	0.55613476
1.1304935157446763	0.4199071	0.6480024
1.1480211289265108	0.46608377	0.68270326
1.1655487689683062	1.2592294	1.1221539
1.1830764362802655	1.5605416	1.2492164
1.200604131272596	1.9903136	1.4107847
1.2181318543555117	2.3354497	1.5282178
1.235659605939232	2.4095488	1.5522721
1.253187386433982	3.9773638	1.9943329
1.270715196249994	6.289959	2.5079792
1.2882430357975057	11.622087	3.4091182
1.3057709054867608	16.448368	4.055659
1.3232988057280106	22.315584	4.7239375
1.3408267369315112	27.299044	5.2248487
1.358354699507526	31.083906	5.5752945
1.3758826938663256	34.952065	5.912027
1.3934107204181858	37.009224	6.083521
1.410938779573391	37.407307	6.1161513
1.4284668717422309	37.713024	6.1410933
1.4459949973350033	37.312904	6.108429
1.4635231567620117	36.98999	6.0819397
1.4810513504335687	36.03688	6.0030727
1.4985795787599925	35.191227	5.9322195
1.5161078421516088	34.59782	5.8819914
1.5336361410187505	34.321793	5.8584805
1.5511644757717598	34.713345	5.8918033
1.5686928468209842	35.856785	5.9880533
1.58622125457678	36.777786	6.0644693
1.6037496994495108	37.89346	6.1557665
1.621278181849548	37.40936	6.116319
1.6388067021872719	37.71786	6.141487
1.6563352608730693	36.943237	6.078095
1.673863858317336	35.926636	5.993883
1.6913924949304753	35.394695	5.949344
1.7089211711228998	34.270588	5.854109
1.7264498873050296	33.610374	5.7974453
1.7439786438872935	32.44973	5.6964664
1.7615074412801288	31.42532	5.6058292
1.779036279893981	30.780739	5.548039
1.796565160139305	30.06279	5.4829545
1.814094082426564	29.29649	5.4126234
1.8316230471662298	28.394999	5.328696
1.849152054768784	27.608267	5.254357
1.8666811056447168	27.274384	5.2224884
1.8842102002045273	26.578922	5.155475
1.901739338858724	26.094353	5.108263
1.9192685220178245	25.310705	5.0309744
1.9367977500923557	24.581385	4.9579616
1.9543270234928547	23.996952	4.8986683
1.971856342629867	23.470186	4.844604
1.9893857079139496	23.248846	4.821706
2.006915119755667	22.959684	4.7916265
2.0244445785655945	22.302408	4.722543
2.0419740847543175	21.536278	4.6407194
2.0595036387324317	20.862003	4.5674944
2.0770332409105414	20.466269	4.523966
2.094562891699263	20.050423	4.47777
2.1120925915092217	19.6856	4.436846
2.129622340751053	19.50756	4.4167366
2.1471521398354043	187.84686	13.705724
2.1646819891729323	444.36264	21.07991
2.182211889174303	440.51666	20.98849
2.1997418402501974	452.78635	21.278776
2.2172718428113023	432.55862	20.798044
2.234801897268317	320.55984	17.904184
2.2523320040319548	16.977488	4.1203747
2.269862163512935	16.812107	4.100257
2.287392376121992	16.462843	4.057443
2.304922642269869	16.088987	4.011108
2.322452962367322	15.976269	3.9970324
2.3399833368251164	15.644257	3.9552822
2.357513766054032	15.289536	3.9101837
2.3750442504648586	15.034071	3.8773794
2.3925747904683963	14.668718	3.8299763
2.410105386475459	14.619162	3.823501
2.4276360388968707	14.241749	3.7738242
2.445166748143469	13.9897995	3.740294
2.4626975146261025	13.65077	3.6946948
2.4802283387556323	13.33005	3.651034
2.4977592209429305	13.192288	3.632119
2.5152901615988825	13.002713	3.6059275
2.5328211611343865	12.86453	3.5867157
2.5503522199603523	12.5624895	3.5443602
2.5678833384877024	12.411642	3.523016
2.5854145171273712	12.112592	3.480315
2.6029457562903064	11.793591	3.4341798
2.620477056387469	11.5840845	3.40354
2.6380084178298326	11.526667	3.3950944
2.655539841028383	11.40039	3.3764462
2.673071326394119	11.278352	3.3583257
2.6906028743380523	10.988953	3.3149588
2.708134485271211	10.805525	3.287176
2.7256661596046325	10.608494	3.2570684
2.743197897749369	10.505422	3.241207
2.760729700116486	10.491849	3.2391124
2.778261567117063	10.310562	3.2110064
2.795793499162193	10.136763	3.1838284
2.8133254966629817	9.998349	3.1620166
2.830857560030551	9.842662	3.1373017
2.8483896896760337	9.71105	3.1162558
2.865921886010578	9.485635	3.0798757
2.883454149445347	9.366089	3.0604067
2.9009864803915177	9.23137	3.038317
2.91851887926028	9.201188	3.033346
2.9360513464628384	9.066033	3.0109854
2.953583882410413	8.86063	2.976681
2.9711164875142373	8.741304	2.9565697
2.9886491621855606	8.6876955	2.9474897
3.0061819068356455	8.633297	2.9382472
3.023714721875769	8.550714	2.9241602
3.041247607717225	8.357761	2.8909793
3.0587805647713213	8.320036	2.8844473
3.0763135934493806	8.076032	2.841836
3.0938466941627407	7.9054193	2.8116577
3.1113798673227544	7.794603	2.7918816
3.1289131133407904	7.6732564	2.7700644
3.1464464326282315	7.7013907	2.775138
3.1639798255964786	7.784798	2.7901251
3.1815132926569443	7.765426	2.7866514
3.1990468342210603	7.638476	2.7637792
3.216580450700272	7.437047	2.727095
3.2341141425060416	7.279473	2.6980498
3.251647910049847	7.248529	2.6923091
3.2691817537431813	7.237863	2.6903276
3.286715673997555	7.2514753	2.6928563
3.3042496712244938	7.082362	2.6612709
3.32178374583554	6.920968	2.6307733
3.339317898242251	6.80494	2.608628
3.3568521288562034	6.6696587	2.5825682
3.3743864380889876	6.5542464	2.5601263
3.3919208263522127	6.543765	2.5580783
3.4094552940575023	6.481046	2.54579
3.4269898416164972	6.575312	2.564237
3.444524469440858	6.61305	2.5715852
3.4620591779422587	6.560763	2.5613985
3.479593967532391	6.473649	2.5443366
3.4971288386229658	6.368596	2.5236077
3.5146637916257086	6.288586	2.5077055
3.5321988269523628	6.2731333	2.5046225
3.5497339450146903	6.320903	2.5141406
3.5672691462244708	6.3244324	2.5148425
3.5848044309934988	6.2953954	2.5090628
3.60233979973359	6.2443943	2.4988787
3.619875252856575	6.2083607	2.4916582
3.6374107907743034	6.118549	2.47357
3.6549464138986427	6.132017	2.476291
3.6724821226414788	6.2283907	2.4956744
3.690017917414714	6.274592	2.5049136
3.7075537986302702	6.2385764	2.4977143
3.7250897667000857	6.268656	2.5037284
3.7426258220361235	6.4151273	2.5328102
3.7601619650503553	6.7971992	2.6071439
3.777698196154779	7.3948765	2.7193522
3.7952345157614067	8.203603	2.8641932
3.8127709242822716	8.915265	2.9858441
3.830307422129425	10.953358	3.3095858
3.847844009714936	29.967035	5.4742155
3.8653806874508954	97.60021	9.879282
3.882917455749409	96.87673	9.842598
3.900454315022606	96.62571	9.829838
3.917991265682631	40.999245	6.403065
3.9355283081416506	10.546236	3.2474968
3.9530654428118495	8.449498	2.906802
3.970602670105433	7.3263655	2.706726
3.9881399904346244	6.460543	2.54176
4.005677404211669	6.4522347	2.540125
4.023214911848827	6.4238925	2.53454
4.0407525137583855	6.419165	2.5336072
4.058290210352644	6.3355765	2.5170572
4.075828002043927	6.167249	2.4833946
4.0933658892445814	6.110051	2.4718518
4.110903872366966	6.0641637	2.4625523
4.128441951823468	6.0285964	2.4553201
4.145980128026488	5.9732385	2.444021
4.163518401388452	5.995114	2.448492
4.181056772321807	6.033056	2.456228
4.1985952412390155	6.003028	2.4501078
4.216133808552567	6.0012026	2.4497352
4.233672474674966	6.0452733	2.4587138
4.251211240018741	6.3347692	2.5168967
4.268750104996445	6.5947075	2.5680163
4.286289070020643	7.525785	2.7433164
4.303828135503928	9.093656	3.015569
4.3213673018589125	29.220263	5.405577
4.3389065694982305	90.30088	9.502678
4.356445938834537	165.6567	12.870769
4.3739854102805085	171.72156	13.104258
4.391524984248844	172.57037	13.136604
4.409064661152262	136.4869	11.68276
4.426604441403504	96.46476	9.821648
4.444144325415337	75.16875	8.6699915
4.461684313600543	21.180492	4.6022267
4.47922440637193	21.631405	4.6509576
4.496764604142329	19.91114	4.46219
4.5143049073245916	18.155245	4.260897
4.531845316331589	16.19216	4.023948
4.5493858315762195	13.530725	3.6784134
4.566926453471405	11.28866	3.3598602
4.584467182430081	9.3648	3.0601962
4.602008018865218	8.19235	2.8622282
4.619548963189798	7.4744697	2.7339475
4.637090015816834	6.971338	2.6403291
4.654631177159353	6.7487903	2.5978434
4.672172447630417	6.5240455	2.5542212
4.689713827643102	6.404418	2.5306952
4.7072553176105085	6.199111	2.4898014
4.724796917945764	5.961122	2.441541
4.742338629062015	5.7904916	2.406344
4.759880451372434	5.6939316	2.3861961
4.777422385290215	5.6671143	2.3805702
4.794964431228581	5.691588	2.385705
4.812506589600768	5.648518	2.376661
4.830048860820047	5.5778356	2.3617442
4.847591245299709	5.597119	2.365823
4.8651337434530655	5.521301	2.3497448
4.882676355693457	5.5344367	2.3525383
4.900219082434242	5.4976306	2.3447027
4.917761924088813	5.484217	2.3418405
4.935304881070575	5.513325	2.348047
4.952847953792969	5.479336	2.3407981
4.970391142669449	5.4416733	2.3327394
4.9879344481135055	5.357385	2.3146026
5.005477870538642	5.3180995	2.3061006
5.023021410358394	5.245687	2.2903464
5.040565067986324	5.304907	2.3032384
5.05810884383601	5.351684	2.3133707
5.075652738321066	5.362613	2.3157318
5.09319675185512	5.347444	2.3124542
5.110740884851836	5.3128204	2.3049557
5.128285137724894	5.32681	2.3079882
5.145829510888007	5.3104534	2.3044422
5.163374004754908	5.3170433	2.3058715
5.1809186197393595	5.3001137	2.3021977
5.198463356255145	5.335328	2.3098328
5.216008214716077	5.2858167	2.2990904
5.233553195535998	5.1683083	2.2733912
5.251098299128764	5.0337014	2.243591
5.268643525908272	5.0016003	2.2364259
5.286188876288432	5.0319066	2.2431912
5.3037343506831895	5.106037	2.2596543
5.32127994950651	5.1424336	2.2676935
5.3388256731723915	5.126394	2.2641542
5.356371522094851	5.2075906	2.2820146
5.373917496687938	5.1509767	2.2695763
5.391463597365729	5.176483	2.2751887
5.40900982454232	5.1606016	2.2716959
5.426556178631843	5.1579747	2.2711174
5.444102660048449	5.146015	2.268483
5.4616492692063225	5.0684566	2.2513232
5.479196006519669	4.9781556	2.231178
5.496742872402727	4.953602	2.225669
5.514289867269756	4.9850583	2.2327244
5.531836991535049	5.1223683	2.263265
5.549384245612924	5.172657	2.2743475
5.566931629917724	5.18331	2.2766883
5.584479144863822	5.1490397	2.2691495
5.6020267908656205	5.091273	2.2563848
5.619574568337545	5.0815105	2.2542207
5.637122477694054	5.0533853	2.2479737
5.654670519349629	5.102524	2.2588766
5.672218693718784	5.088858	2.2558498
5.689767001216059	5.089199	2.2559254
5.707315442256021	5.0417495	2.245384
5.724864017253266	5.0472865	2.2466166
5.7424127266224225	5.0904956	2.2562127
5.75996157077814	5.0383406	2.2446249
5.777510550135105	5.0821824	2.2543697
5.795059665108022	5.1548142	2.2704215
5.812608916111639	5.194617	2.2791703
5.830158303560715	5.263395	2.294209
5.847707827870055	5.2612896	2.29375
5.86525748945448	5.356876	2.3144925
5.8828072887288485	5.4612985	2.3369422
5.900357226108044	5.4372334	2.3317876
5.917907302006979	5.4552593	2.3356497
5.9354575168406	6.0309362	2.4557965
5.9530078710238765	6.5903864	2.5671747
5.970558364971812	7.144522	2.6729238
5.988108999099438	7.4048076	2.7211776
6.005659773821818	7.944128	2.818533
6.023210689554039	7.779549	2.7891843
6.040761746711227	8.196525	2.8629572
6.058312945708531	7.6235285	2.7610738
6.075864286961132	7.1761703	2.6788375
6.093415770884244	6.5224953	2.5539176
6.1109673978931065	5.963268	2.4419804
6.128519168402993	5.507783	2.3468666
6.146071082829204	5.3799496	2.3194718
6.163623141587075	5.218783	2.2844656
6.181175345091969	5.165242	2.272717
6.198727693759281	5.050972	2.2474368
6.216280188004435	5.077332	2.2532935
6.233832828242885	5.0619497	2.2498777
6.251385614890126	5.087309	2.2555063
6.268938548361669	5.091784	2.256498
6.286491629073067	5.0583143	2.2490697
6.304044857439898	5.0769677	2.2532127
6.321598233877777	4.9809937	2.231814
6.339151758802344	4.9004827	2.2137034
6.356705432629277	4.8924723	2.2118933
6.37425925577428	4.9119396	2.2162895
6.391813228653095	4.9392524	2.2224429
6.409367351681486	4.9501953	2.2249033
6.426921625275259	4.94962	2.2247741
6.44447604985025	4.950762	2.2250307
6.46203062582232	4.958938	2.2268674
6.47958535360737	4.9345145	2.2213767
6.497140233621328	4.9790125	2.2313702
6.514695266280161	4.9448624	2.2237046
6.532250451999859	4.931037	2.220594
6.549805791196454	4.9616804	2.227483
6.567361284286002	4.9383144	2.2222319
6.584916931684597	5.001301	2.236359
6.602472733808367	4.9495144	2.2247505
6.6200286910734665	5.001084	2.2363102
6.637584803896092	4.9466434	2.2241051
6.655141072692462	4.9092436	2.2156813
6.672697497878842	4.8351555	2.1988988
6.690254079871514	4.8255825	2.1967208
6.707810819086808	4.8825517	2.2096496
6.725367715941078	4.924627	2.21915
6.742924770850719	4.9433355	2.2233613
6.760481984232151	5.017167	2.2399035
6.778039356501836	5.0374384	2.2444239
6.795596888076266	5.0686154	2.2513585
6.813154579371963	5.0497775	2.247171
6.830712430805492	4.9747286	2.2304099
6.84827044279344	4.9334097	2.221128
6.865828615752445	4.881404	2.20939
6.883386950099159	4.873041	2.2074966
6.900945446250287	4.8770075	2.2083948
6.918504104622553	4.9524446	2.2254088
6.936062925632727	5.00627	2.2374694
6.953621909697607	5.0052013	2.2372308
6.971181057234028	5.0121975	2.2387938
6.988740368658859	5.0376487	2.2444706
7.006299844389007	5.1124425	2.2610712
7.023859484841407	5.1885915	2.277848
7.041419290433036	5.2755284	2.2968519
7.058979261580902	5.376638	2.3187578
7.0765393987020495	5.5686126	2.3597908
7.094099702213559	5.903202	2.4296505
7.111660172532549	6.2731895	2.5046337
7.129220810076164	6.6812654	2.5848143
7.146781615261595	7.3220716	2.7059326
7.16434258850606	7.5064654	2.739793
7.181903730226821	7.9729342	2.8236384
7.1994650408411704	8.008528	2.8299341
7.217026520766437	8.188306	2.8615215
7.234588170419983	8.439737	2.9051225
7.252149990219215	8.360324	2.8914225
7.269711980581568	8.167267	2.857843
7.2872741419245175	7.941665	2.818096
7.304836474665574	7.5920305	2.755364
7.322398979222286	7.3860183	2.717723
7.339961656012233	7.2116046	2.6854432
7.357524505453039	6.858419	2.6188583
7.375087527962357	6.5412545	2.5575876
7.392650723957886	6.2478156	2.499563
7.410214093857353	5.8504167	2.4187634
7.427777638078528	5.6679583	2.3807473
7.445341357039213	5.4995713	2.3451164
7.4629052511572525	5.400885	2.3239803
7.480469320850524	5.3138742	2.3051841
7.498033566536948	5.225072	2.2858417
7.5155979886344735	5.1583805	2.2712069
7.5331625875610975	5.0764217	2.2530916
7.550727363734844	5.085807	2.2551734
7.568292317573788	5.068061	2.2512355
7.585857449496025	5.065388	2.2506418
7.603422759919705	5.0648217	2.250516
7.620988249263007	5.1152325	2.261688
7.638553917944147	5.156321	2.2707534
7.656119766381391	5.1465254	2.2685955
7.673685794993023	5.220839	2.2849154
7.691252004197388	5.202659	2.2809339
7.70881839441285	5.208563	2.2822275
7.726384966057826	5.1889367	2.2779238
7.743951719550762	5.1863985	2.2773666
7.761518655310149	5.2111244	2.2827888
7.779085773754511	5.2627616	2.294071
7.796653075302419	5.2794123	2.297697
7.814220560372475	5.314967	2.3054214
7.831788229383323	5.2999697	2.3021662
7.8493560827536495	5.3262386	2.3078644
7.866924120902174	5.3479004	2.3125527
7.884492344247663	5.3063517	2.303552
7.9020607532089135	5.304594	2.3031704
7.919629348204771	5.2395372	2.2890036
7.937198129654115	5.247173	2.2906709
7.954767097975865	5.239738	2.2890475
7.972336253588986	5.2360735	2.2882469
7.989905596912472	5.2449784	2.290192
8.007475128365371	5.2775216	2.2972858
8.025044848366756	5.282391	2.2983453
8.042614757335754	5.4848647	2.3419788
8.060184855691523	5.569959	2.3600762
8.07775514385327	5.7439632	2.3966568
8.095325622240228	5.7774634	2.4036355
8.112896291271687	5.811641	2.4107347
8.130467151366968	5.8310785	2.4147627
8.148038202945436	5.930241	2.4352086
8.165609446426497	5.918732	2.4328444
8.183180882229594	5.9583716	2.4409776
8.200752510774217	5.8768907	2.4242299
8.218324332479893	5.8667045	2.4221282
8.235896347766193	5.921792	2.4334733
8.253468557052724	5.9819775	2.4458082
8.27104096075914	5.979705	2.4453435
8.288613559305137	6.001626	2.4498217
8.306186353110448	6.0240345	2.4543908
8.32375934259485	6.128448	2.4755702
8.341332528178162	6.134615	2.4768155
8.358905910280246	6.107633	2.4713626
8.376479489321003	6.0366497	2.4569595
8.394053265720377	6.0767245	2.4651012
8.411627239898356	6.144185	2.4787467
8.42920141227497	6.1501102	2.4799416
8.44677578327029	6.1771274	2.4853828
8.464350353304427	6.0956826	2.4689436
8.48192512279754	6.0870795	2.4672008
8.499500092169827	6.037154	2.457062
8.51707526184153	5.962746	2.4418736
8.534650632232934	6.015964	2.4527462
8.552226203764365	6.0124383	2.4520273
8.569801976856192	6.0560446	2.4609032
8.587377951928834	6.097211	2.469253
8.60495412940274	6.1371293	2.477323
8.622530509698416	6.205676	2.4911194
8.6401070932364	6.3169928	2.513363
8.657683880437283	6.4573054	2.541123
8.675260871721695	6.6727757	2.5831716
8.692838067510303	6.846714	2.6166227
8.710415468223834	7.003357	2.6463857
8.727993074283043	7.0786567	2.6605744
8.745570886108737	7.013116	2.648229
8.763148904121765	7.074853	2.6598597
8.78072712874302	7.174527	2.6785307
8.798305560393441	7.424981	2.724882
8.815884199494006	7.5449433	2.746806
8.833463046465745	7.654407	2.76666
8.851042101729728	7.85879	2.8033533
8.86862136570707	8.188569	2.8615675
8.886200838818924	8.402973	2.8987882
8.903780521486505	8.425718	2.9027088
8.921360414131055	8.539646	2.9222672
8.938940517173874	8.619369	2.9358761
8.956520831036297	8.617113	2.935492
8.97410135613971	8.855199	2.9757686
8.99168209290554	9.000885	3.0001476
9.009263041755265	9.289237	3.0478249
9.026844203110405	9.517015	3.084966
9.044425577392525	9.731121	3.1194744
9.062007165023239	9.855154	3.139292
9.079588966424197	10.134626	3.183493
9.097170982017108	10.192878	3.1926286
9.11475321222372	10.953038	3.3095374
9.132335657465825	11.706235	3.4214375
9.149918318165264	11.835998	3.4403484
9.167501194743924	12.51088	3.5370724
9.18508428762374	12.247833	3.4996905
9.202667597226693	12.221149	3.495876
9.220251123974803	11.827879	3.4391685
9.237834868290143	11.514148	3.3932502
9.255418830594836	11.246653	3.353603
9.273003011311046	10.750822	3.2788446
9.290587410860985	10.625539	3.2596838
9.308172029666911	10.121815	3.18148
9.32575686815113	9.896726	3.1459062
9.343341926735997	8.641612	2.939662
9.360927205843916	8.388538	2.8962975
9.378512705897327	8.23453	2.8695872
9.396098427318728	8.08846	2.8440218
9.413684370530664	7.969596	2.8230472
9.431270535955722	7.853462	2.802403
9.448856924016539	7.7609425	2.7858467
9.466443535135806	7.7101817	2.7767215
9.484030369736251	7.684159	2.7720315
9.501617428240658	7.6218944	2.760778
9.519204711071852	7.6369433	2.7635021
9.536792218652714	7.6848717	2.77216
9.55437995140617	7.7038274	2.7755768
9.571967909755191	7.638749	2.7638288
9.589556094122802	7.646751	2.765276
9.60714450493207	7.7690744	2.7873058
9.624733142606116	7.853415	2.8023946
9.642322007568108	7.8975024	2.8102496
9.659911100241267	7.838845	2.7997937
9.677500421048851	7.8906565	2.8090312
9.695089970414175	7.923949	2.814951
9.712679748760609	7.9299226	2.816012
9.730269756511557	8.007406	2.829736
9.747859994090492	8.014187	2.8309338
9.765450461920915	8.061736	2.8393197
9.78304116042639	8.030567	2.8338256
9.800632090030527	8.100553	2.846147
9.81822325115699	8.086572	2.84369
9.835814644229481	8.1092415	2.847673
9.853406269671762	8.146525	2.8542118
9.870998127907646	8.236985	2.870015
9.888590219360985	8.234389	2.8695626
9.906182544455698	8.2022	2.8639483
9.923775103615734	8.181296	2.8602965
9.941367897265108	8.216214	2.866394
9.958960925827878	8.211083	2.8654988
9.97655418972816	8.191101	2.86201
9.994147689390106	8.169833	2.858292
10.011741425237934	8.139389	2.8529615
10.029335397695904	8.096563	2.845446
10.04692960718833	8.084392	2.8433065
10.06452405413958	8.107333	2.847338
10.082118738974064	8.166138	2.8576455
10.099713662116246	8.164072	2.857284
10.117308823990651	8.151521	2.8550868
10.134904225021844	8.083061	2.8430724
10.152499865634445	8.080987	2.8427076
10.170095746253125	8.133485	2.8519266
10.18769186730261	8.184116	2.8607895
10.205288229207675	8.196954	2.8630323
10.222884832393145	8.07231	2.8411813
10.2404816772839	8.022024	2.8323178
10.258078764304868	7.9436374	2.818446
10.275676093881035	7.93052	2.816118
10.293273666437438	7.9304338	2.8161025
10.310871482399158	8.034487	2.834517
10.32846954219134	8.054389	2.8380256
10.346067846239173	7.987523	2.8262208
10.363666394967908	7.98471	2.825723
10.38126518880283	7.9203057	2.8143039
10.398864228169298	8.023184	2.8325226
10.416463513492713	8.080394	2.8426034
10.434063045198531	8.063465	2.8396242
10.451662823712262	8.023802	2.8326316
10.469262849459467	8.047559	2.836822
10.486863122865758	7.9532127	2.8201442
10.504463644356806	7.9495225	2.8194897
10.522064414358338	7.8882523	2.8086033
10.539665433296118	7.8609333	2.8037355
10.557266701595987	7.8325987	2.798678
10.574868219683818	7.7530184	2.7844243
10.592469987985552	7.63727	2.763561
10.610072006927185	7.5545793	2.7485595
10.627674276934751	7.469585	2.7330542
10.64527679843435	7.315744	2.7047632
10.662879571852143	7.2191477	2.6868472
10.680482597614331	7.078881	2.6606166
10.698085876147173	6.9635253	2.6388493
10.715689407876988	6.8984866	2.626497
10.733293193230146	6.8004255	2.6077626
10.750897232633072	6.727956	2.5938303
10.76850152651225	6.6572957	2.5801735
10.786106075294207	6.560782	2.5614023
10.803710879405534	6.436182	2.5369632
10.821315939272877	6.4083047	2.531463
10.83892125532294	6.3343287	2.5168092
10.856526827982472	6.2892733	2.5078423
10.874132657678285	6.206922	2.4913695
10.891738744837243	6.1152515	2.4729035
10.909345089886271	6.0471187	2.459089
10.926951693252343	5.9803724	2.44548
10.944558555362494	5.94854	2.438963
10.96216567664381	5.869604	2.4227266
10.979773057523436	5.7993183	2.4081774
10.997380698428573	5.7306557	2.3938787
11.014988599786477	5.7101536	2.3895926
11.032596762024461	5.675839	2.382402
11.050205185569892	5.5528297	2.3564444
11.067813870850198	5.4660597	2.3379605
11.085422818292859	5.4223995	2.3286047
11.10303202832541	5.4065733	2.325204
11.120641501375454	5.3920975	2.322089
11.138251237870636	5.294017	2.300873
11.155861238238671	5.2505603	2.2914102
11.173471502907317	5.2039657	2.2812202
11.191082032304402	5.1442294	2.2680893
11.208692826857805	5.093692	2.2569208
11.226303886995465	4.9561787	2.2262475
11.243915213145371	4.8586645	2.204238
11.261526805735578	4.7736454	2.1848674
11.279138665194196	4.740934	2.1773686
11.296750791949393	4.681422	2.1636596
11.314363186429393	4.682892	2.163999
11.331975849062479	4.6302595	2.1518037
11.34958878027699	4.58844	2.1420643
11.36720198050133	4.538298	2.1303282
11.384815450163948	4.4789968	2.116364
11.402429189693366	4.467532	2.1136537
11.420043199518153	4.4323845	2.1053228
11.437657480066942	63.414703	7.963335
11.455272031768422	85.14034	9.227153
11.472886855051353	107.57671	10.37192
11.490501950344528	99.14435	9.957126
11.508117318076819	84.47475	9.191014
11.52573295867715	45.824757	6.7693987
11.543348872574514	4.1438613	2.0356476
11.560965060197946	4.131263	2.0325508
11.57858152197655	4.0605507	2.015081
11.59619825833949	4.015494	2.0038698
11.613815269715985	3.987052	1.9967604
11.631432556535323	38.516373	6.2061563
11.649050119226837	83.05689	9.113555
11.666667958219929	93.43446	9.66615
11.68428607394406	107.67009	10.37642
11.701904466828756	82.43327	9.079277
11.719523137303586	65.29546	8.080561
11.737142085798196	4.5640554	2.136365
11.754761312742286	3.6840773	1.919395
11.772380818565619	3.588002	1.8942022
11.790000603698015	3.5257106	1.8776876
11.80762066856935	3.5315087	1.8792309
11.825241013609572	3.5284045	1.8784047
11.842861639248683	3.4929645	1.8689474
11.860482545916748	3.4164476	1.8483635
11.878103734043883	3.4233751	1.8502365
11.895725204060282	3.391079	1.8414882
11.91334695639619	3.404603	1.8451567
11.930968991481919	3.3958678	1.8427881
11.948591309747824	3.3909397	1.8414505
11.966213911624347	3.3714013	1.8361377
11.98383679754198	3.315564	1.820869
12.001459967931268	3.244364	1.8012118
12.019083423222835	3.2084029	1.7912015
12.036707163847352	3.1725137	1.7811551
12.05433119023556	3.1784718	1.7828269
12.071955502818259	3.201367	1.7892364
12.089580102026313	3.1666586	1.7795107
12.107204988290643	3.1482544	1.774332
12.12483016204224	3.09521	1.7593209
12.142455623712152	3.044381	1.7448155
12.16008137373149	3.0188584	1.7374862
12.177707412531431	2.97666	1.7253
12.19533374054321	2.9975066	1.7313309
12.212960358198126	2.9918506	1.7296966
12.230587265927545	3.0056095	1.7336694
12.248214464162889	2.9786284	1.7258704
12.265841953335649	2.964973	1.7219096
12.283469733877375	2.9568887	1.7195606
12.301097806219685	2.955295	1.7190971
12.31872617079425	2.9716346	1.723843
12.336354828032825	2.9534152	1.7185503
12.353983778367205	2.9630086	1.7213392
12.371613022229262	2.9412477	1.7150066
12.389242560050928	2.9510322	1.7178569
12.406872392264201	2.8745701	1.6954557
12.424502519301143	2.85498	1.6896687
12.442132941593874	2.8078873	1.6756752
12.459763659574586	2.8351614	1.6837938
12.477394673675532	2.8384342	1.6847653
12.49502598432903	2.842979	1.6861136
12.51265759196746	2.8166533	1.6782888
12.530289497023267	2.8001227	1.6733568
12.547921699928967	2.745502	1.6569556
12.565554201117134	2.7500865	1.6583385
12.583187001020404	2.7393458	1.6550969
12.600820100071486	2.7552276	1.6598878
12.618453498703152	2.744319	1.6565986
12.636087197348235	2.731242	1.6526469
12.65372119643964	2.7179968	1.6486348
12.671355496410326	2.7356336	1.6539751
12.68899009769333	2.7376356	1.6545802
12.706625000721749	2.7583148	1.6608175
12.724260205928752	2.7944343	1.6716561
12.741895713747551	2.837229	1.6844076
12.759531524611454	2.9048417	1.7043597
12.777167638953818	2.9070082	1.704995
12.794804057208072	2.9242675	1.710049
12.812440779807702	2.9549117	1.7189857
12.830077807186271	3.1054194	1.76222
12.847715139777405	3.1359785	1.7708694
12.865352778014795	3.3408382	1.827796
12.882990722332197	3.460373	1.8602078
12.90062897316344	3.5428684	1.8822509
12.918267530942412	3.579727	1.8920166
12.935906396103071	3.5114124	1.8738763
12.953545569079449	3.6945264	1.9221151
12.971185050305628	3.5719686	1.8899652
12.988824840215775	3.5543642	1.8853022
13.006464939244115	3.5181565	1.875675
13.024105347824943	3.3535352	1.831266
13.041746066392617	3.4384356	1.8543019
13.05938709538157	3.2586741	1.8051798
13.077028435226296	3.2764342	1.8100923
13.094670086361363	3.1928813	1.7868636
13.112312049221401	3.1315167	1.7696092
13.129954324241112	3.043803	1.7446498
13.147596911855258	2.888564	1.6995776
13.165239812498685	2.878995	1.6967602
13.182883026606293	2.8337076	1.683362
13.200526554613058	2.7619991	1.6619264
13.218170396954017	2.6909566	1.6404135
13.235814554064284	2.6801467	1.6371154
13.253459026379034	2.6858053	1.6388427
13.271103814333523	2.6737726	1.6351675
13.288748918363058	2.6456444	1.6265438
13.306394338903031	2.6446433	1.626236
13.32404007638889	2.6258273	1.6204405
13.341686131256164	2.6466432	1.6268507
13.359332503940449	2.6103234	1.6156496
13.376979194877402	2.6196837	1.6185437
13.394626204502751	2.677834	1.6364089
13.412273533252307	2.7251487	1.6508025
13.429921181561937	2.7338943	1.6534492
13.447569149867581	2.6706958	1.6342263
13.465217438605247	2.655141	1.6294603
13.482866048211022	2.6301415	1.6217711
13.500514979121052	2.6310265	1.622044
13.518164231771568	2.6189473	1.6183162
13.535813806598844	2.634722	1.6231827
13.553463704039254	2.6433105	1.6258261
13.571113924529229	2.6651492	1.6325284
13.588764468505275	2.6497054	1.6277915
13.606415336403956	2.6442442	1.6261132
13.624066528661917	2.6784506	1.6365973
13.641718045715882	2.7774327	1.6665632
13.659369888002635	2.8645577	1.6925005
13.67702205595903	2.9150758	1.7073593
13.694674550021993	2.966218	1.7222712
13.712327370628532	3.0418682	1.7440952
13.729980518215713	3.1138752	1.7646176
13.747633993220681	3.1949835	1.7874516
13.765287796080647	3.2185993	1.7940456
13.7829419272329	3.2111309	1.7919629
13.800596387114801	3.2504601	1.8029033
13.818251176163775	3.2736797	1.8093313
13.835906294817324	3.3139277	1.8204197
13.853561743513023	3.3443184	1.8287477
13.871217522688525	3.361483	1.8334348
13.888873632781538	3.3687634	1.8354192
13.906530074229858	3.394325	1.8423694
13.92418684747135	3.4236917	1.850322
13.941843952943948	3.4292653	1.8518275
13.959501391085665	3.4347444	1.8533063
13.977159162334578	3.3663478	1.8347609
13.994817267128846	3.3316429	1.8252789
14.012475705906693	3.2294028	1.7970539
14.030134479106424	3.1401668	1.7720516
14.047793587166414	3.09819	1.7601676
14.065453030525108	3.0452266	1.7450577
14.083112809621026	2.9920347	1.7297499
14.100772924892766	2.9078217	1.7052336
14.118433376778997	2.873628	1.6951778
14.136094165718458	2.796687	1.6723298
14.153755292149969	2.7489755	1.6580034
14.171416756512416	2.6837993	1.6382306
14.189078559244768	2.624895	1.6201528
14.20674070078606	2.5580242	1.5993824
14.224403181575408	2.5526245	1.5976934
14.242066002051999	2.5341163	1.5918908
14.259729162655093	2.5089388	1.583963
14.277392663824022	2.4281452	1.5582507
14.295056505998208	2.3648026	1.5377915
14.312720689617128	2.3553467	1.5347139
14.330385215120348	2.3610036	1.5365558
14.348050082947497	2.3594189	1.53604
14.3657152935383	2.3519924	1.5336207
14.383380847332528	2.3831282	1.5437384
14.401046744770051	2.386799	1.5449269
14.418712986290798	2.3923686	1.5467284
14.436379572334793	2.3961363	1.5479459
14.454046503342123	2.4253852	1.5573648
14.471713779752946	2.3921955	1.5466723
14.489381402007504	2.3654883	1.5380144
14.507049370546113	2.3357327	1.5283104
14.524717685809168	2.3369284	1.5287015
14.542386348237134	2.324037	1.5244793
14.560055358270553	2.3285406	1.5259557
14.577724716350051	2.3804264	1.542863
14.595394422916325	2.4247465	1.5571598
14.61306447841015	2.495156	1.5796063
14.63073488327237	2.4965744	1.5800552
14.648405637943917	2.5246038	1.5889002
14.6660767428658	2.4828463	1.575705
14.683748198479094	2.504583	1.5825874
14.701420005224954	2.5317795	1.5911567
14.719092163544628	2.6116014	1.616045
14.73676467387942	2.6412845	1.6252029
14.754437536670727	2.6416025	1.6253008
14.772110752360014	2.6274424	1.6209388
14.78978432138882	2.6231916	1.619627
14.807458244198777	2.669793	1.6339501
14.82513252123159	2.6502812	1.6279684
14.842807152929028	2.675447	1.6356794
14.860482139732962	2.6602283	1.6310207
14.87815748208531	2.7038536	1.6443399
14.8958331804281	2.690162	1.6401713
14.91350923520342	2.6208448	1.6189023
14.931185646853438	2.5751808	1.6047369
14.948862415820408	2.6059034	1.614281
14.966539542546656	2.6471832	1.6270167
14.98421702747459	2.6328955	1.62262
15.001894871046696	2.6284919	1.6212624
15.019573073705542	2.6042325	1.6137635
15.037251635893766	2.564567	1.6014266
15.054930558054092	2.5573726	1.5991787
15.072609840629323	2.6192725	1.6184167
15.090289484062351	2.7798605	1.6672914
15.107969488796124	3.1387854	1.7716618
15.125649855273691	3.5749397	1.8907511
15.14333058393817	4.081814	2.02035
15.161011675232768	5.015592	2.2395518
15.17869312960076	6.3921146	2.528263
15.196374947485506	8.177844	2.859693
15.214057129330447	11.192816	3.3455665
15.231739675579114	15.692894	3.9614258
15.249422586675102	20.44371	4.521472
15.267105863062092	23.258518	4.8227086
15.284789505183847	23.337723	4.830913
15.302473513484218	21.212063	4.6056557
15.320157888407127	17.778522	4.2164583
15.337842630396578	13.883421	3.7260463
15.355527739896656	10.909563	3.3029628
15.37321321735153	8.577897	2.9288046
15.39089906320545	6.380327	2.525931
15.408585277902748	4.83547	2.1989703
15.42627186188783	3.7570684	1.9383159
15.443958815605198	3.2718108	1.8088148
15.461646139499424	2.98619	1.7280596
15.479333834015168	2.8297222	1.6821778
15.497021899597165	2.7959788	1.6721181
15.514710336690234	2.7150056	1.6477274
15.53239914573928	2.6331894	1.6227105
15.550088327189297	2.5464547	1.5957614
15.567777881485336	2.5016918	1.5816737
15.58546780907256	2.4449801	1.5636432
15.6031581103962	2.4205558	1.5558136
15.620848785901568	2.4473639	1.5644053
15.638539836034063	2.4384346	1.5615488
15.656231261239173	2.4189599	1.5553006
15.673923061962451	2.3906217	1.5461636
15.691615238649552	2.3960543	1.5479194
15.709307791746202	2.4075074	1.5516144
15.727000721698221	2.4319928	1.5594847
15.744694028951498	2.431654	1.5593761
15.76238771395202	2.4015012	1.5496777
15.780081777145844	2.3805485	1.5429026
15.797776218979125	2.3809886	1.5430453
15.815471039898094	2.38287	1.5436548
15.833166240349064	2.349244	1.5327244
15.850861820778437	2.3354537	1.5282191
15.868557781632699	2.3588467	1.5358537
15.886254123358412	2.364143	1.5375769
15.903950846402232	2.3505945	1.5331649
15.921647951210897	2.3470638	1.5320129
15.939345438231225	2.334867	1.5280272
15.957043307910133	2.3026857	1.5174603
15.974741560694602	2.2807121	1.5102026
15.992440197031714	2.3040576	1.5179123
16.01013921736862	2.329767	1.5263574
16.02783862215259	2.3529398	1.5339296
16.045538411830933	2.3290505	1.5261227
16.06323858685107	2.323087	1.5241677
16.080939147660512	2.3627162	1.537113
16.09864009470684	2.3656096	1.5380539
16.11634142843774	2.3914149	1.54642
16.134043149300954	2.386745	1.5449094
16.15174525774433	2.4164162	1.5544826
16.169447754215817	2.4115703	1.5529232
16.18715063916342	2.3906724	1.54618
16.204853913035244	2.389588	1.5458293
16.222557576279478	2.4048223	1.550749
16.240261629344403	22.40398	4.7332845
16.257966072678386	42.952374	6.553806
16.275670906729868	38.019547	6.1659994
16.293376131947387	2.4502912	1.5653406
16.31108174877957	2.4852278	1.5764605
16.328787757675133	2.5409656	1.5940406
16.34649415908287	2.558639	1.5995747
16.364200953451657	2.5754423	1.6048185
16.38190814123048	2.550422	1.597004
16.39961572286839	2.588134	1.6087679
16.41732369881455	2.6467466	1.6268824
16.43503206951817	2.7054949	1.6448388
16.45274083542859	2.7389748	1.6549848
16.47044999699522	2.7661362	1.6631706
16.488159554667558	2.789552	1.6701952
16.505869508895184	2.846199	1.6870682
16.523579860127786	2.8935065	1.701031
16.541290608815117	2.9574535	1.7197248
16.559001755407035	2.9716926	1.7238598
16.57671330035348	2.9694479	1.7232085
16.59442524410448	2.987144	1.7283356
16.61213758711015	3.0378568	1.7429448
16.629850329820705	3.139853	1.771963
16.647563472686436	3.228358	1.7967632
16.665277016157724	3.2952418	1.8152801
16.682990960685053	3.3445914	1.8288224
16.70070530671898	3.4157567	1.8481766
16.718420054710155	3.4427788	1.8554727
16.736135205109335	3.4802475	1.8655422
16.753850758367335	3.5531812	1.8849884
16.771566714935087	3.632883	1.9060123
16.789283075263597	3.6858525	1.9198574
16.80699983980398	3.709808	1.9260862
16.82471700900741	3.7647161	1.9402876
16.84243458332518	3.814972	1.9531953
16.860152563208665	3.8757126	1.968683
16.87787094910932	3.934587	1.9835794
16.89558974147871	3.9808311	1.9952021
16.913308940768466	4.073849	2.0183778
16.931028547430333	4.161751	2.040037
16.94874856191613	4.227201	2.0560157
16.966468984677785	4.2447453	2.060278
16.98418981616729	4.335012	2.0820692
17.00191105683676	4.413435	2.1008177
17.019632707138374	4.4352813	2.1060107
17.03735476752442	4.435367	2.1060312
17.05507723844728	4.451596	2.1098804
17.072800120359403	4.4634967	2.1126988
17.090523413713353	4.485153	2.117818
17.108247118961785	4.486399	2.118112
17.125971236557437	4.55375	2.1339517
17.143695766953133	4.59329	2.143196
17.161420710601806	4.6008782	2.144966
17.179146067956477	4.5686684	2.1374443
17.19687183947025	4.5899944	2.1424272
17.21459802559634	4.5690026	2.1375225
17.232324626788028	4.5437493	2.1316073
17.25005164349871	4.5254188	2.1273031
17.267779076181863	4.5481806	2.1326463
17.285506925291074	4.5598993	2.1353922
17.30323519127999	4.558095	2.1349695
17.320963874602384	4.5147986	2.1248055
17.33869297571211	4.507181	2.1230123
17.356422495063114	4.4724483	2.1148164
17.37415243310944	4.4480114	2.109031
17.391882790305218	4.413566	2.100849
17.40961356710468	4.412232	2.1005313
17.42734476396215	4.4271245	2.1040733
17.445076381332044	4.4289746	2.104513
17.462808419668868	4.4738507	2.1151478
17.48054087942723	4.6239877	2.150346
17.498273761061835	4.9772005	2.230964
17.51600706502747	5.5033736	2.345927
17.533740791779024	6.2241197	2.4948184
17.551474941771485	7.682438	2.7717211
17.56920951545993	8.6772785	2.945722
17.586944513299528	10.596728	3.2552617
17.60467993574556	12.039241	3.469761
17.622415783253373	13.5563755	3.6818984
17.64015205627843	14.696789	3.8336391
17.657888755276293	15.608036	3.9507008
17.675625880702604	16.139988	4.0174603
17.69336343301311	16.132221	4.016494
17.71110141266366	15.488322	3.9355206
17.728839820110178	14.675569	3.8308704
17.746578655808705	13.832779	3.7192445
17.764317920215372	12.47231	3.5316157
17.7820576137864	11.047948	3.3238454
17.79979773697811	9.237196	3.0392756
17.81753829024692	7.434654	2.7266562
17.835279274049356	5.851181	2.4189215
17.85302068884201	4.7917576	2.1890085
17.870762535081607	4.1667075	2.0412514
17.888504813224934	3.8826869	1.9704535
17.90624752372891	3.719584	1.9286222
17.923990667050536	3.60489	1.8986548
17.941734243646895	3.4605343	1.8602512
17.959478253975185	3.4012463	1.8442469
17.9772226984927	3.3707232	1.835953
17.994967577656833	3.3747196	1.837041
18.01271289192506	3.3780897	1.837958
18.030458641754965	3.3172872	1.8213421
18.04820482760425	3.281643	1.8115306
18.06595144993067	3.2637694	1.8065906
18.083698509192125	3.2668405	1.8074403
18.101446005846576	3.2389064	1.7996962
18.119193940352105	3.1974635	1.7881453
18.136942313166887	3.1459935	1.7736949
18.1546911247492	3.1103716	1.7636245
18.1724403755574	3.1128266	1.7643204
18.19019006604997	3.109181	1.763287
18.207940196685467	3.0843632	1.7562355
18.225690767922575	3.0816267	1.7554562
18.243441780220046	3.0557978	1.7480841
18.261193234036764	3.0523286	1.7470914
18.278945129831676	3.0167491	1.7368791
18.29669746806386	3.0156271	1.7365562
18.314450249192483	3.0186622	1.7374297
18.3322034736768	3.0394983	1.7434157
18.349957141976184	3.0161152	1.7366966
18.3677112545501	3.0047078	1.7334093
18.385465811858108	2.9991949	1.7318183
18.403220814359884	3.009376	1.7347553
18.420976262515172	3.019744	1.737741
18.43873215678387	3.059109	1.7490308
18.456488497625923	3.069299	1.7519414
18.474245285501407	3.137896	1.7714107
18.492002520870486	3.2196617	1.7943416
18.50976020419343	3.3187826	1.8217527
18.527518335930615	3.6827683	1.919054
18.545276916542516	4.2436843	2.0600204
18.563035946489688	4.3982663	2.0972044
18.580795426232832	4.7956142	2.1898892
18.598555356232698	4.6806407	2.1634789
18.616315736950185	4.958488	2.2267663
18.63407656884626	4.6146226	2.1481674
18.65183785238201	4.869534	2.206702
18.669599588018617	4.649094	2.1561759
18.68736177621737	4.6452785	2.1552908
18.705124417439652	4.616791	2.1486719
18.72288751214696	4.4080606	2.099538
18.740651060800886	4.5317116	2.1287818
18.758415063863115	4.2269263	2.055949
18.77617952179546	4.4109225	2.1002197
18.793944435059814	4.188361	2.0465486
18.811709804118184	4.2470317	2.0608327
18.829475629432675	4.1754837	2.0434
18.8472419114655	3.9542809	1.9885373
18.86500865067897	4.024573	2.0061338
18.88277584753551	3.7142704	1.9272442
18.90054350249763	3.7431707	1.9347275
18.918311616027957	3.4376466	1.8540891
18.936080188589226	3.337557	1.8268982
18.953849220644265	3.0286353	1.7402974
18.971618712656007	2.8544993	1.6895263
18.9893886650875	2.7949338	1.6718055
19.007159078401887	7.9466553	2.8189812
19.024929953062408	32.8386	5.7304974
19.042701289532435	32.803623	5.7274446
19.060473088275405	25.39346	5.039192
19.07824534975489	2.6771588	1.6362026
19.096018074434568	2.6261752	1.6205478
19.113791262778197	2.6102905	1.6156393
19.13156491524966	2.5709932	1.6034317
19.149339032312945	2.5607684	1.6002401
19.167113614432136	2.5181	1.5868522
19.184888662071433	2.5062678	1.5831196
19.202664175695123	2.4939737	1.579232
19.220440155767623	2.506991	1.583348
19.238216602753447	2.5199735	1.5874424
19.2559935171172	2.4913032	1.5783863
19.27377089932361	2.4935126	1.5790861
19.291548749837514	2.4970756	1.5802138
19.309327069123835	2.485463	1.5765351
19.32710585764763	2.4825816	1.575621
19.344885115874032	2.4768817	1.5738112
19.362664844268313	2.4773388	1.5739564
19.380445043295822	2.441911	1.5626615
19.39822571342203	2.4329698	1.559798
19.41600685511252	2.4649794	1.5700253
19.43378846883297	2.4811816	1.5751767
19.451570555049173	2.4639328	1.5696919
19.469353114227037	2.4646668	1.5699258
19.48713614683254	2.4536235	1.5664047
19.50491965333182	2.453488	1.5663614
19.52270363419109	2.4553878	1.5669677
19.540488089876686	2.4513123	1.5656667
19.55827302085503	2.4661057	1.5703839
19.576058427592674	2.4183383	1.5551007
19.593844310556282	2.4231951	1.5566615
19.611630670212598	2.4363945	1.5608954
19.629417507028506	2.4745154	1.5730592
19.64720482147098	2.5149755	1.5858674
19.6649926140071	2.475677	1.5734284
19.682780885104084	2.4785447	1.5743395
19.70056963522921	2.468238	1.5710627
19.718358864849908	2.4721413	1.5723045
19.7361485744337	2.4712193	1.5720112
19.753938764448215	2.463032	1.569405
19.771729435361202	2.4674644	1.5708165
19.789520587640506	2.441631	1.562572
19.807312221754092	2.460143	1.5684843
19.825104338170043	2.4670954	1.570699
19.842896937356517	2.4934688	1.5790721
19.860690019781824	2.49881	1.5807625
19.87848358591436	2.537165	1.5928481
19.896277636222635	2.4976268	1.5803882
19.914072171175278	2.4778461	1.5741175
19.931867191241015	2.458995	1.5681183
19.94966269688869	2.4770308	1.5738585
19.967458688587264	2.4392462	1.5618086
19.985255166805807	2.4545443	1.5666986
20.00305213201348	2.4612513	1.5688375
20.020849584679578	2.4928002	1.5788604
20.038647525273507	2.434189	1.5601888
20.05644595426477	2.3910248	1.5462939
20.07424487212299	2.3644078	1.5376631
20.092044279317903	2.3189688	1.5228161
20.109844176319353	2.3137896	1.5211146
20.127644563597304	2.340474	1.5298607
20.145445441621817	2.3798685	1.5426823
20.16324681086307	2.3577404	1.5354935
20.181048671791373	2.3598256	1.5361724
20.198851024877122	2.4083173	1.5518755
20.216653870590836	2.4156988	1.5542518
20.234457209403146	2.3547933	1.5345336
20.252261041784802	2.311787	1.5204562
20.270065368206662	2.3316307	1.5269678
20.287870189139685	2.332204	1.5271555
20.305675505054968	2.2899833	1.5132691
20.323481316423702	2.2743876	1.5081073
20.341287623717207	2.2960284	1.5152651
20.359094427406884	2.314034	1.5211949
20.376901727964288	2.2989678	1.5162348
20.39470952586107	2.2991133	1.5162827
20.41251782156899	2.3028526	1.5175153
20.430326615559935	2.2878132	1.5125519
20.448135908305886	2.2755935	1.508507
20.465945700278965	2.2911599	1.5136578
20.483755991951384	2.3146172	1.5213866
20.50156678379548	2.284858	1.5115746
20.519378076283708	2.2909338	1.5135831
20.537189869888635	2.300805	1.5168405
20.55500216508294	2.2978082	1.5158523
20.572814962339415	2.271453	1.507134
20.59062826213098	2.2598324	1.5032738
20.60844206493066	2.281034	1.5103092
20.626256371211593	2.3039906	1.5178902
20.644071181447032	2.3201804	1.5232139
20.66188649611036	2.3205295	1.5233284
20.67970231567506	2.3221254	1.5238522
20.697518640614742	2.2966259	1.5154623
20.715335471403122	2.2865503	1.5121343
20.73315280851404	2.2466788	1.4988925
20.750970652421447	2.2547138	1.5015705
20.768789003599412	2.229121	1.4930241
20.786607862522136	2.2299142	1.4932897
20.8044272296639	2.222736	1.4908843
20.82224710549913	2.2359009	1.4952929
20.84006749050237	2.229397	1.4931166
20.857888385148268	3.7579408	1.9385409
20.8757097899116	45.87881	6.77339
20.893531705267254	64.768936	8.047915
20.911354131690224	83.79811	9.154131
20.92917706965566	69.04068	8.3090725
20.94700051963877	50.09387	7.077702
20.96482448211493	29.38623	5.420907
20.982648957559622	4.135429	2.0335753
21.00047394644843	2.220516	1.4901396
21.01829944925707	2.1922214	1.4806153
21.036125466461375	2.2166939	1.4888566
21.053951998537297	2.2296915	1.4932152
21.071779045960906	2.1920824	1.4805683
21.089606609208378	2.1596732	1.4695827
21.10743468875603	2.1620212	1.4703813
21.12526328508028	2.1695478	1.4729385
21.143092398657675	2.194881	1.481513
21.16092202996488	2.1753147	1.4748948
21.17875217947867	2.180848	1.4767694
21.19658284767596	2.180124	1.4765244
21.21441403503377	2.2009401	1.4835566
21.232245742029225	2.2108307	1.4868863
21.2500779691396	2.1936285	1.4810903
21.26791071684227	2.1715965	1.4736338
21.28574398561475	2.1373007	1.461951
21.30357777593465	2.0987027	1.4486899
21.321412088279704	2.1162763	1.4547427
21.339246923127792	2.1483188	1.4657145
21.357082280956888	2.1732976	1.4742109
21.3749181622451	2.1426845	1.4637911
21.392754567470647	2.1032877	1.4502716
21.41059149711187	2.0931385	1.4467683
21.42842895164726	2.0897064	1.4455817
21.446266931555378	2.0552208	1.4336041
21.464105437314945	2.0117292	1.4183544
21.481944469404798	2.0059648	1.4163208
21.49978402830388	2.0440004	1.4296855
21.51762411449127	2.0746443	1.4403626
21.53546472844617	2.0611527	1.4356716
21.553305870647876	2.0358214	1.4268222
21.571147541575865	2.0244513	1.4228321
21.58898974170967	2.0336356	1.4260559
21.60683247152899	2.0645938	1.4368694
21.62467573151363	2.1004348	1.4492877
21.642519522143523	2.0972278	1.4481809
21.660363843898722	2.0544174	1.4333239
21.6782086972594	2.019552	1.4211094
21.696054082705864	1.9958394	1.4127418
21.713900000718535	1.9697517	1.4034784
21.73174645177795	1.9470452	1.3953656
21.749593436364794	1.9719173	1.4042497
21.767440954959845	1.9871321	1.4096568
21.785289008044032	1.9951841	1.4125098
21.803137596098388	2.0206401	1.4214922
21.820986719604086	2.0288258	1.4243685
21.838836379042412	2.0464578	1.4305446
21.85668657489478	2.0071084	1.4167246
21.87453730764273	1.9590099	1.3996464
21.892388577767914	1.9337881	1.3906071
21.91024038575213	1.9488549	1.396014
21.928092732077285	1.9356581	1.3912793
21.945945617225426	1.9293389	1.3890065
21.963799041678694	1.9380877	1.3921522
21.981653005919398	31.27539	5.5924406
21.999507510429943	78.070015	8.835724
22.01736255569286	73.0012	8.544074
22.035218142190818	4.1390424	2.0344636
22.05307427040661	1.968872	1.403165
22.07093094082315	1.9786917	1.4066597
22.088788153923474	1.9648999	1.4017489
22.106645910190746	1.9767693	1.4059763
22.12450421010827	1.9582454	1.3993732
22.142363054159464	1.9635142	1.4012545
22.16022244282787	1.9671605	1.402555
22.178082376597164	1.9676212	1.4027193
22.195942855951145	1.94533	1.3947508
22.213803881373742	1.9359932	1.3913997
22.231665453349002	1.9099042	1.3819928
22.24952757236111	1.9174498	1.3847201
22.26739023889438	1.9416667	1.393437
22.28525345343323	1.9300098	1.3892479
22.30311721646225	1.918502	1.3851
22.320981528466113	1.9279164	1.3884943
22.33884638992964	1.9640744	1.4014543
22.356711801337788	1.9612697	1.4004534
22.37457776317561	1.9644712	1.401596
22.392444275928337	1.9480492	1.3957254
22.410311340081282	1.9272751	1.3882633
22.428178956119904	1.9084681	1.3814732
22.446047124529805	1.9154559	1.384
22.46391584579669	1.8957951	1.3768787
22.481785120406414	1.865995	1.3660142
22.49965494884496	1.8731449	1.3686289
22.51752533159841	1.9048588	1.3801662
22.53539626915302	1.9065592	1.3807821
22.553267761995137	1.9055876	1.3804302
22.571139810611264	1.9133453	1.3832372
22.589012415488025	1.9199055	1.3856065
22.60688557711216	1.908978	1.3816577
22.624759295970566	1.905192	1.3802869
22.642633572550263	1.8780204	1.3704089
22.660508407338362	1.8789842	1.3707604
22.67838380082217	1.9070146	1.380947
22.696259753489077	1.912672	1.3829938
22.714136265826614	1.8802053	1.3712058
22.73201333832246	1.8648105	1.3655807
22.74989097146439	1.8836086	1.3724462
22.76776916574035	1.9030321	1.3795043
22.785647921638393	1.9016855	1.3790162
22.803527239646712	1.8854461	1.3731154
22.82140712025363	1.89977	1.3783214
22.839287563947593	1.8996639	1.3782829
22.85716857121719	1.8785156	1.3705895
22.875050142551135	1.8396701	1.3563443
22.892932278438277	1.8470464	1.3590609
22.910814979367604	1.8842242	1.3726704
22.928698245828222	1.907411	1.3810905
22.946582078309387	1.9024124	1.3792796
22.96446647730047	1.9126	1.3829678
22.98235144329098	1.931038	1.3896179
23.000236976770562	1.9369348	1.391738
23.018123078229	1.8999126	1.3783731
23.03600974815619	1.8557483	1.3622586
23.053896987042194	1.893617	1.3760875
23.071784795377173	1.9220426	1.3863775
23.08967317365145	1.9283019	1.3886331
23.10756212235546	1.8970453	1.3773327
23.125451641979787	1.8875809	1.3738925
23.143341733015134	1.870301	1.3675895
23.161232395952357	1.8903332	1.3748939
23.179123631282426	1.9149297	1.3838099
23.197015439496468	1.9262356	1.3878889
23.214907821085717	1.9276934	1.388414
23.23280077654157	1.8835559	1.372427
23.250694306355538	1.8908231	1.375072
23.268588411019277	1.926299	1.3879117
23.28648309102458	1.9194497	1.385442
23.304378346863356	1.90012	1.3784484
23.322274179027676	1.8994809	1.3782166
23.340170588009723	1.9467317	1.3952533
23.358067574301852	1.9313545	1.3897318
23.37596513839651	1.9074128	1.3810911
23.39386328078629	1.8946784	1.3764732
23.411762001963947	1.9068526	1.3808883
23.429661302422353	1.9402814	1.3929398
23.4475611826545	1.9709252	1.4038965
23.46546164315356	1.9203479	1.3857661
23.48336268441279	1.9219695	1.3863511
23.501264306925638	1.8920985	1.3755357
23.51916651118564	1.848793	1.3597033
23.537069297686497	1.8225052	1.3500019
23.554972666922037	1.8621529	1.3646072
23.57287661938623	1.9086038	1.3815223
23.59078115557318	1.9082496	1.381394
23.608686275977128	1.8732584	1.3686703
23.62659198109246	1.8452402	1.3583962
23.6444982714137	1.8566872	1.3626031
23.66240514743549	1.8678854	1.366706
23.68031260965263	1.8390579	1.3561187
23.698220658560068	1.7953911	1.3399221
23.716129294652845	1.8207434	1.3493493
23.7340385184262	1.845886	1.3586339
23.75194833037546	1.8617606	1.3644634
23.769858730996123	1.8570338	1.3627303
23.78776972078382	1.8687116	1.3670082
23.80568130023431	1.9119385	1.3827287
23.823593469843495	1.8972101	1.3773925
23.841506230107424	1.8548173	1.3619168
23.859419581522275	1.8353597	1.3547544
23.87733352458438	1.8670609	1.3664044
23.89524805979019	1.8796229	1.3709934
23.913163187636318	1.9162056	1.3842708
23.931078908619508	1.9401112	1.3928788
23.948995223236633	1.9291638	1.3889434
23.966912131984735	1.9298757	1.3891996
23.98482963536096	1.9623225	1.4008292
24.002747733862616	1.9921666	1.4114413
24.020666427987155	2.0205247	1.4214517
24.038585718232156	2.0047996	1.4159094
24.056505605095353	1.990942	1.4110074
24.074426089074617	2.0383823	1.4277192
24.092347170667946	2.0705724	1.4389484
24.110268850373515	2.084914	1.4439231
24.128191128689586	2.066723	1.4376101
24.146114006114626	2.0166576	1.4200907
24.164037483147187	2.0013986	1.4147079
24.181961560286005	1.9764984	1.40588
24.199886238029926	1.9631357	1.4011195
24.21781151687797	1.9204524	1.3858038
24.235737397329274	1.9494809	1.3962381
24.253663879883135	1.9992801	1.413959
24.271590965038975	2.0205379	1.4214562
24.289518653296376	2.0167124	1.42011
24.30744694515505	2.0411289	1.4286808
24.32537584111486	2.0713365	1.4392139
24.34330534167581	2.0238478	1.42262
24.361235447338046	1.9961057	1.4128361
24.379166158601876	2.0096478	1.4176205
24.39709747596772	2.0083303	1.4171557
24.41502939993615	1.9916391	1.4112544
24.432961931007917	1.9445038	1.3944546
24.450895069683856	1.9321812	1.3900292
24.468828816465	1.9050902	1.3802501
24.4867631718525	1.89394	1.376205
24.504698136347656	1.8843405	1.3727129
24.52263371045192	1.8681527	1.3668039
24.540569894666874	1.8732598	1.3686708
24.558506689494266	1.9154439	1.3839957
24.57644409543597	1.9643719	1.4015605
24.594382112994012	1.9952849	1.4125456
24.61232074267057	1.9815899	1.4076896
24.630259984967953	1.9269322	1.3881398
24.64819984038863	1.8886262	1.374273
24.66614030943522	1.9354686	1.3912112
24.684081392610462	1.9816655	1.4077164
24.702023090417274	1.9481155	1.3957491
24.7199654033587	1.9329777	1.3903157
24.737908331937927	1.9490273	1.3960757
24.755851876658305	1.9806492	1.4073554
24.773796038023324	1.9742371	1.4050754
24.79174081653661	1.9737471	1.4049011
24.809686212701962	2.0478408	1.4310279
24.827632227023294	2.0577354	1.4344809
24.8455788600047	2.04221	1.4290591
24.8635261121504	2.0319877	1.4254781
24.88147398396475	2.025466	1.4231887
24.899422475952303	2.0598056	1.4352022
24.917371588617698	2.0752492	1.4405725
24.935321322465768	2.1306205	1.4596645
24.953271678001478	2.208246	1.4860169
24.97122265572994	2.4018905	1.5498034
24.989174256156414	2.751512	1.6587682
25.00712647978632	3.1402256	1.7720681
25.02507932712521	3.5991406	1.8971401
25.043032798678798	4.093252	2.0231788
25.060986894952933	4.7067523	2.1695051
25.078941616453637	5.3544436	2.313967
25.096896963687055	6.191158	2.4882038
25.114852937159508	7.2613683	2.6946926
25.132809537377444	7.769144	2.7873185
25.150766764847468	7.8596163	2.8035007
25.168724620076347	7.4222884	2.7243876
25.186683103570985	6.538064	2.556964
25.204642215838426	5.505685	2.3464196
25.222601957385894	4.2022805	2.0499465
25.24056232872074	3.2234435	1.7953951
25.25852333035048	2.6581655	1.6303881
25.276484962782778	2.2967665	1.5155087
25.294447226525435	2.0661387	1.4374069
25.312410122086423	1.9696337	1.4034364
25.330373649973843	1.9086467	1.3815378
25.348337810695988	1.8713498	1.3679729
25.366302604761245	1.9046361	1.3800856
25.384268032678207	1.9450688	1.3946573
25.40223409495558	1.9441704	1.3943352
25.420200792102257	1.8770483	1.3700541
25.438168124627246	1.8305954	1.3529949
25.45613609303974	1.8461246	1.3587217
25.474104697849057	1.8745137	1.3691288
25.492073939564698	1.8864744	1.3734899
25.510043818696285	1.8880272	1.374055
25.528014335753614	1.8583912	1.3632282
25.54598549124664	1.8297281	1.3526745
25.56395728568544	1.8192447	1.3487939
25.58192971958028	1.8312519	1.3532375
25.59990279344156	1.8123817	1.3462473
25.617876507779833	1.8019644	1.3423727
25.635850863105826	1.8201989	1.3491474
25.653825859930386	1.8131872	1.3465464
25.671801498764548	1.7874217	1.3369449
25.68977778011949	1.7894249	1.3376939
25.707754704506524	1.7898548	1.3378545
25.725732272437153	1.822925	1.3501574
25.743710484423012	1.8073202	1.3443661
25.761689340975888	1.8021427	1.342439
25.77966884260774	1.8099364	1.3453388
25.797648989830662	1.7891235	1.3375813
25.815629783156922	1.7874689	1.3369626
25.83361122309895	1.8381282	1.3557758
25.85159331016929	1.855158	1.3620418
25.869576044880695	1.8376375	1.3555949
25.887559427746034	1.8429289	1.3575451
25.90554345927836	1.8288623	1.3523544
25.92352813999086	1.7931628	1.3390903
25.94151347039689	1.7531385	1.3240614
25.959499451009965	1.8116134	1.3459619
25.97748608234374	1.8679779	1.3667399
25.995473364912062	1.9178255	1.3848557
26.013461299228904	1.8367145	1.3552544
26.03144988580839	1.8211626	1.3495046
26.04943912516483	1.8289286	1.3523788
26.067429017812675	1.8558694	1.362303
26.085419564266537	1.8197374	1.3489765
26.103410765041186	1.7815143	1.3347338
26.12140262065155	1.7470183	1.3217483
26.139395131612723	1.722338	1.3123788
26.157388298439948	1.7624927	1.327589
26.17538212164861	1.7624587	1.3275763
26.193376601754295	1.7662107	1.3289886
26.211371739272714	1.7146989	1.3094652
26.229367534719746	1.735864	1.3175219
26.247363988611433	1.7933844	1.3391731
26.26536110146397	1.835428	1.3547797
26.283358873793727	1.8041667	1.3431927
26.301357306117204	1.804248	1.343223
26.319356398951104	1.8332332	1.3539695
26.33735615281224	1.7981906	1.3409663
26.35535656821762	1.7596922	1.3265339
26.373357645684404	1.7210294	1.3118801
26.39135938572991	1.7641183	1.3282012
26.409361788871614	1.7645367	1.3283587
26.427364855627165	1.7727146	1.3314333
26.445368586514352	1.7777202	1.3333118
26.46337298205115	1.7860824	1.3364439
26.48137804275568	1.7716529	1.3310345
26.499383769146217	1.7538539	1.3243315
26.517390161741215	1.7039323	1.3053476
26.53539722105928	1.7421169	1.3198928
26.553404947619182	1.7652979	1.3286451
26.571413341939856	1.8127354	1.3463787
26.589422404540397	1.8441864	1.3580083
26.60743213594006	1.8882041	1.3741194
26.62544253665827	1.8548043	1.361912
26.64345360721459	1.8022633	1.342484
26.66146534812879	1.7934283	1.3391894
26.679477759920758	1.7731496	1.3315966
26.69749084311057	1.7270426	1.3141699
26.71550459821847	1.704413	1.3055317
26.733519025764842	1.733043	1.3164508
26.751534126270258	1.7683504	1.3297933
26.769549900255434	1.7688473	1.3299803
26.787566348241267	1.7513876	1.3234
26.80558347074881	1.7446498	1.3208519
26.823601268299267	1.7414813	1.319652
26.841619741414036	1.7420845	1.3198805
26.85963889061465	1.7957453	1.3400542
26.877658716422832	1.8244585	1.3507252
26.89567921936045	1.7987067	1.3411587
26.913700399949544	1.784225	1.3357488
26.93172225871233	1.7250234	1.3134015
26.949744796171174	1.7195287	1.311308
26.967768012848605	1.7272558	1.3142511
26.98579190926733	1.7501284	1.3229241
27.003816485950225	1.7341727	1.3168799
27.021841743420318	1.7461239	1.3214098
27.039867682200814	1.746861	1.3216887
27.057894302815072	1.7237884	1.3129312
27.07592160578664	1.7261907	1.3138458
27.0939495916392	1.7371279	1.3180015
27.111978260896635	1.747571	1.3219572
27.13000761408296	1.7238946	1.3129717
27.148037651722397	1.7756152	1.3325222
27.166068374339304	1.8000084	1.3416439
27.184099782458215	1.724577	1.3132315
27.20213187660384	1.6880385	1.2992454
27.22016465730105	1.7244946	1.3132001
27.23819812507487	1.750722	1.3231485
27.256232280450533	1.7755845	1.3325106
27.274267123953383	1.7583574	1.3260307
27.292302656108987	1.7695515	1.3302449
27.31033887744306	1.8020669	1.3424108
27.32837578848146	1.7883706	1.3372997
27.34641338975026	1.7438447	1.3205471
27.364451681775673	1.7594398	1.3264388
27.382490665084074	1.765449	1.328702
27.400530340202046	1.7695134	1.3302306
27.41857070765629	1.7354143	1.3173512
27.436611767973726	1.7424691	1.3200262
27.454653521681404	1.7669555	1.3292688
27.472695969306564	1.7870475	1.336805
27.490739111376627	1.7977737	1.3408109
27.508782948419153	1.7776381	1.3332809
27.526827480961902	1.7437268	1.3205025
27.54487270953279	1.743511	1.3204207
27.562918634659898	1.7704684	1.3305895
27.580965256871508	1.8119212	1.3460763
27.599012576696026	1.833391	1.3540276
27.617060594662068	1.8181971	1.3484054
27.63510931129842	1.788278	1.3372651
27.65315872713401	1.8090005	1.3449908
27.67120884269797	1.812577	1.3463198
27.68925965851958	1.7543854	1.3245322
27.707311175128307	1.7480358	1.3221331
27.725363393053787	1.7999003	1.3416036
27.74341631282583	1.8571715	1.3627808
27.7614699349744	1.8224509	1.3499818
27.77952426002968	1.9928619	1.4116876
27.797579288521973	2.1128817	1.4535755
27.815635020981784	2.578047	1.6056298
27.83369145793979	2.6837125	1.6382041
27.85174859992682	2.487101	1.5770545
27.869806447473923	2.3239014	1.5244348
27.887865001112267	1.96782	1.4027901
27.905924261373233	1.8150262	1.3472291
27.92398422878836	1.7948455	1.3397185
27.94204490388936	1.795848	1.3400925
27.96010628720813	1.8010339	1.342026
27.978168379276728	1.7987013	1.3411567
27.9962311806274	1.8119926	1.3461027
28.014294691792568	1.7977592	1.3408054
28.0323589133048	1.7744654	1.3320906
28.050423845696887	1.7889513	1.3375168
28.068489489501758	1.8129836	1.3464708
28.086555845252523	1.8145329	1.347046
28.104622913482487	1.828315	1.352152
28.122690694725115	1.8356673	1.3548679
28.14075918951405	1.8680012	1.3667485
28.15882839838312	1.8433149	1.3576874
28.176898321866304	1.8411555	1.3568919
28.1949689604978	1.850319	1.3602643
28.213040314811945	1.9109472	1.3823701
28.23111238534327	1.9416913	1.3934458
28.249185172626493	1.8808119	1.3714269
28.267258677196473	1.8330094	1.3538867
28.285332899588294	1.8300763	1.3528031
28.303407840337172	1.8633801	1.3650568
28.321483499978545	1.8714523	1.3680104
28.33955987904799	1.873689	1.3688276
28.357636978081285	1.8889968	1.3744078
28.37571479761439	1.8844299	1.3727454
28.393793338183425	1.9131634	1.3831716
28.41187260032469	1.9564173	1.3987199
28.429952584574686	1.9622759	1.4008126
28.448033291470065	1.950488	1.3965987
28.46611472154769	1.950228	1.3965056
28.484196875344566	1.9667325	1.4024024
28.502279753397914	1.95719	1.3989961
28.52036335624511	1.9073457	1.3810668
28.538447684423716	1.8971988	1.3773884
28.556532738471482	1.9151819	1.383901
28.574618518926325	1.9343407	1.3908057
28.59270502632635	1.9913173	1.4111404
28.61079226120985	1.9624293	1.4008673
28.628880224115274	1.91839	1.3850596
28.646968915581287	1.9144405	1.3836331
28.66505833614671	1.9458971	1.3949542
28.68314848635055	1.9518163	1.3970742
28.701239366732004	1.9504095	1.3965707
28.71933097783044	1.9408699	1.393151
28.737423320185403	1.9979805	1.4134994
28.75551639433665	2.0603213	1.4353819
28.773610200824074	2.0851939	1.44402
28.791704740187793	2.0934482	1.4468753
28.80980001296809	2.1136017	1.4538231
28.827896019705413	2.1038666	1.4504712
28.845992760940433	2.125665	1.4579661
28.86409023721397	2.1366463	1.4617271
28.88218844906704	2.1302369	1.4595331
28.900287397040845	2.1470623	1.4652858
28.918387081676755	2.1524024	1.4671068
28.936487503516343	2.219106	1.4896663
28.954588663101365	2.2552364	1.5017444
28.97269056097374	2.2815874	1.5104924
28.990793197675597	2.3116205	1.5204015
29.00889657374923	2.3294628	1.5262578
29.027000689737125	2.2980466	1.5159309
29.04510554618196	2.3054442	1.518369
29.06321114362659	2.3372293	1.5287999
29.08131748261405	2.3955011	1.5477407
29.099424563687567	2.4729123	1.5725496
29.11753238739057	2.4628804	1.5693567
29.13564095426663	2.4612107	1.5688246
29.15375026485954	2.534033	1.5918647
29.171860319713275	2.6057203	1.6142243
29.18997111937199	2.6567519	1.6299546
29.20808266438002	2.6897063	1.6400324
29.226194955281898	2.6618266	1.6315105
29.244307992622335	2.7475176	1.6575638
29.26242177694624	2.8139446	1.6774817
29.2805363087987	2.8282456	1.6817389
29.29865158872498	2.864419	1.6924595
29.316767617270557	2.8880546	1.6994277
29.334884394981064	2.8426347	1.6860114
29.353001922402367	2.8543458	1.6894809
29.37112020008047	2.9219987	1.7093855
29.389239228561596	3.0946894	1.7591729
29.407359008392152	3.3695674	1.8356382
29.42547954011872	3.7149317	1.9274158
29.44360082428809	4.243823	2.060054
29.46172286144722	5.184997	2.2770588
29.479845652143283	6.5445423	2.5582304
29.497969196923606	8.468991	2.9101532
29.516093496335728	10.873124	3.297442
29.5342185509274	13.225405	3.636675
29.55234436124651	15.122459	3.8887606
29.570470927841175	16.373281	4.046391
29.588598251259686	16.311329	4.0387287
29.60672633205055	15.354742	3.9185128
29.624855170762405	13.467677	3.6698334
29.642984767944146	10.874386	3.2976334
29.66111512414481	8.395744	2.897541
29.67924623991366	6.4831195	2.5461972
29.697378115800138	5.1870155	2.277502
29.71551075235387	4.2513127	2.0618713
29.733644150124675	3.6786976	1.9179931
29.751778309662576	3.4485214	1.8570195
29.769913231517766	3.39832	1.8434533
29.78804891624066	3.2733462	1.8092391
29.806185364381818	3.2604077	1.8056599
29.82432257649206	3.3280911	1.8243057
29.842460553122333	3.376594	1.8375511
29.86059929482382	3.3204222	1.8222026
29.878738802147872	3.3046246	1.8178626
29.896879075646048	3.2471607	1.801988
29.915020115870114	3.2082832	1.7911681
29.933161923371976	3.192309	1.7867033
29.951304498703777	3.1591861	1.7774099
29.969447842417857	3.129592	1.7690653
29.987591955066733	3.0993676	1.7605021
30.005736837203123	3.1101797	1.7635702
30.023882489379943	3.0764005	1.753967
30.04202891215028	3.048403	1.7459676
30.060176106067455	3.0453632	1.7450969
30.078324071684946	3.0608768	1.7495362
30.09647280955646	3.1106544	1.7637048
30.114622320235863	3.124114	1.7675164
30.132772604277257	3.083086	1.7558719
30.1509236622349	3.0760322	1.753862
30.16907549466328	3.060221	1.7493488
30.18722810211705	2.981552	1.7267171
30.205381485151097	2.989121	1.7289075
30.22353564432045	2.9781327	1.7257267
30.241690580180403	2.9682832	1.7228706
30.25984629328638	2.9424756	1.7153646
30.278002784194037	2.9357638	1.713407
30.296160053459246	2.9343731	1.7130013
30.314318101638033	2.9185352	1.7083721
30.332476929286646	2.908893	1.7055477
30.35063653696153	2.9366393	1.7136625
30.368796925219307	2.8921816	1.7006415
30.386958094616844	2.8213167	1.6796776
30.40512004571115	2.828873	1.6819254
30.423282779059463	2.7805939	1.6675112
30.441446295219233	2.7290964	1.6519977
30.459610594748067	2.717021	1.6483389
30.47777567820382	2.7324798	1.6530215
30.495941546144504	2.7461734	1.6571583
30.51410819912835	2.7470915	1.6574352
30.532275637713795	2.7486718	1.6579119
30.55044386245946	2.762856	1.6621841
30.56861287392416	2.738243	1.6547638
30.586782672666956	2.6758015	1.6357877
30.604953259247047	2.6484098	1.6273936
30.623124634223885	2.7045755	1.6445594
30.641296798157075	2.6985433	1.6427244
30.659469751606462	2.7015402	1.6436362
30.677643495132074	2.626332	1.6205962
30.695818029294152	2.603752	1.6136146
30.713993354653116	2.6450565	1.6263629
30.73216947176962	2.6306076	1.6219147
30.75034638120448	2.6145172	1.6169469
30.768524083518756	2.635977	1.6235693
30.786702579273673	2.7506666	1.6585134
30.80488186903069	2.774017	1.6655381
30.82306195335144	2.8614902	1.691594
30.841242832797782	3.0373127	1.7427888
30.85942450793176	3.3052435	1.8180329
30.877606979315637	3.610002	1.9000006
30.895790247511883	3.899097	1.9746131
30.913974313083134	4.3023396	2.0742083
30.932159176592283	4.606624	2.1463048
30.95034483860237	4.578242	2.1396825
30.968531299676698	4.363276	2.0888457
30.98671856037873	4.1806273	2.0446582
31.00490662127215	3.8830342	1.9705416
31.023095482920848	3.441044	1.8550051
31.04128514588892	2.9105995	1.7060479
31.059475610740662	2.6159244	1.6173819
31.07766687804056	2.537416	1.5929269
31.09585894835335	2.5519264	1.597475
31.11405182224393	2.502692	1.5819899
31.132245500277417	2.385084	1.5443717
31.15043998301914	2.3036678	1.5177839
31.168635271034628	2.3215573	1.5236658
31.18683136488964	2.3382142	1.529122
31.20502826515008	2.34617	1.5317212
31.223225972382135	2.275117	1.5083491
31.241424487152155	2.198958	1.4828883
31.259623810026692	2.219957	1.4899521
31.27782394157253	2.295707	1.515159
31.296024882356644	2.3339877	1.5277394
31.314226632946237	2.347168	1.532047
31.332429193908684	2.3584943	1.535739
31.350632565811598	2.4038906	1.5504485
31.368836749222787	2.4774158	1.5739809
31.387041744710295	2.439906	1.5620198
31.40524755284232	2.4404557	1.5621958
31.423454174187317	2.4003408	1.5493033
31.441661609313922	2.3646123	1.5377296
31.459869858791002	2.3574064	1.5353848
31.478078923187628	2.4385571	1.561588
31.496288803073064	2.3955495	1.5477563
31.514499499016807	2.2815888	1.5104929
31.532711011588546	2.2285364	1.4928284
31.550923341358178	2.3263302	1.5252312
31.56913648889584	2.306554	1.5187343
31.587350454771844	2.2946463	1.514809
31.605565239556732	2.2620685	1.5040175
31.62378084382127	2.2061932	1.4853259
31.641997268136382	2.2868307	1.512227
31.660214513073274	2.3151748	1.5215698
31.67843257920331	2.3035393	1.5177416
31.6966514670981	2.3297486	1.5263515
31.71487117732944	2.3147123	1.5214179
31.733091710469346	2.3774645	1.5419029
31.751313067090052	2.4160275	1.5543576
31.769535247764008	2.3539402	1.5342556
31.787758253063878	2.2557187	1.5019051
31.805982083562526	2.2128282	1.4875578
31.824206739833024	2.218577	1.4894888
31.84243222244869	2.2329543	1.4943073
31.860658531983013	2.1718457	1.4737183
31.878885669009737	2.2103436	1.4867225
31.897113634102784	2.1765633	1.4753181
31.91534242783632	2.1208475	1.456313
31.933572050784694	2.1605246	1.4698724
31.951802503522508	2.1972342	1.4823071
31.970033786624548	2.24051	1.4968333
31.988265900665834	2.1557517	1.4682479
32.006498846221575	2.1411548	1.4632685
32.02473262386724	2.1517036	1.4668686
32.04296723417845	2.201915	1.4838852
32.0612026777311	2.2004237	1.4833826
32.07943895510129	2.164457	1.4712094
32.097676066865304	2.2069008	1.4855641
32.115914013599685	2.253889	1.5012958
32.13415279588115	2.2104528	1.4867592
32.152392414286666	2.1342673	1.4609132
32.1706328693934	2.093627	1.4469371
32.18887416177875	2.0446858	1.4299251
32.20711629202032	2.021733	1.4218765
32.225359260695924	2.0857427	1.44421
32.243603068383614	2.0372808	1.4273335
32.26184771566166	1.9009738	1.3787581
32.28009320310852	1.9253038	1.3875532
32.2983395313029	2.097366	1.4482286
32.31658670082372	2.1444576	1.4643967
32.33483471225012	2.0325787	1.4256854
32.35308356616143	1.9856564	1.4091332
32.371333263137245	1.9947672	1.4123622
32.38958380375734	2.0459332	1.4303613
32.407835188601744	2.010624	1.4179647
32.42608741825067	2.0112612	1.4181894
32.444340493284585	1.9878265	1.409903
32.46259441428416	1.9403182	1.392953
32.48084918183028	1.9165757	1.3844044
32.49910479650405	1.8984005	1.3778245
32.51736125888683	1.9567508	1.3988391
32.53561856956014	2.016248	1.4199464
32.5538767291058	1.9445823	1.3944829
32.572135738105764	1.9406078	1.393057
32.59039559714228	1.9530789	1.397526
32.608656306797776	1.9587947	1.3995695
32.62691786765491	2.0046904	1.4158709
32.645180280296586	2.0149658	1.4194949
32.663443545305896	1.9452258	1.3947135
32.68170766326619	1.8604972	1.3640004
32.69997263476099	1.8266339	1.3515302
32.7182384603741	1.8781801	1.3704672
32.7365051406895	1.9588808	1.3996003
32.75477267629144	2.0526462	1.4327059
32.77304106776434	2.049149	1.4314849
32.79131031569289	1.969497	1.4033877
32.809580420661966	1.9184896	1.3850955
32.827851383256714	1.9967878	1.4130775
32.84612320406245	2.0185697	1.4207637
32.86439588366476	1.9543036	1.3979641
32.88266942264945	1.9173682	1.3846906
32.9009438216025	1.9476373	1.3955778
32.9192190811102	2.063522	1.4364965
32.937495201758985	2.0770006	1.4411802
32.95577218413556	1.9579413	1.3992646
32.974050028826866	1.9257846	1.3877264
32.992328736420035	1.9186274	1.3851453
33.010608307502444	1.9458648	1.3949425
33.02888874266169	1.8976792	1.3775628
33.047170042485604	1.8770782	1.370065
33.06545220756225	1.9227784	1.3866428
33.083735238479896	2.0036347	1.415498
33.10201913582707	1.9543159	1.3979685
33.12030390019248	1.7784541	1.3335869
33.138589532165135	1.6854875	1.2982633
33.15687603233419	1.7784543	1.333587
33.17516340128909	1.8935174	1.3760514
33.19345163961947	1.8701202	1.3675233
33.211740747915215	1.8291832	1.352473
33.23003072676643	1.8951621	1.3766489
33.248321576763466	1.9226155	1.3865842
33.266613298496885	1.9806007	1.4073381
33.28490589255747	1.9577173	1.3991845
33.30319935953626	1.8949556	1.3765739
33.32149370002451	1.8889323	1.3743844
33.339788914613706	1.986898	1.4095737
33.358085003895575	2.067408	1.4378484
33.376381968462034	2.0172203	1.4202888
33.39467980890529	2.004941	1.4159594
33.41297852581774	2.017617	1.4204284
33.43127811979204	2.073154	1.4398451
33.44957859142105	2.0540433	1.4331934
33.467879941297866	1.9921116	1.4114218
33.486182170015844	1.9535372	1.3976899
33.50448527816853	1.9483155	1.3958207
33.522789266349754	1.8390894	1.3561302
33.541094135153514	1.8016124	1.3422415
33.55939988517411	1.8636146	1.3651427
33.57770651700602	1.904595	1.3800707
33.59601403124398	1.9335479	1.3905207
33.61432242848296	1.8582276	1.3631682
33.632631709318154	1.7571892	1.3255901
33.650941874344994	1.7319165	1.316023
33.66925292415916	1.8505503	1.3603493
33.68756485935654	1.8967415	1.3772224
33.70587768053328	1.8789371	1.3707433
33.724191388285746	1.8456109	1.3585327
33.74250598321054	1.8338125	1.3541833
33.760821465904506	1.824523	1.350749
33.77913783696474	1.872293	1.3683176
33.79745509698852	1.9405624	1.3930407
33.815773246573414	1.900183	1.3784713
33.8340922863172	1.8275453	1.3518673
33.852412216817896	1.819584	1.3489196
33.87073303867377	1.873892	1.3689017
33.889054752483304	1.9696871	1.4034554
33.907377358845245	1.9749594	1.4053324
33.92570085835853	1.9316057	1.3898221
33.94402525162239	1.8800036	1.3711323
33.96235053923627	1.8438164	1.357872
33.980676721799824	1.9042256	1.3799368
33.999003799912984	1.9091419	1.381717
34.01733177417592	1.893068	1.3758881
34.03566064518901	1.9305239	1.3894329
34.0539904135529	1.9847056	1.4087958
34.07232107986846	1.9473656	1.3954804
34.090652644736785	2.0188594	1.4208658
34.108985108759235	2.069165	1.4384593
34.12731847253742	1.9855133	1.4090824
34.14565273667313	1.9018296	1.3790684
34.16398790176847	1.9202491	1.3857305
34.18232396842574	1.9341574	1.3907399
34.20066093724749	1.8957223	1.3768523
34.21899880883651	1.9287131	1.3887812
34.23733758379583	1.8781879	1.3704699
34.25567726272874	1.8906081	1.3749938
34.27401784623872	1.981393	1.4076196
34.29235933492957	2.0564134	1.43402
34.31070172940526	2.1255634	1.4579312
34.32904503027003	2.0859015	1.444265
34.347389238128386	1.9545696	1.3980592
34.36573435358502	1.8899621	1.374759
34.38408037724492	1.9153908	1.3839765
34.402427309713296	1.8962605	1.3770478
34.42077515159559	1.8830702	1.3722501
34.43912390349752	2.0370052	1.4272369
34.45747356602499	2.0246508	1.4229022
34.47582413978423	1.9610782	1.400385
34.49417562538163	1.9123114	1.3828635
34.51252802342388	1.9356574	1.3912791
34.53088133451789	1.9402972	1.3929455
34.54923555927084	2.0206006	1.4214783
34.567590698290104	2.057376	1.4343556
34.58594675218336	2.0328875	1.4257936
34.6043037215585	1.967641	1.4027263
34.62266160702365	1.9103832	1.3821661
34.641020409187234	1.9962775	1.4128969
34.65938012865785	1.9505131	1.3966078
34.677740766044394	1.9493861	1.3962042
34.69610232195598	2.1139483	1.4539423
34.714464797002016	2.1761234	1.475169
34.73282819179208	1.997224	1.4132317
34.751192506936064	1.848452	1.3595779
34.76955774304408	1.8419105	1.35717
34.7879239007265	1.947261	1.395443
34.80629098059391	1.9551122	1.3982533
34.824658983257194	2.059471	1.4350857
34.843027909327446	2.0563767	1.4340072
34.86139775941603	1.9890201	1.4103262
34.879768534134534	1.7677375	1.3295629
34.89814023409483	1.6606505	1.2886623
34.91651285990901	1.7469438	1.32172
34.93488641218944	1.8265316	1.3514924
34.95326089154871	1.9534806	1.3976697
34.97163629859967	2.2841666	1.511346
34.99001263395542	2.3255847	1.5249867
35.00838989822934	2.0890532	1.4453558
35.02676809203499	2.0480375	1.4310967
35.04514721598624	2.1306074	1.45966
35.063527270697215	2.0840142	1.4436115
35.081908256782256	1.9711287	1.4039689
35.10029017485597	1.783183	1.3353587
35.11867302553321	1.7383897	1.3184801
35.137056809429104	1.6768513	1.294933
35.155441527159006	1.7092307	1.3073754
35.173827179338524	1.740971	1.3194586
35.19221376658354	1.8608495	1.3641295
35.21060128951017	1.6615455	1.2890095
35.2289897487348	1.6519071	1.2852653
35.24737914487405	1.9431237	1.3939598
35.26576947854479	1.9932547	1.4118267
35.28416075036418	1.8563906	1.3624942
35.30255296094958	1.65466	1.2863358
35.32094611091867	1.499632	1.2245946
35.33934020088932	1.5515339	1.2456058
35.35773523147969	1.8734195	1.3687291
35.3761312033082	2.2400913	1.4966935
35.394528116993506	2.3339372	1.5277228
35.41292597315452	2.1587162	1.469257
35.431324772410434	2.0179968	1.4205621
35.449724515380666	2.1673107	1.4721789
35.46812520268491	2.463028	1.5694036
35.486526834943106	2.3189344	1.5228047
35.504929412775454	1.8284912	1.3522172
35.52333293680242	1.449601	1.2039938
35.54173740764471	1.2834076	1.1328758
35.560142825923286	1.0309223	1.0153434
35.5785491922594	1.0791897	1.0388405
35.59695650727454	1.6398554	1.2805684
35.61536477159042	1.6662048	1.2908156
