0.008763373481513119	0.0	0.0
0.026290120649546365	0.0	0.0
0.043816868432600686	0.0	0.0
0.06134361724069026	0.0	0.0
0.07887036748382949	0.034514885	0.18578182
0.0963971195720331	0.1910026	0.43703845
0.11392387391531617	0.24224448	0.4921834
0.1314506309236943	0.25373912	0.50372523
0.1489773910071836	0.13386975	0.36588216
0.16650415457580078	0.073246345	0.2706406
0.18403092203956356	0.0315654	0.17766654
0.20155769380849	0.027013155	0.1643568
0.2190844702925996	0.022132006	0.14876829
0.2366112519019124	0.07915387	0.28134298
0.2541380390464497	0.1040065	0.32250038
0.27166483213623416	0.14761662	0.3842091
0.28919163158128947	0.13815047	0.37168598
0.3067184377916406	0.16347341	0.40431845
0.324245251177314	0.15745267	0.39680305
0.34177207214833777	0.18075553	0.42515352
0.3592989011147415	0.16620779	0.4076859
0.37682573848655654	0.15149762	0.38922694
0.39435258467381573	0.1859762	0.4312496
0.41187944008655414	0.19359434	0.43999356
0.42940630513480854	0.17152913	0.41416076
0.446933180228618	0.19060113	0.4365789
0.4644600657780234	0.1706437	0.41309044
0.48198696219306775	0.18337423	0.42822218
0.49951386988379676	0.15664142	0.39577952
0.5170407892602581	0.10165122	0.3188279
0.5345677207325025	0.10181424	0.31908345
0.5520946647105822	0.09620933	0.31017628
0.5696216216045534	0.121240765	0.34819645
0.5871485918244737	0.18848957	0.43415385
0.6046755757804043	0.19297609	0.43929043
0.6222025738824094	0.16638762	0.40790638
0.6397295865405557	0.13660367	0.36959934
0.6572566141649129	0.1392249	0.37312853
0.6747836571655547	0.14822812	0.38500404
0.6923107159525568	0.17686288	0.42055067
0.7098377909359992	0.17972378	0.42393842
0.7273648825259653	0.18441895	0.42944026
0.7448919911325411	0.18400575	0.42895892
0.762419117165817	0.17858018	0.42258748
0.7799462610358868	0.1781183	0.42204064
0.7974734231528482	0.16195431	0.40243548
0.8150006039268024	0.19035101	0.43629235
0.8325278037678551	0.18859325	0.43427324
0.8500550230861152	0.22908737	0.47863072
0.8675822622916969	0.21960646	0.46862188
0.8851095217947171	0.2272815	0.47674048
0.9026368020052984	0.25115073	0.5011494
0.9201641033335665	0.25876012	0.5086847
0.9376914261896523	0.21620312	0.4649765
0.9552187709836915	0.19679222	0.4436127
0.9727461381258234	0.19679053	0.4436108
0.990273528026193	0.26056853	0.5104591
1.0078009410949496	0.2846157	0.5334939
1.0253283777422473	0.29890567	0.54672265
1.0428558383782454	0.30131507	0.5489217
1.0603833234131086	0.2876035	0.5362868
1.0779108332570058	0.3574339	0.5978578
1.0954383683201119	0.35826513	0.5985525
1.112965929012607	0.41965798	0.64781016
1.1304935157446763	0.45655733	0.6756903
1.1480211289265108	0.47126883	0.68649024
1.1655487689683062	1.3296305	1.1530961
1.1830764362802655	1.6875194	1.2990456
1.200604131272596	2.1335037	1.4606518
1.2181318543555117	2.3971238	1.5482647
1.235659605939232	2.3568053	1.535189
1.253187386433982	3.959422	1.9898297
1.270715196249994	6.490706	2.5476863
1.2882430357975057	11.864578	3.4444997
1.3057709054867608	16.49289	4.061144
1.3232988057280106	22.139254	4.705237
1.3408267369315112	27.084797	5.2043056
1.358354699507526	30.910892	5.5597563
1.3758826938663256	34.877495	5.905717
1.3934107204181858	36.811058	6.0672116
1.410938779573391	37.143684	6.094562
1.4284668717422309	37.775745	6.146198
1.4459949973350033	37.32357	6.109302
1.4635231567620117	37.691452	6.1393366
1.4810513504335687	37.5426	6.1272016
1.4985795787599925	37.2397	6.102434
1.5161078421516088	36.46023	6.038231
1.5336361410187505	34.82189	5.9010077
1.5511644757717598	34.549873	5.877914
1.5686928468209842	35.298077	5.9412184
1.58622125457678	36.217728	6.0181165
1.6037496994495108	37.23764	6.1022654
1.621278181849548	36.725395	6.0601482
1.6388067021872719	37.467346	6.1210575
1.6563352608730693	37.12425	6.092967
1.673863858317336	36.35844	6.029796
1.6913924949304753	35.598732	5.9664674
1.7089211711228998	34.391365	5.864415
1.7264498873050296	33.489204	5.786986
1.7439786438872935	32.728214	5.7208576
1.7615074412801288	31.719152	5.631976
1.779036279893981	31.266853	5.591677
1.796565160139305	30.356083	5.5096354
1.814094082426564	29.790327	5.4580517
1.8316230471662298	29.29953	5.4129043
1.849152054768784	28.165064	5.307077
1.8666811056447168	27.27225	5.222284
1.8842102002045273	26.319277	5.130232
1.901739338858724	25.689014	5.0684333
1.9192685220178245	25.578613	5.0575304
1.9367977500923557	25.00809	5.0008087
1.9543270234928547	24.666052	4.966493
1.971856342629867	23.715744	4.869881
1.9893857079139496	23.174995	4.8140416
2.006915119755667	22.677223	4.7620606
2.0244445785655945	22.271057	4.719222
2.0419740847543175	21.95465	4.685579
2.0595036387324317	21.752048	4.663909
2.0770332409105414	21.199873	4.604332
2.094562891699263	20.619545	4.540875
2.1120925915092217	19.763416	4.445606
2.129622340751053	19.270638	4.3898335
2.1471521398354043	187.60542	13.696913
2.1646819891729323	443.98358	21.070917
2.182211889174303	440.23788	20.981846
2.1997418402501974	452.65112	21.275599
2.2172718428113023	432.6621	20.800531
2.234801897268317	320.75543	17.909647
2.2523320040319548	17.182348	4.1451597
2.269862163512935	16.893919	4.1102214
2.287392376121992	16.445017	4.0552454
2.304922642269869	16.114769	4.0143204
2.322452962367322	15.858714	3.9823
2.3399833368251164	15.490592	3.935809
2.357513766054032	15.288276	3.9100225
2.3750442504648586	15.025629	3.8762906
2.3925747904683963	14.753179	3.8409867
2.410105386475459	14.490319	3.806615
2.4276360388968707	14.185409	3.7663522
2.445166748143469	14.02589	3.7451155
2.4626975146261025	13.825998	3.7183328
2.4802283387556323	13.64837	3.69437
2.4977592209429305	13.167958	3.6287682
2.5152901615988825	12.77139	3.573708
2.5328211611343865	12.585663	3.5476277
2.5503522199603523	12.519936	3.538352
2.5678833384877024	12.322926	3.5104024
2.5854145171273712	12.045437	3.4706538
2.6029457562903064	11.752128	3.4281375
2.620477056387469	11.687091	3.4186387
2.6380084178298326	11.354676	3.3696702
2.655539841028383	11.124356	3.3353195
2.673071326394119	10.8855915	3.299332
2.6906028743380523	10.807255	3.2874389
2.708134485271211	10.814586	3.2885537
2.7256661596046325	10.7224245	3.2745113
2.743197897749369	10.569489	3.251075
2.760729700116486	10.414543	3.227157
2.778261567117063	10.221378	3.197089
2.795793499162193	10.1755705	3.189917
2.8133254966629817	10.010542	3.163944
2.830857560030551	9.705042	3.1152916
2.8483896896760337	9.5978985	3.0980475
2.865921886010578	9.483328	3.0795012
2.883454149445347	9.442794	3.072913
2.9009864803915177	9.282067	3.0466485
2.91851887926028	9.025837	3.004303
2.9360513464628384	8.929987	2.9883084
2.953583882410413	8.897139	2.9828072
2.9711164875142373	8.85379	2.9755318
2.9886491621855606	8.685023	2.9470363
3.0061819068356455	8.613377	2.9348555
3.023714721875769	8.580639	2.9292727
3.041247607717225	8.42887	2.9032516
3.0587805647713213	8.363765	2.8920174
3.0763135934493806	8.380184	2.8948548
3.0938466941627407	8.305318	2.8818948
3.1113798673227544	8.118017	2.8492134
3.1289131133407904	7.936931	2.817256
3.1464464326282315	7.9208055	2.8143926
3.1639798255964786	7.899651	2.8106318
3.1815132926569443	7.8391986	2.799857
3.1990468342210603	7.633981	2.762966
3.216580450700272	7.3734016	2.715401
3.2341141425060416	7.193119	2.681999
3.251647910049847	7.183296	2.6801672
3.2691817537431813	7.0779233	2.6604366
3.286715673997555	7.1129203	2.6670058
3.3042496712244938	6.96962	2.640004
3.32178374583554	6.8653183	2.6201751
3.339317898242251	6.85246	2.6177204
3.3568521288562034	6.7724953	2.6024017
3.3743864380889876	6.83211	2.6138306
3.3919208263522127	6.8674026	2.620573
3.4094552940575023	6.8030224	2.6082604
3.4269898416164972	6.5681005	2.5628304
3.444524469440858	6.4330506	2.536346
3.4620591779422587	6.402695	2.5303547
3.479593967532391	6.446565	2.5390086
3.4971288386229658	6.4258127	2.5349188
3.5146637916257086	6.429421	2.5356302
3.5321988269523628	6.374519	2.524781
3.5497339450146903	6.4133644	2.5324621
3.5672691462244708	6.272299	2.5044558
3.5848044309934988	6.1008744	2.4699948
3.60233979973359	6.105816	2.470995
3.619875252856575	6.124697	2.4748125
3.6374107907743034	6.232093	2.496416
3.6549464138986427	6.3004985	2.5100794
3.6724821226414788	6.2532015	2.5006402
3.690017917414714	6.3511066	2.5201402
3.7075537986302702	6.2851577	2.5070217
3.7250897667000857	6.3729253	2.5244653
3.7426258220361235	6.4561934	2.540904
3.7601619650503553	6.694605	2.5873935
3.777698196154779	7.2241035	2.6877692
3.7952345157614067	8.120128	2.8495839
3.8127709242822716	8.831499	2.9717839
3.830307422129425	10.7071495	3.2721782
3.847844009714936	29.629894	5.443335
3.8653806874508954	97.31173	9.864671
3.882917455749409	96.78541	9.837957
3.900454315022606	96.79808	9.838601
3.917991265682631	41.2935	6.426002
3.9355283081416506	10.937409	3.3071754
3.9530654428118495	8.686999	2.9473715
3.970602670105433	7.43341	2.726428
3.9881399904346244	6.505849	2.5506566
4.005677404211669	6.453993	2.540471
4.023214911848827	6.356563	2.5212226
4.0407525137583855	6.385993	2.5270522
4.058290210352644	6.3674393	2.5233786
4.075828002043927	6.3188167	2.5137258
4.0933658892445814	6.2687	2.5037372
4.110903872366966	6.3135185	2.5126717
4.128441951823468	6.2082	2.491626
4.145980128026488	6.207351	2.4914556
4.163518401388452	6.1433315	2.4785745
4.181056772321807	6.1532507	2.4805746
4.1985952412390155	6.2219563	2.494385
4.216133808552567	6.257334	2.5014665
4.233672474674966	6.3277516	2.5155022
4.251211240018741	6.4407587	2.537865
4.268750104996445	6.6767745	2.5839455
4.286289070020643	7.5477543	2.7473176
4.303828135503928	9.228441	3.037835
4.3213673018589125	29.490334	5.4305005
4.3389065694982305	90.48726	9.512479
4.356445938834537	165.67557	12.871502
4.3739854102805085	171.48059	13.095059
4.391524984248844	172.37717	13.129249
4.409064661152262	136.36499	11.677542
4.426604441403504	96.63508	9.830315
4.444144325415337	75.57399	8.69333
4.461684313600543	21.6794	4.656114
4.47922440637193	21.948235	4.684894
4.496764604142329	20.101082	4.483423
4.5143049073245916	18.370848	4.286123
4.531845316331589	16.229774	4.0286193
4.5493858315762195	13.65739	3.6955905
4.566926453471405	11.438616	3.3821023
4.584467182430081	9.597841	3.0980382
4.602008018865218	8.358059	2.8910308
4.619548963189798	7.6314254	2.7625034
4.637090015816834	7.0389066	2.6530938
4.654631177159353	6.764008	2.6007707
4.672172447630417	6.475981	2.544795
4.689713827643102	6.23905	2.497809
4.7072553176105085	6.0356617	2.4567583
4.724796917945764	5.850371	2.418754
4.742338629062015	5.767814	2.4016273
4.759880451372434	5.644524	2.3758206
4.777422385290215	5.5840077	2.3630505
4.794964431228581	5.5757585	2.3613043
4.812506589600768	5.680568	2.3833942
4.830048860820047	5.7227693	2.392231
4.847591245299709	5.7536206	2.3986707
4.8651337434530655	5.6441283	2.3757374
4.882676355693457	5.5881805	2.3639333
4.900219082434242	5.5241714	2.3503556
4.917761924088813	5.5157056	2.348554
4.935304881070575	5.5302863	2.351656
4.952847953792969	5.542898	2.354336
4.970391142669449	5.5738907	2.360909
4.9879344481135055	5.5470886	2.3552258
5.005477870538642	5.5593963	2.3578372
5.023021410358394	5.5830503	2.3628478
5.040565067986324	5.460064	2.336678
5.05810884383601	5.3719754	2.3177521
5.075652738321066	5.317542	2.3059797
5.09319675185512	5.318403	2.3061662
5.110740884851836	5.346774	2.3123093
5.128285137724894	5.3157377	2.3055885
5.145829510888007	5.34511	2.3119495
5.163374004754908	5.291011	2.3002198
5.1809186197393595	5.2936735	2.3007984
5.198463356255145	5.301948	2.3025959
5.216008214716077	5.31227	2.3048363
5.233553195535998	5.326583	2.307939
5.251098299128764	5.330913	2.308877
5.268643525908272	5.319176	2.306334
5.286188876288432	5.3383093	2.3104782
5.3037343506831895	5.34056	2.310965
5.32127994950651	5.3568864	2.3144948
5.3388256731723915	5.286454	2.2992291
5.356371522094851	5.2783914	2.297475
5.373917496687938	5.280253	2.2978802
5.391463597365729	5.222884	2.285363
5.40900982454232	5.1908207	2.2783372
5.426556178631843	5.2033052	2.2810755
5.444102660048449	5.227028	2.2862694
5.4616492692063225	5.3016224	2.3025253
5.479196006519669	5.2831855	2.2985182
5.496742872402727	5.26468	2.2944891
5.514289867269756	5.2005496	2.2804713
5.531836991535049	5.186646	2.277421
5.549384245612924	5.12919	2.2647715
5.566931629917724	5.0759525	2.2529874
5.584479144863822	5.0636907	2.2502646
5.6020267908656205	5.0434833	2.24577
5.619574568337545	5.106539	2.2597651
5.637122477694054	5.0967355	2.257595
5.654670519349629	5.085335	2.2550688
5.672218693718784	5.0462747	2.2463915
5.689767001216059	5.0584393	2.2490973
5.707315442256021	5.0564857	2.2486632
5.724864017253266	5.111838	2.2609375
5.7424127266224225	5.1431417	2.2678497
5.75996157077814	5.123956	2.2636158
5.777510550135105	5.147266	2.2687588
5.795059665108022	5.1021395	2.2587917
5.812608916111639	5.181909	2.2763808
5.830158303560715	5.2474184	2.2907245
5.847707827870055	5.243138	2.28979
5.86525748945448	5.2780304	2.2973964
5.8828072887288485	5.4463725	2.3337464
5.900357226108044	5.5792923	2.3620527
5.917907302006979	5.6362944	2.374088
5.9354575168406	6.1236753	2.474606
5.9530078710238765	6.7139945	2.5911376
5.970558364971812	7.259191	2.6942885
5.988108999099438	7.576606	2.7525635
6.005659773821818	8.075411	2.8417268
6.023210689554039	7.9232063	2.814819
6.040761746711227	8.355755	2.8906322
6.058312945708531	7.6522965	2.7662785
6.075864286961132	7.169187	2.6775339
6.093415770884244	6.5323453	2.5558453
6.1109673978931065	6.0053954	2.4505908
6.128519168402993	5.4619064	2.3370721
6.146071082829204	5.288343	2.2996397
6.163623141587075	5.201102	2.2805924
6.181175345091969	5.1773	2.2753682
6.198727693759281	5.156536	2.2708008
6.216280188004435	5.171963	2.274195
6.233832828242885	5.1197257	2.262681
6.251385614890126	5.1259007	2.2640452
6.268938548361669	5.0572248	2.2488275
6.286491629073067	4.9526443	2.2254539
6.304044857439898	4.940621	2.2227507
6.321598233877777	4.936467	2.2218163
6.339151758802344	4.9947953	2.2349038
6.356705432629277	4.957089	2.226452
6.37425925577428	5.0381465	2.2445817
6.391813228653095	5.020598	2.240669
6.409367351681486	5.0041895	2.2370045
6.426921625275259	4.919607	2.2180188
6.44447604985025	4.863273	2.205283
6.46203062582232	4.848372	2.201902
6.47958535360737	4.944483	2.2236192
6.497140233621328	4.9756136	2.2306085
6.514695266280161	4.985223	2.2327611
6.532250451999859	4.990047	2.2338414
6.549805791196454	4.965049	2.228239
6.567361284286002	4.8905244	2.211453
6.584916931684597	4.9107366	2.2160182
6.602472733808367	4.8713155	2.2071056
6.6200286910734665	4.9589934	2.2268798
6.637584803896092	4.925248	2.21929
6.655141072692462	4.9504576	2.2249625
6.672697497878842	5.0026774	2.2366667
6.690254079871514	5.053564	2.2480133
6.707810819086808	5.0298824	2.24274
6.725367715941078	5.0550113	2.2483351
6.742924770850719	5.049103	2.247021
6.760481984232151	5.0104675	2.2384074
6.778039356501836	4.9745464	2.230369
6.795596888076266	4.9302397	2.2204144
6.813154579371963	4.967727	2.2288399
6.830712430805492	4.954655	2.2259054
6.84827044279344	4.9781146	2.231169
6.865828615752445	4.966399	2.2285419
6.883386950099159	4.9754605	2.2305741
6.900945446250287	4.9437466	2.2234538
6.918504104622553	4.988654	2.2335296
6.936062925632727	5.0006657	2.2362168
6.953621909697607	5.0392714	2.244832
6.971181057234028	5.078621	2.2535796
6.988740368658859	5.1171837	2.2621193
7.006299844389007	5.1775103	2.2754142
7.023859484841407	5.257134	2.292844
7.041419290433036	5.3305907	2.3088071
7.058979261580902	5.4592505	2.336504
7.0765393987020495	5.617235	2.3700707
7.094099702213559	5.9572177	2.4407413
7.111660172532549	6.2933054	2.508646
7.129220810076164	6.760586	2.6001127
7.146781615261595	7.529721	2.7440336
7.16434258850606	7.7725344	2.7879264
7.181903730226821	8.172821	2.8588147
7.1994650408411704	8.157528	2.8561387
7.217026520766437	8.268905	2.8755703
7.234588170419983	8.465854	2.909614
7.252149990219215	8.341851	2.8882263
7.269711980581568	8.18256	2.8605175
7.2872741419245175	7.995793	2.8276832
7.304836474665574	7.5909843	2.7551742
7.322398979222286	7.347666	2.7106578
7.339961656012233	7.0935717	2.663376
7.357524505453039	6.7297645	2.594179
7.375087527962357	6.497477	2.5490148
7.392650723957886	6.228173	2.4956307
7.410214093857353	5.953642	2.4400086
7.427777638078528	5.729297	2.393595
7.445341357039213	5.520436	2.3495607
7.4629052511572525	5.378275	2.3191109
7.480469320850524	5.3067584	2.3036404
7.498033566536948	5.2281127	2.2865067
7.5155979886344735	5.1831098	2.2766445
7.5331625875610975	5.1953583	2.2793329
7.550727363734844	5.2499213	2.2912707
7.568292317573788	5.2664223	2.2948687
7.585857449496025	5.20781	2.2820625
7.603422759919705	5.0877295	2.2555995
7.620988249263007	5.0871115	2.2554626
7.638553917944147	5.116288	2.2619214
7.656119766381391	5.125829	2.2640295
7.673685794993023	5.1453805	2.2683432
7.691252004197388	5.1652656	2.272722
7.70881839441285	5.1968727	2.279665
7.726384966057826	5.2361574	2.2882652
7.743951719550762	5.204122	2.2812545
7.761518655310149	5.2321253	2.287384
7.779085773754511	5.2866387	2.2992692
7.796653075302419	5.260676	2.2936163
7.814220560372475	5.2418017	2.289498
7.831788229383323	5.206653	2.281809
7.8493560827536495	5.269059	2.295443
7.866924120902174	5.308174	2.3039474
7.884492344247663	5.2807946	2.297998
7.9020607532089135	5.1865225	2.2773938
7.919629348204771	5.2215114	2.2850626
7.937198129654115	5.3456373	2.3120635
7.954767097975865	5.362378	2.315681
7.972336253588986	5.3327656	2.3092782
7.989905596912472	5.2651644	2.2945945
8.007475128365371	5.2698755	2.295621
8.025044848366756	5.3873158	2.3210592
8.042614757335754	5.538627	2.3534288
8.060184855691523	5.6719146	2.3815782
8.07775514385327	5.818878	2.412235
8.095325622240228	5.896478	2.4282665
8.112896291271687	5.897554	2.428488
8.130467151366968	5.8636074	2.4214888
8.148038202945436	5.910567	2.4311657
8.165609446426497	5.9101853	2.4310873
8.183180882229594	5.949758	2.4392126
8.200752510774217	5.9420543	2.437633
8.218324332479893	5.9928584	2.4480314
8.235896347766193	5.9823256	2.4458792
8.253468557052724	5.9626584	2.4418554
8.27104096075914	5.977994	2.4449937
8.288613559305137	6.0270643	2.455008
8.306186353110448	6.1094155	2.471723
8.32375934259485	6.1659336	2.4831297
8.341332528178162	6.2104597	2.4920795
8.358905910280246	6.237881	2.497575
8.376479489321003	6.2428865	2.4985769
8.394053265720377	6.2501893	2.500038
8.411627239898356	6.2751303	2.505021
8.42920141227497	6.2417946	2.4983585
8.44677578327029	6.266928	2.5033834
8.464350353304427	6.2311068	2.4962184
8.48192512279754	6.191069	2.488186
8.499500092169827	6.1145577	2.472763
8.51707526184153	6.131589	2.4762046
8.534650632232934	6.12176	2.474219
8.552226203764365	6.1091146	2.4716623
8.569801976856192	6.10888	2.4716148
8.587377951928834	6.165294	2.483001
8.60495412940274	6.1783853	2.4856358
8.622530509698416	6.269497	2.5038962
8.6401070932364	6.425124	2.534783
8.657683880437283	6.4947815	2.5484862
8.675260871721695	6.6108694	2.571161
8.692838067510303	6.728112	2.5938604
8.710415468223834	6.8808894	2.6231449
8.727993074283043	7.040665	2.6534252
8.745570886108737	7.0442705	2.6541045
8.763148904121765	7.1011925	2.6648064
8.78072712874302	7.1199527	2.668324
8.798305560393441	7.446616	2.728849
8.815884199494006	7.610373	2.7586904
8.833463046465745	7.739333	2.7819657
8.851042101729728	7.804153	2.7935915
8.86862136570707	8.102728	2.846529
8.886200838818924	8.205261	2.8644826
8.903780521486505	8.309014	2.8825362
8.921360414131055	8.478951	2.9118638
8.938940517173874	8.623068	2.936506
8.956520831036297	8.780268	2.9631517
8.97410135613971	9.017648	3.00294
8.99168209290554	9.168448	3.0279446
9.009263041755265	9.421667	3.0694735
9.026844203110405	9.674837	3.11044
9.044425577392525	9.836351	3.1362958
9.062007165023239	9.930698	3.1513011
9.079588966424197	10.069607	3.1732643
9.097170982017108	10.100179	3.178078
9.11475321222372	10.917432	3.3041537
9.132335657465825	11.7546215	3.4285014
9.149918318165264	11.919883	3.4525182
9.167501194743924	12.460431	3.5299337
9.18508428762374	12.211781	3.494536
9.202667597226693	12.150801	3.4857998
9.220251123974803	11.8124485	3.4369242
9.237834868290143	11.508126	3.3923628
9.255418830594836	11.365579	3.3712873
9.273003011311046	10.933286	3.306552
9.290587410860985	10.773975	3.2823734
9.308172029666911	10.222221	3.1972208
9.32575686815113	9.928991	3.1510303
9.343341926735997	8.690876	2.9480293
9.360927205843916	8.391298	2.8967738
9.378512705897327	8.291293	2.8794606
9.396098427318728	8.07768	2.842126
9.413684370530664	7.9747868	2.8239665
9.431270535955722	7.8542995	2.8025522
9.448856924016539	7.7683454	2.7871752
9.466443535135806	7.6273966	2.761774
9.484030369736251	7.5822225	2.7535837
9.501617428240658	7.5782423	2.7528608
9.519204711071852	7.648116	2.7655227
9.536792218652714	7.719278	2.778359
9.55437995140617	7.7489367	2.7836912
9.571967909755191	7.752327	2.7843
9.589556094122802	7.755214	2.7848184
9.60714450493207	7.880218	2.8071725
9.624733142606116	7.9006057	2.8108015
9.642322007568108	7.896962	2.8101535
9.659911100241267	7.852797	2.8022842
9.677500421048851	7.9285164	2.815762
9.695089970414175	7.9752393	2.8240466
9.712679748760609	8.052123	2.8376262
9.730269756511557	8.083612	2.8431695
9.747859994090492	8.087329	2.843823
9.765450461920915	8.046435	2.836624
9.78304116042639	8.063914	2.8397033
9.800632090030527	8.079154	2.8423853
9.81822325115699	8.129026	2.8511448
9.835814644229481	8.21672	2.866482
9.853406269671762	8.204834	2.8644083
9.870998127907646	8.241797	2.8708532
9.888590219360985	8.21422	2.866046
9.906182544455698	8.251734	2.8725832
9.923775103615734	8.236205	2.869879
9.941367897265108	8.263709	2.8746667
9.958960925827878	8.263398	2.8746128
9.97655418972816	8.261404	2.874266
9.994147689390106	8.200413	2.8636363
10.011741425237934	8.199474	2.8634725
10.029335397695904	8.178309	2.8597744
10.04692960718833	8.308825	2.8825033
10.06452405413958	8.359322	2.8912492
10.082118738974064	8.310218	2.8827448
10.099713662116246	8.168758	2.858104
10.117308823990651	8.098598	2.8458035
10.134904225021844	8.11523	2.8487241
10.152499865634445	8.113137	2.848357
10.170095746253125	8.051628	2.8375392
10.18769186730261	8.015267	2.8311248
10.205288229207675	8.054817	2.838101
10.222884832393145	8.08485	2.8433871
10.2404816772839	8.078918	2.8423438
10.258078764304868	7.981129	2.8250892
10.275676093881035	7.9067645	2.811897
10.293273666437438	7.91154	2.812746
10.310871482399158	7.997874	2.8280513
10.32846954219134	8.075873	2.841808
10.346067846239173	8.025811	2.8329864
10.363666394967908	7.9728837	2.8236296
10.38126518880283	8.006044	2.8294954
10.398864228169298	8.074579	2.8415804
10.416463513492713	8.151979	2.8551672
10.434063045198531	8.085772	2.843549
10.451662823712262	8.056444	2.8383875
10.469262849459467	8.131954	2.851658
10.486863122865758	8.109954	2.847798
10.504463644356806	8.1446085	2.853876
10.522064414358338	8.133954	2.8520088
10.539665433296118	8.044953	2.8363626
10.557266701595987	7.966732	2.82254
10.574868219683818	7.8071914	2.794135
10.592469987985552	7.643771	2.7647371
10.610072006927185	7.489414	2.7366793
10.627674276934751	7.401793	2.7206237
10.64527679843435	7.2926145	2.700484
10.662879571852143	7.206765	2.684542
10.680482597614331	7.1242743	2.6691337
10.698085876147173	7.017411	2.6490397
10.715689407876988	6.8856936	2.6240604
10.733293193230146	6.7747655	2.602838
10.750897232633072	6.7125707	2.590863
10.76850152651225	6.704995	2.5894005
10.786106075294207	6.6158705	2.5721335
10.803710879405534	6.506478	2.5507798
10.821315939272877	6.3762326	2.5251203
10.83892125532294	6.329035	2.5157573
10.856526827982472	6.2880006	2.5075886
10.874132657678285	6.2404523	2.4980898
10.891738744837243	6.145186	2.4789486
10.909345089886271	6.0638423	2.462487
10.926951693252343	6.0468774	2.45904
10.944558555362494	5.9772105	2.4448335
10.96216567664381	5.883675	2.425629
10.979773057523436	5.763922	2.400817
10.997380698428573	5.6523876	2.377475
11.014988599786477	5.587869	2.3638675
11.032596762024461	5.5964975	2.3656917
11.050205185569892	5.602521	2.3669646
11.067813870850198	5.62841	2.372427
11.085422818292859	5.5705605	2.3602035
11.10303202832541	5.4407105	2.3325331
11.120641501375454	5.323816	2.3073397
11.138251237870636	5.225392	2.2859116
11.155861238238671	5.197599	2.2798243
11.173471502907317	5.148952	2.2691302
11.191082032304402	5.062355	2.2499678
11.208692826857805	5.0185122	2.2402036
11.226303886995465	4.974143	2.2302787
11.243915213145371	4.9581156	2.2266827
11.261526805735578	4.9087462	2.215569
11.279138665194196	4.9042478	2.2145536
11.296750791949393	4.8488736	2.2020159
11.314363186429393	4.769556	2.1839314
11.331975849062479	4.680194	2.1633756
11.34958878027699	4.6771164	2.1626642
11.36720198050133	4.5907693	2.1426082
11.384815450163948	4.5021315	2.1218226
11.402429189693366	4.4150476	2.1012015
11.420043199518153	4.362897	2.088755
11.437657480066942	63.38246	7.9613104
11.455272031768422	85.11095	9.225559
11.472886855051353	107.540215	10.37016
11.490501950344528	99.172714	9.9585495
11.508117318076819	84.5511	9.195168
11.52573295867715	45.934486	6.7774987
11.543348872574514	4.1942058	2.047976
11.560965060197946	4.0862794	2.0214548
11.57858152197655	3.9948726	1.9987178
11.59619825833949	3.9410448	1.9852065
11.613815269715985	3.916407	1.9789914
11.631432556535323	38.431446	6.1993103
11.649050119226837	82.9936	9.110083
11.666667958219929	93.39742	9.664234
11.68428607394406	107.71126	10.378404
11.701904466828756	82.54865	9.0856285
11.719523137303586	65.414955	8.087952
11.737142085798196	4.5928693	2.143098
11.754761312742286	3.7244585	1.9298856
11.772380818565619	3.6957455	1.9224322
11.790000603698015	3.6734617	1.9166276
11.80762066856935	3.6180913	1.9021281
11.825241013609572	3.5836205	1.8930453
11.842861639248683	3.5822353	1.8926795
11.860482545916748	3.5473735	1.8834473
11.878103734043883	3.5020792	1.8713843
11.895725204060282	3.4441016	1.8558291
11.91334695639619	3.4134395	1.8475496
11.930968991481919	3.3657598	1.8346007
11.948591309747824	3.3200243	1.8220934
11.966213911624347	3.2935944	1.8148263
11.98383679754198	3.289599	1.8137251
12.001459967931268	3.252892	1.8035775
12.019083423222835	3.2708712	1.808555
12.036707163847352	3.2399871	1.7999964
12.05433119023556	3.2173274	1.793691
12.071955502818259	3.2157245	1.7932441
12.089580102026313	3.156774	1.7767313
12.107204988290643	3.1696763	1.7803584
12.12483016204224	3.1424627	1.7726992
12.142455623712152	3.12793	1.7685955
12.16008137373149	3.0568874	1.7483957
12.177707412531431	3.0196908	1.7377257
12.19533374054321	3.0168018	1.7368942
12.212960358198126	3.0333247	1.7416443
12.230587265927545	3.0437026	1.744621
12.248214464162889	3.0428448	1.7443752
12.265841953335649	3.0503545	1.7465264
12.283469733877375	3.0108657	1.7351847
12.301097806219685	3.0099175	1.7349113
12.31872617079425	2.9891138	1.7289053
12.336354828032825	2.9912152	1.729513
12.353983778367205	2.955774	1.7192365
12.371613022229262	2.9387727	1.7142849
12.389242560050928	2.9338574	1.7128507
12.406872392264201	2.8858266	1.6987721
12.424502519301143	2.835426	1.6838723
12.442132941593874	2.8092403	1.6760789
12.459763659574586	2.816168	1.6781442
12.477394673675532	2.806575	1.6752836
12.49502598432903	2.794804	1.6717668
12.51265759196746	2.823642	1.6803696
12.530289497023267	2.8006783	1.6735227
12.547921699928967	2.7799332	1.6673132
12.565554201117134	2.7794433	1.6671662
12.583187001020404	2.7567408	1.6603435
12.600820100071486	2.740372	1.6554068
12.618453498703152	2.7231035	1.6501828
12.636087197348235	2.7268376	1.6513139
12.65372119643964	2.7553146	1.659914
12.671355496410326	2.8091972	1.676066
12.68899009769333	2.8440049	1.6864178
12.706625000721749	2.8447497	1.6866386
12.724260205928752	2.8588505	1.6908135
12.741895713747551	2.839626	1.685119
12.759531524611454	2.8957484	1.7016898
12.777167638953818	2.939189	1.7144063
12.794804057208072	2.9840753	1.7274476
12.812440779807702	3.0085278	1.7345108
12.830077807186271	3.1939158	1.787153
12.847715139777405	3.2856097	1.812625
12.865352778014795	3.4926353	1.8688593
12.882990722332197	3.5854936	1.8935399
12.90062897316344	3.5861607	1.8937161
12.918267530942412	3.6512496	1.9108243
12.935906396103071	3.548772	1.8838185
12.953545569079449	3.7508943	1.9367225
12.971185050305628	3.5493069	1.8839604
12.988824840215775	3.5413911	1.8818585
13.006464939244115	3.4844158	1.866659
13.024105347824943	3.3408465	1.8277982
13.041746066392617	3.4396713	1.8546351
13.05938709538157	3.31219	1.8199424
13.077028435226296	3.358506	1.8326226
13.094670086361363	3.2767131	1.8101693
13.112312049221401	3.1639884	1.7787603
13.129954324241112	3.0490956	1.746166
13.147596911855258	2.8613346	1.691548
13.165239812498685	2.850494	1.6883405
13.182883026606293	2.790655	1.6705253
13.200526554613058	2.7495396	1.6581736
13.218170396954017	2.673601	1.6351149
13.235814554064284	2.6732907	1.6350201
13.253459026379034	2.6901007	1.6401527
13.271103814333523	2.7016883	1.6436813
13.288748918363058	2.6954257	1.6417751
13.306394338903031	2.7132738	1.6472018
13.32404007638889	2.7021375	1.6438179
13.341686131256164	2.6981997	1.6426197
13.359332503940449	2.6119778	1.6161615
13.376979194877402	2.6193514	1.618441
13.394626204502751	2.6493223	1.6276739
13.412273533252307	2.715499	1.6478771
13.429921181561937	2.7170687	1.6483533
13.447569149867581	2.7092364	1.6459758
13.465217438605247	2.7095716	1.6460776
13.482866048211022	2.6531565	1.6288513
13.500514979121052	2.6463513	1.626761
13.518164231771568	2.611369	1.615973
13.535813806598844	2.651295	1.6282798
13.553463704039254	2.641917	1.6253974
13.571113924529229	2.6644387	1.6323109
13.588764468505275	2.7271104	1.6513965
13.606415336403956	2.7486389	1.657902
13.624066528661917	2.7443755	1.6566156
13.641718045715882	2.7837424	1.6684551
13.659369888002635	2.8628075	1.6919833
13.67702205595903	2.933424	1.7127241
13.694674550021993	2.9565957	1.7194754
13.712327370628532	2.9978714	1.7314363
13.729980518215713	3.102707	1.7614502
13.747633993220681	3.2143462	1.7928598
13.765287796080647	3.2559047	1.8044126
13.7829419272329	3.2625678	1.806258
13.800596387114801	3.2736783	1.8093309
13.818251176163775	3.3154805	1.8208461
13.835906294817324	3.3818896	1.8389914
13.853561743513023	3.4147727	1.8479104
13.871217522688525	3.4510174	1.8576914
13.888873632781538	3.4787288	1.8651351
13.906530074229858	3.5055857	1.8723209
13.92418684747135	3.531921	1.8793405
13.941843952943948	3.503945	1.8718828
13.959501391085665	3.4580605	1.8595861
13.977159162334578	3.411615	1.8470558
13.994817267128846	3.4032004	1.8447765
14.012475705906693	3.334031	1.825933
14.030134479106424	3.2316024	1.7976658
14.047793587166414	3.127291	1.7684149
14.065453030525108	3.0818195	1.7555112
14.083112809621026	2.996484	1.7310356
14.100772924892766	2.9578536	1.7198411
14.118433376778997	2.9160082	1.7076323
14.136094165718458	2.8500462	1.688208
14.153755292149969	2.7499533	1.6582983
14.171416756512416	2.618625	1.6182166
14.189078559244768	2.5544875	1.5982764
14.20674070078606	2.5140672	1.5855811
14.224403181575408	2.5087929	1.5839169
14.242066002051999	2.4706302	1.5718238
14.259729162655093	2.395074	1.5476027
14.277392663824022	2.3797927	1.5426576
14.295056505998208	2.4161136	1.5543853
14.312720689617128	2.4206636	1.5558482
14.330385215120348	2.4155614	1.5542077
14.348050082947497	2.3548384	1.5345483
14.3657152935383	2.3288176	1.5260464
14.383380847332528	2.325358	1.5249125
14.401046744770051	2.34352	1.5308559
14.418712986290798	2.3734653	1.5406055
14.436379572334793	2.372248	1.5402104
14.454046503342123	2.382671	1.5435903
14.471713779752946	2.4129243	1.553359
14.489381402007504	2.4460616	1.563989
14.507049370546113	2.4311912	1.5592277
14.524717685809168	2.3472662	1.5320791
14.542386348237134	2.3169546	1.5221546
14.560055358270553	2.3302646	1.5265204
14.577724716350051	2.4003456	1.5493048
14.595394422916325	2.4444752	1.5634817
14.61306447841015	2.468474	1.5711378
14.63073488327237	2.4467726	1.5642163
14.648405637943917	2.4622202	1.5691463
14.6660767428658	2.4733472	1.5726879
14.683748198479094	2.4995806	1.5810062
14.701420005224954	2.5122242	1.5849998
14.719092163544628	2.5895436	1.6092058
14.73676467387942	2.6341262	1.6229992
14.754437536670727	2.6875744	1.6393824
14.772110752360014	2.6929576	1.6410234
14.78978432138882	2.6793938	1.6368854
14.807458244198777	2.6490593	1.627593
14.82513252123159	2.6198945	1.6186088
14.842807152929028	2.665506	1.6326377
14.860482139732962	2.6669176	1.63307
14.87815748208531	2.6588728	1.6306051
14.8958331804281	2.6744795	1.6353836
14.91350923520342	2.6502051	1.6279451
14.931185646853438	2.666842	1.6330469
14.948862415820408	2.657535	1.6301948
14.966539542546656	2.6666253	1.6329805
14.98421702747459	2.6262348	1.6205661
15.001894871046696	2.6397185	1.624721
15.019573073705542	2.6546226	1.6293012
15.037251635893766	2.6526508	1.6286961
15.054930558054092	2.6955254	1.6418055
15.072609840629323	2.7628062	1.6621691
15.090289484062351	2.9005976	1.703114
15.107969488796124	3.1937048	1.787094
15.125649855273691	3.6154804	1.9014417
15.14333058393817	4.13334	2.0330617
15.161011675232768	5.084255	2.2548294
15.17869312960076	6.448387	2.5393674
15.196374947485506	8.315234	2.8836148
15.214057129330447	11.315164	3.363802
15.231739675579114	15.782745	3.9727504
15.249422586675102	20.470165	4.524397
15.267105863062092	23.339676	4.8311152
15.284789505183847	23.492983	4.8469563
15.302473513484218	21.335447	4.619031
15.320157888407127	17.848969	4.224804
15.337842630396578	13.837822	3.7199223
15.355527739896656	10.789105	3.2846773
15.37321321735153	8.520133	2.9189267
15.39089906320545	6.335644	2.5170705
15.408585277902748	4.8402452	2.2000558
15.42627186188783	3.7852705	1.9455771
15.443958815605198	3.304385	1.8177967
15.461646139499424	3.0129406	1.7357824
15.479333834015168	2.8563576	1.6900762
15.497021899597165	2.7863433	1.6692344
15.514710336690234	2.7237911	1.6503912
15.53239914573928	2.673465	1.6350734
15.550088327189297	2.620745	1.6188715
15.567777881485336	2.5654972	1.601717
15.58546780907256	2.4939332	1.5792192
15.6031581103962	2.422546	1.556453
15.620848785901568	2.3762815	1.5415192
15.638539836034063	2.39908	1.5488964
15.656231261239173	2.4044485	1.5506284
15.673923061962451	2.4029164	1.5501343
15.691615238649552	2.4036498	1.5503708
15.709307791746202	2.4313087	1.5592655
15.727000721698221	2.4578657	1.5677582
15.744694028951498	2.45277	1.5661322
15.76238771395202	2.408168	1.5518273
15.780081777145844	2.3922665	1.5466954
15.797776218979125	2.3864863	1.5448257
15.815471039898094	2.3828454	1.5436468
15.833166240349064	2.3684375	1.5389729
15.850861820778437	2.3554158	1.5347364
15.868557781632699	2.3241909	1.5245297
15.886254123358412	2.3262725	1.5252123
15.903950846402232	2.3585749	1.5357653
15.921647951210897	2.3579044	1.5355469
15.939345438231225	2.341406	1.5301654
15.957043307910133	2.3601	1.5362617
15.974741560694602	2.4142451	1.5537841
15.992440197031714	2.448487	1.5647643
16.01013921736862	2.4226665	1.5564917
16.02783862215259	2.3765578	1.5416088
16.045538411830933	2.3893204	1.5457426
16.06323858685107	2.3771558	1.5418028
16.080939147660512	2.3428423	1.5306346
16.09864009470684	2.3197532	1.5230736
16.11634142843774	2.3267	1.5253524
16.134043149300954	2.3714528	1.5399522
16.15174525774433	2.400096	1.5492243
16.169447754215817	2.4311223	1.5592057
16.18715063916342	2.4413772	1.5624907
16.204853913035244	2.462234	1.5691507
16.222557576279478	2.4611635	1.5688096
16.240261629344403	22.447765	4.7379074
16.257966072678386	42.974594	6.555501
16.275670906729868	38.068016	6.1699286
16.293376131947387	2.4454272	1.5637861
16.31108174877957	2.428082	1.5582304
16.328787757675133	2.4487903	1.564861
16.34649415908287	2.4687052	1.5712113
16.364200953451657	2.5242183	1.5887789
16.38190814123048	2.5468721	1.5958923
16.39961572286839	2.5879695	1.6087167
16.41732369881455	2.61687	1.6176742
16.43503206951817	2.6439724	1.6260296
16.45274083542859	2.7012918	1.6435608
16.47044999699522	2.7636983	1.6624374
16.488159554667558	2.847478	1.6874472
16.505869508895184	2.8824315	1.6977725
16.523579860127786	2.8784518	1.6966001
16.541290608815117	2.8949063	1.7014424
16.559001755407035	2.9384832	1.7142005
16.57671330035348	3.052761	1.7472153
16.59442524410448	3.1254573	1.7678963
16.61213758711015	3.1749673	1.7818438
16.629850329820705	3.2092826	1.791447
16.647563472686436	3.270425	1.8084316
16.665277016157724	3.3185158	1.8216794
16.682990960685053	3.3408687	1.8278043
16.70070530671898	3.320616	1.8222557
16.718420054710155	3.3753614	1.8372157
16.736135205109335	3.4522612	1.8580261
16.753850758367335	3.5298934	1.8788011
16.771566714935087	3.566583	1.8885399
16.789283075263597	3.6876214	1.920318
16.80699983980398	3.758959	1.9388036
16.82471700900741	3.8364418	1.9586837
16.84243458332518	3.8508666	1.9623625
16.860152563208665	3.867121	1.9664997
16.87787094910932	3.9227202	1.9805858
16.89558974147871	4.0015173	2.0003793
16.913308940768466	4.122392	2.0303676
16.931028547430333	4.2339034	2.057645
16.94874856191613	4.3005714	2.073782
16.966468984677785	4.334191	2.081872
16.98418981616729	4.339193	2.083073
17.00191105683676	4.4037223	2.0985048
17.019632707138374	4.423823	2.1032887
17.03735476752442	4.439994	2.1071293
17.05507723844728	4.466303	2.113363
17.072800120359403	4.5214276	2.126365
17.090523413713353	4.5923376	2.142974
17.108247118961785	4.59697	2.1440547
17.125971236557437	4.6052876	2.1459935
17.143695766953133	4.5924473	2.1429996
17.161420710601806	4.597285	2.144128
17.179146067956477	4.599231	2.1445818
17.19687183947025	4.616099	2.148511
17.21459802559634	4.6325736	2.1523414
17.232324626788028	4.6368017	2.1533234
17.25005164349871	4.57603	2.1391656
17.267779076181863	4.523349	2.1268165
17.285506925291074	4.4926825	2.1195948
17.30323519127999	4.4617515	2.1122859
17.320963874602384	4.5350976	2.129577
17.33869297571211	4.5495257	2.1329618
17.356422495063114	4.5266457	2.1275916
17.37415243310944	4.4645367	2.112945
17.391882790305218	4.4005013	2.097737
17.40961356710468	4.383809	2.0937548
17.42734476396215	4.410666	2.1001585
17.445076381332044	4.49259	2.119573
17.462808419668868	4.6033792	2.1455488
17.48054087942723	4.746763	2.178707
17.498273761061835	5.025043	2.2416608
17.51600706502747	5.5755734	2.3612652
17.533740791779024	6.2700477	2.5040064
17.551474941771485	7.7265553	2.779668
17.56920951545993	8.741851	2.9566622
17.586944513299528	10.695175	3.2703478
17.60467993574556	12.163406	3.4876075
17.622415783253373	13.578665	3.684924
17.64015205627843	14.780943	3.8445992
17.657888755276293	15.665371	3.9579504
17.675625880702604	16.203276	4.025329
17.69336343301311	16.04144	4.0051765
17.71110141266366	15.411027	3.925688
17.728839820110178	14.605174	3.8216717
17.746578655808705	13.925918	3.7317445
17.764317920215372	12.67704	3.5604832
17.7820576137864	11.322153	3.3648407
17.79979773697811	9.447534	3.073684
17.81753829024692	7.58087	2.753338
17.835279274049356	5.90615	2.430257
17.85302068884201	4.8723454	2.207339
17.870762535081607	4.2305293	2.0568252
17.888504813224934	3.8840802	1.970807
17.90624752372891	3.693706	1.9219017
17.923990667050536	3.5841367	1.8931817
17.941734243646895	3.5058498	1.8723915
17.959478253975185	3.4999595	1.8708179
17.9772226984927	3.4657013	1.8616394
17.994967577656833	3.4648736	1.861417
18.01271289192506	3.4021492	1.8444916
18.030458641754965	3.3638892	1.8340908
18.04820482760425	3.3431718	1.8284342
18.06595144993067	3.336303	1.8265549
18.083698509192125	3.289479	1.8136921
18.101446005846576	3.2120416	1.7922169
18.119193940352105	3.207045	1.7908225
18.136942313166887	3.191521	1.7864828
18.1546911247492	3.1697035	1.7803661
18.1724403755574	3.1372106	1.7712172
18.19019006604997	3.1000357	1.7606918
18.207940196685467	3.0692334	1.7519227
18.225690767922575	3.0160341	1.7366732
18.243441780220046	3.0196097	1.7377024
18.261193234036764	3.025482	1.7393912
18.278945129831676	3.0155973	1.7365476
18.29669746806386	3.0310855	1.7410012
18.314450249192483	3.0345845	1.742006
18.3322034736768	3.035159	1.7421708
18.349957141976184	3.0035942	1.733088
18.3677112545501	3.0298114	1.7406354
18.385465811858108	3.071305	1.7525139
18.403220814359884	3.0817237	1.7554839
18.420976262515172	3.10633	1.7624784
18.43873215678387	3.1402824	1.7720842
18.456488497625923	3.1611364	1.7779585
18.474245285501407	3.225382	1.7959349
18.492002520870486	3.2820234	1.8116356
18.50976020419343	3.3519714	1.830839
18.527518335930615	3.66894	1.9154477
18.545276916542516	4.262042	2.0644715
18.563035946489688	4.4125066	2.1005967
18.580795426232832	4.8119507	2.193616
18.598555356232698	4.711362	2.1705673
18.616315736950185	5.000786	2.2362437
18.63407656884626	4.611589	2.147461
18.65183785238201	4.828287	2.1973364
18.669599588018617	4.642082	2.1545491
18.68736177621737	4.6695423	2.1609123
18.705124417439652	4.6600566	2.1587164
18.72288751214696	4.469915	2.1142173
18.740651060800886	4.657449	2.1581123
18.758415063863115	4.388157	2.0947928
18.77617952179546	4.5325155	2.1289706
18.793944435059814	4.251487	2.0619135
18.811709804118184	4.277063	2.0681062
18.829475629432675	4.2512517	2.0618563
18.8472419114655	4.012391	2.0030954
18.86500865067897	4.017294	2.0043187
18.88277584753551	3.6828713	1.9190809
18.90054350249763	3.7656734	1.9405344
18.918311616027957	3.443755	1.8557357
18.936080188589226	3.334447	1.8260468
18.953849220644265	2.9651396	1.721958
18.971618712656007	2.7699907	1.6643289
18.9893886650875	2.7430196	1.6562064
19.007159078401887	7.9639673	2.82205
19.024929953062408	32.85356	5.7318025
19.042701289532435	32.76959	5.724473
19.060473088275405	25.302252	5.030134
19.07824534975489	2.5737455	1.6042898
19.096018074434568	2.57356	1.604232
19.113791262778197	2.5791962	1.6059877
19.13156491524966	2.5915654	1.609834
19.149339032312945	2.567491	1.6023393
19.167113614432136	2.5476274	1.596129
19.184888662071433	2.5146024	1.5857497
19.202664175695123	2.491806	1.5785456
19.220440155767623	2.482544	1.5756091
19.238216602753447	2.4889474	1.5776398
19.2559935171172	2.5086274	1.5838647
19.27377089932361	2.5318928	1.5911922
19.291548749837514	2.537901	1.5930791
19.309327069123835	2.521782	1.588012
19.32710585764763	2.4614656	1.5689058
19.344885115874032	2.4642632	1.5697972
19.362664844268313	2.447649	1.5644964
19.380445043295822	2.4691901	1.5713657
19.39822571342203	2.5047948	1.5826544
19.41600685511252	2.527333	1.5897588
19.43378846883297	2.51631	1.5862881
19.451570555049173	2.467173	1.5707238
19.469353114227037	2.448116	1.5646456
19.48713614683254	2.460473	1.5685896
19.50491965333182	2.475787	1.5734633
19.52270363419109	2.480078	1.5748264
19.540488089876686	2.5061402	1.5830793
19.55827302085503	2.4987655	1.5807484
19.576058427592674	2.4952433	1.579634
19.593844310556282	2.462985	1.56939
19.611630670212598	2.485634	1.5765893
19.629417507028506	2.4712734	1.5720284
19.64720482147098	2.479481	1.5746368
19.6649926140071	2.48517	1.5764421
19.682780885104084	2.503256	1.5821681
19.70056963522921	2.4825928	1.5756246
19.718358864849908	2.4747689	1.5731398
19.7361485744337	2.4568706	1.5674407
19.753938764448215	2.474611	1.5730896
19.771729435361202	2.477415	1.5739807
19.789520587640506	2.4660876	1.5703782
19.807312221754092	2.4496353	1.5651311
19.825104338170043	2.4754086	1.5733432
19.842896937356517	2.5260193	1.5893456
19.860690019781824	2.5308287	1.5908579
19.87848358591436	2.5087156	1.5838926
19.896277636222635	2.4967232	1.5801023
19.914072171175278	2.484786	1.5763204
19.931867191241015	2.448816	1.5648693
19.94966269688869	2.4453945	1.5637758
19.967458688587264	2.4327695	1.5597337
19.985255166805807	2.4339576	1.5601146
20.00305213201348	2.446341	1.5640783
20.020849584679578	2.4740307	1.5729052
20.038647525273507	2.4771109	1.573884
20.05644595426477	2.4368675	1.561047
20.07424487212299	2.4341936	1.5601902
20.092044279317903	2.4391265	1.5617703
20.109844176319353	2.4428475	1.5629611
20.127644563597304	2.435637	1.5606527
20.145445441621817	2.4079454	1.5517555
20.16324681086307	2.3878527	1.5452678
20.181048671791373	2.375772	1.541354
20.198851024877122	2.3784041	1.5422076
20.216653870590836	2.3654876	1.5380142
20.234457209403146	2.3964288	1.5480403
20.252261041784802	2.386081	1.5446944
20.270065368206662	2.3851614	1.5443968
20.287870189139685	2.388617	1.5455152
20.305675505054968	2.3794496	1.5425465
20.323481316423702	2.362428	1.5370191
20.341287623717207	2.3505952	1.5331651
20.359094427406884	2.3005018	1.5167406
20.376901727964288	2.304946	1.5182048
20.39470952586107	2.3415062	1.5301981
20.41251782156899	2.3841655	1.5440743
20.430326615559935	2.343294	1.5307821
20.448135908305886	2.2912765	1.5136963
20.465945700278965	2.2591202	1.503037
20.483755991951384	2.2826524	1.510845
20.50156678379548	2.3224618	1.5239625
20.519378076283708	2.3540976	1.5343069
20.537189869888635	2.3308015	1.5266963
20.55500216508294	2.3556342	1.5348076
20.572814962339415	2.3617208	1.5367892
20.59062826213098	2.3376462	1.5289363
20.60844206493066	2.3083794	1.5193352
20.626256371211593	2.3005283	1.5167493
20.644071181447032	2.3042164	1.5179646
20.66188649611036	2.3127146	1.5207611
20.67970231567506	2.3102608	1.5199542
20.697518640614742	2.3062315	1.5186281
20.715335471403122	2.2960198	1.5152622
20.73315280851404	2.294004	1.5145969
20.750970652421447	2.2906315	1.5134833
20.768789003599412	2.304751	1.5181406
20.786607862522136	2.3191726	1.5228829
20.8044272296639	2.2847934	1.5115533
20.82224710549913	2.2524686	1.5008227
20.84006749050237	2.2365854	1.4955218
20.857888385148268	3.8007784	1.9495585
20.8757097899116	45.93632	6.7776337
20.893531705267254	64.80413	8.050101
20.911354131690224	83.80765	9.154652
20.92917706965566	69.071785	8.310944
20.94700051963877	50.09952	7.0781016
20.96482448211493	29.357878	5.418291
20.982648957559622	4.0851603	2.021178
21.00047394644843	2.2077262	1.4858419
21.01829944925707	2.2215528	1.4904875
21.036125466461375	2.2136724	1.4878415
21.053951998537297	2.2270508	1.4923307
21.071779045960906	2.2275972	1.4925138
21.089606609208378	2.2222495	1.4907211
21.10743468875603	2.2181096	1.489332
21.12526328508028	2.2065806	1.4854563
21.143092398657675	2.1744199	1.4745914
21.16092202996488	2.1443758	1.4643687
21.17875217947867	2.165708	1.4716345
21.19658284767596	2.1755855	1.4749867
21.21441403503377	2.1906972	1.4801004
21.232245742029225	2.1687183	1.4726568
21.2500779691396	2.172871	1.4740661
21.26791071684227	2.1679413	1.472393
21.28574398561475	2.1756575	1.475011
21.30357777593465	2.1690958	1.472785
21.321412088279704	2.1613252	1.4701446
21.339246923127792	2.1442819	1.4643366
21.357082280956888	2.1270282	1.4584335
21.3749181622451	2.1188486	1.4556265
21.392754567470647	2.1128516	1.4535651
21.41059149711187	2.085555	1.4441451
21.42842895164726	2.0717516	1.439358
21.446266931555378	2.0575242	1.4344072
21.464105437314945	2.036187	1.4269502
21.481944469404798	2.0281148	1.424119
21.49978402830388	2.0293138	1.4245398
21.51762411449127	2.0447142	1.429935
21.53546472844617	2.0564072	1.4340179
21.553305870647876	2.097258	1.4481913
21.571147541575865	2.1156547	1.454529
21.58898974170967	2.14773	1.4655136
21.60683247152899	2.118547	1.4555229
21.62467573151363	2.0830865	1.4432901
21.642519522143523	2.0747597	1.4404026
21.660363843898722	2.0735111	1.4399692
21.6782086972594	2.0610003	1.4356184
21.696054082705864	2.0499597	1.4317681
21.713900000718535	2.0458035	1.4303159
21.73174645177795	2.0309947	1.4251297
21.749593436364794	2.0117981	1.4183787
21.767440954959845	1.9931903	1.411804
21.785289008044032	1.9726841	1.4045228
21.803137596098388	1.9804372	1.4072801
21.820986719604086	2.0147858	1.4194314
21.838836379042412	2.003469	1.4154395
21.85668657489478	1.9789846	1.4067639
21.87453730764273	1.9707569	1.4038365
21.892388577767914	1.9747217	1.4052479
21.91024038575213	1.9436427	1.3941458
21.928092732077285	1.890815	1.3750691
21.945945617225426	1.9027697	1.3794092
21.963799041678694	1.9101466	1.3820806
21.981653005919398	31.26337	5.591366
21.999507510429943	78.080864	8.836338
22.01736255569286	73.085945	8.549032
22.035218142190818	4.2030625	2.0501373
22.05307427040661	2.0241873	1.4227394
22.07093094082315	1.9982134	1.4135817
22.088788153923474	1.9846933	1.4087914
22.106645910190746	1.9910586	1.4110488
22.12450421010827	1.975548	1.4055419
22.142363054159464	1.9472101	1.3954247
22.16022244282787	1.9347328	1.3909467
22.178082376597164	1.9448657	1.3945844
22.195942855951145	1.9819192	1.4078065
22.213803881373742	1.9813482	1.4076037
22.231665453349002	1.969232	1.4032933
22.24952757236111	1.9491867	1.3961327
22.26739023889438	1.9468044	1.3952793
22.28525345343323	1.9491323	1.3961133
22.30311721646225	1.9589177	1.3996134
22.320981528466113	1.950167	1.3964838
22.33884638992964	1.9347112	1.390939
22.356711801337788	1.9358965	1.3913649
22.37457776317561	1.9491462	1.3961183
22.392444275928337	1.9498894	1.3963844
22.410311340081282	1.9421846	1.3936229
22.428178956119904	1.9313279	1.3897222
22.446047124529805	1.9241033	1.3871205
22.46391584579669	1.9178152	1.384852
22.481785120406414	1.896849	1.3772614
22.49965494884496	1.8754803	1.3694818
22.51752533159841	1.8976884	1.3775661
22.53539626915302	1.9011954	1.3788384
22.553267761995137	1.9076668	1.3811831
22.571139810611264	1.9242572	1.3871759
22.589012415488025	1.9493268	1.3961829
22.60688557711216	1.9158392	1.3841385
22.624759295970566	1.8975177	1.3775041
22.642633572550263	1.9297402	1.3891509
22.660508407338362	1.9518019	1.3970691
22.67838380082217	1.9406794	1.3930827
22.696259753489077	1.9218819	1.3863195
22.714136265826614	1.883384	1.3723644
22.73201333832246	1.866672	1.3662621
22.74989097146439	1.8685688	1.366956
22.76776916574035	1.8872967	1.3737892
22.785647921638393	1.8853881	1.3730943
22.803527239646712	1.9128737	1.3830668
22.82140712025363	1.9030092	1.379496
22.839287563947593	1.8985742	1.3778876
22.85716857121719	1.8847134	1.3728486
22.875050142551135	1.8374696	1.355533
22.892932278438277	1.8266053	1.3515196
22.910814979367604	1.825325	1.3510458
22.928698245828222	1.8530416	1.3612647
22.946582078309387	1.84829	1.3595183
22.96446647730047	1.8429375	1.3575484
22.98235144329098	1.835521	1.354814
23.000236976770562	1.8455167	1.358498
23.018123078229	1.8327675	1.3537974
23.03600974815619	1.8298281	1.3527114
23.053896987042194	1.8481429	1.3594642
23.071784795377173	1.8903128	1.3748865
23.08967317365145	1.8994883	1.3782192
23.10756212235546	1.9122405	1.3828379
23.125451641979787	1.8854917	1.3731321
23.143341733015134	1.8624007	1.364698
23.161232395952357	1.8708605	1.367794
23.179123631282426	1.9232286	1.3868052
23.197015439496468	1.917081	1.3845869
23.214907821085717	1.9160328	1.3842083
23.23280077654157	1.8743079	1.3690536
23.250694306355538	1.8841156	1.372631
23.268588411019277	1.8982873	1.3777834
23.28648309102458	1.9330196	1.3903308
23.304378346863356	1.9303973	1.3893874
23.322274179027676	1.9128611	1.3830622
23.340170588009723	1.8741369	1.3689913
23.358067574301852	1.8878527	1.3739915
23.37596513839651	1.9069061	1.3809078
23.39386328078629	1.9544443	1.3980144
23.411762001963947	1.9737496	1.404902
23.429661302422353	1.9733196	1.4047489
23.4475611826545	1.9311951	1.3896744
23.46546164315356	1.8762318	1.3697561
23.48336268441279	1.863111	1.3649583
23.501264306925638	1.8804708	1.3713026
23.51916651118564	1.8837225	1.3724877
23.537069297686497	1.8872056	1.373756
23.554972666922037	1.8313102	1.3532591
23.57287661938623	1.8303077	1.3528887
23.59078115557318	1.8852814	1.3730555
23.608686275977128	1.9400642	1.3928618
23.62659198109246	1.9367545	1.3916732
23.6444982714137	1.912997	1.3831114
23.66240514743549	1.9158955	1.3841587
23.68031260965263	1.9294822	1.389058
23.698220658560068	1.8942889	1.3763317
23.716129294652845	1.8668805	1.3663384
23.7340385184262	1.8693441	1.3672396
23.75194833037546	1.852348	1.36101
23.769858730996123	1.8214772	1.3496212
23.78776972078382	1.7975262	1.3407185
23.80568130023431	1.8017632	1.3422977
23.823593469843495	1.8476611	1.359287
23.841506230107424	1.8819109	1.3718276
23.859419581522275	1.8730187	1.3685827
23.87733352458438	1.8607056	1.3640769
23.89524805979019	1.8557863	1.3622725
23.913163187636318	1.8633298	1.3650384
23.931078908619508	1.8929229	1.3758353
23.948995223236633	1.9005663	1.3786103
23.966912131984735	1.9371579	1.3918182
23.98482963536096	1.9551008	1.3982491
24.002747733862616	1.9755582	1.4055455
24.020666427987155	1.9991504	1.4139131
24.038585718232156	2.0301425	1.4248307
24.056505605095353	2.017896	1.4205266
24.074426089074617	2.0006127	1.4144301
24.092347170667946	1.9894471	1.4104776
24.110268850373515	2.0380945	1.4276185
24.128191128689586	2.0488956	1.4313964
24.146114006114626	2.0341485	1.4262358
24.164037483147187	2.0154715	1.419673
24.181961560286005	2.01482	1.4194436
24.199886238029926	1.9941393	1.41214
24.21781151687797	2.0265324	1.4235632
24.235737397329274	2.0360076	1.4268874
24.253663879883135	2.0255835	1.4232299
24.271590965038975	2.029818	1.4247168
24.289518653296376	2.0269623	1.4237143
24.30744694515505	2.0349529	1.4265177
24.32537584111486	2.0341854	1.4262487
24.34330534167581	2.0228643	1.4222744
24.361235447338046	1.9812447	1.4075669
24.379166158601876	2.0129893	1.4187986
24.39709747596772	2.0178356	1.4205054
24.41502939993615	2.0234873	1.4224933
24.432961931007917	1.9502479	1.3965127
24.450895069683856	1.9038175	1.379789
24.468828816465	1.9163884	1.3843368
24.4867631718525	1.9678786	1.4028109
24.504698136347656	1.9624513	1.4008752
24.52263371045192	1.951791	1.3970652
24.540569894666874	1.9453857	1.3947709
24.558506689494266	1.911543	1.3825856
24.57644409543597	1.9073871	1.3810818
24.594382112994012	1.9105825	1.3822383
24.61232074267057	1.9138598	1.3834232
24.630259984967953	1.9039124	1.3798233
24.64819984038863	1.8936664	1.3761055
24.66614030943522	1.9322395	1.3900502
24.684081392610462	1.9524089	1.3972863
24.702023090417274	1.9575679	1.3991312
24.7199654033587	1.9560649	1.3985939
24.737908331937927	1.9829863	1.4081855
24.755851876658305	1.9868137	1.4095438
24.773796038023324	1.9985459	1.4136994
24.79174081653661	2.0216427	1.4218448
24.809686212701962	2.0433664	1.4294637
24.827632227023294	2.0177379	1.420471
24.8455788600047	2.0423932	1.4291233
24.8635261121504	2.0596712	1.4351554
24.88147398396475	2.0674996	1.4378803
24.899422475952303	2.0819638	1.4429011
24.917371588617698	2.0553176	1.4336379
24.935321322465768	2.073735	1.4400469
24.953271678001478	2.1443534	1.4643611
24.97122265572994	2.380423	1.5428619
24.989174256156414	2.7122464	1.6468899
25.00712647978632	3.1031628	1.7615796
25.02507932712521	3.5525224	1.8848137
25.043032798678798	3.9894457	1.9973596
25.060986894952933	4.6269116	2.1510258
25.078941616453637	5.3275256	2.3081434
25.096896963687055	6.221853	2.4943643
25.114852937159508	7.2350464	2.689804
25.132809537377444	7.7301865	2.7803214
25.150766764847468	7.7848563	2.7901356
25.168724620076347	7.3594227	2.7128255
25.186683103570985	6.4489393	2.5394762
25.204642215838426	5.427865	2.329778
25.222601957385894	4.145765	2.0361152
25.24056232872074	3.204248	1.7900413
25.25852333035048	2.674607	1.6354226
25.276484962782778	2.3440828	1.5310398
25.294447226525435	2.1223607	1.4568324
25.312410122086423	1.9840691	1.4085699
25.330373649973843	1.8931546	1.3759196
25.348337810695988	1.8723063	1.3683225
25.366302604761245	1.9004594	1.3785715
25.384268032678207	1.943723	1.3941747
25.40223409495558	1.9141511	1.3835285
25.420200792102257	1.8962727	1.3770522
25.438168124627246	1.8667213	1.3662801
25.45613609303974	1.8730197	1.3685831
25.474104697849057	1.8694553	1.3672802
25.492073939564698	1.8615704	1.3643937
25.510043818696285	1.8176556	1.3482046
25.528014335753614	1.8420987	1.3572394
25.54598549124664	1.8564912	1.3625312
25.56395728568544	1.8317242	1.353412
25.58192971958028	1.7974138	1.3406767
25.59990279344156	1.828359	1.3521682
25.617876507779833	1.8720052	1.3682125
25.635850863105826	1.8968732	1.3772702
25.653825859930386	1.8856837	1.373202
25.671801498764548	1.9118831	1.3827087
25.68977778011949	1.8553574	1.362115
25.707754704506524	1.789827	1.3378441
25.725732272437153	1.7450675	1.32101
25.743710484423012	1.8208889	1.3494031
25.761689340975888	1.8719765	1.368202
25.77966884260774	1.8681482	1.3668022
25.797648989830662	1.8151475	1.3472741
25.815629783156922	1.8189352	1.3486791
25.83361122309895	1.830384	1.3529168
25.85159331016929	1.8135135	1.3466675
25.869576044880695	1.8034272	1.3429174
25.887559427746034	1.844898	1.3582702
25.90554345927836	1.8555499	1.3621857
25.92352813999086	1.8604636	1.3639882
25.94151347039689	1.8667988	1.3663085
25.959499451009965	1.8946476	1.376462
25.97748608234374	1.8397326	1.3563675
25.995473364912062	1.8305756	1.3529876
26.013461299228904	1.84119	1.3569045
26.03144988580839	1.8327265	1.3537823
26.04943912516483	1.8095678	1.3452017
26.067429017812675	1.8049845	1.343497
26.085419564266537	1.8255668	1.3511354
26.103410765041186	1.8065346	1.3440739
26.12140262065155	1.778126	1.3334639
26.139395131612723	1.7723974	1.3313142
26.157388298439948	1.7826056	1.3351426
26.17538212164861	1.8027368	1.3426603
26.193376601754295	1.8182539	1.3484265
26.211371739272714	1.8171089	1.3480018
26.229367534719746	1.7681007	1.3296995
26.247363988611433	1.7662174	1.328991
26.26536110146397	1.8043501	1.343261
26.283358873793727	1.8237066	1.3504468
26.301357306117204	1.8073874	1.3443911
26.319356398951104	1.7900149	1.3379143
26.33735615281224	1.746167	1.3214262
26.35535656821762	1.7343576	1.3169501
26.373357645684404	1.7748616	1.3322393
26.39135938572991	1.8286753	1.3522851
26.409361788871614	1.8457545	1.3585855
26.427364855627165	1.8392884	1.3562037
26.445368586514352	1.8277502	1.3519431
26.46337298205115	1.832406	1.3536639
26.48137804275568	1.832727	1.3537824
26.499383769146217	1.8411661	1.3568958
26.517390161741215	1.8393271	1.356218
26.53539722105928	1.8417193	1.3570995
26.553404947619182	1.7875264	1.336984
26.571413341939856	1.736041	1.317589
26.589422404540397	1.7385653	1.3185467
26.60743213594006	1.749047	1.3225154
26.62544253665827	1.7804255	1.3343259
26.64345360721459	1.777049	1.33306
26.66146534812879	1.7461054	1.3214028
26.679477759920758	1.7416244	1.3197062
26.69749084311057	1.7625875	1.3276248
26.71550459821847	1.7364932	1.3177607
26.733519025764842	1.7503793	1.323019
26.751534126270258	1.7742093	1.3319944
26.769549900255434	1.7679583	1.3296459
26.787566348241267	1.7472303	1.3218284
26.80558347074881	1.7649646	1.3285197
26.823601268299267	1.762797	1.3277037
26.841619741414036	1.7744548	1.3320867
26.85963889061465	1.7413521	1.319603
26.877658716422832	1.7494591	1.3226712
26.89567921936045	1.760915	1.3269948
26.913700399949544	1.7932527	1.3391238
26.93172225871233	1.797344	1.3406506
26.949744796171174	1.7463561	1.3214977
26.967768012848605	1.7666482	1.3291532
26.98579190926733	1.7591178	1.3263174
27.003816485950225	1.7491814	1.3225663
27.021841743420318	1.7630125	1.3277848
27.039867682200814	1.7479177	1.3220884
27.057894302815072	1.7497369	1.3227762
27.07592160578664	1.7174346	1.3105093
27.0939495916392	1.7283095	1.3146518
27.111978260896635	1.7435244	1.3204259
27.13000761408296	1.7645339	1.3283576
27.148037651722397	1.7280703	1.3145609
27.166068374339304	1.7289168	1.3148828
27.184099782458215	1.780965	1.334528
27.20213187660384	1.802322	1.3425059
27.22016465730105	1.8181008	1.3483697
27.23819812507487	1.8038182	1.343063
27.256232280450533	1.7924486	1.3388236
27.274267123953383	1.8240759	1.3505836
27.292302656108987	1.8640761	1.3653117
27.31033887744306	1.8665259	1.3662086
27.32837578848146	1.8712679	1.3679429
27.34641338975026	1.9207703	1.3859186
27.364451681775673	1.8807447	1.3714025
27.382490665084074	1.8455254	1.3585012
27.400530340202046	1.7979798	1.3408877
27.41857070765629	1.823605	1.3504092
27.436611767973726	1.8224643	1.3499868
27.454653521681404	1.767606	1.3295134
27.472695969306564	1.748152	1.322177
27.490739111376627	1.7815973	1.3347648
27.508782948419153	1.7876633	1.3370353
27.526827480961902	1.768522	1.329858
27.54487270953279	1.7811391	1.3345933
27.562918634659898	1.8205159	1.349265
27.580965256871508	1.8407531	1.3567436
27.599012576696026	1.8356286	1.3548537
27.617060594662068	1.7703061	1.3305285
27.63510931129842	1.7484992	1.3223083
27.65315872713401	1.763911	1.3281231
27.67120884269797	1.7678587	1.3296084
27.68925965851958	1.7404839	1.319274
27.707311175128307	1.8017448	1.3422909
27.725363393053787	1.8792624	1.3708619
27.74341631282583	1.920729	1.3859037
27.7614699349744	1.9210607	1.3860233
27.77952426002968	2.0727668	1.4397106
27.797579288521973	2.1005766	1.4493366
27.815635020981784	2.543019	1.5946846
27.83369145793979	2.6115112	1.6160171
27.85174859992682	2.4984128	1.5806369
27.869806447473923	2.3763654	1.5415465
27.887865001112267	2.0133169	1.418914
27.905924261373233	1.8825617	1.3720647
27.92398422878836	1.8493471	1.359907
27.94204490388936	1.8117038	1.3459954
27.96010628720813	1.8084217	1.3447757
27.978168379276728	1.8130702	1.3465029
27.9962311806274	1.8116239	1.3459657
28.014294691792568	1.7865381	1.3366144
28.0323589133048	1.8247701	1.3508406
28.050423845696887	1.8884271	1.3742006
28.068489489501758	1.8931834	1.37593
28.086555845252523	1.8792804	1.3708684
28.104622913482487	1.8534795	1.3614255
28.122690694725115	1.8327634	1.3537959
28.14075918951405	1.8629438	1.364897
28.15882839838312	1.8996985	1.3782955
28.176898321866304	1.9280548	1.3885441
28.1949689604978	1.9605821	1.4002079
28.213040314811945	1.9398065	1.3927693
28.23111238534327	1.8768426	1.369979
28.249185172626493	1.8764112	1.3698215
28.267258677196473	1.8839941	1.3725866
28.285332899588294	1.8901435	1.3748249
28.303407840337172	1.8709486	1.3678262
28.321483499978545	1.8701905	1.3675491
28.33955987904799	1.8751704	1.3693686
28.357636978081285	1.8650032	1.3656512
28.37571479761439	1.8627416	1.3648229
28.393793338183425	1.9268875	1.3881238
28.41187260032469	2.0034633	1.4154375
28.429952584574686	2.0117283	1.418354
28.448033291470065	2.0222814	1.4220694
28.46611472154769	1.9939126	1.4120597
28.484196875344566	2.0052254	1.4160599
28.502279753397914	1.9664153	1.4022893
28.52036335624511	1.9743189	1.4051045
28.538447684423716	1.9737608	1.404906
28.556532738471482	1.996601	1.4130113
28.574618518926325	1.977751	1.4063253
28.59270502632635	1.9626149	1.4009336
28.61079226120985	1.9589719	1.3996328
28.628880224115274	1.9470283	1.3953595
28.646968915581287	1.9473944	1.3954908
28.66505833614671	1.9749386	1.405325
28.68314848635055	2.0040658	1.4156502
28.701239366732004	2.0462985	1.430489
28.71933097783044	2.0424378	1.4291388
28.737423320185403	2.0173833	1.4203463
28.75551639433665	2.0333922	1.4259706
28.773610200824074	2.0724142	1.4395882
28.791704740187793	2.083461	1.4434199
28.80980001296809	2.0873218	1.4447566
28.827896019705413	2.0943625	1.4471912
28.845992760940433	2.1061494	1.4512578
28.86409023721397	2.187346	1.4789679
28.88218844906704	2.178258	1.4758923
28.900287397040845	2.1763074	1.4752313
28.918387081676755	2.2344406	1.4948045
28.936487503516343	2.3016126	1.5171067
28.954588663101365	2.3012865	1.5169991
28.97269056097374	2.2645564	1.5048443
28.990793197675597	2.2750833	1.508338
29.00889657374923	2.3364644	1.5285498
29.027000689737125	2.3587284	1.5358152
29.04510554618196	2.3865447	1.5448445
29.06321114362659	2.4330215	1.5598146
29.08131748261405	2.4024127	1.5499718
29.099424563687567	2.4200728	1.5556583
29.11753238739057	2.508003	1.5836676
29.13564095426663	2.519347	1.5872451
29.15375026485954	2.4828095	1.5756934
29.171860319713275	2.4300582	1.5588644
29.18997111937199	2.5027647	1.5820129
29.20808266438002	2.6514268	1.6283202
29.226194955281898	2.787479	1.6695745
29.244307992622335	2.8551025	1.6897049
29.26242177694624	2.8613584	1.691555
29.2805363087987	2.7659278	1.6631079
29.29865158872498	2.7500978	1.6583419
29.316767617270557	2.8015046	1.6737696
29.334884394981064	2.9103556	1.7059764
29.353001922402367	3.013157	1.7358447
29.37112020008047	3.0683181	1.7516615
29.389239228561596	3.0966668	1.7597349
29.407359008392152	3.2588322	1.8052236
29.42547954011872	3.6301084	1.9052843
29.44360082428809	4.322598	2.0790858
29.46172286144722	5.205593	2.2815769
29.479845652143283	6.6091475	2.5708263
29.497969196923606	8.451752	2.9071896
29.516093496335728	10.79218	3.2851453
29.5342185509274	13.267836	3.642504
29.55234436124651	15.383457	3.9221752
29.570470927841175	16.632656	4.0783153
29.588598251259686	16.543257	4.0673404
29.60672633205055	15.252117	3.905396
29.624855170762405	13.156338	3.6271665
29.642984767944146	10.733145	3.2761478
29.66111512414481	8.373765	2.893746
29.67924623991366	6.3712106	2.5241258
29.697378115800138	4.95026	2.2249181
29.71551075235387	4.091708	2.022797
29.733644150124675	3.7105284	1.9262732
29.751778309662576	3.5432348	1.8823482
29.769913231517766	3.45334	1.8583164
29.78804891624066	3.384187	1.839616
29.806185364381818	3.3259518	1.8237193
29.82432257649206	3.2349849	1.7986064
29.842460553122333	3.1647584	1.7789768
29.86059929482382	3.1958623	1.7876974
29.878738802147872	3.2087045	1.7912858
29.896879075646048	3.2779393	1.810508
29.915020115870114	3.2492158	1.8025582
29.933161923371976	3.155869	1.7764766
29.951304498703777	3.173582	1.781455
29.969447842417857	3.2218196	1.7949427
29.987591955066733	3.2180252	1.7938855
30.005736837203123	3.2136834	1.7926749
30.023882489379943	3.1659396	1.7793087
30.04202891215028	3.1496217	1.7747173
30.060176106067455	3.133563	1.7701873
30.078324071684946	3.153297	1.7757525
30.09647280955646	3.1425276	1.7727176
30.114622320235863	3.1542423	1.7760186
30.132772604277257	3.1188698	1.7660322
30.1509236622349	3.0910232	1.7581306
30.16907549466328	3.0005827	1.732219
30.18722810211705	2.9996386	1.7319465
30.205381485151097	3.0582693	1.7487907
30.22353564432045	3.030422	1.7408108
30.241690580180403	2.9241138	1.710004
30.25984629328638	2.8390317	1.6849426
30.278002784194037	2.8254507	1.6809077
30.296160053459246	2.8414602	1.6856631
30.314318101638033	2.8806143	1.6972373
30.332476929286646	2.9102411	1.7059429
30.35063653696153	2.9529524	1.7184156
30.368796925219307	2.8971193	1.7020926
30.386958094616844	2.872711	1.6949073
30.40512004571115	2.8910992	1.7003232
30.423282779059463	2.8950305	1.701479
30.441446295219233	2.890791	1.7002326
30.459610594748067	2.8764496	1.6960099
30.47777567820382	2.8226876	1.6800857
30.495941546144504	2.7530107	1.65922
30.51410819912835	2.6884573	1.6396515
30.532275637713795	2.6465561	1.6268239
30.55044386245946	2.6632748	1.6319543
30.56861287392416	2.7293963	1.6520885
30.586782672666956	2.7880666	1.6697505
30.604953259247047	2.7855923	1.6690093
30.623124634223885	2.7713969	1.6647513
30.641296798157075	2.7447486	1.6567283
30.659469751606462	2.699126	1.6429017
30.677643495132074	2.6470375	1.6269718
30.695818029294152	2.6907625	1.6403544
30.713993354653116	2.7023444	1.6438808
30.73216947176962	2.669545	1.6338742
30.75034638120448	2.6227245	1.6194828
30.768524083518756	2.670155	1.6340609
30.786702579273673	2.7418118	1.6558417
30.80488186903069	2.8445082	1.686567
30.82306195335144	2.9699109	1.7233429
30.841242832797782	3.0642135	1.7504895
30.85942450793176	3.2642705	1.8067292
30.877606979315637	3.6686423	1.91537
30.895790247511883	4.068492	2.0170503
30.913974313083134	4.4219007	2.1028316
30.932159176592283	4.5771422	2.1394258
30.95034483860237	4.4982877	2.1209166
30.968531299676698	4.298436	2.073267
30.98671856037873	4.062577	2.0155835
31.00490662127215	3.68193	1.9188356
31.023095482920848	3.3129065	1.8201392
31.04128514588892	2.961516	1.7209055
31.059475610740662	2.7278848	1.651631
31.07766687804056	2.5956454	1.6111007
31.09585894835335	2.4977753	1.5804352
31.11405182224393	2.4566784	1.5673795
31.132245500277417	2.4633052	1.569492
31.15043998301914	2.437718	1.5613192
31.168635271034628	2.4027321	1.5500749
31.18683136488964	2.3567185	1.5351608
31.20502826515008	2.3596723	1.5361224
31.223225972382135	2.3903968	1.5460908
31.241424487152155	2.4353848	1.5605719
31.259623810026692	2.3894799	1.5457942
31.27782394157253	2.3430398	1.5306991
31.296024882356644	2.3229737	1.5241305
31.314226632946237	2.3001194	1.5166144
31.332429193908684	2.3618402	1.536828
31.350632565811598	2.3951404	1.5476241
31.368836749222787	2.38581	1.5446067
31.387041744710295	2.3528876	1.5339125
31.40524755284232	2.3481562	1.5323695
31.423454174187317	2.3667529	1.5384254
31.441661609313922	2.3772187	1.5418231
31.459869858791002	2.440232	1.5621243
31.478078923187628	2.4682958	1.571081
31.496288803073064	2.3639212	1.5375048
31.514499499016807	2.3173072	1.5222704
31.532711011588546	2.3434675	1.5308388
31.550923341358178	2.3537912	1.534207
31.56913648889584	2.3745024	1.5409421
31.587350454771844	2.3887022	1.5455427
31.605565239556732	2.38063	1.542929
31.62378084382127	2.2849872	1.5116174
31.641997268136382	2.2838204	1.5112314
31.660214513073274	2.292794	1.5141975
31.67843257920331	2.3331554	1.527467
31.6966514670981	2.3333771	1.5275396
31.71487117732944	2.33717	1.5287806
31.733091710469346	2.2667224	1.5055639
31.751313067090052	2.239668	1.496552
31.769535247764008	2.269963	1.5066396
31.787758253063878	2.3132012	1.5209211
31.805982083562526	2.2853937	1.5117519
31.824206739833024	2.2725396	1.5074944
31.84243222244869	2.1985588	1.4827538
31.860658531983013	2.2031586	1.4843041
31.878885669009737	2.2328618	1.4942763
31.897113634102784	2.1902058	1.4799345
31.91534242783632	2.1574454	1.4688245
31.933572050784694	2.2038183	1.4845263
31.951802503522508	2.2387054	1.4962304
31.970033786624548	2.1560085	1.4683353
31.988265900665834	2.0618014	1.4358975
32.006498846221575	2.122572	1.4569049
32.02473262386724	2.196244	1.481973
32.04296723417845	2.184026	1.4778451
32.0612026777311	2.0766225	1.4410491
32.07943895510129	2.0612702	1.4357125
32.097676066865304	2.0681977	1.438123
32.115914013599685	2.13095	1.4597774
32.13415279588115	2.1326542	1.460361
32.152392414286666	2.1351352	1.4612101
32.1706328693934	2.1650138	1.4713986
32.18887416177875	2.1225994	1.4569143
32.20711629202032	2.081914	1.4428838
32.225359260695924	2.0361612	1.4269412
32.243603068383614	2.0616689	1.4358512
32.26184771566166	2.051275	1.4322273
32.28009320310852	2.047115	1.4307743
32.2983395313029	2.1243198	1.4575046
32.31658670082372	2.1128757	1.4535735
32.33483471225012	2.069775	1.4386714
32.35308356616143	2.0820262	1.4429228
32.371333263137245	2.1101074	1.4526209
32.38958380375734	2.1252768	1.4578329
32.407835188601744	2.0612316	1.435699
32.42608741825067	1.9751341	1.4053947
32.444340493284585	1.9620022	1.4007149
32.46259441428416	2.0384223	1.4277333
32.48084918183028	2.0786798	1.4417627
32.49910479650405	2.105383	1.4509938
32.51736125888683	2.1015475	1.4496715
32.53561856956014	2.0628793	1.4362727
32.5538767291058	1.9641223	1.4014715
32.572135738105764	1.9477764	1.3956276
32.59039559714228	1.953752	1.3977668
32.608656306797776	1.9323443	1.3900878
32.62691786765491	1.9093243	1.381783
32.645180280296586	2.0104861	1.4179162
32.663443545305896	2.0352917	1.4266365
32.68170766326619	1.9687234	1.403112
32.69997263476099	1.939846	1.3927835
32.7182384603741	1.956136	1.3986193
32.7365051406895	1.9170744	1.3845845
32.75477267629144	1.8749415	1.369285
32.77304106776434	1.8541474	1.3616709
32.79131031569289	1.9063089	1.3806914
32.809580420661966	2.0015948	1.4147773
32.827851383256714	2.0029142	1.4152435
32.84612320406245	1.9149805	1.3838282
32.86439588366476	1.7974331	1.3406838
32.88266942264945	1.8316433	1.3533822
32.9009438216025	1.8609605	1.3641703
32.9192190811102	1.8595823	1.363665
32.937495201758985	1.8281746	1.3521
32.95577218413556	1.8960639	1.3769764
32.974050028826866	1.9815779	1.4076853
32.992328736420035	2.0092187	1.4174691
33.010608307502444	2.0028014	1.4152037
33.02888874266169	2.0013428	1.4146882
33.047170042485604	2.0250373	1.423038
33.06545220756225	1.9741907	1.405059
33.083735238479896	1.9691783	1.4032742
33.10201913582707	1.9832834	1.408291
33.12030390019248	1.9343842	1.3908215
33.138589532165135	1.9309685	1.3895929
33.15687603233419	1.954402	1.3979993
33.17516340128909	2.0061975	1.416403
33.19345163961947	2.0070999	1.4167215
33.211740747915215	1.9278166	1.3884584
33.23003072676643	1.886201	1.3733903
33.248321576763466	1.9440981	1.3943092
33.266613298496885	1.9318724	1.3899181
33.28490589255747	1.904571	1.380062
33.30319935953626	1.9525362	1.3973318
33.32149370002451	1.9399014	1.3928034
33.339788914613706	1.849144	1.3598323
33.358085003895575	1.7472059	1.3218192
33.376381968462034	1.7557002	1.3250284
33.39467980890529	1.8716251	1.3680735
33.41297852581774	1.8972838	1.3774192
33.43127811979204	1.885931	1.3732921
33.44957859142105	1.9647162	1.4016833
33.467879941297866	1.9997274	1.4141172
33.486182170015844	1.9348202	1.3909781
33.50448527816853	1.9290787	1.3889128
33.522789266349754	1.8796264	1.3709947
33.541094135153514	1.8899357	1.3747493
33.55939988517411	1.9168863	1.3845166
33.57770651700602	1.8450189	1.3583148
33.59601403124398	1.8270183	1.3516724
33.61432242848296	1.8608638	1.3641348
33.632631709318154	1.8950833	1.3766203
33.650941874344994	1.9468582	1.3952986
33.66925292415916	2.001295	1.4146714
33.68756485935654	2.0180454	1.4205793
33.70587768053328	2.0557387	1.4337847
33.724191388285746	2.0515203	1.432313
33.74250598321054	1.9779392	1.4063923
33.760821465904506	1.9326712	1.3902055
33.77913783696474	1.8474743	1.3592182
33.79745509698852	1.8905535	1.374974
33.815773246573414	1.8996862	1.378291
33.8340922863172	1.8509711	1.360504
33.852412216817896	1.8896034	1.3746284
33.87073303867377	1.9002817	1.378507
33.889054752483304	2.0049438	1.4159604
33.907377358845245	2.1165807	1.4548473
33.92570085835853	2.0494092	1.4315758
33.94402525162239	1.9502109	1.3964995
33.96235053923627	1.8901277	1.3748192
33.980676721799824	1.8495746	1.3599906
33.999003799912984	1.8379257	1.3557012
34.01733177417592	1.880476	1.3713045
34.03566064518901	1.9781952	1.4064833
34.0539904135529	2.0467582	1.4306495
34.07232107986846	1.9898903	1.4106348
34.090652644736785	2.0735376	1.4399784
34.108985108759235	2.0867565	1.444561
34.12731847253742	1.9543232	1.397971
34.14565273667313	1.9656191	1.4020054
34.16398790176847	2.01667	1.4200951
34.18232396842574	1.9598383	1.3999423
34.20066093724749	2.0377011	1.4274807
34.21899880883651	1.9544922	1.3980316
34.23733758379583	1.9996055	1.4140741
34.25567726272874	2.0077202	1.4169405
34.27401784623872	2.0193567	1.4210408
34.29235933492957	2.0195792	1.421119
34.31070172940526	1.9866841	1.4094979
34.32904503027003	1.8273413	1.3517919
34.347389238128386	1.8119121	1.3460728
34.36573435358502	1.9300554	1.3892643
34.38408037724492	2.011804	1.4183809
34.402427309713296	1.8444916	1.3581206
34.42077515159559	1.7838942	1.335625
34.43912390349752	1.8446817	1.3581907
34.45747356602499	1.837873	1.3556818
34.47582413978423	1.874914	1.369275
34.49417562538163	1.888197	1.3741168
34.51252802342388	1.94633	1.3951093
34.53088133451789	2.0506635	1.4320138
34.54923555927084	1.9033178	1.3796078
34.567590698290104	1.9078132	1.3812361
34.58594675218336	1.9608668	1.4003096
34.6043037215585	1.8561089	1.3623909
34.62266160702365	1.7805884	1.334387
34.641020409187234	1.7584474	1.3260646
34.65938012865785	1.8436422	1.3578079
34.677740766044394	1.9234227	1.3868752
34.69610232195598	2.0056148	1.4161973
34.714464797002016	2.176412	1.4752668
34.73282819179208	2.252239	1.5007461
34.751192506936064	2.171105	1.473467
34.76955774304408	2.0485086	1.4312612
34.7879239007265	1.9747262	1.4052495
34.80629098059391	1.9754479	1.4055063
34.824658983257194	1.9857105	1.4091524
34.843027909327446	2.0327442	1.4257433
34.86139775941603	2.0263433	1.4234968
34.879768534134534	2.0059597	1.4163191
34.89814023409483	2.0079668	1.4170275
34.91651285990901	1.9498484	1.3963697
34.93488641218944	2.0564873	1.4340458
34.95326089154871	2.0616786	1.4358547
34.97163629859967	2.0239758	1.422665
34.99001263395542	2.024763	1.4229417
35.00838989822934	1.8585664	1.3632925
35.02676809203499	1.7437831	1.3205239
35.04514721598624	1.7787579	1.3337009
35.063527270697215	2.042491	1.4291574
35.081908256782256	2.25772	1.5025711
35.10029017485597	2.0509717	1.4321214
35.11867302553321	1.8376683	1.3556062
35.137056809429104	1.9473399	1.3954712
35.155441527159006	1.9287292	1.3887869
35.173827179338524	1.8700198	1.3674867
35.19221376658354	1.8507781	1.3604331
35.21060128951017	1.9766458	1.4059324
35.2289897487348	1.9582611	1.3993789
35.24737914487405	1.7781975	1.3334907
35.26576947854479	1.9053906	1.3803588
35.28416075036418	2.0916958	1.4462696
35.30255296094958	2.2490394	1.4996798
35.32094611091867	1.9854363	1.4090551
35.33934020088932	1.7598907	1.3266087
35.35773523147969	1.8442098	1.3580168
35.3761312033082	1.8989073	1.3780085
35.394528116993506	1.8424705	1.3573763
35.41292597315452	1.8724679	1.3683815
35.431324772410434	1.9140327	1.3834857
35.449724515380666	2.1143942	1.4540956
35.46812520268491	2.5226119	1.5882733
35.486526834943106	2.7578194	1.6606684
35.504929412775454	2.8148918	1.6777639
35.52333293680242	2.774345	1.6656365
35.54173740764471	2.6446292	1.6262316
35.560142825923286	2.2078276	1.4858761
35.5785491922594	1.8262253	1.351379
35.59695650727454	1.9621415	1.4007646
35.61536477159042	3.0240254	1.7389725
