0.008763373481513119	0.0	0.0
0.026290120649546365	0.14626539	0.3824466
0.043816868432600686	0.1255995	0.3544002
0.06134361724069026	0.13924508	0.37315556
0.07887036748382949	0.114812374	0.33883974
0.0963971195720331	0.14101607	0.37552106
0.11392387391531617	0.13120148	0.36221746
0.1314506309236943	0.09073447	0.30122164
0.1489773910071836	0.09644194	0.31055102
0.16650415457580078	0.1948789	0.44145092
0.18403092203956356	0.20746921	0.45548788
0.20155769380849	0.19109812	0.4371477
0.2190844702925996	0.06558632	0.25609827
0.2366112519019124	0.060342196	0.24564649
0.2541380390464497	0.048255663	0.21967171
0.27166483213623416	0.061530143	0.2480527
0.28919163158128947	0.15307781	0.3912516
0.3067184377916406	0.17065099	0.41309926
0.324245251177314	0.18183632	0.42642272
0.34177207214833777	0.16621102	0.40768987
0.3592989011147415	0.18121696	0.42569584
0.37682573848655654	0.187531	0.4330485
0.39435258467381573	0.17573415	0.41920656
0.41187944008655414	0.10563057	0.32500857
0.42940630513480854	0.05739903	0.23958094
0.446933180228618	0.06581612	0.25654653
0.4644600657780234	0.06543856	0.2558096
0.48198696219306775	0.08181551	0.2860341
0.49951386988379676	0.107929185	0.32852578
0.5170407892602581	0.083215006	0.28847012
0.5345677207325025	0.09211377	0.3035025
0.5520946647105822	0.08596293	0.29319435
0.5696216216045534	0.10713322	0.3273121
0.5871485918244737	0.13061917	0.36141273
0.6046755757804043	0.123617545	0.35159287
0.6222025738824094	0.12619773	0.3552432
0.6397295865405557	0.10005034	0.31630734
0.6572566141649129	0.109712236	0.33122838
0.6747836571655547	0.1345359	0.36679134
0.6923107159525568	0.16324565	0.4040367
0.7098377909359992	0.17383823	0.4169391
0.7273648825259653	0.13236822	0.36382443
0.7448919911325411	0.13181493	0.36306325
0.762419117165817	0.15064743	0.38813326
0.7799462610358868	0.17771602	0.42156377
0.7974734231528482	0.17031878	0.41269696
0.8150006039268024	0.17055437	0.41298229
0.8325278037678551	0.17344397	0.41646606
0.8500550230861152	0.17538828	0.41879383
0.8675822622916969	0.16855828	0.4105585
0.8851095217947171	0.14804214	0.38476244
0.9026368020052984	0.14692678	0.3833103
0.9201641033335665	0.174733	0.41801077
0.9376914261896523	0.23632167	0.48612928
0.9552187709836915	0.2840159	0.5329314
0.9727461381258234	0.287415	0.536111
0.990273528026193	0.27108857	0.52066165
1.0078009410949496	0.25737742	0.5073238
1.0253283777422473	0.26425555	0.51405793
1.0428558383782454	0.25428635	0.5042681
1.0603833234131086	0.2647032	0.51449317
1.0779108332570058	0.29113558	0.5395698
1.0954383683201119	0.2888333	0.53743213
1.112965929012607	0.35371783	0.5947418
1.1304935157446763	0.44384038	0.66621345
1.1480211289265108	0.49377316	0.70268995
1.1655487689683062	1.3335637	1.1548003
1.1830764362802655	1.6349801	1.2786634
1.200604131272596	2.1094863	1.4524071
1.2181318543555117	2.582182	1.6069169
1.235659605939232	2.626454	1.6206338
1.253187386433982	4.064357	2.016025
1.270715196249994	6.5251575	2.5544388
1.2882430357975057	12.147618	3.4853435
1.3057709054867608	17.187305	4.1457577
1.3232988057280106	22.897705	4.785155
1.3408267369315112	27.355066	5.230207
1.358354699507526	30.878067	5.5568037
1.3758826938663256	35.511192	5.959127
1.3934107204181858	38.1822	6.179175
1.410938779573391	39.08718	6.251974
1.4284668717422309	39.72222	6.3025565
1.4459949973350033	38.7014	6.221045
1.4635231567620117	38.586605	6.2118115
1.4810513504335687	37.591675	6.131205
1.4985795787599925	36.662495	6.0549564
1.5161078421516088	36.247795	6.020614
1.5336361410187505	35.434193	5.9526625
1.5511644757717598	35.570705	5.964118
1.5686928468209842	36.542114	6.045007
1.58622125457678	37.19766	6.0989885
1.6037496994495108	38.435722	6.199655
1.621278181849548	38.081043	6.170984
1.6388067021872719	38.6783	6.2191877
1.6563352608730693	38.060154	6.169291
1.673863858317336	37.053802	6.0871835
1.6913924949304753	36.50727	6.0421247
1.7089211711228998	35.2135	5.9340963
1.7264498873050296	34.265617	5.853684
1.7439786438872935	33.37834	5.777399
1.7615074412801288	32.560184	5.7061534
1.779036279893981	31.826036	5.641457
1.796565160139305	30.571148	5.529118
1.814094082426564	29.780895	5.4571877
1.8316230471662298	28.899042	5.375783
1.849152054768784	28.255215	5.3155637
1.8666811056447168	27.675488	5.26075
1.8842102002045273	27.037039	5.199715
1.901739338858724	26.332672	5.131537
1.9192685220178245	26.049036	5.1038256
1.9367977500923557	25.53562	5.053278
1.9543270234928547	25.318481	5.0317473
1.971856342629867	24.61122	4.9609694
1.9893857079139496	23.615595	4.859588
2.006915119755667	23.117449	4.8080606
2.0244445785655945	22.610737	4.755075
2.0419740847543175	22.373158	4.730027
2.0595036387324317	21.983063	4.68861
2.0770332409105414	21.617413	4.649453
2.094562891699263	21.474321	4.6340394
2.1120925915092217	20.723036	4.552256
2.129622340751053	20.29054	4.5045023
2.1471521398354043	188.28197	13.721587
2.1646819891729323	444.6422	21.08654
2.182211889174303	441.08264	21.001968
2.1997418402501974	453.52087	21.29603
2.2172718428113023	433.4951	20.820545
2.234801897268317	321.2844	17.924408
2.2523320040319548	17.536345	4.187642
2.269862163512935	17.295683	4.1588078
2.287392376121992	16.825026	4.101832
2.304922642269869	16.665113	4.0822926
2.322452962367322	16.118326	4.0147634
2.3399833368251164	15.763814	3.970367
2.357513766054032	15.527978	3.9405556
2.3750442504648586	15.443005	3.9297588
2.3925747904683963	15.239172	3.9037383
2.410105386475459	14.935132	3.8646
2.4276360388968707	14.544724	3.8137546
2.445166748143469	14.278764	3.7787251
2.4626975146261025	14.068872	3.7508495
2.4802283387556323	13.846242	3.7210538
2.4977592209429305	13.647221	3.6942146
2.5152901615988825	13.306236	3.6477714
2.5328211611343865	13.140335	3.62496
2.5503522199603523	12.85414	3.585267
2.5678833384877024	12.727521	3.5675652
2.5854145171273712	12.483792	3.533241
2.6029457562903064	12.383045	3.5189552
2.620477056387469	12.247521	3.499646
2.6380084178298326	11.985818	3.462054
2.655539841028383	11.8057165	3.4359448
2.673071326394119	11.715234	3.4227524
2.6906028743380523	11.362186	3.3707843
2.708134485271211	11.275509	3.3579025
2.7256661596046325	11.072242	3.3274977
2.743197897749369	10.84948	3.293855
2.760729700116486	10.767086	3.281324
2.778261567117063	10.629593	3.2603056
2.795793499162193	10.554579	3.2487812
2.8133254966629817	10.452367	3.233012
2.830857560030551	10.156954	3.1869977
2.8483896896760337	9.870557	3.1417441
2.865921886010578	9.641414	3.1050625
2.883454149445347	9.553953	3.090947
2.9009864803915177	9.503621	3.0827944
2.91851887926028	9.496412	3.081625
2.9360513464628384	9.421907	3.0695126
2.953583882410413	9.335389	3.055387
2.9711164875142373	9.086764	3.014426
2.9886491621855606	8.969398	2.9948952
3.0061819068356455	8.893713	2.9822328
3.023714721875769	8.90615	2.9843173
3.041247607717225	8.863107	2.977097
3.0587805647713213	8.611853	2.9345958
3.0763135934493806	8.36529	2.892281
3.0938466941627407	8.197059	2.8630507
3.1113798673227544	8.106208	2.8471403
3.1289131133407904	7.9944153	2.8274398
3.1464464326282315	7.949995	2.8195736
3.1639798255964786	7.75639	2.7850296
3.1815132926569443	7.6780877	2.7709363
3.1990468342210603	7.696077	2.7741804
3.216580450700272	7.6895604	2.7730057
3.2341141425060416	7.6423903	2.7644873
3.251647910049847	7.5142484	2.7412128
3.2691817537431813	7.237975	2.6903486
3.286715673997555	7.140462	2.6721642
3.3042496712244938	7.051789	2.6555204
3.32178374583554	7.1122613	2.6668823
3.339317898242251	7.082199	2.66124
3.3568521288562034	6.9683595	2.639765
3.3743864380889876	6.901116	2.6269975
3.3919208263522127	6.931491	2.6327724
3.4094552940575023	6.8378444	2.6149273
3.4269898416164972	6.7790437	2.6036596
3.444524469440858	6.667745	2.5821977
3.4620591779422587	6.669142	2.5824683
3.479593967532391	6.567434	2.5627005
3.4971288386229658	6.4796257	2.545511
3.5146637916257086	6.334059	2.5167556
3.5321988269523628	6.3539677	2.5207078
3.5497339450146903	6.3893414	2.5277147
3.5672691462244708	6.389131	2.527673
3.5848044309934988	6.3684216	2.5235732
3.60233979973359	6.3514533	2.520209
3.619875252856575	6.3385086	2.5176394
3.6374107907743034	6.3603797	2.5219793
3.6549464138986427	6.477939	2.5451796
3.6724821226414788	6.488074	2.5471697
3.690017917414714	6.54709	2.5587282
3.7075537986302702	6.4637046	2.5423818
3.7250897667000857	6.414045	2.5325963
3.7426258220361235	6.5499697	2.559291
3.7601619650503553	6.94561	2.6354525
3.777698196154779	7.5810685	2.753374
3.7952345157614067	8.607909	2.933924
3.8127709242822716	9.33868	3.0559254
3.830307422129425	11.447899	3.3834743
3.847844009714936	30.242321	5.499302
3.8653806874508954	97.80418	9.8896
3.882917455749409	97.125885	9.855247
3.900454315022606	96.90762	9.844167
3.917991265682631	41.499977	6.4420476
3.9355283081416506	11.083325	3.3291628
3.9530654428118495	8.863121	2.9770994
3.970602670105433	7.6565337	2.7670443
3.9881399904346244	6.7238426	2.5930374
4.005677404211669	6.65719	2.580153
4.023214911848827	6.6844954	2.5854392
4.0407525137583855	6.690519	2.5866036
4.058290210352644	6.619028	2.5727472
4.075828002043927	6.4790106	2.5453901
4.0933658892445814	6.4383025	2.537381
4.110903872366966	6.3904414	2.5279322
4.128441951823468	6.323866	2.5147297
4.145980128026488	6.314889	2.5129442
4.163518401388452	6.314904	2.5129473
4.181056772321807	6.3533354	2.5205824
4.1985952412390155	6.2306395	2.496125
4.216133808552567	6.21046	2.4920795
4.233672474674966	6.2421036	2.4984202
4.251211240018741	6.3959103	2.5290136
4.268750104996445	6.6235895	2.5736334
4.286289070020643	7.6028156	2.7573204
4.303828135503928	9.319793	3.0528336
4.3213673018589125	29.598654	5.4404645
4.3389065694982305	90.758545	9.526728
4.356445938834537	165.88203	12.87952
4.3739854102805085	171.53687	13.097208
4.391524984248844	172.5137	13.134447
4.409064661152262	136.70978	11.692296
4.426604441403504	97.06714	9.852265
4.444144325415337	76.1906	8.728723
4.461684313600543	22.225515	4.7143946
4.47922440637193	22.398628	4.732719
4.496764604142329	20.593082	4.53796
4.5143049073245916	18.70606	4.3250504
4.531845316331589	16.627802	4.07772
4.5493858315762195	13.785426	3.712873
4.566926453471405	11.45399	3.3843744
4.584467182430081	9.402808	3.0663998
4.602008018865218	8.190017	2.8618205
4.619548963189798	7.5093994	2.7403283
4.637090015816834	7.06014	2.6570923
4.654631177159353	6.8714366	2.6213424
4.672172447630417	6.633466	2.5755515
4.689713827643102	6.43197	2.5361328
4.7072553176105085	6.2031903	2.4906204
4.724796917945764	5.9447355	2.4381828
4.742338629062015	5.7971396	2.407725
4.759880451372434	5.7643003	2.4008958
4.777422385290215	5.7540474	2.3987596
4.794964431228581	5.7754154	2.4032094
4.812506589600768	5.685799	2.3844914
4.830048860820047	5.671693	2.3815317
4.847591245299709	5.6804748	2.3833747
4.8651337434530655	5.7099023	2.3895402
4.882676355693457	5.646009	2.3761332
4.900219082434242	5.6015053	2.36675
4.917761924088813	5.5748124	2.361104
4.935304881070575	5.6212378	2.370915
4.952847953792969	5.6242824	2.371557
4.970391142669449	5.574296	2.3609948
4.9879344481135055	5.5597196	2.3579059
5.005477870538642	5.5138125	2.348151
5.023021410358394	5.5930753	2.3649683
5.040565067986324	5.607629	2.3680432
5.05810884383601	5.5865707	2.3635929
5.075652738321066	5.5789776	2.361986
5.09319675185512	5.491705	2.3434386
5.110740884851836	5.5250063	2.3505332
5.128285137724894	5.526541	2.3508596
5.145829510888007	5.5106044	2.3474677
5.163374004754908	5.4945097	2.344037
5.1809186197393595	5.4366765	2.3316681
5.198463356255145	5.501901	2.3456132
5.216008214716077	5.489176	2.342899
5.233553195535998	5.4957952	2.3443112
5.251098299128764	5.435375	2.3313892
5.268643525908272	5.4557333	2.335751
5.286188876288432	5.4200916	2.328109
5.3037343506831895	5.504228	2.3461092
5.32127994950651	5.49028	2.3431346
5.3388256731723915	5.4928665	2.3436866
5.356371522094851	5.4190164	2.327878
5.373917496687938	5.363287	2.3158772
5.391463597365729	5.320259	2.3065686
5.40900982454232	5.3371043	2.3102174
5.426556178631843	5.3398423	2.3108099
5.444102660048449	5.3820963	2.3199346
5.4616492692063225	5.388262	2.321263
5.479196006519669	5.3422747	2.311336
5.496742872402727	5.2124405	2.283077
5.514289867269756	5.1915517	2.2784977
5.531836991535049	5.196026	2.2794793
5.549384245612924	5.1924767	2.2787006
5.566931629917724	5.1667814	2.2730556
5.584479144863822	5.165813	2.2728424
5.6020267908656205	5.225441	2.2859223
5.619574568337545	5.2614007	2.2937744
5.637122477694054	5.3066096	2.303608
5.654670519349629	5.346399	2.3122282
5.672218693718784	5.2639465	2.2943292
5.689767001216059	5.2477417	2.290795
5.707315442256021	5.2740884	2.2965384
5.724864017253266	5.3328133	2.3092885
5.7424127266224225	5.367029	2.316685
5.75996157077814	5.366124	2.3164897
5.777510550135105	5.34682	2.312319
5.795059665108022	5.395675	2.3228593
5.812608916111639	5.3937936	2.3224542
5.830158303560715	5.468585	2.3385005
5.847707827870055	5.3607388	2.315327
5.86525748945448	5.372508	2.317867
5.8828072887288485	5.4855213	2.342119
5.900357226108044	5.61275	2.3691244
5.917907302006979	5.685283	2.3843832
5.9354575168406	6.2625117	2.502501
5.9530078710238765	6.9329934	2.6330578
5.970558364971812	7.4874654	2.7363234
5.988108999099438	7.779325	2.789144
6.005659773821818	8.278891	2.8773062
6.023210689554039	8.114908	2.8486679
6.040761746711227	8.614446	2.9350376
6.058312945708531	8.011454	2.8304513
6.075864286961132	7.4065323	2.7214944
6.093415770884244	6.688052	2.5861268
6.1109673978931065	6.216763	2.4933438
6.128519168402993	5.6064186	2.3677876
6.146071082829204	5.50973	2.3472815
6.163623141587075	5.3891044	2.3214445
6.181175345091969	5.3356357	2.3098996
6.198727693759281	5.2140193	2.2834227
6.216280188004435	5.1341996	2.2658772
6.233832828242885	5.1351748	2.2660923
6.251385614890126	5.187382	2.2775826
6.268938548361669	5.1638865	2.2724187
6.286491629073067	5.1695795	2.273671
6.304044857439898	5.2418623	2.2895114
6.321598233877777	5.151545	2.2697015
6.339151758802344	5.059451	2.2493224
6.356705432629277	4.95053	2.2249787
6.37425925577428	4.9314265	2.2206814
6.391813228653095	5.0148473	2.2393854
6.409367351681486	5.0521684	2.2477028
6.426921625275259	5.0762277	2.2530484
6.44447604985025	5.068381	2.2513065
6.46203062582232	5.091141	2.2563558
6.47958535360737	5.112295	2.2610385
6.497140233621328	5.1551843	2.270503
6.514695266280161	5.14021	2.267203
6.532250451999859	5.1441674	2.2680757
6.549805791196454	5.16066	2.2717085
6.567361284286002	5.1344147	2.2659247
6.584916931684597	5.1686664	2.2734702
6.602472733808367	5.123209	2.2634506
6.6200286910734665	5.1118197	2.2609334
6.637584803896092	5.132516	2.2655056
6.655141072692462	5.13265	2.265535
6.672697497878842	5.1534505	2.2701213
6.690254079871514	5.079502	2.2537751
6.707810819086808	5.054203	2.2481554
6.725367715941078	4.986734	2.2330997
6.742924770850719	5.049478	2.2471044
6.760481984232151	5.075807	2.2529552
6.778039356501836	5.078225	2.2534919
6.795596888076266	5.0632944	2.2501764
6.813154579371963	5.0877514	2.2556045
6.830712430805492	5.1225367	2.263302
6.84827044279344	5.1174164	2.2621708
6.865828615752445	5.154646	2.2703846
6.883386950099159	5.132223	2.265441
6.900945446250287	5.118356	2.2623785
6.918504104622553	5.102854	2.2589498
6.936062925632727	5.1540093	2.2702444
6.953621909697607	5.1712155	2.2740307
6.971181057234028	5.1742463	2.274697
6.988740368658859	5.1631474	2.2722561
7.006299844389007	5.234593	2.2879233
7.023859484841407	5.2713656	2.2959454
7.041419290433036	5.353798	2.3138275
7.058979261580902	5.4660935	2.3379679
7.0765393987020495	5.7057924	2.38868
7.094099702213559	6.1194277	2.4737477
7.111660172532549	6.515845	2.5526154
7.129220810076164	6.898181	2.6264389
7.146781615261595	7.4880867	2.7364368
7.16434258850606	7.670025	2.769481
7.181903730226821	8.105535	2.847022
7.1994650408411704	8.146539	2.8542142
7.217026520766437	8.360742	2.8914948
7.234588170419983	8.572936	2.9279578
7.252149990219215	8.577681	2.9287677
7.269711980581568	8.432201	2.9038253
7.2872741419245175	8.291045	2.8794174
7.304836474665574	7.913789	2.8131456
7.322398979222286	7.5988836	2.7566073
7.339961656012233	7.2820826	2.6985333
7.357524505453039	6.909353	2.6285648
7.375087527962357	6.664101	2.581492
7.392650723957886	6.3825755	2.526376
7.410214093857353	6.017102	2.4529781
7.427777638078528	5.8213644	2.4127505
7.445341357039213	5.6809363	2.3834715
7.4629052511572525	5.5390553	2.3535197
7.480469320850524	5.4188433	2.3278408
7.498033566536948	5.3149223	2.3054116
7.5155979886344735	5.269201	2.295474
7.5331625875610975	5.265311	2.2946265
7.550727363734844	5.3313236	2.308966
7.568292317573788	5.338025	2.3104167
7.585857449496025	5.33431	2.3096125
7.603422759919705	5.229297	2.2867656
7.620988249263007	5.1889153	2.277919
7.638553917944147	5.189273	2.2779975
7.656119766381391	5.217136	2.284105
7.673685794993023	5.2658324	2.2947402
7.691252004197388	5.260075	2.2934854
7.70881839441285	5.263144	2.2941544
7.726384966057826	5.30553	2.3033736
7.743951719550762	5.380928	2.3196828
7.761518655310149	5.411699	2.3263059
7.779085773754511	5.405561	2.3249862
7.796653075302419	5.3653736	2.3163276
7.814220560372475	5.34428	2.3117697
7.831788229383323	5.338158	2.3104455
7.8493560827536495	5.4096904	2.325874
7.866924120902174	5.4277005	2.3297427
7.884492344247663	5.418198	2.3277023
7.9020607532089135	5.386661	2.320918
7.919629348204771	5.4053583	2.3249426
7.937198129654115	5.3907146	2.3217912
7.954767097975865	5.4132605	2.3266416
7.972336253588986	5.3733377	2.318046
7.989905596912472	5.451723	2.3348925
8.007475128365371	5.4801784	2.3409781
8.025044848366756	5.6032662	2.367122
8.042614757335754	5.7190967	2.3914633
8.060184855691523	5.785247	2.4052541
8.07775514385327	5.881577	2.4251962
8.095325622240228	5.883267	2.4255447
8.112896291271687	5.992408	2.4479394
8.130467151366968	6.0647244	2.462666
8.148038202945436	6.0816684	2.4661038
8.165609446426497	6.1213117	2.4741285
8.183180882229594	6.135516	2.4769974
8.200752510774217	6.141088	2.4781218
8.218324332479893	6.10396	2.4706194
8.235896347766193	6.0815053	2.466071
8.253468557052724	6.0870934	2.4672036
8.27104096075914	6.1179876	2.4734566
8.288613559305137	6.1876616	2.4875011
8.306186353110448	6.2881875	2.5076258
8.32375934259485	6.3890615	2.5276592
8.341332528178162	6.4056396	2.5309365
8.358905910280246	6.4294653	2.535639
8.376479489321003	6.4330153	2.536339
8.394053265720377	6.4733477	2.5442774
8.411627239898356	6.3842425	2.526706
8.42920141227497	6.34305	2.5185413
8.44677578327029	6.3323016	2.5164065
8.464350353304427	6.3434024	2.5186112
8.48192512279754	6.345722	2.5190716
8.499500092169827	6.312762	2.512521
8.51707526184153	6.199864	2.4899526
8.534650632232934	6.222461	2.494486
8.552226203764365	6.189335	2.4878373
8.569801976856192	6.2686763	2.5037324
8.587377951928834	6.3371835	2.5173764
8.60495412940274	6.3905134	2.5279465
8.622530509698416	6.430616	2.535866
8.6401070932364	6.5651503	2.562255
8.657683880437283	6.690534	2.5866067
8.675260871721695	6.898262	2.6264544
8.692838067510303	7.0062776	2.6469374
8.710415468223834	7.092245	2.663127
8.727993074283043	7.1571474	2.6752846
8.745570886108737	7.1893935	2.6813045
8.763148904121765	7.2168317	2.6864161
8.78072712874302	7.306894	2.7031267
8.798305560393441	7.595268	2.7559514
8.815884199494006	7.817811	2.7960348
8.833463046465745	7.959842	2.8213193
8.851042101729728	8.024347	2.832728
8.86862136570707	8.334039	2.8868735
8.886200838818924	8.41953	2.9016426
8.903780521486505	8.512282	2.9175816
8.921360414131055	8.626941	2.9371655
8.938940517173874	8.808716	2.9679482
8.956520831036297	8.999997	2.9999995
8.97410135613971	9.212149	3.0351522
8.99168209290554	9.3157425	3.05217
9.009263041755265	9.530475	3.0871468
9.026844203110405	9.789213	3.1287718
9.044425577392525	10.0024	3.1626573
9.062007165023239	10.092491	3.1768682
9.079588966424197	10.382659	3.2222133
9.097170982017108	10.372039	3.220565
9.11475321222372	11.409842	3.3778458
9.132335657465825	12.352417	3.5146005
9.149918318165264	12.5166855	3.5378928
9.167501194743924	13.089703	3.6179695
9.18508428762374	12.799366	3.5776203
9.202667597226693	12.815172	3.5798285
9.220251123974803	12.431635	3.5258524
9.237834868290143	12.060216	3.4727821
9.255418830594836	11.863722	3.4443753
9.273003011311046	11.3342495	3.3666377
9.290587410860985	11.1567335	3.3401697
9.308172029666911	10.547614	3.247709
9.32575686815113	10.289531	3.2077298
9.343341926735997	8.933668	2.9889243
9.360927205843916	8.734276	2.955381
9.378512705897327	8.521351	2.9191353
9.396098427318728	8.355027	2.8905065
9.413684370530664	8.168653	2.8580854
9.431270535955722	8.12825	2.8510087
9.448856924016539	8.052765	2.8377395
9.466443535135806	7.93839	2.817515
9.484030369736251	7.918304	2.8139482
9.501617428240658	7.886394	2.8082724
9.519204711071852	7.9004745	2.8107784
9.536792218652714	7.891894	2.8092515
9.55437995140617	7.9204307	2.814326
9.571967909755191	7.978663	2.8246527
9.589556094122802	7.9419193	2.8181412
9.60714450493207	7.9425426	2.8182516
9.624733142606116	7.9297886	2.815988
9.642322007568108	8.086531	2.8436825
9.659911100241267	8.141624	2.8533533
9.677500421048851	8.161926	2.8569086
9.695089970414175	8.192255	2.8622115
9.712679748760609	8.247152	2.8717856
9.730269756511557	8.2905655	2.8793342
9.747859994090492	8.335317	2.8870947
9.765450461920915	8.333336	2.886752
9.78304116042639	8.3678	2.892715
9.800632090030527	8.378917	2.894636
9.81822325115699	8.40124	2.8984892
9.835814644229481	8.388831	2.896348
9.853406269671762	8.440656	2.9052806
9.870998127907646	8.479633	2.911981
9.888590219360985	8.521362	2.9191372
9.906182544455698	8.511519	2.917451
9.923775103615734	8.468431	2.910057
9.941367897265108	8.394919	2.8973987
9.958960925827878	8.359922	2.8913531
9.97655418972816	8.382177	2.895199
9.994147689390106	8.43329	2.9040127
10.011741425237934	8.378533	2.8945696
10.029335397695904	8.3046255	2.8817747
10.04692960718833	8.317611	2.8840268
10.06452405413958	8.428543	2.9031954
10.082118738974064	8.444608	2.9059608
10.099713662116246	8.459599	2.9085388
10.117308823990651	8.417979	2.9013753
10.134904225021844	8.404443	2.8990417
10.152499865634445	8.450199	2.9069226
10.170095746253125	8.466494	2.909724
10.18769186730261	8.490609	2.913865
10.205288229207675	8.35999	2.8913648
10.222884832393145	8.328611	2.8859334
10.2404816772839	8.249704	2.8722298
10.258078764304868	8.254604	2.8730826
10.275676093881035	8.168226	2.858011
10.293273666437438	8.105853	2.847078
10.310871482399158	8.173	2.858846
10.32846954219134	8.127525	2.8508816
10.346067846239173	8.167951	2.8579626
10.363666394967908	8.211661	2.8655996
10.38126518880283	8.329301	2.8860528
10.398864228169298	8.429113	2.9032936
10.416463513492713	8.4108515	2.9001467
10.434063045198531	8.334755	2.8869975
10.451662823712262	8.276982	2.8769746
10.469262849459467	8.24876	2.8720655
10.486863122865758	8.233582	2.8694217
10.504463644356806	8.212663	2.8657744
10.522064414358338	8.253064	2.8728147
10.539665433296118	8.166121	2.8576424
10.557266701595987	8.060002	2.8390143
10.574868219683818	7.9185987	2.8140004
10.592469987985552	7.869496	2.805262
10.610072006927185	7.831418	2.7984672
10.627674276934751	7.6155715	2.7596326
10.64527679843435	7.4516025	2.7297623
10.662879571852143	7.294053	2.7007504
10.680482597614331	7.216063	2.686273
10.698085876147173	7.1112905	2.6667004
10.715689407876988	7.0503025	2.6552405
10.733293193230146	6.9482656	2.6359563
10.750897232633072	6.844106	2.6161242
10.76850152651225	6.664576	2.581584
10.786106075294207	6.6311593	2.5751038
10.803710879405534	6.5853105	2.566186
10.821315939272877	6.582972	2.5657303
10.83892125532294	6.4974084	2.5490015
10.856526827982472	6.474104	2.544426
10.874132657678285	6.4531407	2.5403032
10.891738744837243	6.3958306	2.528998
10.909345089886271	6.298593	2.5096998
10.926951693252343	6.197333	2.4894443
10.944558555362494	6.1234775	2.4745662
10.96216567664381	6.0003867	2.4495687
10.979773057523436	5.936546	2.4365027
10.997380698428573	5.918918	2.4328828
11.014988599786477	5.888068	2.4265342
11.032596762024461	5.7799973	2.4041624
11.050205185569892	5.7134776	2.390288
11.067813870850198	5.666969	2.3805397
11.085422818292859	5.642332	2.3753593
11.10303202832541	5.537202	2.353126
11.120641501375454	5.4135523	2.3267043
11.138251237870636	5.318209	2.3061242
11.155861238238671	5.270194	2.2956903
11.173471502907317	5.275276	2.296797
11.191082032304402	5.2907305	2.3001587
11.208692826857805	5.215503	2.2837477
11.226303886995465	5.1511755	2.2696202
11.243915213145371	5.1014986	2.2586498
11.261526805735578	5.0749803	2.2527716
11.279138665194196	5.0206966	2.2406912
11.296750791949393	4.9476085	2.224322
11.314363186429393	4.8552756	2.203469
11.331975849062479	4.7766023	2.185544
11.34958878027699	4.673543	2.1618378
11.36720198050133	4.6221094	2.1499093
11.384815450163948	4.577857	2.1395926
11.402429189693366	4.552723	2.133711
11.420043199518153	4.5158916	2.1250627
11.437657480066942	63.47905	7.967374
11.455272031768422	85.187546	9.22971
11.472886855051353	107.630295	10.374502
11.490501950344528	99.25488	9.962674
11.508117318076819	84.57503	9.196468
11.52573295867715	45.918346	6.7763076
11.543348872574514	4.20377	2.0503097
11.560965060197946	4.156184	2.0386722
11.57858152197655	4.15677	2.038816
11.59619825833949	4.128309	2.031824
11.613815269715985	4.1204348	2.0298853
11.631432556535323	38.61298	6.2139344
11.649050119226837	83.12923	9.117523
11.666667958219929	93.491425	9.669096
11.68428607394406	107.74212	10.37989
11.701904466828756	82.59004	9.087907
11.719523137303586	65.44102	8.089562
11.737142085798196	4.666537	2.1602168
11.754761312742286	3.7989464	1.9490886
11.772380818565619	3.7535155	1.9373991
11.790000603698015	3.7194335	1.9285833
11.80762066856935	3.6782923	1.9178874
11.825241013609572	3.6134453	1.9009064
11.842861639248683	3.552878	1.884908
11.860482545916748	3.5497828	1.8840867
11.878103734043883	3.52647	1.8778898
11.895725204060282	3.4970574	1.8700421
11.91334695639619	3.48343	1.8663949
11.930968991481919	3.4683673	1.8623554
11.948591309747824	3.4699094	1.8627692
11.966213911624347	3.4380693	1.8542031
11.98383679754198	3.40974	1.8465481
12.001459967931268	3.3590825	1.83278
12.019083423222835	3.355593	1.8318278
12.036707163847352	3.3142304	1.8205028
12.05433119023556	3.2785287	1.8106707
12.071955502818259	3.185801	1.7848812
12.089580102026313	3.1758618	1.7820948
12.107204988290643	3.1839519	1.7843632
12.12483016204224	3.2268126	1.7963331
12.142455623712152	3.2343218	1.7984221
12.16008137373149	3.228784	1.7968818
12.177707412531431	3.2272544	1.7964561
12.19533374054321	3.19599	1.7877332
12.212960358198126	3.1356108	1.7707655
12.230587265927545	3.104314	1.7619064
12.248214464162889	3.0626707	1.7500488
12.265841953335649	3.052485	1.7471362
12.283469733877375	3.0359254	1.7423908
12.301097806219685	3.054553	1.747728
12.31872617079425	3.017751	1.7371675
12.336354828032825	2.9662833	1.7222902
12.353983778367205	2.9584424	1.7200123
12.371613022229262	2.9376671	1.7139624
12.389242560050928	2.9477303	1.7168956
12.406872392264201	2.9210343	1.7091033
12.424502519301143	2.9389813	1.7143457
12.442132941593874	2.95204	1.7181501
12.459763659574586	2.9182973	1.7083025
12.477394673675532	2.892262	1.7006651
12.49502598432903	2.886982	1.699112
12.51265759196746	2.8496945	1.6881038
12.530289497023267	2.826855	1.6813253
12.547921699928967	2.8100116	1.6763089
12.565554201117134	2.8385632	1.6848036
12.583187001020404	2.845026	1.6867205
12.600820100071486	2.8267653	1.6812987
12.618453498703152	2.8288825	1.6819282
12.636087197348235	2.830494	1.6824071
12.65372119643964	2.8757098	1.6957918
12.671355496410326	2.9100826	1.7058964
12.68899009769333	2.8827653	1.6978709
12.706625000721749	2.881294	1.6974375
12.724260205928752	2.8878758	1.6993752
12.741895713747551	2.9311895	1.7120717
12.759531524611454	2.994189	1.7303725
12.777167638953818	3.0237763	1.7389009
12.794804057208072	3.043433	1.7445438
12.812440779807702	3.0917702	1.758343
12.830077807186271	3.2807758	1.8112912
12.847715139777405	3.3071635	1.8185608
12.865352778014795	3.5003026	1.8709096
12.882990722332197	3.6105926	1.9001559
12.90062897316344	3.687941	1.9204013
12.918267530942412	3.7757976	1.9431412
12.935906396103071	3.697985	1.9230145
12.953545569079449	3.8438418	1.9605718
12.971185050305628	3.654686	1.9117233
12.988824840215775	3.6297193	1.9051822
13.006464939244115	3.6392064	1.9076704
13.024105347824943	3.4862638	1.8671539
13.041746066392617	3.6016502	1.8978014
13.05938709538157	3.42818	1.8515345
13.077028435226296	3.4672236	1.8620483
13.094670086361363	3.3640783	1.8341423
13.112312049221401	3.2692263	1.8081002
13.129954324241112	3.176129	1.7821698
13.147596911855258	2.9321368	1.7123483
13.165239812498685	2.903143	1.7038612
13.182883026606293	2.8233926	1.6802953
13.200526554613058	2.8030694	1.6742369
13.218170396954017	2.8220854	1.6799064
13.235814554064284	2.7891011	1.6700602
13.253459026379034	2.7571948	1.6604803
13.271103814333523	2.6849358	1.6385773
13.288748918363058	2.6773634	1.636265
13.306394338903031	2.717199	1.6483929
13.32404007638889	2.7375188	1.6545448
13.341686131256164	2.8106427	1.6764971
13.359332503940449	2.8177505	1.6786157
13.376979194877402	2.765727	1.6630476
13.394626204502751	2.7205315	1.6494033
13.412273533252307	2.6904547	1.6402606
13.429921181561937	2.6862936	1.6389916
13.447569149867581	2.6915367	1.6405903
13.465217438605247	2.7189598	1.6489269
13.482866048211022	2.7083576	1.6457088
13.500514979121052	2.7071576	1.6453443
13.518164231771568	2.6610909	1.6312851
13.535813806598844	2.6799128	1.637044
13.553463704039254	2.7357256	1.6540029
13.571113924529229	2.7605052	1.6614769
13.588764468505275	2.7909756	1.6706213
13.606415336403956	2.7793899	1.6671503
13.624066528661917	2.7940052	1.6715277
13.641718045715882	2.865199	1.6926899
13.659369888002635	2.925348	1.7103649
13.67702205595903	2.9663565	1.7223114
13.694674550021993	3.0094526	1.7347773
13.712327370628532	3.061117	1.7496048
13.729980518215713	3.1454802	1.7735502
13.747633993220681	3.2198021	1.7943807
13.765287796080647	3.2950811	1.8152359
13.7829419272329	3.3540123	1.8313962
13.800596387114801	3.3775325	1.8378065
13.818251176163775	3.4062479	1.8456023
13.835906294817324	3.4464583	1.8564639
13.853561743513023	3.4952998	1.869572
13.871217522688525	3.5428565	1.8822477
13.888873632781538	3.557128	1.886035
13.906530074229858	3.5937312	1.8957139
13.92418684747135	3.6145334	1.9011927
13.941843952943948	3.5871477	1.8939767
13.959501391085665	3.4981432	1.8703324
13.977159162334578	3.449487	1.8572794
13.994817267128846	3.421027	1.8496019
14.012475705906693	3.3700378	1.8357663
14.030134479106424	3.2647974	1.8068751
14.047793587166414	3.145811	1.7736435
14.065453030525108	3.059241	1.7490686
14.083112809621026	3.0410345	1.7438562
14.100772924892766	2.9742033	1.7245879
14.118433376778997	2.9169073	1.7078956
14.136094165718458	2.8576121	1.6904473
14.153755292149969	2.8313062	1.6826485
14.171416756512416	2.7567587	1.660349
14.189078559244768	2.655608	1.6296036
14.20674070078606	2.5681243	1.6025368
14.224403181575408	2.5356643	1.592377
14.242066002051999	2.514848	1.5858272
14.259729162655093	2.4988472	1.5807743
14.277392663824022	2.484703	1.5762941
14.295056505998208	2.472865	1.5725346
14.312720689617128	2.4920988	1.5786383
14.330385215120348	2.498978	1.5808156
14.348050082947497	2.4850295	1.5763977
14.3657152935383	2.455651	1.5670516
14.383380847332528	2.4109714	1.5527303
14.401046744770051	2.4021847	1.5498983
14.418712986290798	2.394423	1.5473924
14.436379572334793	2.3984673	1.5486985
14.454046503342123	2.3848124	1.5442837
14.471713779752946	2.3852184	1.5444152
14.489381402007504	2.429599	1.5587171
14.507049370546113	2.4572139	1.5675503
14.524717685809168	2.4745495	1.57307
14.542386348237134	2.4585104	1.5679637
14.560055358270553	2.4607117	1.5686656
14.577724716350051	2.476692	1.573751
14.595394422916325	2.480704	1.5750251
14.61306447841015	2.5063238	1.5831373
14.63073488327237	2.5018914	1.5817368
14.648405637943917	2.54498	1.5952994
14.6660767428658	2.5223649	1.5881954
14.683748198479094	2.550096	1.596902
14.701420005224954	2.6066217	1.6145035
14.719092163544628	2.6955855	1.6418239
14.73676467387942	2.732009	1.652879
14.754437536670727	2.7188702	1.6488997
14.772110752360014	2.7147157	1.6476394
14.78978432138882	2.6751268	1.6355815
14.807458244198777	2.6944072	1.641465
14.82513252123159	2.6617181	1.6314772
14.842807152929028	2.6989627	1.642852
14.860482139732962	2.699176	1.6429169
14.87815748208531	2.7086606	1.645801
14.8958331804281	2.7171192	1.6483686
14.91350923520342	2.6913977	1.640548
14.931185646853438	2.7192428	1.6490127
14.948862415820408	2.72297	1.6501424
14.966539542546656	2.7661395	1.6631715
14.98421702747459	2.7220826	1.6498735
15.001894871046696	2.7158217	1.6479751
15.019573073705542	2.6963344	1.6420518
15.037251635893766	2.700209	1.6432313
15.054930558054092	2.6990836	1.6428888
15.072609840629323	2.7782483	1.6668078
15.090289484062351	2.946314	1.7164831
15.107969488796124	3.2494938	1.8026352
15.125649855273691	3.6217468	1.9030887
15.14333058393817	4.09453	2.0234945
15.161011675232768	5.0086126	2.237993
15.17869312960076	6.3889723	2.5276415
15.196374947485506	8.257955	2.8736658
15.214057129330447	11.406518	3.3773537
15.231739675579114	16.200254	4.024954
15.249422586675102	21.425571	4.6287766
15.267105863062092	24.669767	4.966867
15.284789505183847	25.019411	5.0019407
15.302473513484218	22.922558	4.7877507
15.320157888407127	19.273453	4.390154
15.337842630396578	15.078355	3.8830857
15.355527739896656	11.792536	3.4340262
15.37321321735153	9.188976	3.0313325
15.39089906320545	6.660279	2.5807517
15.408585277902748	4.9323378	2.2208867
15.42627186188783	3.7910538	1.9470628
15.443958815605198	3.2436008	1.801
15.461646139499424	2.962599	1.7212203
15.479333834015168	2.8264153	1.6811947
15.497021899597165	2.767106	1.663462
15.514710336690234	2.7051032	1.6447198
15.53239914573928	2.6629448	1.6318532
15.550088327189297	2.596691	1.6114252
15.567777881485336	2.564264	1.601332
15.58546780907256	2.5404415	1.5938762
15.6031581103962	2.5330894	1.5915682
15.620848785901568	2.5235846	1.5885794
15.638539836034063	2.5030398	1.5820998
15.656231261239173	2.4926763	1.5788212
15.673923061962451	2.493628	1.5791225
15.691615238649552	2.4971883	1.5802494
15.709307791746202	2.4699059	1.5715934
15.727000721698221	2.4577277	1.5677141
15.744694028951498	2.4949512	1.5795414
15.76238771395202	2.4777846	1.574098
15.780081777145844	2.467034	1.5706795
15.797776218979125	2.4317148	1.5593957
15.815471039898094	2.4433627	1.563126
15.833166240349064	2.4504128	1.5653794
15.850861820778437	2.4499266	1.5652242
15.868557781632699	2.4332783	1.559897
15.886254123358412	2.4023242	1.5499433
15.903950846402232	2.3957603	1.5478244
15.921647951210897	2.3978994	1.5485152
15.939345438231225	2.379461	1.5425502
15.957043307910133	2.3885412	1.5454906
15.974741560694602	2.4141862	1.5537652
15.992440197031714	2.419027	1.5553222
16.01013921736862	2.4200003	1.555635
16.02783862215259	2.4131706	1.5534383
16.045538411830933	2.4214454	1.5560994
16.06323858685107	2.3978682	1.5485052
16.080939147660512	2.3873653	1.5451101
16.09864009470684	2.4076304	1.5516541
16.11634142843774	2.4799597	1.5747888
16.134043149300954	2.5002134	1.5812063
16.15174525774433	2.479667	1.5746958
16.169447754215817	2.466315	1.5704505
16.18715063916342	2.4684308	1.5711241
16.204853913035244	2.4714282	1.5720776
16.222557576279478	2.4379215	1.5613844
16.240261629344403	22.405022	4.733394
16.257966072678386	42.95622	6.5540996
16.275670906729868	38.105125	6.172935
16.293376131947387	2.5631282	1.6009773
16.31108174877957	2.5472639	1.596015
16.328787757675133	2.5520554	1.5975153
16.34649415908287	2.5941224	1.610628
16.364200953451657	2.6246436	1.6200752
16.38190814123048	2.611356	1.6159691
16.39961572286839	2.5967004	1.611428
16.41732369881455	2.648867	1.627534
16.43503206951817	2.7207887	1.6494813
16.45274083542859	2.7859063	1.6691035
16.47044999699522	2.8490965	1.6879267
16.488159554667558	2.8917606	1.7005178
16.505869508895184	2.9016755	1.7034305
16.523579860127786	2.9009862	1.7032281
16.541290608815117	2.9482708	1.7170529
16.559001755407035	3.0122535	1.7355845
16.57671330035348	3.0468051	1.74551
16.59442524410448	3.1169705	1.7654945
16.61213758711015	3.2592437	1.8053375
16.629850329820705	3.3456852	1.8291215
16.647563472686436	3.3881462	1.8406918
16.665277016157724	3.3723674	1.8364006
16.682990960685053	3.4174635	1.8486383
16.70070530671898	3.4607959	1.8603214
16.718420054710155	3.5426395	1.8821901
16.736135205109335	3.6070528	1.8992243
16.753850758367335	3.6754737	1.9171525
16.771566714935087	3.7193627	1.9285649
16.789283075263597	3.7995708	1.9492488
16.80699983980398	3.87189	1.9677119
16.82471700900741	3.9131358	1.9781648
16.84243458332518	3.9421859	1.9854939
16.860152563208665	3.9765174	1.9941207
16.87787094910932	4.0128245	2.0032036
16.89558974147871	4.050791	2.0126576
16.913308940768466	4.1464705	2.0362885
16.931028547430333	4.2309346	2.0569236
16.94874856191613	4.333166	2.081626
16.966468984677785	4.475561	2.1155522
16.98418981616729	4.4796085	2.1165085
17.00191105683676	4.5014777	2.1216686
17.019632707138374	4.5316644	2.1287706
17.03735476752442	4.5607715	2.1355963
17.05507723844728	4.5916038	2.1428027
17.072800120359403	4.6274595	2.151153
17.090523413713353	4.669519	2.160907
17.108247118961785	4.6569433	2.1579952
17.125971236557437	4.706864	2.1695309
17.143695766953133	4.760524	2.1818624
17.161420710601806	4.8027	2.1915064
17.179146067956477	4.799212	2.1907103
17.19687183947025	4.793508	2.189408
17.21459802559634	4.796675	2.1901314
17.232324626788028	4.7881756	2.18819
17.25005164349871	4.7525864	2.1800427
17.267779076181863	4.7415233	2.1775038
17.285506925291074	4.7491665	2.1792583
17.30323519127999	4.7256393	2.1738536
17.320963874602384	4.6419306	2.154514
17.33869297571211	4.5920014	2.1428955
17.356422495063114	4.56935	2.1376038
17.37415243310944	4.594648	2.143513
17.391882790305218	4.586275	2.1415591
17.40961356710468	4.575308	2.1389968
17.42734476396215	4.531231	2.1286688
17.445076381332044	4.5740137	2.1386943
17.462808419668868	4.6797934	2.163283
17.48054087942723	4.79398	2.189516
17.498273761061835	5.056139	2.248586
17.51600706502747	5.5200515	2.349479
17.533740791779024	6.2534976	2.5006995
17.551474941771485	7.6956787	2.7741086
17.56920951545993	8.856386	2.9759681
17.586944513299528	11.045712	3.323509
17.60467993574556	12.639101	3.5551512
17.622415783253373	14.279535	3.7788272
17.64015205627843	15.710108	3.9635978
17.657888755276293	16.882175	4.1087923
17.675625880702604	17.47571	4.180396
17.69336343301311	17.329062	4.162819
17.71110141266366	16.562145	4.0696616
17.728839820110178	15.484457	3.9350295
17.746578655808705	14.534651	3.8124337
17.764317920215372	13.008294	3.6067014
17.7820576137864	11.460641	3.385357
17.79979773697811	9.428732	3.070624
17.81753829024692	7.502968	2.7391546
17.835279274049356	5.865153	2.4218078
17.85302068884201	4.8762107	2.2082143
17.870762535081607	4.2507434	2.061733
17.888504813224934	3.9218206	1.9803587
17.90624752372891	3.7055135	1.924971
17.923990667050536	3.6046643	1.8985953
17.941734243646895	3.523352	1.8770593
17.959478253975185	3.5150445	1.8748451
17.9772226984927	3.5039878	1.8718941
17.994967577656833	3.490666	1.8683324
18.01271289192506	3.4796922	1.8653933
18.030458641754965	3.4591613	1.8598821
18.04820482760425	3.4244947	1.8505391
18.06595144993067	3.370351	1.8358516
18.083698509192125	3.3324475	1.8254993
18.101446005846576	3.2793834	1.8109068
18.119193940352105	3.2522109	1.8033887
18.136942313166887	3.2330568	1.7980703
18.1546911247492	3.22312	1.795305
18.1724403755574	3.2276328	1.7965614
18.19019006604997	3.243738	1.801038
18.207940196685467	3.2150733	1.7930626
18.225690767922575	3.1921346	1.7866546
18.243441780220046	3.1745315	1.7817215
18.261193234036764	3.1688597	1.7801291
18.278945129831676	3.1299758	1.7691737
18.29669746806386	3.1122553	1.7641585
18.314450249192483	3.0811307	1.755315
18.3322034736768	3.0735664	1.753159
18.349957141976184	3.0722597	1.7527863
18.3677112545501	3.085272	1.7564943
18.385465811858108	3.1128266	1.7643204
18.403220814359884	3.1244028	1.767598
18.420976262515172	3.146447	1.7738227
18.43873215678387	3.14691	1.7739532
18.456488497625923	3.216798	1.7935435
18.474245285501407	3.274764	1.8096309
18.492002520870486	3.3528194	1.8310705
18.50976020419343	3.4319987	1.8525654
18.527518335930615	3.75706	1.9383137
18.545276916542516	4.359206	2.0878713
18.563035946489688	4.544323	2.1317418
18.580795426232832	5.046018	2.2463343
18.598555356232698	4.9205637	2.2182343
18.616315736950185	5.2142024	2.2834628
18.63407656884626	4.8300724	2.1977425
18.65183785238201	5.0613303	2.2497401
18.669599588018617	4.847812	2.2017748
18.68736177621737	4.8323975	2.1982715
18.705124417439652	4.84124	2.2002819
18.72288751214696	4.645017	2.1552303
18.740651060800886	4.776665	2.1855583
18.758415063863115	4.4195886	2.1022818
18.77617952179546	4.5851955	2.1413069
18.793944435059814	4.3153453	2.0773408
18.811709804118184	4.3553047	2.0869367
18.829475629432675	4.317908	2.0779576
18.8472419114655	4.150869	2.037368
18.86500865067897	4.221359	2.0545945
18.88277584753551	3.8750281	1.9685091
18.90054350249763	3.8768034	1.9689599
18.918311616027957	3.545824	1.8830359
18.936080188589226	3.3985534	1.8435166
18.953849220644265	3.0982544	1.760186
18.971618712656007	2.933753	1.7128202
18.9893886650875	2.9054646	1.7045424
19.007159078401887	8.062853	2.8395164
19.024929953062408	32.906174	5.73639
19.042701289532435	32.823505	5.7291803
19.060473088275405	25.406418	5.0404778
19.07824534975489	2.6816068	1.6375612
19.096018074434568	2.643019	1.6257365
19.113791262778197	2.594414	1.6107185
19.13156491524966	2.5572166	1.5991299
19.149339032312945	2.5460966	1.5956492
19.167113614432136	2.5669267	1.6021632
19.184888662071433	2.558025	1.5993826
19.202664175695123	2.5485888	1.59643
19.220440155767623	2.600342	1.6125576
19.238216602753447	2.6345215	1.6231209
19.2559935171172	2.622036	1.6192702
19.27377089932361	2.5753374	1.6047858
19.291548749837514	2.563975	1.6012417
19.309327069123835	2.5658243	1.601819
19.32710585764763	2.5281467	1.5900147
19.344885115874032	2.52729	1.5897453
19.362664844268313	2.519714	1.5873607
19.380445043295822	2.5295413	1.5904531
19.39822571342203	2.5223956	1.5882051
19.41600685511252	2.533258	1.5916212
19.43378846883297	2.5143135	1.5856587
19.451570555049173	2.5134726	1.5853935
19.469353114227037	2.4996338	1.581023
19.48713614683254	2.5208066	1.5877048
19.50491965333182	2.5126386	1.5851305
19.52270363419109	2.5155752	1.5860565
19.540488089876686	2.5102696	1.584383
19.55827302085503	2.528697	1.5901878
19.576058427592674	2.5771074	1.6053371
19.593844310556282	2.5910885	1.6096859
19.611630670212598	2.5400598	1.5937566
19.629417507028506	2.5013576	1.5815681
19.64720482147098	2.4840176	1.5760766
19.6649926140071	2.5279682	1.5899585
19.682780885104084	2.528008	1.5899711
19.70056963522921	2.5059466	1.5830182
19.718358864849908	2.5043747	1.5825217
19.7361485744337	2.531668	1.5911216
19.753938764448215	2.5310009	1.590912
19.771729435361202	2.5472422	1.5960082
19.789520587640506	2.581951	1.606845
19.807312221754092	2.596344	1.6113175
19.825104338170043	2.5795178	1.6060877
19.842896937356517	2.5584552	1.5995172
19.860690019781824	2.5676742	1.6023964
19.87848358591436	2.5959291	1.6111888
19.896277636222635	2.5892835	1.609125
19.914072171175278	2.5556927	1.5986534
19.931867191241015	2.5466387	1.5958191
19.94966269688869	2.5671031	1.6022182
19.967458688587264	2.5661356	1.6019162
19.985255166805807	2.5406387	1.5939381
20.00305213201348	2.4690874	1.5713329
20.020849584679578	2.4162395	1.5544258
20.038647525273507	2.4225457	1.5564529
20.05644595426477	2.461137	1.5688012
20.07424487212299	2.4742033	1.57296
20.092044279317903	2.4744036	1.5730237
20.109844176319353	2.481803	1.5753739
20.127644563597304	2.4991379	1.5808662
20.145445441621817	2.4838552	1.5760251
20.16324681086307	2.4720674	1.5722809
20.181048671791373	2.4512446	1.5656451
20.198851024877122	2.4277728	1.5581312
20.216653870590836	2.4278805	1.5581658
20.234457209403146	2.450431	1.5653853
20.252261041784802	2.4265885	1.557751
20.270065368206662	2.3919141	1.5465814
20.287870189139685	2.3454344	1.5314811
20.305675505054968	2.3457487	1.5315837
20.323481316423702	2.3650699	1.5378784
20.341287623717207	2.3933778	1.5470545
20.359094427406884	2.406015	1.5511334
20.376901727964288	2.4077532	1.5516937
20.39470952586107	2.3937995	1.5471909
20.41251782156899	2.3707771	1.5397328
20.430326615559935	2.3914082	1.5464178
20.448135908305886	2.3813794	1.5431719
20.465945700278965	2.3913226	1.5463902
20.483755991951384	2.4210303	1.555966
20.50156678379548	2.4340165	1.5601335
20.519378076283708	2.424375	1.5570405
20.537189869888635	2.3967168	1.5481334
20.55500216508294	2.3724797	1.5402856
20.572814962339415	2.3715825	1.5399944
20.59062826213098	2.368386	1.5389562
20.60844206493066	2.379478	1.5425557
20.626256371211593	2.3377306	1.5289639
20.644071181447032	2.3325825	1.5272794
20.66188649611036	2.3334286	1.5275564
20.67970231567506	2.338637	1.5292603
20.697518640614742	2.3648193	1.5377969
20.715335471403122	2.3555603	1.5347835
20.73315280851404	2.332146	1.5271366
20.750970652421447	2.3306615	1.5266504
20.768789003599412	2.3307664	1.5266848
20.786607862522136	2.3497884	1.532902
20.8044272296639	2.3481085	1.5323539
20.82224710549913	2.3437285	1.5309241
20.84006749050237	2.340864	1.5299882
20.857888385148268	3.886605	1.9714475
20.8757097899116	45.972088	6.780272
20.893531705267254	64.80134	8.049928
20.911354131690224	83.820274	9.155341
20.92917706965566	69.09318	8.312231
20.94700051963877	50.17559	7.083473
20.96482448211493	29.436262	5.4255195
20.982648957559622	4.149739	2.0370908
21.00047394644843	2.243917	1.4979709
21.01829944925707	2.2463148	1.4987711
21.036125466461375	2.2503264	1.5001088
21.053951998537297	2.2382796	1.4960881
21.071779045960906	2.231421	1.4937942
21.089606609208378	2.235057	1.4950107
21.10743468875603	2.249418	1.499806
21.12526328508028	2.232794	1.4942536
21.143092398657675	2.2344098	1.4947942
21.16092202996488	2.2351356	1.495037
21.17875217947867	2.2640839	1.5046873
21.19658284767596	2.2755952	1.5085076
21.21441403503377	2.2777185	1.5092112
21.232245742029225	2.2521148	1.5007048
21.2500779691396	2.2461803	1.4987262
21.26791071684227	2.2576632	1.5025523
21.28574398561475	2.2458186	1.4986056
21.30357777593465	2.218924	1.4896053
21.321412088279704	2.2086396	1.4861493
21.339246923127792	2.1739852	1.474444
21.357082280956888	2.146921	1.4652375
21.3749181622451	2.1501029	1.4663229
21.392754567470647	2.1790252	1.4761522
21.41059149711187	2.1526315	1.4671849
21.42842895164726	2.1221824	1.4567713
21.446266931555378	2.1343772	1.4609509
21.464105437314945	2.1811287	1.4768645
21.481944469404798	2.2089014	1.4862373
21.49978402830388	2.198444	1.482715
21.51762411449127	2.1321602	1.4601918
21.53546472844617	2.1073718	1.451679
21.553305870647876	2.1183336	1.4554496
21.571147541575865	2.1109314	1.4529045
21.58898974170967	2.0925148	1.4465528
21.60683247152899	2.0838625	1.4435589
21.62467573151363	2.1019473	1.4498094
21.642519522143523	2.1225026	1.4568812
21.660363843898722	2.1262903	1.4581804
21.6782086972594	2.109998	1.4525832
21.696054082705864	2.0679991	1.438054
21.713900000718535	2.0635278	1.4364984
21.73174645177795	2.0797486	1.4421333
21.749593436364794	2.112414	1.4534146
21.767440954959845	2.1160557	1.4546669
21.785289008044032	2.086831	1.4445869
21.803137596098388	2.0378683	1.4275392
21.820986719604086	2.0280254	1.4240875
21.838836379042412	2.0388992	1.4279003
21.85668657489478	2.0050693	1.4160047
21.87453730764273	1.9782867	1.4065158
21.892388577767914	1.9691862	1.4032769
21.91024038575213	2.000858	1.4145169
21.928092732077285	2.0228932	1.4222845
21.945945617225426	1.9992028	1.4139317
21.963799041678694	1.9959111	1.4127672
21.981653005919398	31.282072	5.5930376
21.999507510429943	78.13759	8.839547
22.01736255569286	73.103096	8.5500345
22.035218142190818	4.2138987	2.0527782
22.05307427040661	2.0343676	1.4263126
22.07093094082315	2.0323005	1.4255878
22.088788153923474	2.0319867	1.4254777
22.106645910190746	1.989416	1.4104666
22.12450421010827	1.9879274	1.4099388
22.142363054159464	1.9691038	1.4032476
22.16022244282787	1.9541879	1.3979228
22.178082376597164	1.9551662	1.3982726
22.195942855951145	1.969578	1.4034165
22.213803881373742	2.0087209	1.4172935
22.231665453349002	1.9968077	1.4130845
22.24952757236111	1.9729218	1.4046074
22.26739023889438	1.9521827	1.3972054
22.28525345343323	1.9709374	1.4039007
22.30311721646225	1.9647511	1.4016958
22.320981528466113	1.9994773	1.4140288
22.33884638992964	1.9908922	1.4109898
22.356711801337788	1.9905441	1.4108664
22.37457776317561	1.9705696	1.4037697
22.392444275928337	1.9866726	1.4094938
22.410311340081282	1.9937453	1.4120004
22.428178956119904	2.002174	1.414982
22.446047124529805	1.9773227	1.4061731
22.46391584579669	1.9585298	1.3994749
22.481785120406414	1.9513412	1.3969041
22.49965494884496	1.9343272	1.390801
22.51752533159841	1.9366188	1.3916246
22.53539626915302	1.9624915	1.4008895
22.553267761995137	1.9756258	1.4055696
22.571139810611264	1.9827448	1.4080998
22.589012415488025	1.9877499	1.4098759
22.60688557711216	1.9951234	1.4124883
22.624759295970566	1.9816806	1.4077218
22.642633572550263	1.9617049	1.4006088
22.660508407338362	1.9465292	1.3951807
22.67838380082217	1.9498316	1.3963637
22.696259753489077	1.9570185	1.3989347
22.714136265826614	1.970691	1.403813
22.73201333832246	1.9860934	1.4092883
22.74989097146439	1.9761126	1.4057428
22.76776916574035	1.9568207	1.398864
22.785647921638393	1.9268227	1.3881004
22.803527239646712	1.9360121	1.3914065
22.82140712025363	1.931421	1.3897557
22.839287563947593	1.9493073	1.396176
22.85716857121719	1.9913315	1.4111454
22.875050142551135	1.966941	1.4024768
22.892932278438277	1.9466981	1.3952413
22.910814979367604	1.904598	1.3800718
22.928698245828222	1.9682333	1.4029374
22.946582078309387	1.9651943	1.4018539
22.96446647730047	1.9416573	1.3934337
22.98235144329098	1.9135536	1.3833126
23.000236976770562	1.9394258	1.3926327
23.018123078229	1.9339231	1.3906556
23.03600974815619	1.9477495	1.395618
23.053896987042194	1.950806	1.3967125
23.071784795377173	1.9512342	1.3968658
23.08967317365145	1.9337689	1.3906002
23.10756212235546	1.933323	1.3904399
23.125451641979787	1.9292862	1.3889875
23.143341733015134	1.9169267	1.3845313
23.161232395952357	1.9296232	1.3891088
23.179123631282426	1.9485481	1.3959041
23.197015439496468	1.9603387	1.400121
23.214907821085717	1.9927078	1.411633
23.23280077654157	2.0077033	1.4169345
23.250694306355538	2.0095527	1.4175869
23.268588411019277	1.983439	1.4083462
23.28648309102458	2.0157564	1.4197733
23.304378346863356	1.9991602	1.4139166
23.322274179027676	1.9826725	1.408074
23.340170588009723	1.9449195	1.3946037
23.358067574301852	1.9392731	1.3925779
23.37596513839651	1.9337256	1.3905846
23.39386328078629	1.9235563	1.3869233
23.411762001963947	1.9404316	1.3929938
23.429661302422353	1.9690125	1.403215
23.4475611826545	1.9779053	1.4063802
23.46546164315356	1.9714361	1.4040784
23.48336268441279	1.9379961	1.3921193
23.501264306925638	1.9227202	1.3866218
23.51916651118564	1.8993552	1.378171
23.537069297686497	1.8986075	1.3778996
23.554972666922037	1.8946351	1.3764575
23.57287661938623	1.9114425	1.3825493
23.59078115557318	1.9648907	1.4017456
23.608686275977128	1.9818324	1.4077756
23.62659198109246	1.9776336	1.4062836
23.6444982714137	1.985049	1.4089177
23.66240514743549	2.0074499	1.4168451
23.68031260965263	1.9780449	1.4064299
23.698220658560068	1.9274447	1.3883244
23.716129294652845	1.9186594	1.3851569
23.7340385184262	1.9412493	1.3932872
23.75194833037546	1.9459205	1.3949625
23.769858730996123	1.9408399	1.3931403
23.78776972078382	1.9364895	1.3915781
23.80568130023431	1.9369323	1.3917371
23.823593469843495	1.9192367	1.3853651
23.841506230107424	1.9356644	1.3912816
23.859419581522275	1.9460772	1.3950187
23.87733352458438	1.9317046	1.3898578
23.89524805979019	1.9275951	1.3883786
23.913163187636318	1.9496177	1.3962871
23.931078908619508	1.9745445	1.4051849
23.948995223236633	1.9944639	1.4122549
23.966912131984735	2.0037072	1.4155236
23.98482963536096	2.015901	1.4198244
24.002747733862616	1.9933791	1.4118708
24.020666427987155	2.0190592	1.420936
24.038585718232156	2.0766888	1.4410721
24.056505605095353	2.129876	1.4594095
24.074426089074617	2.1457088	1.4648238
24.092347170667946	2.1296067	1.4593172
24.110268850373515	2.1274414	1.4585751
24.128191128689586	2.1174312	1.4551395
24.146114006114626	2.0794756	1.4420387
24.164037483147187	2.054557	1.4333726
24.181961560286005	2.0539625	1.4331652
24.199886238029926	2.0438824	1.4296441
24.21781151687797	2.069348	1.4385229
24.235737397329274	2.0959697	1.4477464
24.253663879883135	2.118031	1.4553456
24.271590965038975	2.0737543	1.4400536
24.289518653296376	2.0724545	1.4396021
24.30744694515505	2.0644064	1.4368042
24.32537584111486	2.0958853	1.4477173
24.34330534167581	2.0823407	1.4430318
24.361235447338046	2.1018887	1.4497892
24.379166158601876	2.0793588	1.4419982
24.39709747596772	2.0352328	1.4266158
24.41502939993615	2.0107205	1.4179988
24.432961931007917	2.0069196	1.4166579
24.450895069683856	2.055297	1.4336307
24.468828816465	2.0548897	1.4334886
24.4867631718525	2.0480325	1.4310949
24.504698136347656	2.0592768	1.4350181
24.52263371045192	2.0540652	1.4332011
24.540569894666874	2.0228117	1.4222559
24.558506689494266	2.0092213	1.4174701
24.57644409543597	1.9889002	1.4102837
24.594382112994012	1.9891462	1.410371
24.61232074267057	2.0174375	1.4203652
24.630259984967953	2.000593	1.4144232
24.64819984038863	1.9780346	1.4064262
24.66614030943522	1.9590818	1.399672
24.684081392610462	1.9467894	1.3952739
24.702023090417274	1.9812585	1.4075718
24.7199654033587	1.9948645	1.4123967
24.737908331937927	2.0095615	1.41759
24.755851876658305	2.020238	1.4213507
24.773796038023324	2.0180924	1.4205958
24.79174081653661	2.0249102	1.4229934
24.809686212701962	2.0724785	1.4396106
24.827632227023294	2.0965002	1.4479296
24.8455788600047	2.0752223	1.4405632
24.8635261121504	2.0711796	1.4391594
24.88147398396475	2.101987	1.449823
24.899422475952303	2.0678303	1.4379952
24.917371588617698	2.0586348	1.4347943
24.935321322465768	2.11815	1.4553865
24.953271678001478	2.2748704	1.5082674
24.97122265572994	2.4965727	1.5800546
24.989174256156414	2.77983	1.6672822
25.00712647978632	3.1898623	1.7860185
25.02507932712521	3.7211764	1.9290351
25.043032798678798	4.2810874	2.069079
25.060986894952933	4.9404964	2.2227228
25.078941616453637	5.694384	2.3862908
25.096896963687055	6.6830125	2.5851524
25.114852937159508	7.798889	2.792649
25.132809537377444	8.322925	2.884948
25.150766764847468	8.3488245	2.8894331
25.168724620076347	7.853202	2.8023565
25.186683103570985	6.798496	2.6073925
25.204642215838426	5.602357	2.3669298
25.222601957385894	4.2254925	2.0556002
25.24056232872074	3.2460608	1.8016828
25.25852333035048	2.7199075	1.6492143
25.276484962782778	2.3522303	1.5336982
25.294447226525435	2.1666934	1.4719692
25.312410122086423	2.0730464	1.4398078
25.330373649973843	2.04546	1.4301958
25.348337810695988	2.0002997	1.4143195
25.366302604761245	1.9904523	1.410834
25.384268032678207	1.9647213	1.4016851
25.40223409495558	1.9625229	1.4009007
25.420200792102257	1.933634	1.3905517
25.438168124627246	1.9135414	1.3833082
25.45613609303974	1.8905181	1.3749611
25.474104697849057	1.9396766	1.3927227
25.492073939564698	1.9101179	1.3820702
25.510043818696285	1.9291941	1.3889543
25.528014335753614	1.9034568	1.3796582
25.54598549124664	1.9492348	1.39615
25.56395728568544	1.9663258	1.4022573
25.58192971958028	1.95987	1.3999536
25.59990279344156	1.8844128	1.3727392
25.617876507779833	1.8438985	1.3579023
25.635850863105826	1.869574	1.3673236
25.653825859930386	1.9083627	1.381435
25.671801498764548	1.947186	1.395416
25.68977778011949	1.9600089	1.4000032
25.707754704506524	1.9209399	1.3859798
25.725732272437153	1.8972567	1.3774095
25.743710484423012	1.894417	1.3763782
25.761689340975888	1.8734007	1.3687223
25.77966884260774	1.8827921	1.3721488
25.797648989830662	1.8837864	1.372511
25.815629783156922	1.8889673	1.374397
25.83361122309895	1.8584673	1.3632561
25.85159331016929	1.8873867	1.373822
25.869576044880695	1.8966957	1.3772057
25.887559427746034	1.888028	1.3740553
25.90554345927836	1.8673285	1.3665023
25.92352813999086	1.8924714	1.3756713
25.94151347039689	1.880095	1.3711655
25.959499451009965	1.8434355	1.3577317
25.97748608234374	1.7940941	1.339438
25.995473364912062	1.819359	1.3488362
26.013461299228904	1.8360167	1.3549969
26.03144988580839	1.8530586	1.3612709
26.04943912516483	1.8606924	1.364072
26.067429017812675	1.8566916	1.3626047
26.085419564266537	1.8386035	1.3559512
26.103410765041186	1.8284354	1.3521966
26.12140262065155	1.8227664	1.3500987
26.139395131612723	1.8425273	1.3573972
26.157388298439948	1.8186964	1.3485905
26.17538212164861	1.8144025	1.3469976
26.193376601754295	1.788222	1.3372442
26.211371739272714	1.7822382	1.3350049
26.229367534719746	1.8163316	1.3477135
26.247363988611433	1.8750869	1.3693382
26.26536110146397	1.9333758	1.3904588
26.283358873793727	1.9057846	1.3805016
26.301357306117204	1.8557576	1.3622619
26.319356398951104	1.8273283	1.3517871
26.33735615281224	1.8149136	1.3471873
26.35535656821762	1.8325335	1.353711
26.373357645684404	1.830883	1.3531013
26.39135938572991	1.8268173	1.351598
26.409361788871614	1.8331099	1.3539239
26.427364855627165	1.8581251	1.3631306
26.445368586514352	1.8904176	1.3749245
26.46337298205115	1.8862468	1.373407
26.48137804275568	1.8468502	1.3589886
26.499383769146217	1.8389392	1.3560749
26.517390161741215	1.9065548	1.3807805
26.53539722105928	1.9452077	1.3947071
26.553404947619182	1.9007195	1.3786658
26.571413341939856	1.8021863	1.3424553
26.589422404540397	1.7924408	1.3388207
26.60743213594006	1.8453597	1.3584402
26.62544253665827	1.8675052	1.3665669
26.64345360721459	1.8379812	1.3557217
26.66146534812879	1.8220614	1.3498375
26.679477759920758	1.8392125	1.3561757
26.69749084311057	1.8287961	1.3523299
26.71550459821847	1.7969668	1.3405099
26.733519025764842	1.8059409	1.343853
26.751534126270258	1.8048507	1.3434473
26.769549900255434	1.8512324	1.3606
26.787566348241267	1.8201568	1.3491318
26.80558347074881	1.8354721	1.3547959
26.823601268299267	1.8608541	1.3641313
26.841619741414036	1.8798487	1.3710757
26.85963889061465	1.859972	1.3638079
26.877658716422832	1.8348777	1.3545766
26.89567921936045	1.7897329	1.337809
26.913700399949544	1.7717267	1.3310622
26.93172225871233	1.7916217	1.3385147
26.949744796171174	1.8228766	1.3501395
26.967768012848605	1.8345406	1.3544521
26.98579190926733	1.8231834	1.3502531
27.003816485950225	1.8427606	1.3574831
27.021841743420318	1.8562034	1.3624256
27.039867682200814	1.8367503	1.3552676
27.057894302815072	1.7872269	1.3368721
27.07592160578664	1.7598417	1.3265903
27.0939495916392	1.8125249	1.3463005
27.111978260896635	1.8559042	1.3623158
27.13000761408296	1.869819	1.3674133
27.148037651722397	1.8400275	1.3564761
27.166068374339304	1.8355418	1.3548217
27.184099782458215	1.7724853	1.3313471
27.20213187660384	1.8001194	1.3416853
27.22016465730105	1.8167707	1.3478763
27.23819812507487	1.8392785	1.3562
27.256232280450533	1.8339183	1.3542224
27.274267123953383	1.8395258	1.3562912
27.292302656108987	1.8284371	1.3521972
27.31033887744306	1.8404093	1.3566169
27.32837578848146	1.8496894	1.3600328
27.34641338975026	1.8266275	1.3515278
27.364451681775673	1.8099287	1.3453358
27.382490665084074	1.7803005	1.3342791
27.400530340202046	1.7990254	1.3412775
27.41857070765629	1.8348054	1.3545499
27.436611767973726	1.8147113	1.3471122
27.454653521681404	1.8129319	1.3464516
27.472695969306564	1.8252017	1.3510003
27.490739111376627	1.8377796	1.3556473
27.508782948419153	1.8350793	1.354651
27.526827480961902	1.8656608	1.3658919
27.54487270953279	1.892418	1.3756518
27.562918634659898	1.9065838	1.380791
27.580965256871508	1.8474128	1.3591957
27.599012576696026	1.844581	1.3581536
27.617060594662068	1.8160814	1.3476206
27.63510931129842	1.7412713	1.3195723
27.65315872713401	1.7295419	1.3151205
27.67120884269797	1.8260922	1.3513298
27.68925965851958	1.8983358	1.3778011
27.707311175128307	1.9192529	1.385371
27.725363393053787	1.936255	1.3914938
27.74341631282583	1.9121925	1.3828205
27.7614699349744	1.9367515	1.3916721
27.77952426002968	2.096162	1.4478129
27.797579288521973	2.1885881	1.4793878
27.815635020981784	2.5654423	1.6016998
27.83369145793979	2.581302	1.6066431
27.85174859992682	2.3894482	1.545784
27.869806447473923	2.2352376	1.495071
27.887865001112267	2.0202496	1.4213549
27.905924261373233	1.9857277	1.4091585
27.92398422878836	1.9826772	1.4080757
27.94204490388936	1.9572616	1.3990216
27.96010628720813	1.9560624	1.3985931
27.978168379276728	1.9638127	1.401361
27.9962311806274	1.9305552	1.3894442
28.014294691792568	1.8818381	1.371801
28.0323589133048	1.8453724	1.3584448
28.050423845696887	1.8895966	1.3746259
28.068489489501758	1.8951356	1.3766392
28.086555845252523	1.8996483	1.3782773
28.104622913482487	1.8879433	1.3740245
28.122690694725115	1.8944435	1.3763878
28.14075918951405	1.9264911	1.3879809
28.15882839838312	1.970504	1.4037465
28.176898321866304	1.9338254	1.3906205
28.1949689604978	1.8812939	1.3716027
28.213040314811945	1.9015703	1.3789743
28.23111238534327	1.934147	1.3907361
28.249185172626493	1.9409852	1.3931924
28.267258677196473	1.9667681	1.4024152
28.285332899588294	1.9583602	1.3994142
28.303407840337172	1.9059956	1.380578
28.321483499978545	1.8641063	1.3653228
28.33955987904799	1.9102689	1.3821248
28.357636978081285	1.9546596	1.3980914
28.37571479761439	1.9986948	1.4137521
28.393793338183425	2.0418446	1.4289312
28.41187260032469	2.0526507	1.4327074
28.429952584574686	1.993153	1.4117907
28.448033291470065	1.9497148	1.3963219
28.46611472154769	1.9596579	1.3998778
28.484196875344566	1.9722805	1.404379
28.502279753397914	1.9562861	1.3986729
28.52036335624511	1.9677854	1.4027777
28.538447684423716	1.9981632	1.413564
28.556532738471482	2.03476	1.4264501
28.574618518926325	2.0488813	1.4313914
28.59270502632635	2.0580602	1.434594
28.61079226120985	2.0428336	1.4292773
28.628880224115274	2.06943	1.4385514
28.646968915581287	2.1384764	1.462353
28.66505833614671	2.1389399	1.4625115
28.68314848635055	2.1102588	1.452673
28.701239366732004	2.0975182	1.4482812
28.71933097783044	2.085943	1.4442794
28.737423320185403	2.0998273	1.4490781
28.75551639433665	2.1501386	1.466335
28.773610200824074	2.2050786	1.4849507
28.791704740187793	2.1748526	1.4747381
28.80980001296809	2.1487103	1.465848
28.827896019705413	2.1695457	1.4729377
28.845992760940433	2.1805	1.4766517
28.86409023721397	2.2481458	1.4993818
28.88218844906704	2.2924564	1.514086
28.900287397040845	2.2974293	1.5157273
28.918387081676755	2.3306978	1.5266623
28.936487503516343	2.3931108	1.5469682
28.954588663101365	2.4408088	1.5623088
28.97269056097374	2.3848155	1.5442848
28.990793197675597	2.3788044	1.5423373
29.00889657374923	2.3692982	1.5392525
29.027000689737125	2.3422062	1.5304269
29.04510554618196	2.385098	1.5443763
29.06321114362659	2.4613829	1.5688795
29.08131748261405	2.5361505	1.5925295
29.099424563687567	2.567264	1.6022685
29.11753238739057	2.5759172	1.6049664
29.13564095426663	2.5691357	1.6028523
29.15375026485954	2.523493	1.5885506
29.171860319713275	2.611603	1.6160455
29.18997111937199	2.6674185	1.6332233
29.20808266438002	2.779442	1.6671659
29.226194955281898	2.838539	1.6847963
29.244307992622335	2.8599358	1.6911345
29.26242177694624	2.8540454	1.689392
29.2805363087987	2.8934789	1.7010229
29.29865158872498	2.9249163	1.7102387
29.316767617270557	2.969574	1.7232451
29.334884394981064	2.9709175	1.723635
29.353001922402367	2.9423761	1.7153356
29.37112020008047	3.0087042	1.7345617
29.389239228561596	3.1313548	1.7695634
29.407359008392152	3.3083522	1.8188876
29.42547954011872	3.6471553	1.9097527
29.44360082428809	4.285631	2.0701766
29.46172286144722	5.379754	2.3194296
29.479845652143283	6.8976016	2.6263285
29.497969196923606	8.894242	2.9823217
29.516093496335728	11.346418	3.3684444
29.5342185509274	14.278518	3.7786925
29.55234436124651	16.67827	4.083904
29.570470927841175	18.14157	4.259292
29.588598251259686	18.04979	4.248504
29.60672633205055	16.643	4.079583
29.624855170762405	14.460655	3.8027167
29.642984767944146	11.773666	3.4312778
29.66111512414481	8.985115	2.997518
29.67924623991366	6.7068524	2.589759
29.697378115800138	5.123276	2.2634656
29.71551075235387	4.272108	2.066908
29.733644150124675	3.8042815	1.9504567
29.751778309662576	3.5625231	1.8874648
29.769913231517766	3.4930205	1.8689624
29.78804891624066	3.4277947	1.8514304
29.806185364381818	3.3420935	1.8281393
29.82432257649206	3.3763895	1.8374954
29.842460553122333	3.3549325	1.8316475
29.86059929482382	3.3156242	1.8208855
29.878738802147872	3.2494478	1.8026224
29.896879075646048	3.2370486	1.79918
29.915020115870114	3.2908084	1.8140585
29.933161923371976	3.274943	1.8096803
29.951304498703777	3.2532036	1.803664
29.969447842417857	3.2790637	1.8108186
29.987591955066733	3.2652762	1.8070076
30.005736837203123	3.2508652	1.8030156
30.023882489379943	3.2836297	1.8120788
30.04202891215028	3.346771	1.8294182
30.060176106067455	3.279841	1.8110331
30.078324071684946	3.137076	1.7711792
30.09647280955646	3.0576077	1.7486017
30.114622320235863	3.0941138	1.7590094
30.132772604277257	3.156824	1.7767453
30.1509236622349	3.1458614	1.7736577
30.16907549466328	3.114137	1.7646917
30.18722810211705	3.1463952	1.7738081
30.205381485151097	3.1892843	1.7858567
30.22353564432045	3.212691	1.7923981
30.241690580180403	3.1916375	1.7865155
30.25984629328638	3.091763	1.758341
30.278002784194037	3.024093	1.738992
30.296160053459246	3.0339317	1.7418185
30.314318101638033	3.0534093	1.7474008
30.332476929286646	3.0619543	1.7498441
30.35063653696153	3.0441432	1.7447473
30.368796925219307	2.9616947	1.7209575
30.386958094616844	2.9580934	1.7199109
30.40512004571115	2.998954	1.7317488
30.423282779059463	3.023598	1.7388496
30.441446295219233	2.9621472	1.721089
30.459610594748067	2.9139097	1.7070178
30.47777567820382	2.9126863	1.7066594
30.495941546144504	2.9316447	1.7122046
30.51410819912835	2.883999	1.6982341
30.532275637713795	2.798366	1.6728318
30.55044386245946	2.7874331	1.6695608
30.56861287392416	2.7876506	1.6696259
30.586782672666956	2.8068905	1.6753777
30.604953259247047	2.7706723	1.6645336
30.623124634223885	2.7599013	1.661295
30.641296798157075	2.7425702	1.6560707
30.659469751606462	2.7612617	1.6617044
30.677643495132074	2.8048077	1.674756
30.695818029294152	2.7530072	1.6592188
30.713993354653116	2.6726236	1.634816
30.73216947176962	2.7412891	1.6556839
30.75034638120448	2.8471072	1.6873373
30.768524083518756	2.8165953	1.6782715
30.786702579273673	2.7683096	1.6638238
30.80488186903069	2.801922	1.6738943
30.82306195335144	2.8814788	1.6974919
30.841242832797782	3.061639	1.749754
30.85942450793176	3.4005268	1.8440517
30.877606979315637	3.7557309	1.9379708
30.895790247511883	4.2194653	2.0541337
30.913974313083134	4.6701508	2.1610532
30.932159176592283	4.925845	2.2194245
30.95034483860237	4.9053617	2.2148051
30.968531299676698	4.67047	2.161127
30.98671856037873	4.345633	2.084618
31.00490662127215	4.044854	2.0111823
31.023095482920848	3.610257	1.9000676
31.04128514588892	3.0664473	1.7511275
31.059475610740662	2.7050974	1.644718
31.07766687804056	2.5781283	1.6056551
31.09585894835335	2.5261538	1.5893879
31.11405182224393	2.4950693	1.5795789
31.132245500277417	2.5084739	1.5838163
31.15043998301914	2.4707983	1.5718774
31.168635271034628	2.4405499	1.5622259
31.18683136488964	2.4482658	1.5646936
31.20502826515008	2.5061069	1.5830688
31.223225972382135	2.499079	1.5808475
31.241424487152155	2.459319	1.5682217
31.259623810026692	2.4022672	1.5499249
31.27782394157253	2.4096816	1.5523149
31.296024882356644	2.4254124	1.5573735
31.314226632946237	2.4915252	1.5784565
31.332429193908684	2.494223	1.579311
31.350632565811598	2.4338615	1.5600839
31.368836749222787	2.4434245	1.5631456
31.387041744710295	2.5196176	1.5873303
31.40524755284232	2.552294	1.5975901
31.423454174187317	2.5955374	1.6110672
31.441661609313922	2.5703237	1.603223
31.459869858791002	2.475291	1.5733057
31.478078923187628	2.3924315	1.5467486
31.496288803073064	2.358029	1.5355874
31.514499499016807	2.3722224	1.540202
31.532711011588546	2.320135	1.523199
31.550923341358178	2.392598	1.5468025
31.56913648889584	2.453975	1.5665169
31.587350454771844	2.4564815	1.5673167
31.605565239556732	2.453689	1.5664256
31.62378084382127	2.4100308	1.5524274
31.641997268136382	2.3673093	1.5386063
31.660214513073274	2.3301246	1.5264746
31.67843257920331	2.350375	1.5330932
31.6966514670981	2.3878646	1.5452716
31.71487117732944	2.3577673	1.5355023
31.733091710469346	2.2848713	1.511579
31.751313067090052	2.204649	1.4848061
31.769535247764008	2.222478	1.4907978
31.787758253063878	2.3038826	1.5178546
31.805982083562526	2.3468878	1.5319556
31.824206739833024	2.3165195	1.5220116
31.84243222244869	2.2942486	1.5146778
31.860658531983013	2.2954845	1.5150857
31.878885669009737	2.3416066	1.5302309
31.897113634102784	2.3424015	1.5304906
31.91534242783632	2.325966	1.5251118
31.933572050784694	2.185718	1.4784174
31.951802503522508	2.18579	1.4784417
31.970033786624548	2.2381454	1.4960432
31.988265900665834	2.2747416	1.5082247
32.006498846221575	2.258612	1.5028679
32.02473262386724	2.2645044	1.504827
32.04296723417845	2.267885	1.5059499
32.0612026777311	2.2071602	1.4856515
32.07943895510129	2.2121556	1.4873317
32.097676066865304	2.241788	1.4972601
32.115914013599685	2.213881	1.4879116
32.13415279588115	2.2271118	1.492351
32.152392414286666	2.2566152	1.5022035
32.1706328693934	2.223958	1.491294
32.18887416177875	2.2516427	1.5005474
32.20711629202032	2.2624645	1.5041491
32.225359260695924	2.193183	1.4809399
32.243603068383614	2.1218748	1.4566656
32.26184771566166	2.1379719	1.4621805
32.28009320310852	2.1835372	1.4776797
32.2983395313029	2.159924	1.469668
32.31658670082372	2.1423793	1.4636868
32.33483471225012	2.1067262	1.4514565
32.35308356616143	2.0751214	1.4405282
32.371333263137245	2.0527587	1.4327452
32.38958380375734	2.0724292	1.4395934
32.407835188601744	2.0564117	1.4340194
32.42608741825067	2.0430605	1.4293567
32.444340493284585	2.1165392	1.454833
32.46259441428416	2.1682632	1.4725024
32.48084918183028	2.1355584	1.461355
32.49910479650405	2.089861	1.4456351
32.51736125888683	2.1179209	1.4553078
32.53561856956014	2.1258535	1.4580307
32.5538767291058	2.067179	1.4377687
32.572135738105764	2.0299938	1.4247785
32.59039559714228	2.0723982	1.4395826
32.608656306797776	2.1123927	1.4534073
32.62691786765491	2.116825	1.4549313
32.645180280296586	2.0815315	1.4427514
32.663443545305896	2.0881248	1.4450345
32.68170766326619	2.0693805	1.4385341
32.69997263476099	2.0080767	1.4170662
32.7182384603741	1.9795328	1.4069587
32.7365051406895	2.0112822	1.4181968
32.75477267629144	2.0175903	1.4204191
32.77304106776434	2.0269063	1.4236946
32.79131031569289	2.0584369	1.4347254
32.809580420661966	2.070777	1.4390194
32.827851383256714	2.040065	1.4283085
32.84612320406245	2.0746622	1.4403688
32.86439588366476	2.0138638	1.4191067
32.88266942264945	1.9743732	1.405124
32.9009438216025	1.969457	1.4033735
32.9192190811102	2.0782344	1.4416083
32.937495201758985	2.1393955	1.4626672
32.95577218413556	2.168017	1.4724188
32.974050028826866	2.2113442	1.4870589
32.992328736420035	2.2399912	1.49666
33.010608307502444	2.15197	1.4669594
33.02888874266169	1.9747465	1.4052567
33.047170042485604	1.9488821	1.3960236
33.06545220756225	1.9933416	1.4118575
33.083735238479896	2.0048602	1.4159309
33.10201913582707	1.9203492	1.3857666
33.12030390019248	1.8836533	1.3724625
33.138589532165135	1.9374334	1.3919171
33.15687603233419	1.9614619	1.400522
33.17516340128909	1.8757764	1.3695899
33.19345163961947	1.9920267	1.4113917
33.211740747915215	2.050196	1.4318506
33.23003072676643	1.9293015	1.388993
33.248321576763466	1.8816402	1.3717289
33.266613298496885	1.90543	1.3803731
33.28490589255747	1.9482692	1.3958042
33.30319935953626	1.9011437	1.3788197
33.32149370002451	1.8667625	1.3662952
33.339788914613706	1.9617047	1.4006087
33.358085003895575	1.9686826	1.4030975
33.376381968462034	1.8801435	1.3711833
33.39467980890529	1.8735905	1.3687916
33.41297852581774	1.8771926	1.3701068
33.43127811979204	1.8632712	1.3650169
33.44957859142105	1.9207791	1.3859217
33.467879941297866	1.928223	1.3886046
33.486182170015844	1.9243308	1.3872025
33.50448527816853	1.9389539	1.3924632
33.522789266349754	1.9189436	1.3852594
33.541094135153514	1.8351169	1.3546648
33.55939988517411	1.8061806	1.3439422
33.57770651700602	1.876485	1.3698485
33.59601403124398	1.9279276	1.3884983
33.61432242848296	1.9757729	1.4056219
33.632631709318154	2.0388463	1.4278817
33.650941874344994	2.06262	1.4361824
33.66925292415916	2.0277867	1.4240037
33.68756485935654	1.9652207	1.4018633
33.70587768053328	1.9405265	1.3930278
33.724191388285746	1.9444046	1.3944191
33.74250598321054	1.9258332	1.387744
33.760821465904506	1.988891	1.4102805
33.77913783696474	2.077975	1.4415183
33.79745509698852	1.9788525	1.406717
33.815773246573414	1.7988285	1.3412042
33.8340922863172	1.862661	1.3647934
33.852412216817896	1.929437	1.3890418
33.87073303867377	1.8801697	1.3711928
33.889054752483304	1.8734988	1.3687581
33.907377358845245	1.9857869	1.4091796
33.92570085835853	2.1179144	1.4553056
33.94402525162239	2.2045882	1.4847856
33.96235053923627	2.1640043	1.4710555
33.980676721799824	2.1818805	1.477119
33.999003799912984	2.1629884	1.4707102
34.01733177417592	2.037542	1.427425
34.03566064518901	2.0170467	1.4202276
34.0539904135529	2.1477435	1.4655181
34.07232107986846	2.130775	1.4597174
34.090652644736785	2.1138833	1.45392
34.108985108759235	2.0990775	1.4488193
34.12731847253742	1.9610503	1.400375
34.14565273667313	1.8869793	1.3736737
34.16398790176847	2.014351	1.4192783
34.18232396842574	2.0500333	1.4317937
34.20066093724749	1.884121	1.3726329
34.21899880883651	1.8637794	1.365203
34.23733758379583	1.9699738	1.4035575
34.25567726272874	1.925364	1.3875749
34.27401784623872	1.8795776	1.3709769
34.29235933492957	1.9274071	1.3883109
34.31070172940526	1.9782778	1.4065126
34.32904503027003	2.0647717	1.4369314
34.347389238128386	2.0782967	1.4416299
34.36573435358502	1.9391253	1.3925248
34.38408037724492	1.8391446	1.3561506
34.402427309713296	1.8829081	1.372191
34.42077515159559	1.9315485	1.3898016
34.43912390349752	1.8926681	1.3757428
34.45747356602499	1.9351763	1.3911061
34.47582413978423	2.0164568	1.42002
34.49417562538163	2.1244512	1.4575497
34.51252802342388	2.0167043	1.4201071
34.53088133451789	1.9140973	1.383509
34.54923555927084	1.8425777	1.3574158
34.567590698290104	1.8924065	1.3756477
34.58594675218336	1.9263288	1.3879225
34.6043037215585	1.9670434	1.4025133
34.62266160702365	2.0977366	1.4483565
34.641020409187234	2.2303898	1.493449
34.65938012865785	2.0860717	1.444324
34.677740766044394	1.9821413	1.4078854
34.69610232195598	2.0346425	1.4264089
34.714464797002016	2.0686016	1.4382634
34.73282819179208	2.0634127	1.4364583
34.751192506936064	2.0325718	1.4256829
34.76955774304408	1.995338	1.4125643
34.7879239007265	1.9254754	1.387615
34.80629098059391	1.8024148	1.3425404
34.824658983257194	1.7467668	1.321653
34.843027909327446	1.9188753	1.3852347
34.86139775941603	2.0913105	1.4461364
34.879768534134534	2.1133227	1.4537272
34.89814023409483	2.0889084	1.4453057
34.91651285990901	1.994057	1.4121108
34.93488641218944	1.9554733	1.3983824
34.95326089154871	2.0433512	1.4294584
34.97163629859967	1.9638231	1.4013647
34.99001263395542	1.8090163	1.3449968
35.00838989822934	1.8783871	1.3705426
35.02676809203499	2.0302327	1.4248624
35.04514721598624	2.0429666	1.4293238
35.063527270697215	1.9899135	1.410643
35.081908256782256	1.896077	1.3769811
35.10029017485597	1.8547106	1.3618776
35.11867302553321	1.9502606	1.3965173
35.137056809429104	1.9756218	1.4055681
35.155441527159006	2.0365713	1.4270849
35.173827179338524	2.0831876	1.4433252
35.19221376658354	1.9288796	1.3888412
35.21060128951017	1.7812022	1.3346169
35.2289897487348	1.7944311	1.3395637
35.24737914487405	1.9049741	1.380208
35.26576947854479	1.7768955	1.3330024
35.28416075036418	1.759276	1.326377
35.30255296094958	2.166499	1.4719032
35.32094611091867	2.2366867	1.4955556
35.33934020088932	2.0000648	1.4142365
35.35773523147969	1.9535408	1.3976912
35.3761312033082	2.03043	1.4249316
35.394528116993506	1.84375	1.3578476
35.41292597315452	1.8517342	1.3607844
35.431324772410434	1.9205298	1.3858318
35.449724515380666	2.183912	1.4778064
35.46812520268491	2.570682	1.6033347
35.486526834943106	2.4168792	1.5546315
35.504929412775454	2.4541876	1.5665847
35.52333293680242	2.4078922	1.5517385
35.54173740764471	2.2055442	1.4851075
35.560142825923286	1.8808252	1.3714318
35.5785491922594	1.5768532	1.2557281
35.59695650727454	1.3152434	1.1468406
35.61536477159042	1.1140177	1.0554703
