0.008763373481513119	0.56609195	0.7523908
0.026290120649546365	0.36068255	0.60056853
0.043816868432600686	0.2109245	0.45926517
0.06134361724069026	0.094355136	0.3071728
0.07887036748382949	0.109879285	0.33148044
0.0963971195720331	0.14287332	0.37798586
0.11392387391531617	0.22088479	0.46998382
0.1314506309236943	0.18525477	0.43041232
0.1489773910071836	0.2598384	0.50974345
0.16650415457580078	0.18076491	0.42516458
0.18403092203956356	0.13807681	0.3715869
0.20155769380849	0.10119745	0.31811547
0.2190844702925996	0.07475603	0.2734155
0.2366112519019124	0.07321888	0.2705899
0.2541380390464497	0.046554603	0.21576516
0.27166483213623416	0.08006461	0.2829569
0.28919163158128947	0.07923308	0.2814837
0.3067184377916406	0.12784666	0.35755652
0.324245251177314	0.12146414	0.34851706
0.34177207214833777	0.12199256	0.34927434
0.3592989011147415	0.13643841	0.3693757
0.37682573848655654	0.19289167	0.43919435
0.39435258467381573	0.26799914	0.5176863
0.41187944008655414	0.28731522	0.53601795
0.42940630513480854	0.2505212	0.50052094
0.446933180228618	0.20796825	0.45603535
0.4644600657780234	0.23385942	0.48359013
0.48198696219306775	0.22532777	0.47468704
0.49951386988379676	0.2331447	0.4828506
0.5170407892602581	0.18364376	0.42853677
0.5345677207325025	0.13260794	0.3641537
0.5520946647105822	0.142319	0.3772519
0.5696216216045534	0.14797677	0.3846775
0.5871485918244737	0.17649548	0.42011365
0.6046755757804043	0.18382381	0.4287468
0.6222025738824094	0.18828522	0.43391845
0.6397295865405557	0.15500665	0.39370883
0.6572566141649129	0.12933658	0.35963395
0.6747836571655547	0.09144428	0.30239755
0.6923107159525568	0.106042296	0.32564136
0.7098377909359992	0.102450214	0.32007846
0.7273648825259653	0.11214659	0.33488294
0.7448919911325411	0.12734354	0.35685226
0.762419117165817	0.18683846	0.43224815
0.7799462610358868	0.24434762	0.4943153
0.7974734231528482	0.26594785	0.5157013
0.8150006039268024	0.22950098	0.47906262
0.8325278037678551	0.19425423	0.44074282
0.8500550230861152	0.14794908	0.3846415
0.8675822622916969	0.14861748	0.38550937
0.8851095217947171	0.16192617	0.4024005
0.9026368020052984	0.1640467	0.4050268
0.9201641033335665	0.1736214	0.41667902
0.9376914261896523	0.17197485	0.4146985
0.9552187709836915	0.18542787	0.43061337
0.9727461381258234	0.20289244	0.45043582
0.990273528026193	0.2493804	0.49938002
1.0078009410949496	0.24635048	0.49633706
1.0253283777422473	0.24320047	0.4931536
1.0428558383782454	0.26699162	0.5167123
1.0603833234131086	0.3243238	0.56949437
1.0779108332570058	0.35331962	0.59440696
1.0954383683201119	0.3346183	0.578462
1.112965929012607	0.37424657	0.611757
1.1304935157446763	0.50942475	0.71374
1.1480211289265108	0.56784344	0.75355387
1.1655487689683062	1.4126836	1.1885637
1.1830764362802655	1.7022842	1.3047161
1.200604131272596	2.1560376	1.4683452
1.2181318543555117	2.5502794	1.5969595
1.235659605939232	2.5386782	1.593323
1.253187386433982	3.9966013	1.9991502
1.270715196249994	6.1913824	2.4882488
1.2882430357975057	11.691273	3.4192502
1.3057709054867608	16.476908	4.059176
1.3232988057280106	22.214523	4.7132287
1.3408267369315112	27.623106	5.255769
1.358354699507526	31.320822	5.596501
1.3758826938663256	35.819267	5.98492
1.3934107204181858	37.91471	6.157492
1.410938779573391	38.19649	6.180331
1.4284668717422309	38.458378	6.201482
1.4459949973350033	37.71305	6.141095
1.4635231567620117	37.452213	6.1198215
1.4810513504335687	36.65861	6.0546355
1.4985795787599925	35.841114	5.986745
1.5161078421516088	35.461693	5.9549723
1.5336361410187505	34.358112	5.8615794
1.5511644757717598	34.530354	5.876253
1.5686928468209842	35.107876	5.92519
1.58622125457678	35.87482	5.989559
1.6037496994495108	36.832222	6.0689554
1.621278181849548	36.563152	6.046747
1.6388067021872719	37.344597	6.1110225
1.6563352608730693	36.663994	6.05508
1.673863858317336	35.71335	5.9760647
1.6913924949304753	35.230385	5.9355187
1.7089211711228998	34.336067	5.859699
1.7264498873050296	34.03133	5.8336377
1.7439786438872935	33.05986	5.7497706
1.7615074412801288	32.15168	5.670245
1.779036279893981	31.294683	5.5941653
1.796565160139305	30.268335	5.5016665
1.814094082426564	29.57868	5.4386287
1.8316230471662298	28.821686	5.368583
1.849152054768784	27.810987	5.2736125
1.8666811056447168	27.06455	5.20236
1.8842102002045273	26.196499	5.1182513
1.901739338858724	25.814806	5.080827
1.9192685220178245	25.269167	5.0268445
1.9367977500923557	24.695225	4.969429
1.9543270234928547	23.965265	4.895433
1.971856342629867	23.295351	4.8265257
1.9893857079139496	22.971619	4.7928715
2.006915119755667	22.628578	4.7569504
2.0244445785655945	22.112288	4.7023706
2.0419740847543175	21.533966	4.6404705
2.0595036387324317	20.955023	4.577666
2.0770332409105414	20.446072	4.5217333
2.094562891699263	19.993654	4.4714265
2.1120925915092217	19.650652	4.4329057
2.129622340751053	19.542637	4.4207053
2.1471521398354043	188.03572	13.712612
2.1646819891729323	444.33646	21.07929
2.182211889174303	440.46414	20.987238
2.1997418402501974	452.76166	21.278196
2.2172718428113023	432.6664	20.800634
2.234801897268317	320.846	17.912174
2.2523320040319548	17.338068	4.1639004
2.269862163512935	17.14654	4.140838
2.287392376121992	16.592821	4.0734286
2.304922642269869	16.0818	4.010212
2.322452962367322	15.759559	3.969831
2.3399833368251164	15.837627	3.9796517
2.357513766054032	15.65489	3.9566262
2.3750442504648586	15.277778	3.9086797
2.3925747904683963	14.9261465	3.8634372
2.410105386475459	14.733718	3.8384526
2.4276360388968707	14.358636	3.789279
2.445166748143469	14.148386	3.761434
2.4626975146261025	13.676476	3.6981719
2.4802283387556323	13.642544	3.6935813
2.4977592209429305	13.561387	3.6825788
2.5152901615988825	13.3628435	3.6555223
2.5328211611343865	13.150573	3.6263719
2.5503522199603523	12.7643795	3.5727272
2.5678833384877024	12.583973	3.5473895
2.5854145171273712	12.369598	3.517044
2.6029457562903064	12.111579	3.4801693
2.620477056387469	11.769125	3.430616
2.6380084178298326	11.622416	3.4091663
2.655539841028383	11.344639	3.3681803
2.673071326394119	11.261407	3.355802
2.6906028743380523	11.110839	3.3332925
2.708134485271211	10.886374	3.2994506
2.7256661596046325	10.675704	3.2673695
2.743197897749369	10.43425	3.2302089
2.760729700116486	10.404015	3.2255254
2.778261567117063	10.473824	3.2363286
2.795793499162193	10.2879305	3.2074804
2.8133254966629817	10.025638	3.1663287
2.830857560030551	9.760762	3.1242218
2.8483896896760337	9.576896	3.094656
2.865921886010578	9.367953	3.0607111
2.883454149445347	9.358654	3.0591917
2.9009864803915177	9.302072	3.0499299
2.91851887926028	9.229901	3.0380752
2.9360513464628384	9.15897	3.026379
2.953583882410413	8.870279	2.9783015
2.9711164875142373	8.847949	2.9745502
2.9886491621855606	8.750805	2.958176
3.0061819068356455	8.718527	2.9527152
3.023714721875769	8.654744	2.9418948
3.041247607717225	8.560487	2.9258308
3.0587805647713213	8.368528	2.8928409
3.0763135934493806	8.295028	2.880109
3.0938466941627407	8.154626	2.8556306
3.1113798673227544	8.1324	2.8517363
3.1289131133407904	7.957145	2.8208413
3.1464464326282315	7.8259916	2.7974973
3.1639798255964786	7.681908	2.7716255
3.1815132926569443	7.39294	2.718996
3.1990468342210603	7.3666396	2.7141554
3.216580450700272	7.190063	2.6814294
3.2341141425060416	7.205609	2.6843264
3.251647910049847	7.156217	2.6751106
3.2691817537431813	7.046038	2.6544375
3.286715673997555	7.026916	2.6508331
3.3042496712244938	7.060686	2.657195
3.32178374583554	7.083355	2.6614573
3.339317898242251	7.0993423	2.6644592
3.3568521288562034	6.945372	2.6354074
3.3743864380889876	6.719005	2.5921044
3.3919208263522127	6.6520944	2.5791655
3.4094552940575023	6.5750484	2.5641856
3.4269898416164972	6.57006	2.5632129
3.444524469440858	6.551754	2.5596395
3.4620591779422587	6.440217	2.5377584
3.479593967532391	6.4206357	2.5338974
3.4971288386229658	6.3142543	2.512818
3.5146637916257086	6.266415	2.5032809
3.5321988269523628	6.213914	2.4927723
3.5497339450146903	6.201785	2.4903383
3.5672691462244708	6.269183	2.5038338
3.5848044309934988	6.3369427	2.5173285
3.60233979973359	6.3270454	2.5153618
3.619875252856575	6.294322	2.5088487
3.6374107907743034	6.3311462	2.516177
3.6549464138986427	6.238898	2.4977787
3.6724821226414788	6.2188435	2.4937608
3.690017917414714	6.253471	2.500694
3.7075537986302702	6.275885	2.5051718
3.7250897667000857	6.2856965	2.5071292
3.7426258220361235	6.4069166	2.5311887
3.7601619650503553	6.763395	2.6006527
3.777698196154779	7.2986298	2.7015977
3.7952345157614067	8.31154	2.8829741
3.8127709242822716	9.103695	3.017233
3.830307422129425	11.113089	3.3336298
3.847844009714936	29.896126	5.467735
3.8653806874508954	97.40352	9.869322
3.882917455749409	96.87043	9.842278
3.900454315022606	96.74479	9.835893
3.917991265682631	41.277412	6.42475
3.9355283081416506	10.974697	3.312808
3.9530654428118495	8.762508	2.9601533
3.970602670105433	7.4727197	2.7336276
3.9881399904346244	6.555365	2.5603447
4.005677404211669	6.3448987	2.5189083
4.023214911848827	6.3951035	2.5288541
4.0407525137583855	6.35204	2.5203254
4.058290210352644	6.349059	2.519734
4.075828002043927	6.210613	2.49211
4.0933658892445814	6.2609158	2.5021822
4.110903872366966	6.2995934	2.5098991
4.128441951823468	6.288541	2.5076964
4.145980128026488	6.1681	2.483566
4.163518401388452	6.071728	2.4640877
4.181056772321807	6.116476	2.473151
4.1985952412390155	6.243336	2.498667
4.216133808552567	6.333446	2.5166337
4.233672474674966	6.32216	2.5143905
4.251211240018741	6.5235577	2.5541255
4.268750104996445	6.8196797	2.6114516
4.286289070020643	7.755615	2.7848904
4.303828135503928	9.438798	3.0722628
4.3213673018589125	29.61914	5.442347
4.3389065694982305	90.84916	9.531483
4.356445938834537	165.97813	12.88325
4.3739854102805085	171.50388	13.095949
4.391524984248844	172.32909	13.127418
4.409064661152262	136.49144	11.682955
4.426604441403504	96.92888	9.845246
4.444144325415337	75.894806	8.711762
4.461684313600543	21.950272	4.6851115
4.47922440637193	22.016716	4.6921973
4.496764604142329	20.287191	4.5041304
4.5143049073245916	18.422808	4.29218
4.531845316331589	16.443289	4.0550327
4.5493858315762195	13.833903	3.7193956
4.566926453471405	11.60386	3.4064438
4.584467182430081	9.603467	3.098946
4.602008018865218	8.357866	2.8909974
4.619548963189798	7.533751	2.744768
4.637090015816834	6.9731026	2.6406634
4.654631177159353	6.7451615	2.5971448
4.672172447630417	6.4700403	2.5436275
4.689713827643102	6.40221	2.530259
4.7072553176105085	6.1833715	2.4866385
4.724796917945764	6.0807137	2.4659104
4.742338629062015	5.907088	2.4304502
4.759880451372434	5.7936835	2.4070072
4.777422385290215	5.6745057	2.382122
4.794964431228581	5.583546	2.362953
4.812506589600768	5.6304183	2.3728502
4.830048860820047	5.66983	2.3811405
4.847591245299709	5.671827	2.3815598
4.8651337434530655	5.5783267	2.361848
4.882676355693457	5.490562	2.3431947
4.900219082434242	5.4364557	2.331621
4.917761924088813	5.5175896	2.348955
4.935304881070575	5.5412664	2.3539894
4.952847953792969	5.4973435	2.3446414
4.970391142669449	5.4303718	2.3303158
4.9879344481135055	5.380208	2.3195276
5.005477870538642	5.3824506	2.320011
5.023021410358394	5.462181	2.337131
5.040565067986324	5.5185747	2.3491647
5.05810884383601	5.527382	2.3510385
5.075652738321066	5.430412	2.3303244
5.09319675185512	5.329846	2.308646
5.110740884851836	5.370572	2.3174496
5.128285137724894	5.447309	2.3339472
5.145829510888007	5.435996	2.3315222
5.163374004754908	5.350125	2.3130336
5.1809186197393595	5.2703958	2.2957342
5.198463356255145	5.2460856	2.2904334
5.216008214716077	5.269981	2.2956438
5.233553195535998	5.274088	2.2965384
5.251098299128764	5.302889	2.3028002
5.268643525908272	5.3465257	2.3122556
5.286188876288432	5.323933	2.307365
5.3037343506831895	5.275792	2.2969093
5.32127994950651	5.1461415	2.2685108
5.3388256731723915	5.1246734	2.2637742
5.356371522094851	5.119241	2.262574
5.373917496687938	5.1662745	2.272944
5.391463597365729	5.1486883	2.269072
5.40900982454232	5.186156	2.2773132
5.426556178631843	5.1908484	2.2783434
5.444102660048449	5.273672	2.2964478
5.4616492692063225	5.208629	2.282242
5.479196006519669	5.1459656	2.2684722
5.496742872402727	5.1245165	2.2637396
5.514289867269756	5.133917	2.2658148
5.531836991535049	5.194403	2.2791233
5.549384245612924	5.1283183	2.264579
5.566931629917724	5.136211	2.266321
5.584479144863822	5.1242785	2.263687
5.6020267908656205	5.1792793	2.275803
5.619574568337545	5.145471	2.268363
5.637122477694054	5.1108174	2.2607117
5.654670519349629	5.0714445	2.2519867
5.672218693718784	5.0569286	2.2487617
5.689767001216059	5.061637	2.2498083
5.707315442256021	5.092529	2.2566633
5.724864017253266	5.1546216	2.270379
5.7424127266224225	5.1997805	2.2803028
5.75996157077814	5.1748185	2.2748227
5.777510550135105	5.1645293	2.2725601
5.795059665108022	5.2116833	2.282911
5.812608916111639	5.293493	2.300759
5.830158303560715	5.415921	2.3272133
5.847707827870055	5.4149537	2.3270054
5.86525748945448	5.425855	2.3293464
5.8828072887288485	5.547124	2.3552332
5.900357226108044	5.5862484	2.3635247
5.917907302006979	5.6515546	2.3772998
5.9354575168406	6.1588793	2.481709
5.9530078710238765	6.765336	2.601026
5.970558364971812	7.226082	2.6881373
5.988108999099438	7.5630355	2.7500973
6.005659773821818	8.051511	2.8375185
6.023210689554039	7.8142624	2.7954001
6.040761746711227	8.186095	2.8611352
6.058312945708531	7.5577717	2.7491403
6.075864286961132	7.1111584	2.6666756
6.093415770884244	6.519689	2.553368
6.1109673978931065	6.071591	2.4640598
6.128519168402993	5.504285	2.3461213
6.146071082829204	5.399366	2.3236535
6.163623141587075	5.296218	2.3013513
6.181175345091969	5.2939634	2.3008614
6.198727693759281	5.2821345	2.2982895
6.216280188004435	5.2360086	2.2882326
6.233832828242885	5.2066255	2.2818031
6.251385614890126	5.2456317	2.2903345
6.268938548361669	5.239063	2.2889
6.286491629073067	5.1454782	2.2683647
6.304044857439898	5.0545835	2.24824
6.321598233877777	4.933708	2.2211952
6.339151758802344	4.891436	2.2116592
6.356705432629277	4.8658037	2.2058568
6.37425925577428	4.9277296	2.219849
6.391813228653095	4.9421244	2.223089
6.409367351681486	4.94762	2.2243247
6.426921625275259	4.922365	2.2186403
6.44447604985025	4.9326954	2.2209673
6.46203062582232	4.9809456	2.2318032
6.47958535360737	5.06149	2.2497756
6.497140233621328	5.075203	2.2528212
6.514695266280161	5.0020413	2.2365243
6.532250451999859	4.99445	2.2348266
6.549805791196454	4.931688	2.2207403
6.567361284286002	5.011596	2.2386594
6.584916931684597	5.0164256	2.2397377
6.602472733808367	5.0462976	2.2463965
6.6200286910734665	5.0168247	2.239827
6.637584803896092	4.9812355	2.2318683
6.655141072692462	4.9617476	2.227498
6.672697497878842	4.9732895	2.2300873
6.690254079871514	4.999043	2.235854
6.707810819086808	5.069842	2.251631
6.725367715941078	5.046363	2.246411
6.742924770850719	5.002103	2.2365382
6.760481984232151	4.9166355	2.2173488
6.778039356501836	4.8952484	2.2125208
6.795596888076266	4.91342	2.2166235
6.813154579371963	4.9339643	2.221253
6.830712430805492	4.9735622	2.2301486
6.84827044279344	5.0139556	2.2391863
6.865828615752445	5.009897	2.23828
6.883386950099159	5.055341	2.2484086
6.900945446250287	5.0803185	2.253956
6.918504104622553	5.094305	2.2570567
6.936062925632727	5.0568624	2.2487469
6.953621909697607	4.9566917	2.226363
6.971181057234028	4.95257	2.225437
6.988740368658859	4.967211	2.228724
7.006299844389007	5.095077	2.2572277
7.023859484841407	5.2245812	2.2857342
7.041419290433036	5.3460755	2.312158
7.058979261580902	5.4487877	2.3342638
7.0765393987020495	5.6149597	2.3695905
7.094099702213559	6.016611	2.4528782
7.111660172532549	6.35091	2.5201013
7.129220810076164	6.6804156	2.58465
7.146781615261595	7.272477	2.696753
7.16434258850606	7.584972	2.7540827
7.181903730226821	8.183738	2.8607233
7.1994650408411704	8.351526	2.8899007
7.217026520766437	8.377276	2.8943524
7.234588170419983	8.513951	2.9178677
7.252149990219215	8.385689	2.8958054
7.269711980581568	8.264249	2.8747606
7.2872741419245175	8.013087	2.8307397
7.304836474665574	7.532469	2.7445343
7.322398979222286	7.2465806	2.6919475
7.339961656012233	7.064066	2.657831
7.357524505453039	6.8013806	2.6079457
7.375087527962357	6.531744	2.5557277
7.392650723957886	6.2368226	2.497363
7.410214093857353	5.889804	2.4268918
7.427777638078528	5.683257	2.3839583
7.445341357039213	5.5113244	2.347621
7.4629052511572525	5.3364735	2.3100808
7.480469320850524	5.322758	2.3071103
7.498033566536948	5.3418717	2.311249
7.5155979886344735	5.341144	2.3110914
7.5331625875610975	5.2550373	2.2923868
7.550727363734844	5.184936	2.2770455
7.568292317573788	5.1053667	2.2595057
7.585857449496025	5.0836864	2.254703
7.603422759919705	5.0549183	2.2483146
7.620988249263007	5.0482936	2.2468407
7.638553917944147	5.029005	2.2425444
7.656119766381391	5.0804067	2.2539756
7.673685794993023	5.1143446	2.2614918
7.691252004197388	5.198469	2.2800152
7.70881839441285	5.2646117	2.2944741
7.726384966057826	5.2837663	2.2986445
7.743951719550762	5.349942	2.3129942
7.761518655310149	5.3365917	2.3101065
7.779085773754511	5.3102703	2.3044024
7.796653075302419	5.19735	2.2797697
7.814220560372475	5.1681986	2.2733672
7.831788229383323	5.209441	2.28242
7.8493560827536495	5.2716327	2.2960036
7.866924120902174	5.3034844	2.3029296
7.884492344247663	5.314894	2.3054054
7.9020607532089135	5.309118	2.3041523
7.919629348204771	5.3218613	2.306916
7.937198129654115	5.3781133	2.319076
7.954767097975865	5.340893	2.311037
7.972336253588986	5.324823	2.3075578
7.989905596912472	5.285826	2.2990925
8.007475128365371	5.3436646	2.3116367
8.025044848366756	5.4863424	2.3422942
8.042614757335754	5.618137	2.370261
8.060184855691523	5.6768913	2.3826227
8.07775514385327	5.8030033	2.4089425
8.095325622240228	5.8458242	2.417814
8.112896291271687	5.8546686	2.4196422
8.130467151366968	5.8763847	2.4241257
8.148038202945436	5.8242335	2.4133449
8.165609446426497	5.8116336	2.410733
8.183180882229594	5.889532	2.4268358
8.200752510774217	5.910478	2.4311476
8.218324332479893	5.956181	2.4405289
8.235896347766193	5.9742513	2.4442282
8.253468557052724	6.023891	2.4543617
8.27104096075914	5.982788	2.4459739
8.288613559305137	5.999436	2.4493747
8.306186353110448	6.0519843	2.460078
8.32375934259485	6.129999	2.4758835
8.341332528178162	6.188182	2.4876056
8.358905910280246	6.2201533	2.4940236
8.376479489321003	6.2007704	2.4901347
8.394053265720377	6.248502	2.4997003
8.411627239898356	6.29502	2.508988
8.42920141227497	6.314792	2.512925
8.44677578327029	6.27149	2.5042944
8.464350353304427	6.1707683	2.4841032
8.48192512279754	6.160339	2.482003
8.499500092169827	6.1250806	2.47489
8.51707526184153	6.170695	2.4840884
8.534650632232934	6.152522	2.4804277
8.552226203764365	6.1210594	2.4740775
8.569801976856192	6.153642	2.4806535
8.587377951928834	6.2050266	2.490989
8.60495412940274	6.147878	2.4794915
8.622530509698416	6.2171836	2.493428
8.6401070932364	6.3843393	2.526725
8.657683880437283	6.5595565	2.5611632
8.675260871721695	6.6896453	2.5864348
8.692838067510303	6.8264427	2.6127462
8.710415468223834	6.9422197	2.6348093
8.727993074283043	7.0990567	2.6644056
8.745570886108737	7.096663	2.6639562
8.763148904121765	7.1754622	2.6787052
8.78072712874302	7.1515746	2.6742427
8.798305560393441	7.3842525	2.7173982
8.815884199494006	7.5233374	2.7428703
8.833463046465745	7.737871	2.781703
8.851042101729728	7.8714933	2.8056183
8.86862136570707	8.153409	2.8554175
8.886200838818924	8.334991	2.8870385
8.903780521486505	8.442112	2.9055312
8.921360414131055	8.535917	2.9216292
8.938940517173874	8.7325115	2.9550824
8.956520831036297	8.939406	2.989884
8.97410135613971	9.183571	3.0304408
8.99168209290554	9.304349	3.050303
9.009263041755265	9.4391985	3.0723279
9.026844203110405	9.636065	3.104201
9.044425577392525	9.748151	3.1222029
9.062007165023239	9.900656	3.1465309
9.079588966424197	10.231497	3.198671
9.097170982017108	10.41132	3.2266576
9.11475321222372	11.381646	3.3736696
9.132335657465825	12.254698	3.5006711
9.149918318165264	12.269442	3.5027764
9.167501194743924	12.796982	3.577287
9.18508428762374	12.524803	3.5390399
9.202667597226693	12.441872	3.5273037
9.220251123974803	12.077999	3.4753416
9.237834868290143	11.687243	3.418661
9.255418830594836	11.461292	3.385453
9.273003011311046	11.0582	3.3253872
9.290587410860985	10.831898	3.291185
9.308172029666911	10.191348	3.192389
9.32575686815113	9.981912	3.1594164
9.343341926735997	8.833905	2.9721887
9.360927205843916	8.588597	2.930631
9.378512705897327	8.383246	2.8953836
9.396098427318728	8.102211	2.8464384
9.413684370530664	8.07963	2.842469
9.431270535955722	7.935457	2.8169944
9.448856924016539	7.800122	2.7928698
9.466443535135806	7.617535	2.7599883
9.484030369736251	7.639979	2.7640512
9.501617428240658	7.739351	2.7819688
9.519204711071852	7.7941976	2.791809
9.536792218652714	7.7993927	2.7927394
9.55437995140617	7.8335643	2.7988505
9.571967909755191	7.8294806	2.798121
9.589556094122802	7.828681	2.797978
9.60714450493207	7.758144	2.7853446
9.624733142606116	7.786903	2.7905023
9.642322007568108	7.848678	2.8015492
9.659911100241267	7.984442	2.8256755
9.677500421048851	8.06754	2.8403416
9.695089970414175	8.0929	2.8448024
9.712679748760609	8.108826	2.8476
9.730269756511557	8.069507	2.8406878
9.747859994090492	8.032328	2.8341362
9.765450461920915	8.068503	2.840511
9.78304116042639	8.173812	2.8589878
9.800632090030527	8.277111	2.876997
9.81822325115699	8.275208	2.8766663
9.835814644229481	8.195514	2.8627808
9.853406269671762	8.09164	2.844581
9.870998127907646	8.185012	2.860946
9.888590219360985	8.196758	2.862998
9.906182544455698	8.225177	2.8679569
9.923775103615734	8.180923	2.8602314
9.941367897265108	8.172094	2.8586876
9.958960925827878	8.239348	2.8704264
9.97655418972816	8.302748	2.881449
9.994147689390106	8.293127	2.879779
10.011741425237934	8.204459	2.8643427
10.029335397695904	8.069798	2.840739
10.04692960718833	8.094961	2.8451645
10.06452405413958	8.179212	2.8599322
10.082118738974064	8.211954	2.8656507
10.099713662116246	8.222868	2.8675544
10.117308823990651	8.193472	2.8624241
10.134904225021844	8.118922	2.8493721
10.152499865634445	8.103941	2.8467422
10.170095746253125	8.16355	2.8571928
10.18769186730261	8.175883	2.8593502
10.205288229207675	8.19851	2.8633041
10.222884832393145	8.162572	2.8570216
10.2404816772839	8.142941	2.853584
10.258078764304868	8.104105	2.846771
10.275676093881035	8.037964	2.8351302
10.293273666437438	8.045086	2.836386
10.310871482399158	8.10024	2.846092
10.32846954219134	8.040459	2.8355703
10.346067846239173	8.035411	2.83468
10.363666394967908	8.061294	2.8392417
10.38126518880283	8.06786	2.8403978
10.398864228169298	8.15649	2.855957
10.416463513492713	8.206927	2.8647735
10.434063045198531	8.210457	2.8653896
10.451662823712262	8.110192	2.8478398
10.469262849459467	8.128356	2.8510273
10.486863122865758	8.136255	2.8524122
10.504463644356806	8.123487	2.8501732
10.522064414358338	8.004679	2.8292542
10.539665433296118	7.8306365	2.7983274
10.557266701595987	7.791939	2.7914045
10.574868219683818	7.74193	2.7824323
10.592469987985552	7.6899524	2.7730763
10.610072006927185	7.6054444	2.757797
10.627674276934751	7.52006	2.7422729
10.64527679843435	7.3579645	2.7125568
10.662879571852143	7.2364993	2.6900742
10.680482597614331	7.115852	2.6675553
10.698085876147173	7.0208635	2.649691
10.715689407876988	6.922268	2.6310203
10.733293193230146	6.813958	2.6103559
10.750897232633072	6.749634	2.5980058
10.76850152651225	6.6759453	2.583785
10.786106075294207	6.625963	2.5740945
10.803710879405534	6.471877	2.5439885
10.821315939272877	6.347971	2.519518
10.83892125532294	6.290733	2.5081334
10.856526827982472	6.266902	2.5033782
10.874132657678285	6.2820745	2.5064068
10.891738744837243	6.288932	2.5077744
10.909345089886271	6.183571	2.4866786
10.926951693252343	6.0817604	2.4661226
10.944558555362494	6.0461383	2.4588897
10.96216567664381	5.9946947	2.4484065
10.979773057523436	5.9728355	2.4439385
10.997380698428573	5.8533554	2.419371
11.014988599786477	5.7195168	2.391551
11.032596762024461	5.5753207	2.3612118
11.050205185569892	5.5291076	2.3514054
11.067813870850198	5.50164	2.3455575
11.085422818292859	5.4843435	2.3418674
11.10303202832541	5.4172416	2.3274968
11.120641501375454	5.4036164	2.324568
11.138251237870636	5.343933	2.3116949
11.155861238238671	5.255652	2.2925208
11.173471502907317	5.1574416	2.2710001
11.191082032304402	5.1063704	2.259728
11.208692826857805	5.0940895	2.257009
11.226303886995465	5.05274	2.2478302
11.243915213145371	5.0260706	2.24189
11.261526805735578	4.9183707	2.21774
11.279138665194196	4.8412113	2.2002752
11.296750791949393	4.802957	2.191565
11.314363186429393	4.7577944	2.181237
11.331975849062479	4.718193	2.1721401
11.34958878027699	4.683593	2.164161
11.36720198050133	4.6372175	2.15342
11.384815450163948	4.5804715	2.1402037
11.402429189693366	4.525848	2.127404
11.420043199518153	4.493828	2.119865
11.437657480066942	63.404312	7.9626822
11.455272031768422	85.12959	9.22657
11.472886855051353	107.51084	10.368744
11.490501950344528	99.131645	9.956488
11.508117318076819	84.49856	9.192309
11.52573295867715	45.926464	6.7769065
11.543348872574514	4.2389255	2.058865
11.560965060197946	4.177988	2.0440128
11.57858152197655	4.143803	2.0356333
11.59619825833949	4.0638075	2.0158887
11.613815269715985	4.0075626	2.0018897
11.631432556535323	38.525063	6.2068563
11.649050119226837	83.11586	9.11679
11.666667958219929	93.52214	9.670685
11.68428607394406	107.776665	10.381554
11.701904466828756	82.57373	9.087008
11.719523137303586	65.40526	8.087352
11.737142085798196	4.6343307	2.1527495
11.754761312742286	3.721229	1.9290488
11.772380818565619	3.6437774	1.9088681
11.790000603698015	3.6000774	1.897387
11.80762066856935	3.6032135	1.8982133
11.825241013609572	3.6115088	1.9003971
11.842861639248683	3.5557542	1.8856708
11.860482545916748	3.4881053	1.867647
11.878103734043883	3.4793105	1.865291
11.895725204060282	3.4333642	1.8529339
11.91334695639619	3.3904636	1.8413211
11.930968991481919	3.2956429	1.8153906
11.948591309747824	3.2922933	1.8144678
11.966213911624347	3.3129692	1.8201563
11.98383679754198	3.3216245	1.8225324
12.001459967931268	3.2962272	1.8155515
12.019083423222835	3.2699842	1.8083098
12.036707163847352	3.25855	1.8051454
12.05433119023556	3.2541206	1.8039181
12.071955502818259	3.2272136	1.7964448
12.089580102026313	3.2044525	1.7900984
12.107204988290643	3.1985703	1.7884547
12.12483016204224	3.176232	1.7821987
12.142455623712152	3.1505601	1.7749817
12.16008137373149	3.068348	1.75167
12.177707412531431	3.0735762	1.7531618
12.19533374054321	3.0772364	1.7542053
12.212960358198126	3.116547	1.7653745
12.230587265927545	3.0948045	1.7592057
12.248214464162889	3.0354242	1.7422469
12.265841953335649	3.006509	1.7339288
12.283469733877375	3.0043519	1.7333066
12.301097806219685	3.0073485	1.7341708
12.31872617079425	2.994977	1.7306002
12.336354828032825	2.953583	1.7185991
12.353983778367205	2.931668	1.7122115
12.371613022229262	2.884817	1.6984749
12.389242560050928	2.8973594	1.7021631
12.406872392264201	2.8824143	1.6977675
12.424502519301143	2.8884785	1.6995524
12.442132941593874	2.919549	1.7086688
12.459763659574586	2.8973033	1.7021466
12.477394673675532	2.8902617	1.7000769
12.49502598432903	2.8519888	1.6887832
12.51265759196746	2.8260717	1.6810924
12.530289497023267	2.7706053	1.6645136
12.547921699928967	2.732146	1.6529205
12.565554201117134	2.6976035	1.6424383
12.583187001020404	2.7476826	1.6576135
12.600820100071486	2.7560968	1.6601497
12.618453498703152	2.7503881	1.6584294
12.636087197348235	2.716864	1.6482912
12.65372119643964	2.7145503	1.6475892
12.671355496410326	2.729341	1.6520717
12.68899009769333	2.7639575	1.6625154
12.706625000721749	2.803034	1.6742264
12.724260205928752	2.836062	1.6840612
12.741895713747551	2.879202	1.6968211
12.759531524611454	2.9335787	1.7127693
12.777167638953818	2.9476151	1.716862
12.794804057208072	2.9772413	1.7254684
12.812440779807702	3.029337	1.740499
12.830077807186271	3.1616387	1.7780998
12.847715139777405	3.1891134	1.7858089
12.865352778014795	3.3845758	1.8397217
12.882990722332197	3.481542	1.8658891
12.90062897316344	3.6079898	1.8994709
12.918267530942412	3.6860504	1.919909
12.935906396103071	3.6051283	1.8987175
12.953545569079449	3.7590292	1.9388216
12.971185050305628	3.5654414	1.8882376
12.988824840215775	3.551242	1.8844739
13.006464939244115	3.5369918	1.8806891
13.024105347824943	3.416804	1.84846
13.041746066392617	3.5482502	1.88368
13.05938709538157	3.3610725	1.8333228
13.077028435226296	3.3621094	1.8336055
13.094670086361363	3.236668	1.7990743
13.112312049221401	3.1585364	1.7772272
13.129954324241112	3.1043737	1.7619233
13.147596911855258	2.8815491	1.6975126
13.165239812498685	2.822172	1.6799321
13.182883026606293	2.7637084	1.6624405
13.200526554613058	2.7278972	1.6516347
13.218170396954017	2.6859	1.6388716
13.235814554064284	2.6739852	1.6352324
13.253459026379034	2.6642523	1.6322538
13.271103814333523	2.6724288	1.6347566
13.288748918363058	2.695586	1.641824
13.306394338903031	2.6889236	1.6397938
13.32404007638889	2.665252	1.6325599
13.341686131256164	2.6464577	1.6267936
13.359332503940449	2.6106281	1.6157439
13.376979194877402	2.6462376	1.626726
13.394626204502751	2.6932445	1.6411108
13.412273533252307	2.7648997	1.6627988
13.429921181561937	2.7396226	1.6551806
13.447569149867581	2.6984277	1.6426891
13.465217438605247	2.6773348	1.6362563
13.482866048211022	2.6744068	1.6353613
13.500514979121052	2.7229095	1.6501241
13.518164231771568	2.7286842	1.651873
13.535813806598844	2.731611	1.6527586
13.553463704039254	2.7127442	1.6470411
13.571113924529229	2.6540232	1.6291173
13.588764468505275	2.6540947	1.6291393
13.606415336403956	2.702483	1.643923
13.624066528661917	2.755218	1.6598849
13.641718045715882	2.818079	1.6787134
13.659369888002635	2.8251157	1.6808081
13.67702205595903	2.87374	1.6952109
13.694674550021993	2.9305854	1.7118952
13.712327370628532	3.01072	1.7351427
13.729980518215713	3.1150734	1.7649571
13.747633993220681	3.1851535	1.7846998
13.765287796080647	3.234463	1.7984613
13.7829419272329	3.2699108	1.8082895
13.800596387114801	3.2754147	1.8098106
13.818251176163775	3.295954	1.8154763
13.835906294817324	3.340977	1.827834
13.853561743513023	3.3735461	1.8367215
13.871217522688525	3.441922	1.8552418
13.888873632781538	3.4631035	1.8609415
13.906530074229858	3.512145	1.8740718
13.92418684747135	3.471179	1.8631101
13.941843952943948	3.4472523	1.8566778
13.959501391085665	3.4071205	1.8458387
13.977159162334578	3.4094565	1.8464713
13.994817267128846	3.4132333	1.8474938
14.012475705906693	3.3255692	1.8236144
14.030134479106424	3.2275121	1.7965277
14.047793587166414	3.092471	1.7585423
14.065453030525108	3.0068107	1.7340157
14.083112809621026	2.9284775	1.7112795
14.100772924892766	2.8867025	1.6990299
14.118433376778997	2.8897629	1.6999303
14.136094165718458	2.8856568	1.6987221
14.153755292149969	2.836374	1.6841538
14.171416756512416	2.7576277	1.6606107
14.189078559244768	2.663906	1.6321477
14.20674070078606	2.5705225	1.603285
14.224403181575408	2.4854128	1.5765193
14.242066002051999	2.4394872	1.5618858
14.259729162655093	2.4455762	1.5638338
14.277392663824022	2.4687612	1.5712292
14.295056505998208	2.4770057	1.5738506
14.312720689617128	2.469413	1.5714366
14.330385215120348	2.4108455	1.5526898
14.348050082947497	2.3967116	1.5481316
14.3657152935383	2.3720784	1.5401553
14.383380847332528	2.3736448	1.5406637
14.401046744770051	2.366191	1.5382428
14.418712986290798	2.384415	1.5441551
14.436379572334793	2.3423483	1.5304732
14.454046503342123	2.331752	1.5270076
14.471713779752946	2.311451	1.5203457
14.489381402007504	2.358705	1.5358076
14.507049370546113	2.371176	1.5398623
14.524717685809168	2.3733473	1.5405672
14.542386348237134	2.3945012	1.5474176
14.560055358270553	2.4144785	1.5538592
14.577724716350051	2.4809399	1.5751
14.595394422916325	2.4883728	1.5774577
14.61306447841015	2.4826915	1.5756559
14.63073488327237	2.463704	1.569619
14.648405637943917	2.4898663	1.577931
14.6660767428658	2.5003207	1.5812402
14.683748198479094	2.5217667	1.5880071
14.701420005224954	2.5381608	1.5931606
14.719092163544628	2.6148148	1.6170388
14.73676467387942	2.6736686	1.6351357
14.754437536670727	2.6673322	1.633197
14.772110752360014	2.6349	1.6232375
14.78978432138882	2.6362007	1.6236382
14.807458244198777	2.6236765	1.6197767
14.82513252123159	2.5947769	1.6108311
14.842807152929028	2.633374	1.6227673
14.860482139732962	2.6272142	1.6208683
14.87815748208531	2.6260016	1.6204942
14.8958331804281	2.6508062	1.6281296
14.91350923520342	2.6539407	1.629092
14.931185646853438	2.6946244	1.6415311
14.948862415820408	2.6618714	1.6315243
14.966539542546656	2.6673183	1.6331927
14.98421702747459	2.6358526	1.6235309
15.001894871046696	2.6309407	1.6220175
15.019573073705542	2.634684	1.623171
15.037251635893766	2.6663082	1.6328834
15.054930558054092	2.700805	1.6434126
15.072609840629323	2.7323909	1.6529945
15.090289484062351	2.8068306	1.6753598
15.107969488796124	3.0919085	1.7583823
15.125649855273691	3.482244	1.8660772
15.14333058393817	4.0159097	2.0039735
15.161011675232768	5.015211	2.2394667
15.17869312960076	6.365602	2.5230145
15.196374947485506	8.175318	2.8592513
15.214057129330447	11.186154	3.3445709
15.231739675579114	15.777599	3.9721026
15.249422586675102	20.625793	4.541563
15.267105863062092	23.717419	4.8700533
15.284789505183847	23.995607	4.898531
15.302473513484218	21.947721	4.6848397
15.320157888407127	18.35236	4.2839656
15.337842630396578	14.292946	3.7806013
15.355527739896656	11.162626	3.3410516
15.37321321735153	8.693664	2.9485018
15.39089906320545	6.352134	2.520344
15.408585277902748	4.758888	2.1814876
15.42627186188783	3.6893754	1.9207747
15.443958815605198	3.1838117	1.7843238
15.461646139499424	2.9361327	1.7135147
15.479333834015168	2.7600133	1.6613288
15.497021899597165	2.6966465	1.642147
15.514710336690234	2.6403937	1.6249288
15.53239914573928	2.5928786	1.6102418
15.550088327189297	2.5655134	1.601722
15.567777881485336	2.5744326	1.6045039
15.58546780907256	2.5532396	1.597886
15.6031581103962	2.54255	1.5945376
15.620848785901568	2.4941883	1.5792999
15.638539836034063	2.4548826	1.5668066
15.656231261239173	2.4481297	1.56465
15.673923061962451	2.462972	1.5693859
15.691615238649552	2.4612193	1.5688274
15.709307791746202	2.4390075	1.5617322
15.727000721698221	2.4044552	1.5506306
15.744694028951498	2.4123693	1.5531803
15.76238771395202	2.3834612	1.5438462
15.780081777145844	2.3635778	1.5373932
15.797776218979125	2.369902	1.5394486
15.815471039898094	2.3869958	1.5449905
15.833166240349064	2.3631234	1.5372454
15.850861820778437	2.3416083	1.5302315
15.868557781632699	2.330963	1.5267491
15.886254123358412	2.3498962	1.5329372
15.903950846402232	2.3402197	1.5297776
15.921647951210897	2.3271022	1.5254842
15.939345438231225	2.3341198	1.5277827
15.957043307910133	2.3682742	1.5389198
15.974741560694602	2.3768616	1.5417074
15.992440197031714	2.3773706	1.5418724
16.01013921736862	2.3934627	1.547082
16.02783862215259	2.4451287	1.5636908
16.045538411830933	2.4221969	1.5563408
16.06323858685107	2.4164433	1.5544914
16.080939147660512	2.4089737	1.5520868
16.09864009470684	2.373042	1.5404681
16.11634142843774	2.3593073	1.5360037
16.134043149300954	2.3677847	1.5387608
16.15174525774433	2.3889816	1.5456331
16.169447754215817	2.400522	1.5493618
16.18715063916342	2.4145296	1.5538757
16.204853913035244	2.4424982	1.5628494
16.222557576279478	2.4343653	1.5602453
16.240261629344403	22.40577	4.7334733
16.257966072678386	42.955353	6.5540333
16.275670906729868	38.067394	6.169878
16.293376131947387	2.5235043	1.5885541
16.31108174877957	2.5249507	1.5890094
16.328787757675133	2.5587156	1.5995985
16.34649415908287	2.5742154	1.6044362
16.364200953451657	2.5919266	1.6099461
16.38190814123048	2.6104574	1.615691
16.39961572286839	2.6036012	1.6135678
16.41732369881455	2.6436217	1.6259218
16.43503206951817	2.6963985	1.6420714
16.45274083542859	2.7541087	1.6595508
16.47044999699522	2.8185453	1.6788524
16.488159554667558	2.8634467	1.6921722
16.505869508895184	2.9131978	1.7068093
16.523579860127786	2.9430778	1.71554
16.541290608815117	2.992722	1.7299485
16.559001755407035	3.0572643	1.7485034
16.57671330035348	3.128864	1.7688595
16.59442524410448	3.1421351	1.7726068
16.61213758711015	3.1667593	1.7795391
16.629850329820705	3.2000082	1.7888566
16.647563472686436	3.2980673	1.8160582
16.665277016157724	3.3518612	1.8308089
16.682990960685053	3.3561995	1.8319933
16.70070530671898	3.3815684	1.8389041
16.718420054710155	3.4407477	1.8549253
16.736135205109335	3.5314734	1.8792214
16.753850758367335	3.5649447	1.8881061
16.771566714935087	3.5969293	1.8965572
16.789283075263597	3.6735733	1.9166567
16.80699983980398	3.7940652	1.947836
16.82471700900741	3.8987668	1.9745295
16.84243458332518	3.9563093	1.9890473
16.860152563208665	3.9919198	1.9979789
16.87787094910932	4.050496	2.0125844
16.89558974147871	4.08618	2.0214303
16.913308940768466	4.183907	2.04546
16.931028547430333	4.2494025	2.0614078
16.94874856191613	4.2928767	2.0719259
16.966468984677785	4.290272	2.0712972
16.98418981616729	4.3386583	2.0829446
17.00191105683676	4.3713417	2.0907755
17.019632707138374	4.437408	2.1065156
17.03735476752442	4.4948335	2.1201022
17.05507723844728	4.5606327	2.1355639
17.072800120359403	4.5652504	2.1366446
17.090523413713353	4.6168656	2.1486893
17.108247118961785	4.6039443	2.1456804
17.125971236557437	4.598623	2.14444
17.143695766953133	4.637973	2.1535952
17.161420710601806	4.6936827	2.1664908
17.179146067956477	4.728637	2.174543
17.19687183947025	4.723427	2.1733446
17.21459802559634	4.6873317	2.1650245
17.232324626788028	4.713079	2.1709626
17.25005164349871	4.6946034	2.1667035
17.267779076181863	4.6668515	2.1602898
17.285506925291074	4.6213903	2.149742
17.30323519127999	4.6037335	2.1456313
17.320963874602384	4.5591145	2.1352084
17.33869297571211	4.4969625	2.1206043
17.356422495063114	4.4479775	2.1090229
17.37415243310944	4.4083676	2.0996113
17.391882790305218	4.4090486	2.0997734
17.40961356710468	4.441732	2.1075416
17.42734476396215	4.496836	2.1205745
17.445076381332044	4.5142446	2.1246753
17.462808419668868	4.5893197	2.1422698
17.48054087942723	4.7009087	2.1681578
17.498273761061835	5.0168204	2.239826
17.51600706502747	5.445543	2.3335686
17.533740791779024	6.1357365	2.477042
17.551474941771485	7.5510917	2.747925
17.56920951545993	8.697881	2.949217
17.586944513299528	10.850299	3.2939792
17.60467993574556	12.463992	3.530438
17.622415783253373	14.01386	3.743509
17.64015205627843	15.365268	3.9198556
17.657888755276293	16.362223	4.0450244
17.675625880702604	16.77565	4.095809
17.69336343301311	16.601099	4.074445
17.71110141266366	15.922151	3.990257
17.728839820110178	15.109847	3.8871386
17.746578655808705	14.222027	3.7712102
17.764317920215372	12.82279	3.5808923
17.7820576137864	11.42348	3.379864
17.79979773697811	9.464159	3.0763874
17.81753829024692	7.5980444	2.756455
17.835279274049356	5.8841124	2.425719
17.85302068884201	4.8359337	2.1990757
17.870762535081607	4.1713037	2.042377
17.888504813224934	3.895906	1.973805
17.90624752372891	3.693703	1.9219009
17.923990667050536	3.6014519	1.8977492
17.941734243646895	3.5183635	1.8757302
17.959478253975185	3.5326288	1.8795289
17.9772226984927	3.4925168	1.8688277
17.994967577656833	3.4147515	1.8479047
18.01271289192506	3.348895	1.8299986
18.030458641754965	3.3698833	1.8357242
18.04820482760425	3.364063	1.8341383
18.06595144993067	3.3177338	1.8214648
18.083698509192125	3.2349808	1.7986052
18.101446005846576	3.1775215	1.7825603
18.119193940352105	3.1438484	1.7730901
18.136942313166887	3.1648996	1.7790165
18.1546911247492	3.1677182	1.7798085
18.1724403755574	3.2001593	1.788899
18.19019006604997	3.221171	1.794762
18.207940196685467	3.184241	1.7844442
18.225690767922575	3.1550174	1.7762369
18.243441780220046	3.1183953	1.7658979
18.261193234036764	3.0878608	1.757231
18.278945129831676	3.102601	1.7614201
18.29669746806386	3.0894728	1.7576896
18.314450249192483	3.0534964	1.7474257
18.3322034736768	2.9847138	1.7276324
18.349957141976184	2.9590027	1.7201751
18.3677112545501	3.0130348	1.7358096
18.385465811858108	3.0524669	1.747131
18.403220814359884	3.074135	1.7533212
18.420976262515172	3.096927	1.7598088
18.43873215678387	3.088822	1.7575045
18.456488497625923	3.09892	1.760375
18.474245285501407	3.1590102	1.7773604
18.492002520870486	3.2571793	1.8047657
18.50976020419343	3.3456287	1.829106
18.527518335930615	3.6221817	1.903203
18.545276916542516	4.1958346	2.0483737
18.563035946489688	4.3512483	2.0859647
18.580795426232832	4.851014	2.2025018
18.598555356232698	4.7570167	2.1810586
18.616315736950185	5.112752	2.2611396
18.63407656884626	4.751596	2.1798155
18.65183785238201	4.934149	2.2212944
18.669599588018617	4.646773	2.1556375
18.68736177621737	4.6514864	2.1567304
18.705124417439652	4.625355	2.1506639
18.72288751214696	4.475585	2.115558
18.740651060800886	4.617681	2.148879
18.758415063863115	4.336257	2.0823681
18.77617952179546	4.4603887	2.1119633
18.793944435059814	4.182229	2.04505
18.811709804118184	4.2104273	2.0519326
18.829475629432675	4.200192	2.049437
18.8472419114655	4.0171595	2.0042853
18.86500865067897	4.088479	2.021999
18.88277584753551	3.7636235	1.940006
18.90054350249763	3.7859683	1.9457564
18.918311616027957	3.5145266	1.8747071
18.936080188589226	3.4160366	1.8482523
18.953849220644265	3.126847	1.7682893
18.971618712656007	2.9162672	1.7077081
18.9893886650875	2.859971	1.691145
19.007159078401887	7.9829903	2.8254187
19.024929953062408	32.817135	5.7286243
19.042701289532435	32.75055	5.72281
19.060473088275405	25.297318	5.029644
19.07824534975489	2.5810459	1.6065633
19.096018074434568	2.5705345	1.6032887
19.113791262778197	2.5548873	1.5984014
19.13156491524966	2.5575006	1.5992187
19.149339032312945	2.5493555	1.5966702
19.167113614432136	2.5499074	1.596843
19.184888662071433	2.5494685	1.5967056
19.202664175695123	2.5499423	1.5968539
19.220440155767623	2.5167508	1.5864271
19.238216602753447	2.5177555	1.5867437
19.2559935171172	2.5381498	1.5931572
19.27377089932361	2.5610354	1.6003236
19.291548749837514	2.569324	1.6029111
19.309327069123835	2.5623848	1.6007451
19.32710585764763	2.5566459	1.5989515
19.344885115874032	2.5434406	1.5948168
19.362664844268313	2.5001953	1.5812006
19.380445043295822	2.477477	1.5740004
19.39822571342203	2.494646	1.5794449
19.41600685511252	2.5229256	1.588372
19.43378846883297	2.4995759	1.5810047
19.451570555049173	2.4653864	1.5701549
19.469353114227037	2.4564528	1.5673075
19.48713614683254	2.4637752	1.5696417
19.50491965333182	2.4487033	1.5648333
19.52270363419109	2.4488766	1.5648887
19.540488089876686	2.4624412	1.5692167
19.55827302085503	2.4971912	1.5802504
19.576058427592674	2.5282464	1.590046
19.593844310556282	2.5283742	1.5900862
19.611630670212598	2.5027566	1.5820103
19.629417507028506	2.4672945	1.5707624
19.64720482147098	2.4231992	1.5566628
19.6649926140071	2.3871095	1.5450274
19.682780885104084	2.42625	1.5576425
19.70056963522921	2.4782581	1.5742484
19.718358864849908	2.5327826	1.5914718
19.7361485744337	2.5489995	1.5965587
19.753938764448215	2.5164697	1.5863385
19.771729435361202	2.4741318	1.5729374
19.789520587640506	2.4449732	1.5636411
19.807312221754092	2.4581044	1.5678343
19.825104338170043	2.4806092	1.5749949
19.842896937356517	2.5038764	1.5823642
19.860690019781824	2.4940212	1.579247
19.87848358591436	2.4854717	1.5765378
19.896277636222635	2.4830964	1.5757843
19.914072171175278	2.4780116	1.5741701
19.931867191241015	2.458165	1.5678536
19.94966269688869	2.4456646	1.5638621
19.967458688587264	2.434948	1.560432
19.985255166805807	2.4158356	1.5542959
20.00305213201348	2.434238	1.5602045
20.020849584679578	2.453156	1.5662555
20.038647525273507	2.4558854	1.5671265
20.05644595426477	2.468473	1.5711374
20.07424487212299	2.5238569	1.5886651
20.092044279317903	2.526756	1.5895773
20.109844176319353	2.4965022	1.5800323
20.127644563597304	2.4075851	1.5516396
20.145445441621817	2.3665285	1.5383525
20.16324681086307	2.3186138	1.5226995
20.181048671791373	2.3346238	1.5279475
20.198851024877122	2.3600416	1.5362427
20.216653870590836	2.4000614	1.5492132
20.234457209403146	2.385054	1.5443621
20.252261041784802	2.3480024	1.5323193
20.270065368206662	2.374202	1.5408446
20.287870189139685	2.418504	1.555154
20.305675505054968	2.4138262	1.5536493
20.323481316423702	2.336719	1.5286331
20.341287623717207	2.3030047	1.5175654
20.359094427406884	2.3037763	1.5178195
20.376901727964288	2.3287747	1.5260323
20.39470952586107	2.336876	1.5286844
20.41251782156899	2.3372614	1.5288105
20.430326615559935	2.3015711	1.517093
20.448135908305886	2.287372	1.5124061
20.465945700278965	2.3053176	1.5183272
20.483755991951384	2.347849	1.5322692
20.50156678379548	2.3706417	1.5396888
20.519378076283708	2.349415	1.5327802
20.537189869888635	2.3104086	1.5200028
20.55500216508294	2.3082874	1.5193049
20.572814962339415	2.326983	1.5254452
20.59062826213098	2.3194582	1.5229768
20.60844206493066	2.3530974	1.533981
20.626256371211593	2.38034	1.5428351
20.644071181447032	2.3624449	1.5370247
20.66188649611036	2.326724	1.5253603
20.67970231567506	2.2947166	1.5148323
20.697518640614742	2.308479	1.5193679
20.715335471403122	2.2876465	1.5124968
20.73315280851404	2.2821312	1.5106725
20.750970652421447	2.215386	1.4884173
20.768789003599412	2.2396784	1.4965554
20.786607862522136	2.2871404	1.5123295
20.8044272296639	2.3244731	1.5246223
20.82224710549913	2.3174086	1.5223037
20.84006749050237	2.288523	1.5127865
20.857888385148268	3.796782	1.9485333
20.8757097899116	45.91545	6.776094
20.893531705267254	64.76211	8.047491
20.911354131690224	83.74789	9.151387
20.92917706965566	68.99851	8.306535
20.94700051963877	50.096943	7.0779195
20.96482448211493	29.40051	5.4222236
20.982648957559622	4.1042128	2.0258856
21.00047394644843	2.2308502	1.4936031
21.01829944925707	2.2364101	1.4954631
21.036125466461375	2.2250526	1.4916611
21.053951998537297	2.1968498	1.4821774
21.071779045960906	2.1955898	1.4817523
21.089606609208378	2.209363	1.4863926
21.10743468875603	2.200929	1.4835528
21.12526328508028	2.1675978	1.4722764
21.143092398657675	2.1833386	1.4776125
21.16092202996488	2.2039216	1.4845611
21.17875217947867	2.2280552	1.4926672
21.19658284767596	2.2136228	1.4878249
21.21441403503377	2.204591	1.4847865
21.232245742029225	2.1903722	1.4799906
21.2500779691396	2.1725786	1.473967
21.26791071684227	2.1265416	1.4582666
21.28574398561475	2.1135685	1.4538118
21.30357777593465	2.145465	1.4647405
21.321412088279704	2.1513245	1.4667394
21.339246923127792	2.1518333	1.4669129
21.357082280956888	2.1448295	1.4645237
21.3749181622451	2.1453304	1.4646946
21.392754567470647	2.144918	1.4645538
21.41059149711187	2.1416469	1.4634366
21.42842895164726	2.1239796	1.4573879
21.446266931555378	2.1102285	1.4526626
21.464105437314945	2.1109376	1.4529066
21.481944469404798	2.1120157	1.4532776
21.49978402830388	2.0841393	1.4436549
21.51762411449127	2.1087837	1.4521651
21.53546472844617	2.1326447	1.4603577
21.553305870647876	2.1246305	1.4576112
21.571147541575865	2.0847316	1.4438599
21.58898974170967	2.066818	1.4376432
21.60683247152899	2.0590677	1.4349452
21.62467573151363	2.065968	1.4373475
21.642519522143523	2.04846	1.4312443
21.660363843898722	2.036194	1.4269527
21.6782086972594	2.0226836	1.4222108
21.696054082705864	2.0226834	1.4222107
21.713900000718535	2.0578341	1.4345154
21.73174645177795	2.0631	1.4363496
21.749593436364794	2.0465767	1.4305861
21.767440954959845	2.0443294	1.4298005
21.785289008044032	2.0356867	1.426775
21.803137596098388	2.0223763	1.4221028
21.820986719604086	2.0108643	1.4180495
21.838836379042412	2.0280733	1.4241043
21.85668657489478	2.0330486	1.4258502
21.87453730764273	2.0398216	1.4282233
21.892388577767914	2.010303	1.4178516
21.91024038575213	1.9686339	1.4030801
21.928092732077285	1.9445978	1.3944883
21.945945617225426	1.9427843	1.3938379
21.963799041678694	1.9638667	1.4013803
21.981653005919398	31.339483	5.598168
21.999507510429943	78.13894	8.839623
22.01736255569286	73.07402	8.548334
22.035218142190818	4.137687	2.0341306
22.05307427040661	1.980129	1.4071705
22.07093094082315	1.9741794	1.4050549
22.088788153923474	1.9835238	1.4083763
22.106645910190746	1.990244	1.41076
22.12450421010827	1.9737366	1.4048973
22.142363054159464	1.9652346	1.4018682
22.16022244282787	1.9639325	1.4014038
22.178082376597164	1.9470248	1.3953583
22.195942855951145	1.9582301	1.3993678
22.213803881373742	1.97235	1.4044038
22.231665453349002	1.9850711	1.4089255
22.24952757236111	1.9923168	1.4114945
22.26739023889438	1.9659026	1.4021065
22.28525345343323	1.9462597	1.3950841
22.30311721646225	1.9475372	1.3955419
22.320981528466113	1.9596213	1.3998648
22.33884638992964	1.9684932	1.40303
22.356711801337788	1.956879	1.3988849
22.37457776317561	1.9599152	1.3999697
22.392444275928337	1.9621267	1.4007593
22.410311340081282	1.9618798	1.4006712
22.428178956119904	1.962871	1.4010249
22.446047124529805	1.978251	1.4065031
22.46391584579669	1.9702992	1.4036735
22.481785120406414	1.9889401	1.4102979
22.49965494884496	1.9872892	1.4097124
22.51752533159841	1.9630375	1.4010844
22.53539626915302	1.9019371	1.3791074
22.553267761995137	1.848131	1.3594598
22.571139810611264	1.8191817	1.3487704
22.589012415488025	1.8612458	1.3642749
22.60688557711216	1.9057671	1.3804952
22.624759295970566	1.9148151	1.3837684
22.642633572550263	1.8888632	1.3743593
22.660508407338362	1.9042463	1.3799443
22.67838380082217	1.9160919	1.3842298
22.696259753489077	1.9249512	1.3874261
22.714136265826614	1.9133358	1.3832338
22.73201333832246	1.9552181	1.3982911
22.74989097146439	1.9665335	1.4023315
22.76776916574035	1.9520617	1.397162
22.785647921638393	1.9298187	1.3891791
22.803527239646712	1.9059787	1.3805718
22.82140712025363	1.8878047	1.3739741
22.839287563947593	1.8905207	1.3749621
22.85716857121719	1.8614771	1.3643596
22.875050142551135	1.8649511	1.3656322
22.892932278438277	1.8636506	1.3651558
22.910814979367604	1.892747	1.3757714
22.928698245828222	1.9145516	1.3836732
22.946582078309387	1.8841864	1.3726567
22.96446647730047	1.9045032	1.3800374
22.98235144329098	1.8822478	1.3719504
23.000236976770562	1.8846439	1.3728234
23.018123078229	1.9013915	1.3789096
23.03600974815619	1.901113	1.3788085
23.053896987042194	1.8933489	1.3759902
23.071784795377173	1.835699	1.3548797
23.08967317365145	1.8713387	1.3679688
23.10756212235546	1.9011211	1.3788115
23.125451641979787	1.9394729	1.3926497
23.143341733015134	1.9241531	1.3871385
23.161232395952357	1.9169309	1.3845327
23.179123631282426	1.9099873	1.3820229
23.197015439496468	1.9284604	1.3886901
23.214907821085717	1.9225203	1.3865498
23.23280077654157	1.9123486	1.382877
23.250694306355538	1.9362054	1.3914759
23.268588411019277	1.9553726	1.3983464
23.28648309102458	1.9726852	1.4045231
23.304378346863356	1.9326019	1.3901806
23.322274179027676	1.8955715	1.3767976
23.340170588009723	1.8592013	1.3635253
23.358067574301852	1.9235134	1.3869078
23.37596513839651	1.9352478	1.3911319
23.39386328078629	1.9165353	1.3843899
23.411762001963947	1.885741	1.3732228
23.429661302422353	1.8897927	1.3746973
23.4475611826545	1.9040596	1.3798767
23.46546164315356	1.9208921	1.3859625
23.48336268441279	1.9367287	1.391664
23.501264306925638	1.9363688	1.3915347
23.51916651118564	1.9525701	1.397344
23.537069297686497	1.9020147	1.3791355
23.554972666922037	1.8773522	1.370165
23.57287661938623	1.833322	1.3540022
23.59078115557318	1.8584296	1.3632423
23.608686275977128	1.8784463	1.3705642
23.62659198109246	1.8966815	1.3772006
23.6444982714137	1.8516322	1.360747
23.66240514743549	1.8301013	1.3528123
23.68031260965263	1.8479682	1.3593999
23.698220658560068	1.8552808	1.3620869
23.716129294652845	1.8413898	1.3569782
23.7340385184262	1.8534707	1.3614223
23.75194833037546	1.8779715	1.370391
23.769858730996123	1.9323218	1.3900797
23.78776972078382	1.9258459	1.3877485
23.80568130023431	1.9222747	1.3864613
23.823593469843495	1.8505712	1.360357
23.841506230107424	1.8923311	1.3756202
23.859419581522275	1.9109906	1.3823858
23.87733352458438	1.9598438	1.3999442
23.89524805979019	1.9318054	1.389894
23.913163187636318	1.926735	1.3880688
23.931078908619508	1.8738751	1.3688956
23.948995223236633	1.9004152	1.3785554
23.966912131984735	1.9328622	1.3902742
23.98482963536096	1.9756042	1.4055619
24.002747733862616	1.9637278	1.4013307
24.020666427987155	1.9884603	1.4101278
24.038585718232156	2.0294785	1.4245976
24.056505605095353	2.0602636	1.4353619
24.074426089074617	2.0750375	1.4404991
24.092347170667946	2.0679367	1.4380323
24.110268850373515	2.1012692	1.4495755
24.128191128689586	2.0955048	1.4475858
24.146114006114626	2.0530362	1.432842
24.164037483147187	2.009174	1.4174534
24.181961560286005	1.9993348	1.4139783
24.199886238029926	2.0138059	1.4190863
24.21781151687797	2.0548544	1.4334763
24.235737397329274	2.0569782	1.434217
24.253663879883135	2.0755653	1.4406823
24.271590965038975	2.0473485	1.4308559
24.289518653296376	2.0334892	1.4260046
24.30744694515505	1.9960575	1.412819
24.32537584111486	2.012985	1.418797
24.34330534167581	2.028578	1.4242816
24.361235447338046	2.0754702	1.4406493
24.379166158601876	2.1037874	1.4504439
24.39709747596772	2.075339	1.4406037
24.41502939993615	2.0033588	1.4154006
24.432961931007917	1.9854211	1.4090497
24.450895069683856	1.9659455	1.4021218
24.468828816465	1.9394042	1.392625
24.4867631718525	1.8867921	1.3736055
24.504698136347656	1.9220351	1.3863748
24.52263371045192	1.9190329	1.3852917
24.540569894666874	1.9320092	1.3899673
24.558506689494266	1.9150668	1.3838594
24.57644409543597	1.9264683	1.3879727
24.594382112994012	1.9051862	1.3802848
24.61232074267057	1.923357	1.3868514
24.630259984967953	1.922485	1.3865371
24.64819984038863	1.9375975	1.3919761
24.66614030943522	1.9654031	1.4019283
24.684081392610462	1.9888877	1.4102793
24.702023090417274	1.9938688	1.4120442
24.7199654033587	2.0035918	1.4154829
24.737908331937927	2.0141337	1.4192017
24.755851876658305	2.012496	1.4186246
24.773796038023324	1.9904615	1.4108372
24.79174081653661	1.9909267	1.411002
24.809686212701962	2.0129194	1.4187739
24.827632227023294	2.0588233	1.43486
24.8455788600047	2.083415	1.443404
24.8635261121504	2.1187792	1.4556026
24.88147398396475	2.1224504	1.4568632
24.899422475952303	2.0976655	1.448332
24.917371588617698	2.0989046	1.4487597
24.935321322465768	2.164224	1.4711301
24.953271678001478	2.2625022	1.5041616
24.97122265572994	2.4569712	1.5674728
24.989174256156414	2.7425742	1.6560719
25.00712647978632	3.2109673	1.7919172
25.02507932712521	3.7667265	1.9408057
25.043032798678798	4.2954106	2.0725372
25.060986894952933	4.8478527	2.201784
25.078941616453637	5.4518213	2.3349135
25.096896963687055	6.4027586	2.5303674
25.114852937159508	7.569687	2.7513063
25.132809537377444	8.084039	2.8432443
25.150766764847468	8.127603	2.8508952
25.168724620076347	7.598596	2.756555
25.186683103570985	6.6277986	2.5744512
25.204642215838426	5.460245	2.3367167
25.222601957385894	4.1201587	2.0298173
25.24056232872074	3.1440291	1.773141
25.25852333035048	2.5772	1.605366
25.276484962782778	2.2293632	1.4931052
25.294447226525435	2.0815744	1.4427662
25.312410122086423	2.044891	1.4299968
25.330373649973843	1.9864022	1.4093978
25.348337810695988	1.9618888	1.4006745
25.366302604761245	1.9193845	1.3854185
25.384268032678207	1.8860116	1.3733214
25.40223409495558	1.8637711	1.3652
25.420200792102257	1.8622849	1.3646556
25.438168124627246	1.8406755	1.356715
25.45613609303974	1.8377563	1.3556387
25.474104697849057	1.8702195	1.3675597
25.492073939564698	1.8892413	1.3744968
25.510043818696285	1.9085426	1.3815001
25.528014335753614	1.8953257	1.3767083
25.54598549124664	1.8763157	1.3697867
25.56395728568544	1.8326163	1.3537416
25.58192971958028	1.8858536	1.3732638
25.59990279344156	1.9072063	1.3810164
25.617876507779833	1.8645092	1.3654703
25.635850863105826	1.8218148	1.3497462
25.653825859930386	1.8214538	1.3496125
25.671801498764548	1.8383448	1.3558557
25.68977778011949	1.8131491	1.3465322
25.707754704506524	1.8195987	1.348925
25.725732272437153	1.836825	1.3552952
25.743710484423012	1.8592405	1.3635397
25.761689340975888	1.8790685	1.3707912
25.77966884260774	1.8557435	1.3622568
25.797648989830662	1.8354831	1.3548
25.815629783156922	1.831342	1.3532709
25.83361122309895	1.8500601	1.3601692
25.85159331016929	1.869098	1.3671496
25.869576044880695	1.8740631	1.3689643
25.887559427746034	1.8479761	1.3594029
25.90554345927836	1.8426628	1.3574471
25.92352813999086	1.8321931	1.3535852
25.94151347039689	1.8251892	1.3509957
25.959499451009965	1.8517889	1.3608044
25.97748608234374	1.8492486	1.3598708
25.995473364912062	1.8499953	1.3601453
26.013461299228904	1.8377134	1.3556229
26.03144988580839	1.8196257	1.348935
26.04943912516483	1.8368179	1.3552926
26.067429017812675	1.8379039	1.3556931
26.085419564266537	1.817175	1.3480264
26.103410765041186	1.7959626	1.3401353
26.12140262065155	1.7885509	1.3373672
26.139395131612723	1.7978923	1.3408551
26.157388298439948	1.7869478	1.3367677
26.17538212164861	1.8379208	1.3556994
26.193376601754295	1.8275557	1.3518711
26.211371739272714	1.822004	1.3498163
26.229367534719746	1.8040128	1.3431355
26.247363988611433	1.8077606	1.3445299
26.26536110146397	1.7773683	1.3331798
26.283358873793727	1.7893481	1.3376652
26.301357306117204	1.7928011	1.3389553
26.319356398951104	1.8188634	1.3486525
26.33735615281224	1.811959	1.3460903
26.35535656821762	1.8047103	1.343395
26.373357645684404	1.8482703	1.359511
26.39135938572991	1.8095647	1.3452007
26.409361788871614	1.7654511	1.3287028
26.427364855627165	1.7539853	1.3243811
26.445368586514352	1.7460871	1.3213959
26.46337298205115	1.7608011	1.3269517
26.48137804275568	1.7667314	1.3291845
26.499383769146217	1.762586	1.3276242
26.517390161741215	1.7341675	1.316878
26.53539722105928	1.7864249	1.336572
26.553404947619182	1.7830989	1.3353273
26.571413341939856	1.775495	1.3324771
26.589422404540397	1.7540866	1.3244194
26.60743213594006	1.7572107	1.3255982
26.62544253665827	1.7740296	1.3319271
26.64345360721459	1.8220917	1.3498487
26.66146534812879	1.8121234	1.3461514
26.679477759920758	1.7705878	1.3306344
26.69749084311057	1.7412257	1.3195552
26.71550459821847	1.7330815	1.3164655
26.733519025764842	1.7657174	1.328803
26.751534126270258	1.7890846	1.3375666
26.769549900255434	1.8107179	1.3456292
26.787566348241267	1.8008083	1.341942
26.80558347074881	1.7813802	1.3346835
26.823601268299267	1.7745532	1.3321235
26.841619741414036	1.7736279	1.3317763
26.85963889061465	1.7506073	1.3231051
26.877658716422832	1.7975423	1.3407246
26.89567921936045	1.8152579	1.3473151
26.913700399949544	1.7771642	1.3331032
26.93172225871233	1.7894287	1.3376952
26.949744796171174	1.813702	1.3467375
26.967768012848605	1.8338643	1.3542025
26.98579190926733	1.8659663	1.3660038
27.003816485950225	1.8446268	1.3581704
27.021841743420318	1.7961199	1.340194
27.039867682200814	1.7518104	1.3235598
27.057894302815072	1.7504091	1.3230302
27.07592160578664	1.7545958	1.3246115
27.0939495916392	1.7558422	1.325082
27.111978260896635	1.7748809	1.3322465
27.13000761408296	1.8232198	1.3502666
27.148037651722397	1.8430772	1.3575997
27.166068374339304	1.802705	1.3426485
27.184099782458215	1.8278673	1.3519864
27.20213187660384	1.8278677	1.3519866
27.22016465730105	1.8076401	1.344485
27.23819812507487	1.7664686	1.3290856
27.256232280450533	1.7951006	1.3398136
27.274267123953383	1.830192	1.3528459
27.292302656108987	1.8064388	1.3440382
27.31033887744306	1.7480732	1.3221473
27.32837578848146	1.7179009	1.3106872
27.34641338975026	1.7390524	1.3187313
27.364451681775673	1.7987012	1.3411566
27.382490665084074	1.8315017	1.3533299
27.400530340202046	1.819909	1.34904
27.41857070765629	1.8179774	1.348324
27.436611767973726	1.7785498	1.3336228
27.454653521681404	1.7599638	1.3266362
27.472695969306564	1.7658913	1.3288684
27.490739111376627	1.7902284	1.3379941
27.508782948419153	1.8328522	1.3538288
27.526827480961902	1.8486577	1.3596535
27.54487270953279	1.8174485	1.3481277
27.562918634659898	1.8034896	1.3429407
27.580965256871508	1.813991	1.3468448
27.599012576696026	1.7737168	1.3318096
27.617060594662068	1.7320124	1.3160595
27.63510931129842	1.7316802	1.3159332
27.65315872713401	1.779045	1.3338084
27.67120884269797	1.7608291	1.3269624
27.68925965851958	1.7522258	1.3237166
27.707311175128307	1.7739364	1.331892
27.725363393053787	1.8120409	1.3461207
27.74341631282583	1.8011614	1.3420736
27.7614699349744	1.8054384	1.3436661
27.77952426002968	1.9698105	1.4034994
27.797579288521973	2.0418391	1.4289293
27.815635020981784	2.4982948	1.5805995
27.83369145793979	2.6299205	1.6217029
27.85174859992682	2.4552238	1.5669154
27.869806447473923	2.2911346	1.5136495
27.887865001112267	1.9545852	1.3980649
27.905924261373233	1.9096855	1.3819137
27.92398422878836	1.924093	1.3871168
27.94204490388936	1.9128306	1.3830512
27.96010628720813	1.8610694	1.3642102
27.978168379276728	1.805781	1.3437935
27.9962311806274	1.7500333	1.3228883
28.014294691792568	1.769369	1.3301764
28.0323589133048	1.8153553	1.3473512
28.050423845696887	1.8224407	1.3499781
28.068489489501758	1.8241607	1.3506149
28.086555845252523	1.8197837	1.3489935
28.104622913482487	1.847324	1.3591629
28.122690694725115	1.9058686	1.380532
28.14075918951405	1.9285758	1.3887317
28.15882839838312	1.9121702	1.3828124
28.176898321866304	1.9106445	1.3822607
28.1949689604978	1.8622906	1.3646576
28.213040314811945	1.8319103	1.3534808
28.23111238534327	1.8655921	1.3658668
28.249185172626493	1.8392848	1.3562024
28.267258677196473	1.8672947	1.3664899
28.285332899588294	1.91709	1.3845903
28.303407840337172	1.8945477	1.3764257
28.321483499978545	1.8419544	1.3571862
28.33955987904799	1.8510151	1.3605201
28.357636978081285	1.8695018	1.3672973
28.37571479761439	1.905815	1.3805126
28.393793338183425	1.9159474	1.3841776
28.41187260032469	1.9569606	1.3989141
28.429952584574686	1.9972073	1.4132259
28.448033291470065	1.952406	1.3972852
28.46611472154769	1.9167835	1.3844795
28.484196875344566	1.9735245	1.4048219
28.502279753397914	2.0281134	1.4241184
28.52036335624511	2.0230331	1.4223337
28.538447684423716	2.0215356	1.4218072
28.556532738471482	2.0209594	1.4216045
28.574618518926325	1.9741905	1.4050589
28.59270502632635	1.9375056	1.3919431
28.61079226120985	1.9966093	1.4130143
28.628880224115274	2.016192	1.4199268
28.646968915581287	2.0094934	1.417566
28.66505833614671	2.0145993	1.4193658
28.68314848635055	2.013762	1.4190708
28.701239366732004	1.9982892	1.4136086
28.71933097783044	2.0632787	1.4364117
28.737423320185403	2.1315026	1.4599667
28.75551639433665	2.1177754	1.4552579
28.773610200824074	2.0502307	1.4318627
28.791704740187793	2.0120761	1.4184767
28.80980001296809	2.024018	1.4226799
28.827896019705413	2.062465	1.4361285
28.845992760940433	2.1015818	1.4496833
28.86409023721397	2.1348593	1.4611158
28.88218844906704	2.2000885	1.4832696
28.900287397040845	2.2121534	1.487331
28.918387081676755	2.213067	1.4876381
28.936487503516343	2.180955	1.4768057
28.954588663101365	2.1876426	1.4790682
28.97269056097374	2.2281013	1.4926826
28.990793197675597	2.2592158	1.5030688
29.00889657374923	2.2939065	1.5145648
29.027000689737125	2.3461418	1.531712
29.04510554618196	2.3842678	1.5441074
29.06321114362659	2.4099355	1.5523967
29.08131748261405	2.4283035	1.5583014
29.099424563687567	2.424111	1.5569557
29.11753238739057	2.4011073	1.5495507
29.13564095426663	2.433797	1.5600631
29.15375026485954	2.473439	1.5727171
29.171860319713275	2.503991	1.5824003
29.18997111937199	2.5557911	1.5986842
29.20808266438002	2.691294	1.6405164
29.226194955281898	2.8155816	1.6779695
29.244307992622335	2.8903785	1.7001113
29.26242177694624	2.9054909	1.70455
29.2805363087987	2.877054	1.6961881
29.29865158872498	2.8599207	1.69113
29.316767617270557	2.847032	1.6873151
29.334884394981064	2.9029837	1.7038144
29.353001922402367	2.94467	1.716004
29.37112020008047	2.9963114	1.7309856
29.389239228561596	3.1008396	1.76092
29.407359008392152	3.297314	1.8158507
29.42547954011872	3.6076734	1.8993876
29.44360082428809	4.1816635	2.0449116
29.46172286144722	5.1753225	2.2749336
29.479845652143283	6.7499866	2.5980737
29.497969196923606	8.639956	2.9393802
29.516093496335728	11.073965	3.327757
29.5342185509274	13.796626	3.714381
29.55234436124651	16.079067	4.009871
29.570470927841175	17.304092	4.1598186
29.588598251259686	17.083181	4.1331806
29.60672633205055	15.853919	3.981698
29.624855170762405	13.782615	3.7124944
29.642984767944146	11.171708	3.3424106
29.66111512414481	8.571096	2.9276435
29.67924623991366	6.4269023	2.5351336
29.697378115800138	4.9995	2.2359562
29.71551075235387	4.1538434	2.038098
29.733644150124675	3.7227528	1.9294436
29.751778309662576	3.486208	1.867139
29.769913231517766	3.4357185	1.8535691
29.78804891624066	3.3587348	1.8326851
29.806185364381818	3.3021922	1.8171935
29.82432257649206	3.2487056	1.8024166
29.842460553122333	3.2790182	1.8108059
29.86059929482382	3.2681828	1.8078116
29.878738802147872	3.211845	1.7921621
29.896879075646048	3.1918287	1.786569
29.915020115870114	3.1979043	1.7882686
29.933161923371976	3.223968	1.7955412
29.951304498703777	3.2094676	1.7914987
29.969447842417857	3.2326217	1.7979493
29.987591955066733	3.2511504	1.8030946
30.005736837203123	3.2399375	1.7999827
30.023882489379943	3.1495373	1.7746936
30.04202891215028	3.1858785	1.7849029
30.060176106067455	3.1952946	1.7875386
30.078324071684946	3.120719	1.7665557
30.09647280955646	3.0574806	1.7485653
30.114622320235863	3.0318336	1.7412162
30.132772604277257	3.0646574	1.7506163
30.1509236622349	3.0529022	1.7472557
30.16907549466328	3.0043821	1.7333153
30.18722810211705	2.9845152	1.727575
30.205381485151097	2.9999013	1.7320223
30.22353564432045	2.976489	1.7252505
30.241690580180403	2.947293	1.7167681
30.25984629328638	2.9247816	1.7101992
30.278002784194037	2.9242313	1.7100384
30.296160053459246	2.944752	1.716028
30.314318101638033	2.948845	1.7172201
30.332476929286646	2.8658335	1.6928773
30.35063653696153	2.9000912	1.7029654
30.368796925219307	3.0143545	1.7361896
30.386958094616844	3.052168	1.7470455
30.40512004571115	2.8893716	1.6998152
30.423282779059463	2.8365648	1.6842104
30.441446295219233	2.8328693	1.683113
30.459610594748067	2.8279324	1.6816458
30.47777567820382	2.79508	1.6718493
30.495941546144504	2.8122725	1.6769831
30.51410819912835	2.8099291	1.6762843
30.532275637713795	2.8218956	1.6798499
30.55044386245946	2.8199167	1.6792607
30.56861287392416	2.8157055	1.6780064
30.586782672666956	2.793879	1.6714901
30.604953259247047	2.7841725	1.668584
30.623124634223885	2.813203	1.6772606
30.641296798157075	2.805844	1.6750654
30.659469751606462	2.817418	1.6785166
30.677643495132074	2.7620385	1.6619382
30.695818029294152	2.738005	1.6546918
30.713993354653116	2.7320256	1.652884
30.73216947176962	2.7124493	1.6469516
30.75034638120448	2.6542447	1.6291853
30.768524083518756	2.615763	1.6173321
30.786702579273673	2.7564087	1.6602435
30.80488186903069	2.805187	1.6748693
30.82306195335144	2.8480477	1.687616
30.841242832797782	3.084331	1.7562264
30.85942450793176	3.418707	1.8489746
30.877606979315637	3.6742003	1.9168204
30.895790247511883	4.032253	2.008047
30.913974313083134	4.4180083	2.1019058
30.932159176592283	4.682849	2.163989
30.95034483860237	4.681363	2.1636457
30.968531299676698	4.495892	2.1203518
30.98671856037873	4.2139754	2.052797
31.00490662127215	3.8282037	1.9565796
31.023095482920848	3.399315	1.8437232
31.04128514588892	3.0425177	1.7442814
31.059475610740662	2.7778652	1.6666929
31.07766687804056	2.574205	1.604433
31.09585894835335	2.481746	1.5753558
31.11405182224393	2.471853	1.5722128
31.132245500277417	2.4885828	1.5775243
31.15043998301914	2.4651518	1.5700802
31.168635271034628	2.4041648	1.550537
31.18683136488964	2.3850002	1.5443445
31.20502826515008	2.4082286	1.5518469
31.223225972382135	2.4229927	1.5565965
31.241424487152155	2.4508352	1.5655143
31.259623810026692	2.450584	1.5654341
31.27782394157253	2.48723	1.5770955
31.296024882356644	2.4302378	1.5589219
31.314226632946237	2.4326932	1.5597093
31.332429193908684	2.4333525	1.5599207
31.350632565811598	2.4280663	1.5582254
31.368836749222787	2.3836539	1.5439086
31.387041744710295	2.4091465	1.5521426
31.40524755284232	2.4716015	1.5721328
31.423454174187317	2.4313717	1.5592856
31.441661609313922	2.4441843	1.5633887
31.459869858791002	2.4018493	1.54979
31.478078923187628	2.30932	1.5196447
31.496288803073064	2.2647023	1.5048928
31.514499499016807	2.269658	1.5065384
31.532711011588546	2.314868	1.521469
31.550923341358178	2.3308544	1.5267136
31.56913648889584	2.3365138	1.5285659
31.587350454771844	2.2723587	1.5074345
31.605565239556732	2.2537844	1.501261
31.62378084382127	2.2632248	1.5044018
31.641997268136382	2.2452176	1.498405
31.660214513073274	2.2420573	1.4973501
31.67843257920331	2.2070944	1.4856293
31.6966514670981	2.2148976	1.4882532
31.71487117732944	2.2951581	1.5149779
31.733091710469346	2.3327634	1.5273386
31.751313067090052	2.3517807	1.5335517
31.769535247764008	2.3351233	1.528111
31.787758253063878	2.2258873	1.4919407
31.805982083562526	2.260827	1.5036047
31.824206739833024	2.2915971	1.5138022
31.84243222244869	2.270837	1.5069296
31.860658531983013	2.229644	1.4931992
31.878885669009737	2.1877227	1.4790952
31.897113634102784	2.2754483	1.508459
31.91534242783632	2.308868	1.519496
31.933572050784694	2.2327654	1.4942441
31.951802503522508	2.218748	1.4895463
31.970033786624548	2.2377734	1.4959189
31.988265900665834	2.2214441	1.490451
32.006498846221575	2.1741567	1.4745022
32.02473262386724	2.1557283	1.4682399
32.04296723417845	2.1785712	1.4759984
32.0612026777311	2.2392936	1.4964269
32.07943895510129	2.150657	1.4665118
32.097676066865304	2.1019006	1.4497933
32.115914013599685	2.0846767	1.443841
32.13415279588115	2.081665	1.4427977
32.152392414286666	2.0399501	1.4282682
32.1706328693934	2.0691032	1.4384378
32.18887416177875	2.1202471	1.4561068
32.20711629202032	2.1532588	1.4673986
32.225359260695924	2.1110559	1.4529473
32.243603068383614	2.0899782	1.4456757
32.26184771566166	2.1556697	1.4682199
32.28009320310852	2.2251124	1.4916811
32.2983395313029	2.244876	1.498291
32.31658670082372	2.2449214	1.4983062
32.33483471225012	2.2030945	1.4842825
32.35308356616143	2.1176178	1.4552038
32.371333263137245	2.0305054	1.424958
32.38958380375734	2.0839794	1.4435995
32.407835188601744	2.090688	1.4459212
32.42608741825067	2.097276	1.4481975
32.444340493284585	2.0524223	1.4326278
32.46259441428416	1.994935	1.4124217
32.48084918183028	1.9646151	1.4016473
32.49910479650405	1.9482538	1.3957986
32.51736125888683	1.971248	1.4040114
32.53561856956014	1.9786892	1.4066589
32.5538767291058	1.9894385	1.4104745
32.572135738105764	1.9382808	1.3922216
32.59039559714228	1.9481704	1.3957688
32.608656306797776	1.9450719	1.3946583
32.62691786765491	1.9709109	1.4038913
32.645180280296586	2.0632424	1.4363991
32.663443545305896	2.073045	1.4398073
32.68170766326619	2.0321722	1.4255428
32.69997263476099	2.0500205	1.4317893
32.7182384603741	2.0266109	1.4235908
32.7365051406895	1.9387254	1.3923812
32.75477267629144	1.8780223	1.3704095
32.77304106776434	1.902528	1.3793216
32.79131031569289	1.920147	1.3856937
32.809580420661966	1.9523611	1.3972691
32.827851383256714	1.9963104	1.4129084
32.84612320406245	2.0942385	1.4471484
32.86439588366476	2.0893388	1.4454545
32.88266942264945	2.0176802	1.4204507
32.9009438216025	1.89947	1.3782126
32.9192190811102	1.8757294	1.3695728
32.937495201758985	1.8654047	1.3657982
32.95577218413556	1.939861	1.392789
32.974050028826866	1.9912603	1.4111202
32.992328736420035	1.9579313	1.399261
33.010608307502444	1.9563892	1.3987098
33.02888874266169	1.9033955	1.379636
33.047170042485604	1.9093846	1.3818048
33.06545220756225	1.9493587	1.3961943
33.083735238479896	1.9520308	1.397151
33.10201913582707	1.9450022	1.3946334
33.12030390019248	2.0039582	1.4156123
33.138589532165135	1.9600712	1.4000255
33.15687603233419	1.8842936	1.3726957
33.17516340128909	1.8715279	1.3680379
33.19345163961947	1.9442582	1.3943666
33.211740747915215	2.045577	1.4302367
33.23003072676643	2.0839393	1.4435856
33.248321576763466	2.0118866	1.4184098
33.266613298496885	1.9272871	1.3882676
33.28490589255747	1.769595	1.3302612
33.30319935953626	1.7058264	1.306073
33.32149370002451	1.8018738	1.3423389
33.339788914613706	1.948421	1.3958585
33.358085003895575	2.0819373	1.442892
33.376381968462034	2.055114	1.4335669
33.39467980890529	1.9545288	1.3980446
33.41297852581774	1.9527607	1.3974122
33.43127811979204	1.9866782	1.4094957
33.44957859142105	2.0001307	1.4142598
33.467879941297866	1.8540419	1.3616321
33.486182170015844	1.7505771	1.3230938
33.50448527816853	1.8520776	1.3609105
33.522789266349754	1.9544239	1.3980072
33.541094135153514	1.9886224	1.4101852
33.55939988517411	2.0371547	1.4272892
33.57770651700602	2.0060425	1.4163483
33.59601403124398	1.8485166	1.3596016
33.61432242848296	1.7801406	1.3342191
33.632631709318154	1.7737086	1.3318065
33.650941874344994	1.8613683	1.3643197
33.66925292415916	1.9659202	1.4021127
33.68756485935654	2.0273979	1.4238672
33.70587768053328	2.139272	1.462625
33.724191388285746	2.0677383	1.4379632
33.74250598321054	1.8482487	1.3595031
33.760821465904506	1.8319422	1.3534926
33.77913783696474	1.9216335	1.38623
33.79745509698852	1.8449444	1.3582873
33.815773246573414	1.8609654	1.3641721
33.8340922863172	1.9443942	1.3944154
33.852412216817896	2.0046308	1.4158498
33.87073303867377	1.9929208	1.4117085
33.889054752483304	2.013951	1.4191375
33.907377358845245	1.9617419	1.400622
33.92570085835853	1.8377575	1.3556391
33.94402525162239	1.8809988	1.3714951
33.96235053923627	1.994936	1.4124221
33.980676721799824	2.0808678	1.4425213
33.999003799912984	2.0259187	1.4233477
34.01733177417592	1.9605492	1.4001962
34.03566064518901	1.8151113	1.3472607
34.0539904135529	1.7336316	1.3166745
34.07232107986846	1.8249031	1.3508898
34.090652644736785	1.8665164	1.3662051
34.108985108759235	1.7822157	1.3349966
34.12731847253742	1.8635663	1.3651251
34.14565273667313	2.086393	1.4444352
34.16398790176847	2.081625	1.4427837
34.18232396842574	1.9207388	1.3859072
34.20066093724749	1.9500251	1.396433
34.21899880883651	1.999849	1.4141601
34.23733758379583	2.0036716	1.4155111
34.25567726272874	2.028249	1.4241661
34.27401784623872	2.0663998	1.4374977
34.29235933492957	2.015058	1.4195274
34.31070172940526	2.0228198	1.4222587
34.32904503027003	1.989339	1.4104393
34.347389238128386	1.9785237	1.4066001
34.36573435358502	1.8850712	1.3729789
34.38408037724492	1.686375	1.2986051
34.402427309713296	1.8811822	1.371562
34.42077515159559	2.0119038	1.4184159
34.43912390349752	1.8275752	1.3518784
34.45747356602499	1.6969632	1.3026754
34.47582413978423	1.7177458	1.310628
34.49417562538163	1.9331006	1.3903599
34.51252802342388	1.9784062	1.4065583
34.53088133451789	1.8290985	1.3524417
34.54923555927084	1.967911	1.4028225
34.567590698290104	2.11686	1.4549433
34.58594675218336	2.0103378	1.4178638
34.6043037215585	1.9367794	1.3916823
34.62266160702365	1.9176432	1.38479
34.641020409187234	1.8240585	1.3505771
34.65938012865785	1.9801009	1.4071605
34.677740766044394	2.093684	1.4469568
34.69610232195598	1.9862882	1.4093573
34.714464797002016	1.8605627	1.3640244
34.73282819179208	1.8997773	1.378324
34.751192506936064	1.9518735	1.3970947
34.76955774304408	1.9619306	1.4006894
34.7879239007265	1.7842994	1.3357767
34.80629098059391	1.7506647	1.3231269
34.824658983257194	1.8454611	1.3584775
34.843027909327446	2.0948284	1.4473522
34.86139775941603	2.1229239	1.4570256
34.879768534134534	2.0984778	1.4486123
34.89814023409483	2.0715551	1.4392898
34.91651285990901	2.088968	1.4453263
34.93488641218944	1.9280139	1.3885294
34.95326089154871	1.8161321	1.3476394
34.97163629859967	1.8552247	1.3620664
34.99001263395542	1.9117273	1.3826523
35.00838989822934	1.8240013	1.3505559
35.02676809203499	1.8524739	1.3610562
35.04514721598624	1.8822248	1.3719419
35.063527270697215	2.0162811	1.4199581
35.081908256782256	2.0652866	1.4371105
35.10029017485597	2.1377726	1.4621123
35.11867302553321	2.0854795	1.444119
35.137056809429104	1.8461194	1.3587198
35.155441527159006	1.8142985	1.346959
35.173827179338524	1.9579873	1.399281
35.19221376658354	1.8227645	1.350098
35.21060128951017	1.5409747	1.2413601
35.2289897487348	1.6181549	1.2720672
35.24737914487405	1.9054921	1.3803957
35.26576947854479	1.962213	1.4007901
35.28416075036418	1.767299	1.329398
35.30255296094958	1.8700377	1.3674932
35.32094611091867	2.1467645	1.4651841
35.33934020088932	2.071819	1.4393815
35.35773523147969	2.0078993	1.4170036
35.3761312033082	1.9973639	1.4132812
35.394528116993506	1.8532327	1.3613349
35.41292597315452	2.021139	1.4216677
35.431324772410434	2.1954067	1.4816905
35.449724515380666	2.2520409	1.5006801
35.46812520268491	2.1306221	1.4596651
35.486526834943106	2.2061515	1.4853119
35.504929412775454	2.1432786	1.463994
35.52333293680242	1.7740049	1.3319178
35.54173740764471	1.5120757	1.2296648
35.560142825923286	1.5644926	1.2507968
35.5785491922594	1.7106588	1.3079215
35.59695650727454	1.5620917	1.2498367
35.61536477159042	1.4327071	1.1969575
