0.008763373481513119	0.3822274	0.6182454
0.026290120649546365	0.19633481	0.44309685
0.043816868432600686	0.22200462	0.47117367
0.06134361724069026	0.31415	0.56049085
0.07887036748382949	0.27803817	0.52729326
0.0963971195720331	0.2563066	0.5062673
0.11392387391531617	0.19992022	0.4471244
0.1314506309236943	0.13072883	0.36156443
0.1489773910071836	0.12855609	0.35854718
0.16650415457580078	0.0656052	0.25613514
0.18403092203956356	0.032262195	0.1796168
0.20155769380849	0.032270625	0.17964026
0.2190844702925996	0.083595216	0.28912836
0.2366112519019124	0.11320861	0.33646488
0.2541380390464497	0.19088106	0.43689936
0.27166483213623416	0.15662892	0.39576373
0.28919163158128947	0.13230102	0.36373207
0.3067184377916406	0.06765252	0.260101
0.324245251177314	0.06749754	0.25980288
0.34177207214833777	0.049793847	0.22314535
0.3592989011147415	0.046790995	0.21631226
0.37682573848655654	0.06729844	0.25941944
0.39435258467381573	0.110079095	0.3317817
0.41187944008655414	0.15653896	0.39565006
0.42940630513480854	0.11800566	0.3435195
0.446933180228618	0.07618917	0.27602386
0.4644600657780234	0.109024525	0.33018863
0.48198696219306775	0.15367737	0.39201707
0.49951386988379676	0.18053888	0.42489865
0.5170407892602581	0.17769003	0.42153296
0.5345677207325025	0.13222368	0.36362574
0.5520946647105822	0.112518355	0.33543757
0.5696216216045534	0.12790392	0.35763657
0.5871485918244737	0.14166333	0.3763819
0.6046755757804043	0.16624904	0.40773648
0.6222025738824094	0.19547103	0.44212106
0.6397295865405557	0.2036276	0.45125115
0.6572566141649129	0.18991287	0.43578994
0.6747836571655547	0.19715412	0.4440204
0.6923107159525568	0.18458574	0.42963442
0.7098377909359992	0.19191109	0.4380766
0.7273648825259653	0.2324233	0.482103
0.7448919911325411	0.19397211	0.44042265
0.762419117165817	0.17039	0.41278324
0.7799462610358868	0.14660919	0.3828958
0.7974734231528482	0.17007744	0.41240448
0.8150006039268024	0.17992188	0.42417198
0.8325278037678551	0.19521597	0.4418325
0.8500550230861152	0.20013703	0.44736677
0.8675822622916969	0.21482024	0.46348703
0.8851095217947171	0.21195972	0.46039084
0.9026368020052984	0.21045136	0.45874977
0.9201641033335665	0.19747019	0.44437617
0.9376914261896523	0.23400144	0.48373696
0.9552187709836915	0.257245	0.50719327
0.9727461381258234	0.24579452	0.49577668
0.990273528026193	0.23567873	0.48546755
1.0078009410949496	0.2029136	0.45045933
1.0253283777422473	0.21159494	0.4599945
1.0428558383782454	0.2383171	0.48817733
1.0603833234131086	0.28553686	0.5343565
1.0779108332570058	0.33390987	0.5778493
1.0954383683201119	0.30061945	0.54828775
1.112965929012607	0.31443664	0.5607465
1.1304935157446763	0.41380545	0.6432771
1.1480211289265108	0.5001762	0.70723134
1.1655487689683062	1.421871	1.1924223
1.1830764362802655	1.7147582	1.3094877
1.200604131272596	2.0475552	1.4309281
1.2181318543555117	2.1496377	1.4661642
1.235659605939232	2.1704042	1.4732292
1.253187386433982	3.6376545	1.9072636
1.270715196249994	6.0651846	2.4627595
1.2882430357975057	11.325821	3.3653858
1.3057709054867608	16.229305	4.028561
1.3232988057280106	22.123241	4.703535
1.3408267369315112	26.997654	5.1959267
1.358354699507526	30.797602	5.5495586
1.3758826938663256	34.54202	5.877246
1.3934107204181858	35.966682	5.997223
1.410938779573391	35.977093	5.9980907
1.4284668717422309	36.648777	6.0538235
1.4459949973350033	36.29802	6.0247836
1.4635231567620117	36.337074	6.028024
1.4810513504335687	35.84033	5.986679
1.4985795787599925	35.374176	5.9476194
1.5161078421516088	34.867256	5.90485
1.5336361410187505	34.02706	5.833272
1.5511644757717598	33.906963	5.8229685
1.5686928468209842	34.561188	5.878876
1.58622125457678	35.09094	5.9237604
1.6037496994495108	36.103626	6.0086293
1.621278181849548	36.104294	6.0086846
1.6388067021872719	36.7907	6.0655336
1.6563352608730693	36.21941	6.018256
1.673863858317336	35.14498	5.9283204
1.6913924949304753	34.3128	5.8577127
1.7089211711228998	33.50309	5.7881856
1.7264498873050296	32.63262	5.7124968
1.7439786438872935	32.071285	5.6631517
1.7615074412801288	31.147718	5.581014
1.779036279893981	30.599348	5.5316677
1.796565160139305	29.696022	5.4494057
1.814094082426564	29.138954	5.398051
1.8316230471662298	28.195812	5.309973
1.849152054768784	27.199417	5.215306
1.8666811056447168	26.710327	5.1682034
1.8842102002045273	25.96311	5.095401
1.901739338858724	25.415253	5.041354
1.9192685220178245	24.838615	4.983835
1.9367977500923557	24.003235	4.8993096
1.9543270234928547	23.446142	4.8421216
1.971856342629867	22.802357	4.7751813
1.9893857079139496	22.353601	4.7279596
2.006915119755667	21.809526	4.670067
2.0244445785655945	21.228891	4.607482
2.0419740847543175	20.773579	4.557804
2.0595036387324317	20.605278	4.539304
2.0770332409105414	20.058416	4.4786625
2.094562891699263	19.904531	4.4614496
2.1120925915092217	19.493752	4.415173
2.129622340751053	19.165144	4.3778014
2.1471521398354043	187.282	13.6851015
2.1646819891729323	443.48102	21.058989
2.182211889174303	439.72308	20.969576
2.1997418402501974	452.17154	21.264326
2.2172718428113023	432.17883	20.788912
2.234801897268317	320.21832	17.894646
2.2523320040319548	16.707443	4.087474
2.269862163512935	16.366882	4.0456004
2.287392376121992	15.882833	3.9853272
2.304922642269869	15.434284	3.9286492
2.322452962367322	15.045622	3.8788686
2.3399833368251164	14.805567	3.8478003
2.357513766054032	14.811273	3.8485417
2.3750442504648586	14.6715355	3.830344
2.3925747904683963	14.389838	3.793394
2.410105386475459	14.064372	3.7502496
2.4276360388968707	13.64366	3.6937325
2.445166748143469	13.4681835	3.6699023
2.4626975146261025	13.314678	3.6489284
2.4802283387556323	13.072043	3.615528
2.4977592209429305	12.880061	3.5888803
2.5152901615988825	12.59218	3.5485463
2.5328211611343865	12.309564	3.5084987
2.5503522199603523	12.137459	3.4838855
2.5678833384877024	12.034286	3.4690468
2.5854145171273712	12.002083	3.4644022
2.6029457562903064	11.794993	3.434384
2.620477056387469	11.653329	3.4136972
2.6380084178298326	11.414179	3.3784876
2.655539841028383	11.202798	3.347058
2.673071326394119	11.003778	3.3171945
2.6906028743380523	10.68429	3.2686832
2.708134485271211	10.623853	3.2594252
2.7256661596046325	10.484143	3.2379227
2.743197897749369	10.339941	3.2155778
2.760729700116486	10.23893	3.1998327
2.778261567117063	10.094568	3.177195
2.795793499162193	9.927963	3.150867
2.8133254966629817	9.7302475	3.1193345
2.830857560030551	9.607071	3.0995276
2.8483896896760337	9.672875	3.1101246
2.865921886010578	9.388975	3.0641434
2.883454149445347	9.193803	3.0321283
2.9009864803915177	8.88377	2.9805653
2.91851887926028	8.742209	2.9567227
2.9360513464628384	8.701475	2.9498262
2.953583882410413	8.625963	2.936999
2.9711164875142373	8.501382	2.9157128
2.9886491621855606	8.386492	2.895944
3.0061819068356455	8.342058	2.888262
3.023714721875769	8.348875	2.889442
3.041247607717225	8.278885	2.877305
3.0587805647713213	8.02322	2.8325288
3.0763135934493806	7.785654	2.7902784
3.0938466941627407	7.67665	2.7706769
3.1113798673227544	7.6041226	2.7575574
3.1289131133407904	7.615514	2.759622
3.1464464326282315	7.597198	2.7563014
3.1639798255964786	7.5629745	2.7500863
3.1815132926569443	7.38471	2.7174823
3.1990468342210603	7.250076	2.6925964
3.216580450700272	7.158155	2.6754727
3.2341141425060416	7.1463	2.6732564
3.251647910049847	7.094119	2.6634789
3.2691817537431813	7.0023646	2.646198
3.286715673997555	6.8433948	2.6159883
3.3042496712244938	6.7804585	2.6039314
3.32178374583554	6.7181044	2.5919306
3.339317898242251	6.596065	2.5682805
3.3568521288562034	6.429509	2.5356476
3.3743864380889876	6.466637	2.5429583
3.3919208263522127	6.5050225	2.5504947
3.4094552940575023	6.419523	2.5336778
3.4269898416164972	6.3417153	2.5182762
3.444524469440858	6.3632216	2.5225427
3.4620591779422587	6.423847	2.5345309
3.479593967532391	6.3885455	2.5275571
3.4971288386229658	6.138216	2.4775424
3.5146637916257086	6.062222	2.462158
3.5321988269523628	6.0122695	2.451993
3.5497339450146903	6.1114097	2.4721265
3.5672691462244708	6.088592	2.4675074
3.5848044309934988	6.0437794	2.45841
3.60233979973359	6.0695486	2.4636455
3.619875252856575	6.1437383	2.4786565
3.6374107907743034	6.215992	2.493189
3.6549464138986427	6.169726	2.4838934
3.6724821226414788	6.19506	2.4889877
3.690017917414714	6.1931024	2.4885945
3.7075537986302702	6.1747766	2.4849098
3.7250897667000857	6.1847143	2.4869087
3.7426258220361235	6.2852693	2.5070438
3.7601619650503553	6.5840926	2.5659487
3.777698196154779	7.055302	2.6561818
3.7952345157614067	8.004526	2.8292272
3.8127709242822716	8.780816	2.9632442
3.830307422129425	10.835249	3.291694
3.847844009714936	12.239967	3.4985664
3.8653806874508954	15.67423	3.9590693
3.882917455749409	15.248083	3.9048793
3.900454315022606	15.348297	3.9176903
3.917991265682631	12.250288	3.5000412
3.9355283081416506	10.449077	3.2325032
3.9530654428118495	8.373145	2.8936388
3.970602670105433	7.18642	2.68075
3.9881399904346244	6.3123655	2.512442
4.005677404211669	6.2321963	2.4964368
4.023214911848827	6.25597	2.5011938
4.0407525137583855	6.3352413	2.5169904
4.058290210352644	6.307088	2.5113916
4.075828002043927	6.2652717	2.5030525
4.0933658892445814	6.152444	2.480412
4.110903872366966	6.2002325	2.4900267
4.128441951823468	6.1319366	2.4762747
4.145980128026488	6.058848	2.4614727
4.163518401388452	5.9241004	2.4339476
4.181056772321807	5.864914	2.4217584
4.1985952412390155	5.904652	2.429949
4.216133808552567	5.9482207	2.4388974
4.233672474674966	6.000202	2.449531
4.251211240018741	6.202147	2.490411
4.268750104996445	6.3904757	2.527939
4.286289070020643	7.3205338	2.7056484
4.303828135503928	8.966767	2.994456
4.3213673018589125	29.34039	5.416677
4.3389065694982305	90.53755	9.515122
4.356445938834537	165.71127	12.8728895
4.3739854102805085	171.52739	13.096847
4.391524984248844	172.38585	13.12958
4.409064661152262	136.4459	11.681006
4.426604441403504	96.439804	9.820377
4.444144325415337	75.32614	8.679064
4.461684313600543	21.191484	4.6034207
4.47922440637193	21.547575	4.641937
4.496764604142329	19.69216	4.437585
4.5143049073245916	17.835648	4.223227
4.531845316331589	15.89015	3.9862452
4.5493858315762195	13.159897	3.6276572
4.566926453471405	10.984445	3.3142788
4.584467182430081	9.071131	3.0118318
4.602008018865218	8.064131	2.8397412
4.619548963189798	7.3830185	2.717171
4.637090015816834	6.875098	2.6220407
4.654631177159353	6.608779	2.5707545
4.672172447630417	6.3680067	2.523491
4.689713827643102	6.2581453	2.5016286
4.7072553176105085	5.9684763	2.4430466
4.724796917945764	5.7691026	2.4018955
4.742338629062015	5.6897926	2.3853285
4.759880451372434	5.6022987	2.3669176
4.777422385290215	5.5662374	2.3592875
4.794964431228581	5.471698	2.3391662
4.812506589600768	5.452198	2.3349943
4.830048860820047	5.5256286	2.3506656
4.847591245299709	5.5191894	2.3492956
4.8651337434530655	5.5367417	2.3530283
4.882676355693457	5.47147	2.3391173
4.900219082434242	5.430884	2.3304257
4.917761924088813	5.3889804	2.3214178
4.935304881070575	5.387672	2.321136
4.952847953792969	5.4037976	2.324607
4.970391142669449	5.363694	2.3159652
4.9879344481135055	5.3272223	2.3080776
5.005477870538642	5.261441	2.2937832
5.023021410358394	5.2324286	2.2874503
5.040565067986324	5.260583	2.293596
5.05810884383601	5.2660937	2.2947972
5.075652738321066	5.3473067	2.3124244
5.09319675185512	5.3476505	2.3124988
5.110740884851836	5.266157	2.294811
5.128285137724894	5.170666	2.2739098
5.145829510888007	5.063743	2.2502763
5.163374004754908	5.029716	2.2427027
5.1809186197393595	5.03869	2.2447026
5.198463356255145	5.0853057	2.2550623
5.216008214716077	5.1696577	2.273688
5.233553195535998	5.223325	2.2854595
5.251098299128764	5.2094083	2.2824128
5.268643525908272	5.1337075	2.2657685
5.286188876288432	5.0585356	2.2491188
5.3037343506831895	5.0518217	2.2476258
5.32127994950651	5.094903	2.2571893
5.3388256731723915	5.1230817	2.2634225
5.356371522094851	5.1472244	2.2687495
5.373917496687938	5.0972505	2.257709
5.391463597365729	5.0710034	2.2518888
5.40900982454232	4.979063	2.2313814
5.426556178631843	5.0168896	2.2398415
5.444102660048449	5.0790467	2.253674
5.4616492692063225	5.1159215	2.2618403
5.479196006519669	5.114533	2.2615333
5.496742872402727	5.037692	2.2444804
5.514289867269756	4.9878445	2.2333484
5.531836991535049	4.9632926	2.2278447
5.549384245612924	5.012327	2.2388227
5.566931629917724	5.012088	2.2387693
5.584479144863822	4.9874406	2.2332578
5.6020267908656205	4.914689	2.21691
5.619574568337545	4.8956556	2.2126129
5.637122477694054	4.9879537	2.2333727
5.654670519349629	4.9938107	2.2346835
5.672218693718784	4.99609	2.2351935
5.689767001216059	4.9671764	2.2287164
5.707315442256021	5.0016556	2.236438
5.724864017253266	5.0779514	2.253431
5.7424127266224225	5.1005406	2.2584376
5.75996157077814	5.0527816	2.2478392
5.777510550135105	4.9680524	2.2289128
5.795059665108022	4.9420485	2.2230718
5.812608916111639	5.012305	2.2388177
5.830158303560715	5.1381407	2.2667468
5.847707827870055	5.1459336	2.268465
5.86525748945448	5.266976	2.2949893
5.8828072887288485	5.376172	2.3186574
5.900357226108044	5.386973	2.3209853
5.917907302006979	5.4365754	2.3316464
5.9354575168406	6.0371594	2.4570632
5.9530078710238765	6.572578	2.563704
5.970558364971812	6.968819	2.639852
5.988108999099438	7.2387686	2.690496
6.005659773821818	7.688709	2.7728522
6.023210689554039	7.501849	2.7389505
6.040761746711227	7.9183297	2.8139527
6.058312945708531	7.339402	2.7091331
6.075864286961132	6.902742	2.627307
6.093415770884244	6.338906	2.5177183
6.1109673978931065	5.8538394	2.4194708
6.128519168402993	5.3593435	2.3150256
6.146071082829204	5.203771	2.2811775
6.163623141587075	5.101685	2.258691
6.181175345091969	5.097434	2.2577498
6.198727693759281	5.0587997	2.2491775
6.216280188004435	5.052173	2.247704
6.233832828242885	4.987001	2.2331593
6.251385614890126	4.9977875	2.2355733
6.268938548361669	4.965846	2.2284179
6.286491629073067	4.921589	2.2184653
6.304044857439898	4.895326	2.2125385
6.321598233877777	4.826423	2.1969123
6.339151758802344	4.844276	2.2009716
6.356705432629277	4.9045353	2.2146184
6.37425925577428	4.9269795	2.21968
6.391813228653095	4.8564644	2.2037387
6.409367351681486	4.813908	2.194062
6.426921625275259	4.807327	2.1925616
6.44447604985025	4.8243713	2.1964452
6.46203062582232	4.843813	2.2008665
6.47958535360737	4.8651824	2.205716
6.497140233621328	4.920363	2.218189
6.514695266280161	4.9490247	2.2246404
6.532250451999859	4.98536	2.232792
6.549805791196454	4.9912596	2.2341127
6.567361284286002	4.983252	2.2323198
6.584916931684597	4.907543	2.2152975
6.602472733808367	4.945443	2.2238352
6.6200286910734665	4.950423	2.2249546
6.637584803896092	4.9442897	2.2235758
6.655141072692462	4.924774	2.2191832
6.672697497878842	4.857056	2.203873
6.690254079871514	4.790075	2.188624
6.707810819086808	4.773357	2.1848013
6.725367715941078	4.7700143	2.1840363
6.742924770850719	4.796039	2.189986
6.760481984232151	4.764816	2.1828458
6.778039356501836	4.779514	2.18621
6.795596888076266	4.784732	2.187403
6.813154579371963	4.8203955	2.19554
6.830712430805492	4.8355575	2.19899
6.84827044279344	4.836994	2.1993167
6.865828615752445	4.8048673	2.1920006
6.883386950099159	4.8017755	2.1912954
6.900945446250287	4.8315396	2.1980762
6.918504104622553	4.85458	2.2033112
6.936062925632727	4.901429	2.2139173
6.953621909697607	4.8646803	2.205602
6.971181057234028	4.909056	2.215639
6.988740368658859	4.9345603	2.221387
7.006299844389007	5.022917	2.2411864
7.023859484841407	5.1079335	2.260074
7.041419290433036	5.1747036	2.2747974
7.058979261580902	5.277139	2.2972026
7.0765393987020495	5.4723225	2.3392997
7.094099702213559	5.8325	2.415057
7.111660172532549	6.2120275	2.492394
7.129220810076164	6.571716	2.5635357
7.146781615261595	7.2228436	2.6875348
7.16434258850606	7.419972	2.7239625
7.181903730226821	7.913357	2.8130689
7.1994650408411704	8.005627	2.8294215
7.217026520766437	8.140757	2.8532012
7.234588170419983	8.306128	2.8820353
7.252149990219215	8.281394	2.877741
7.269711980581568	8.153593	2.8554497
7.2872741419245175	8.008962	2.830011
7.304836474665574	7.5342703	2.7448626
7.322398979222286	7.227588	2.6884174
7.339961656012233	6.8914084	2.6251493
7.357524505453039	6.6464014	2.5780616
7.375087527962357	6.4502554	2.5397353
7.392650723957886	6.186096	2.4871864
7.410214093857353	5.8094816	2.4102867
7.427777638078528	5.568183	2.3596997
7.445341357039213	5.4824777	2.341469
7.4629052511572525	5.447541	2.3339968
7.480469320850524	5.369463	2.3172102
7.498033566536948	5.24179	2.2894955
7.5155979886344735	5.133148	2.2656453
7.5331625875610975	5.0282855	2.242384
7.550727363734844	4.988366	2.233465
7.568292317573788	4.988156	2.233418
7.585857449496025	5.02311	2.2412295
7.603422759919705	5.0282283	2.242371
7.620988249263007	4.9930186	2.2345064
7.638553917944147	5.0092964	2.2381458
7.656119766381391	5.0284185	2.2424135
7.673685794993023	5.0340667	2.2436726
7.691252004197388	5.071185	2.2519293
7.70881839441285	5.0261316	2.2419035
7.726384966057826	5.041928	2.2454238
7.743951719550762	5.0928473	2.256734
7.761518655310149	5.1214623	2.2630649
7.779085773754511	5.1262474	2.2641218
7.796653075302419	5.1305823	2.2650788
7.814220560372475	5.1404195	2.2672493
7.831788229383323	5.112685	2.2611248
7.8493560827536495	5.0790644	2.253678
7.866924120902174	5.032541	2.2433326
7.884492344247663	5.0266533	2.24202
7.9020607532089135	5.109023	2.2603147
7.919629348204771	5.0839434	2.2547603
7.937198129654115	5.098737	2.2580383
7.954767097975865	5.096524	2.257548
7.972336253588986	5.1903095	2.2782252
7.989905596912472	5.2112007	2.2828054
8.007475128365371	5.245396	2.290283
8.025044848366756	5.254304	2.2922268
8.042614757335754	5.412734	2.3265283
8.060184855691523	5.5126624	2.3479059
8.07775514385327	5.6869097	2.3847241
8.095325622240228	5.723053	2.3922904
8.112896291271687	5.7213774	2.39194
8.130467151366968	5.754274	2.3988068
8.148038202945436	5.8056564	2.409493
8.165609446426497	5.8214965	2.4127777
8.183180882229594	5.8753915	2.4239206
8.200752510774217	5.929305	2.4350164
8.218324332479893	5.949293	2.4391172
8.235896347766193	5.929231	2.4350014
8.253468557052724	5.85793	2.4203162
8.27104096075914	5.777857	2.4037173
8.288613559305137	5.8066697	2.4097033
8.306186353110448	5.870656	2.4229436
8.32375934259485	6.0143275	2.4524126
8.341332528178162	6.073322	2.464411
8.358905910280246	6.088073	2.467402
8.376479489321003	6.0494413	2.459561
8.394053265720377	6.0709567	2.463931
8.411627239898356	6.1257286	2.475021
8.42920141227497	6.1304264	2.4759698
8.44677578327029	6.143758	2.4786606
8.464350353304427	6.047216	2.4591088
8.48192512279754	6.012111	2.4519606
8.499500092169827	5.9512014	2.4395084
8.51707526184153	5.994291	2.4483242
8.534650632232934	5.952404	2.439755
8.552226203764365	5.9556456	2.4404192
8.569801976856192	5.9501567	2.4392943
8.587377951928834	6.028905	2.4553828
8.60495412940274	6.097793	2.469371
8.622530509698416	6.1603227	2.4819996
8.6401070932364	6.2758183	2.5051584
8.657683880437283	6.415558	2.532895
8.675260871721695	6.522001	2.5538208
8.692838067510303	6.6279364	2.574478
8.710415468223834	6.7520638	2.5984733
8.727993074283043	6.8851805	2.6239626
8.745570886108737	6.902341	2.6272306
8.763148904121765	6.9769416	2.64139
8.78072712874302	6.9251175	2.6315618
8.798305560393441	7.116971	2.6677651
8.815884199494006	7.209686	2.6850858
8.833463046465745	7.359059	2.7127585
8.851042101729728	7.579575	2.7531028
8.86862136570707	7.9175425	2.8138127
8.886200838818924	8.120482	2.849646
8.903780521486505	8.315535	2.8836668
8.921360414131055	8.503698	2.91611
8.938940517173874	8.643501	2.9399831
8.956520831036297	8.691771	2.948181
8.97410135613971	8.836744	2.9726663
8.99168209290554	8.868832	2.9780583
9.009263041755265	9.099992	3.0166192
9.026844203110405	9.35519	3.0586255
9.044425577392525	9.527177	3.0866125
9.062007165023239	9.681733	3.1115484
9.079588966424197	9.942113	3.1531117
9.097170982017108	10.045725	3.1694992
9.11475321222372	10.852742	3.2943501
9.132335657465825	11.657884	3.4143643
9.149918318165264	11.7393055	3.426267
9.167501194743924	12.382401	3.5188637
9.18508428762374	12.078907	3.4754722
9.202667597226693	11.950879	3.4570043
9.220251123974803	11.501147	3.391334
9.237834868290143	11.190068	3.345156
9.255418830594836	11.081224	3.3288474
9.273003011311046	10.667784	3.2661574
9.290587410860985	10.517444	3.2430608
9.308172029666911	9.989005	3.1605387
9.32575686815113	9.732005	3.1196163
9.343341926735997	8.497237	2.915002
9.360927205843916	8.214514	2.8660972
9.378512705897327	8.105831	2.847074
9.396098427318728	7.9662848	2.8224607
9.413684370530664	7.9193096	2.8141267
9.431270535955722	7.7482567	2.783569
9.448856924016539	7.613834	2.7593176
9.466443535135806	7.495559	2.7378018
9.484030369736251	7.4844165	2.7357662
9.501617428240658	7.4851904	2.7359076
9.519204711071852	7.5538254	2.7484224
9.536792218652714	7.605813	2.7578638
9.55437995140617	7.7040825	2.7756228
9.571967909755191	7.7437963	2.7827678
9.589556094122802	7.7777905	2.7888691
9.60714450493207	7.7310467	2.780476
9.624733142606116	7.7310314	2.7804732
9.642322007568108	7.746074	2.783177
9.659911100241267	7.8047967	2.7937067
9.677500421048851	7.8385034	2.7997327
9.695089970414175	7.878389	2.8068469
9.712679748760609	7.9144063	2.8132555
9.730269756511557	7.923936	2.8149486
9.747859994090492	7.892738	2.8094018
9.765450461920915	7.9113126	2.8127055
9.78304116042639	7.9781976	2.8245704
9.800632090030527	7.992798	2.8271537
9.81822325115699	8.027385	2.8332639
9.835814644229481	8.092882	2.844799
9.853406269671762	8.092167	2.8446734
9.870998127907646	8.072054	2.841136
9.888590219360985	7.9893436	2.8265426
9.906182544455698	7.9340262	2.8167403
9.923775103615734	8.006835	2.8296351
9.941367897265108	8.0530615	2.8377917
9.958960925827878	8.081445	2.8427882
9.97655418972816	8.052433	2.8376808
9.994147689390106	8.005263	2.8293574
10.011741425237934	8.000708	2.8285522
10.029335397695904	7.9813643	2.825131
10.04692960718833	7.9583564	2.821056
10.06452405413958	7.9211755	2.8144584
10.082118738974064	7.9933186	2.8272457
10.099713662116246	8.012854	2.8306985
10.117308823990651	7.9791837	2.824745
10.134904225021844	7.89544	2.8098826
10.152499865634445	7.9159136	2.8135233
10.170095746253125	7.952321	2.819986
10.18769186730261	7.9913116	2.8268907
10.205288229207675	7.9626126	2.8218102
10.222884832393145	7.8997483	2.8106492
10.2404816772839	7.892306	2.8093247
10.258078764304868	7.8462067	2.8011081
10.275676093881035	7.8380036	2.7996435
10.293273666437438	7.839714	2.799949
10.310871482399158	7.8783817	2.8068454
10.32846954219134	7.8800535	2.8071432
10.346067846239173	7.9346247	2.8168466
10.363666394967908	7.945566	2.818788
10.38126518880283	7.988248	2.8263488
10.398864228169298	8.058531	2.8387551
10.416463513492713	8.050081	2.8372664
10.434063045198531	8.035094	2.8346243
10.451662823712262	8.070785	2.8409126
10.469262849459467	8.107994	2.847454
10.486863122865758	8.036603	2.8348904
10.504463644356806	7.9517803	2.81989
10.522064414358338	7.8065796	2.7940257
10.539665433296118	7.7273273	2.779807
10.557266701595987	7.6522818	2.766276
10.574868219683818	7.5593824	2.749433
10.592469987985552	7.4801707	2.7349901
10.610072006927185	7.368008	2.7144074
10.627674276934751	7.2350063	2.6897967
10.64527679843435	7.1255045	2.669364
10.662879571852143	7.015274	2.6486363
10.680482597614331	6.91496	2.629631
10.698085876147173	6.840276	2.615392
10.715689407876988	6.793278	2.606392
10.733293193230146	6.7348447	2.5951579
10.750897232633072	6.6367326	2.5761857
10.76850152651225	6.569254	2.5630555
10.786106075294207	6.4880376	2.5471628
10.803710879405534	6.4830055	2.5461748
10.821315939272877	6.417826	2.5333428
10.83892125532294	6.3364267	2.517226
10.856526827982472	6.22086	2.4941652
10.874132657678285	6.175274	2.48501
10.891738744837243	6.095675	2.4689422
10.909345089886271	6.063379	2.4623928
10.926951693252343	5.97248	2.4438658
10.944558555362494	5.931387	2.4354439
10.96216567664381	5.8234277	2.413178
10.979773057523436	5.718206	2.391277
10.997380698428573	5.6273646	2.3722067
11.014988599786477	5.5199223	2.3494515
11.032596762024461	5.50408	2.3460774
11.050205185569892	5.4803214	2.3410087
11.067813870850198	5.522067	2.3499079
11.085422818292859	5.4927235	2.343656
11.10303202832541	5.3955183	2.3228254
11.120641501375454	5.307114	2.3037174
11.138251237870636	5.2236247	2.285525
11.155861238238671	5.1560426	2.270692
11.173471502907317	5.0498414	2.2471852
11.191082032304402	4.9604764	2.2272127
11.208692826857805	4.9330745	2.2210526
11.226303886995465	4.8806787	2.209226
11.243915213145371	4.8706517	2.2069552
11.261526805735578	4.8560367	2.2036417
11.279138665194196	4.8248425	2.1965525
11.296750791949393	4.7609086	2.1819506
11.314363186429393	4.6973696	2.1673417
11.331975849062479	4.6166472	2.1486385
11.34958878027699	4.583252	2.1408532
11.36720198050133	4.5317683	2.1287951
11.384815450163948	4.488037	2.1184988
11.402429189693366	4.4378757	2.1066265
11.420043199518153	4.3692517	2.0902755
11.437657480066942	63.305897	7.9565
11.455272031768422	85.02969	9.221154
11.472886855051353	107.42858	10.364776
11.490501950344528	99.016426	9.9507
11.508117318076819	84.3806	9.185891
11.52573295867715	45.777023	6.765872
11.543348872574514	4.0674033	2.0167804
11.560965060197946	3.9939742	1.998493
11.57858152197655	3.9314876	1.9827979
11.59619825833949	3.8968787	1.9740514
11.613815269715985	3.9145534	1.978523
11.631432556535323	38.46367	6.2019086
11.649050119226837	82.97777	9.109214
11.666667958219929	93.35395	9.661984
11.68428607394406	107.54528	10.370404
11.701904466828756	82.36224	9.075365
11.719523137303586	65.219376	8.075851
11.737142085798196	4.5050216	2.1225035
11.754761312742286	3.6392362	1.9076782
11.772380818565619	3.605815	1.8988984
11.790000603698015	3.5680754	1.888935
11.80762066856935	3.5495448	1.8840235
11.825241013609572	3.4822104	1.8660681
11.842861639248683	3.445462	1.8561956
11.860482545916748	3.4078753	1.8460431
11.878103734043883	3.3606565	1.8332094
11.895725204060282	3.3136332	1.8203387
11.91334695639619	3.2893856	1.8136663
11.930968991481919	3.3063264	1.8183306
11.948591309747824	3.2628894	1.806347
11.966213911624347	3.2595336	1.8054179
11.98383679754198	3.275946	1.8099574
12.001459967931268	3.2559958	1.8044378
12.019083423222835	3.2254572	1.7959558
12.036707163847352	3.1338463	1.7702672
12.05433119023556	3.0960999	1.7595738
12.071955502818259	3.0934474	1.7588199
12.089580102026313	3.0943499	1.7590765
12.107204988290643	3.095098	1.759289
12.12483016204224	3.0785923	1.7545918
12.142455623712152	3.0494049	1.7462546
12.16008137373149	3.0028512	1.7328737
12.177707412531431	2.9834554	1.7272682
12.19533374054321	2.9634247	1.72146
12.212960358198126	2.951815	1.7180847
12.230587265927545	2.9466326	1.7165759
12.248214464162889	2.9355886	1.7133559
12.265841953335649	2.905903	1.7046709
12.283469733877375	2.8662634	1.6930043
12.301097806219685	2.8799407	1.6970388
12.31872617079425	2.8707814	1.6943381
12.336354828032825	2.8598838	1.6911191
12.353983778367205	2.8594508	1.690991
12.371613022229262	2.8532577	1.6891589
12.389242560050928	2.8699958	1.6941062
12.406872392264201	2.825603	1.680953
12.424502519301143	2.8407514	1.6854529
12.442132941593874	2.7967737	1.6723558
12.459763659574586	2.7829115	1.6682061
12.477394673675532	2.7243607	1.6505637
12.49502598432903	2.7175293	1.648493
12.51265759196746	2.7558413	1.6600727
12.530289497023267	2.7666628	1.6633289
12.547921699928967	2.7673886	1.663547
12.565554201117134	2.7147763	1.6476579
12.583187001020404	2.652719	1.628717
12.600820100071486	2.6578999	1.6303067
12.618453498703152	2.6940663	1.6413611
12.636087197348235	2.7256927	1.6509672
12.65372119643964	2.7608528	1.6615814
12.671355496410326	2.7702954	1.6644205
12.68899009769333	2.8019857	1.6739134
12.706625000721749	2.8249693	1.6807644
12.724260205928752	2.8978434	1.7023053
12.741895713747551	2.9439337	1.7157896
12.759531524611454	2.9587827	1.7201113
12.777167638953818	2.920652	1.7089915
12.794804057208072	2.8770905	1.6961988
12.812440779807702	2.9148052	1.70728
12.830077807186271	3.073783	1.7532207
12.847715139777405	3.1223521	1.7670178
12.865352778014795	3.2906096	1.8140037
12.882990722332197	3.3612373	1.8333677
12.90062897316344	3.4457839	1.8562822
12.918267530942412	3.5247993	1.8774449
12.935906396103071	3.4419308	1.8552442
12.953545569079449	3.5992408	1.8971665
12.971185050305628	3.4626737	1.860826
12.988824840215775	3.4891484	1.8679262
13.006464939244115	3.5030377	1.8716403
13.024105347824943	3.3634982	1.8339843
13.041746066392617	3.3837907	1.8395083
13.05938709538157	3.1776984	1.7826099
13.077028435226296	3.2097712	1.7915834
13.094670086361363	3.1504326	1.7749459
13.112312049221401	3.067769	1.7515048
13.129954324241112	2.9631689	1.7213857
13.147596911855258	2.765415	1.6629537
13.165239812498685	2.78093	1.6676121
13.182883026606293	2.7288465	1.6519221
13.200526554613058	2.7249067	1.6507292
13.218170396954017	2.635515	1.6234269
13.235814554064284	2.6280684	1.6211319
13.253459026379034	2.6381178	1.6242284
13.271103814333523	2.6238072	1.619817
13.288748918363058	2.6299183	1.6217023
13.306394338903031	2.5882375	1.6088
13.32404007638889	2.5686874	1.6027125
13.341686131256164	2.5725973	1.6039318
13.359332503940449	2.5947194	1.6108133
13.376979194877402	2.6172216	1.617783
13.394626204502751	2.6345875	1.6231413
13.412273533252307	2.6549327	1.6293964
13.429921181561937	2.651483	1.6283375
13.447569149867581	2.6973224	1.6423527
13.465217438605247	2.6965866	1.6421287
13.482866048211022	2.6837754	1.6382233
13.500514979121052	2.6590304	1.6306534
13.518164231771568	2.6107273	1.6157745
13.535813806598844	2.5928142	1.6102217
13.553463704039254	2.5500863	1.5968989
13.571113924529229	2.593902	1.6105596
13.588764468505275	2.6242495	1.6199535
13.606415336403956	2.6907003	1.6403354
13.624066528661917	2.7058544	1.6449481
13.641718045715882	2.7649288	1.6628075
13.659369888002635	2.7967021	1.6723343
13.67702205595903	2.889237	1.6997756
13.694674550021993	2.9691176	1.7231128
13.712327370628532	3.0189745	1.7375196
13.729980518215713	3.0673459	1.751384
13.747633993220681	3.1111965	1.7638584
13.765287796080647	3.1568785	1.7767607
13.7829419272329	3.22363	1.795447
13.800596387114801	3.2559218	1.8044174
13.818251176163775	3.2456667	1.8015734
13.835906294817324	3.2606905	1.8057382
13.853561743513023	3.2501047	1.8028047
13.871217522688525	3.2871866	1.81306
13.888873632781538	3.3344748	1.8260545
13.906530074229858	3.4038997	1.844966
13.92418684747135	3.4065971	1.8456969
13.941843952943948	3.364651	1.8342985
13.959501391085665	3.325532	1.8236041
13.977159162334578	3.2835987	1.8120703
13.994817267128846	3.2929368	1.814645
14.012475705906693	3.1987443	1.7885034
14.030134479106424	3.1392095	1.7717814
14.047793587166414	3.0676565	1.7514727
14.065453030525108	3.0062032	1.7338406
14.083112809621026	2.9339468	1.7128768
14.100772924892766	2.88853	1.6995676
14.118433376778997	2.887048	1.6991315
14.136094165718458	2.8152387	1.6778673
14.153755292149969	2.7192025	1.6490004
14.171416756512416	2.6250896	1.6202128
14.189078559244768	2.5505142	1.5970329
14.20674070078606	2.4991157	1.5808592
14.224403181575408	2.448729	1.5648415
14.242066002051999	2.4447699	1.563576
14.259729162655093	2.3772545	1.5418348
14.277392663824022	2.3766208	1.5416293
14.295056505998208	2.3993258	1.5489757
14.312720689617128	2.4286458	1.5584114
14.330385215120348	2.4199712	1.5556257
14.348050082947497	2.3833165	1.5437994
14.3657152935383	2.3731825	1.5405138
14.383380847332528	2.3643248	1.5376362
14.401046744770051	2.3580687	1.5356004
14.418712986290798	2.3661659	1.5382347
14.436379572334793	2.382081	1.5433992
14.454046503342123	2.3919618	1.5465969
14.471713779752946	2.3683949	1.538959
14.489381402007504	2.3412669	1.5301199
14.507049370546113	2.3321276	1.5271305
14.524717685809168	2.3330576	1.527435
14.542386348237134	2.3653104	1.5379566
14.560055358270553	2.3686209	1.5390325
14.577724716350051	2.4068189	1.5513926
14.595394422916325	2.4014268	1.5496538
14.61306447841015	2.43193	1.5594647
14.63073488327237	2.4004095	1.5493255
14.648405637943917	2.4063601	1.5512447
14.6660767428658	2.363926	1.5375063
14.683748198479094	2.400146	1.5492405
14.701420005224954	2.4748302	1.5731593
14.719092163544628	2.5767875	1.6052375
14.73676467387942	2.6434927	1.6258821
14.754437536670727	2.6216652	1.6191558
14.772110752360014	2.5886734	1.6089355
14.78978432138882	2.5997152	1.6123632
14.807458244198777	2.6371663	1.6239355
14.82513252123159	2.625791	1.6204293
14.842807152929028	2.6161032	1.6174372
14.860482139732962	2.5959985	1.6112102
14.87815748208531	2.603067	1.6134022
14.8958331804281	2.6048272	1.6139477
14.91350923520342	2.5808144	1.6064913
14.931185646853438	2.5905914	1.6095314
14.948862415820408	2.57237	1.603861
14.966539542546656	2.5989244	1.612118
14.98421702747459	2.5732145	1.6041242
15.001894871046696	2.5882485	1.6088034
15.019573073705542	2.5882492	1.6088036
15.037251635893766	2.5821476	1.6069062
15.054930558054092	2.6188314	1.6182804
15.072609840629323	2.662334	1.6316661
15.090289484062351	2.7710896	1.664659
15.107969488796124	2.885166	1.6985776
15.125649855273691	3.132543	1.7698991
15.14333058393817	3.5345094	1.8800291
15.161011675232768	4.118549	2.0294209
15.17869312960076	4.751684	2.1798358
15.196374947485506	5.3983088	2.323426
15.214057129330447	6.7820373	2.6042345
15.231739675579114	8.84047	2.9732928
15.249422586675102	13.247139	3.639662
15.267105863062092	17.35313	4.165709
15.284789505183847	24.057062	4.9048
15.302473513484218	28.605145	5.3483777
15.320157888407127	32.527718	5.7033076
15.337842630396578	31.51885	5.6141653
15.355527739896656	28.838135	5.370115
15.37321321735153	22.582336	4.7520876
15.39089906320545	15.53136	3.9409847
15.408585277902748	10.124462	3.181896
15.42627186188783	6.343494	2.5186293
15.443958815605198	4.5925903	2.143033
15.461646139499424	3.790921	1.9470288
15.479333834015168	3.3668962	1.8349104
15.497021899597165	3.045758	1.74521
15.514710336690234	2.8006134	1.6735033
15.53239914573928	2.6530592	1.6288214
15.550088327189297	2.5645552	1.6014229
15.567777881485336	2.5471818	1.5959893
15.58546780907256	2.5218372	1.5880294
15.6031581103962	2.4982746	1.5805931
15.620848785901568	2.4505892	1.5654358
15.638539836034063	2.4417171	1.5625995
15.656231261239173	2.3982992	1.5486443
15.673923061962451	2.3941376	1.5473001
15.691615238649552	2.4088411	1.5520442
15.709307791746202	2.4175467	1.5548462
15.727000721698221	2.40349	1.5503193
15.744694028951498	2.3573973	1.5353818
15.76238771395202	2.3171253	1.5222107
15.780081777145844	2.32966	1.5263224
15.797776218979125	2.3336563	1.5276309
15.815471039898094	2.3524356	1.5337652
15.833166240349064	2.3414938	1.530194
15.850861820778437	2.3420208	1.5303662
15.868557781632699	2.3614671	1.5367066
15.886254123358412	2.4138806	1.5536668
15.903950846402232	2.4314806	1.5593206
15.921647951210897	2.4301667	1.5588992
15.939345438231225	2.4586177	1.5679979
15.957043307910133	2.4867713	1.57695
15.974741560694602	2.4813602	1.5752333
15.992440197031714	2.4787774	1.5744133
16.01013921736862	2.4544466	1.5666673
16.02783862215259	2.417648	1.5548788
16.045538411830933	2.3637257	1.5374413
16.06323858685107	2.3594837	1.536061
16.080939147660512	2.3336732	1.5276365
16.09864009470684	2.358428	1.5357174
16.11634142843774	2.3809402	1.5430295
16.134043149300954	2.381428	1.5431876
16.15174525774433	2.3626578	1.537094
16.169447754215817	2.362033	1.5368906
16.18715063916342	2.398945	1.5488528
16.204853913035244	2.4080775	1.5517981
16.222557576279478	2.4020803	1.5498646
16.240261629344403	22.382368	4.731001
16.257966072678386	42.95551	6.554045
16.275670906729868	38.109394	6.1732807
16.293376131947387	2.5243375	1.5888164
16.31108174877957	2.5048048	1.5826576
16.328787757675133	2.487759	1.5772631
16.34649415908287	2.4741037	1.5729284
16.364200953451657	2.471238	1.5720172
16.38190814123048	2.5201654	1.5875028
16.39961572286839	2.559767	1.5999272
16.41732369881455	2.6191664	1.6183839
16.43503206951817	2.6592648	1.6307253
16.45274083542859	2.6908808	1.6403904
16.47044999699522	2.7145991	1.6476041
16.488159554667558	2.742521	1.6560559
16.505869508895184	2.83999	1.6852269
16.523579860127786	2.9231484	1.7097217
16.541290608815117	2.9631643	1.7213844
16.559001755407035	3.0364137	1.7425308
16.57671330035348	3.0978215	1.7600629
16.59442524410448	3.2158957	1.7932918
16.61213758711015	3.3314903	1.825237
16.629850329820705	3.385161	1.8398807
16.647563472686436	3.4517772	1.857896
16.665277016157724	3.4189935	1.8490521
16.682990960685053	3.4366539	1.8538214
16.70070530671898	3.391024	1.8414733
16.718420054710155	3.465008	1.8614532
16.736135205109335	3.4794025	1.8653157
16.753850758367335	3.545553	1.8829639
16.771566714935087	3.5429718	1.8822783
16.789283075263597	3.635242	1.9066311
16.80699983980398	3.6846893	1.9195545
16.82471700900741	3.7990386	1.9491123
16.84243458332518	3.8688378	1.9669361
16.860152563208665	3.9272676	1.9817334
16.87787094910932	3.9510462	1.9877238
16.89558974147871	4.0293956	2.0073354
16.913308940768466	4.090843	2.0225832
16.931028547430333	4.133903	2.0332003
16.94874856191613	4.1576915	2.0390418
16.966468984677785	4.2252517	2.0555418
16.98418981616729	4.271798	2.0668328
17.00191105683676	4.3184624	2.0780911
17.019632707138374	4.3771367	2.0921607
17.03735476752442	4.4068475	2.0992494
17.05507723844728	4.464061	2.1128323
17.072800120359403	4.5126114	2.1242907
17.090523413713353	4.5275755	2.12781
17.108247118961785	4.5416474	2.1311142
17.125971236557437	4.5040345	2.122271
17.143695766953133	4.495498	2.120259
17.161420710601806	4.492848	2.119634
17.179146067956477	4.5216784	2.1264238
17.19687183947025	4.543203	2.131479
17.21459802559634	4.568648	2.1374395
17.232324626788028	4.581578	2.1404622
17.25005164349871	4.559012	2.1351843
17.267779076181863	4.512516	2.1242683
17.285506925291074	4.4615655	2.1122417
17.30323519127999	4.4308996	2.1049702
17.320963874602384	4.4487844	2.109214
17.33869297571211	4.503072	2.1220443
17.356422495063114	4.519668	2.125951
17.37415243310944	4.5135803	2.1245189
17.391882790305218	4.4721656	2.1147494
17.40961356710468	4.413359	2.1007996
17.42734476396215	4.366107	2.089523
17.445076381332044	4.429331	2.1045976
17.462808419668868	4.5059156	2.1227143
17.48054087942723	4.6567583	2.1579523
17.498273761061835	4.766537	2.1832402
17.51600706502747	5.090284	2.2561657
17.533740791779024	5.681753	2.383643
17.551474941771485	6.5917544	2.5674412
17.56920951545993	8.51121	2.917398
17.586944513299528	9.7270355	3.1188195
17.60467993574556	12.494003	3.5346859
17.622415783253373	14.946956	3.8661294
17.64015205627843	17.5862	4.1935906
17.657888755276293	19.682434	4.436489
17.675625880702604	21.096296	4.5930705
17.69336343301311	19.557629	4.422401
17.71110141266366	17.549368	4.1891966
17.728839820110178	14.982232	3.870689
17.746578655808705	12.083387	3.4761167
17.764317920215372	10.004919	3.1630554
17.7820576137864	8.311141	2.882905
17.79979773697811	6.954511	2.6371408
17.81753829024692	5.79144	2.406541
17.835279274049356	5.047965	2.2467678
17.85302068884201	4.3897395	2.0951705
17.870762535081607	4.0015707	2.0003927
17.888504813224934	3.7837172	1.9451779
17.90624752372891	3.6279192	1.9047097
17.923990667050536	3.5446918	1.8827351
17.941734243646895	3.4734352	1.8637154
17.959478253975185	3.4377317	1.8541121
17.9772226984927	3.434632	1.853276
17.994967577656833	3.3820539	1.8390361
18.01271289192506	3.2914116	1.8142248
18.030458641754965	3.2414052	1.8003904
18.04820482760425	3.1901486	1.7860987
18.06595144993067	3.1887054	1.7856947
18.083698509192125	3.2225578	1.7951484
18.101446005846576	3.1961	1.787764
18.119193940352105	3.141652	1.7724706
18.136942313166887	3.1475775	1.7741413
18.1546911247492	3.1048472	1.7620577
18.1724403755574	3.079261	1.7547823
18.19019006604997	3.0244203	1.739086
18.207940196685467	3.0530584	1.7473003
18.225690767922575	3.0996962	1.7605954
18.243441780220046	3.0805442	1.7551479
18.261193234036764	3.0471342	1.7456043
18.278945129831676	2.9937868	1.7302563
18.29669746806386	3.001103	1.7323692
18.314450249192483	3.0110757	1.7352451
18.3322034736768	2.9900432	1.7291741
18.349957141976184	2.9652717	1.7219964
18.3677112545501	2.9538555	1.7186785
18.385465811858108	2.977324	1.7254924
18.403220814359884	3.0109804	1.7352177
18.420976262515172	2.9866006	1.7281784
18.43873215678387	3.0234363	1.7388031
18.456488497625923	3.0474398	1.7456918
18.474245285501407	3.1354866	1.7707305
18.492002520870486	3.208385	1.7911965
18.50976020419343	3.25457	1.8040427
18.527518335930615	3.518587	1.8757898
18.545276916542516	4.0707693	2.0176148
18.563035946489688	4.2527556	2.062221
18.580795426232832	4.675092	2.1621962
18.598555356232698	4.589752	2.1423707
18.616315736950185	4.8881373	2.2109132
18.63407656884626	4.6143723	2.148109
18.65183785238201	4.78941	2.188472
18.669599588018617	4.61131	2.147396
18.68736177621737	4.5559406	2.134465
18.705124417439652	4.5217247	2.1264348
18.72288751214696	4.3221273	2.0789726
18.740651060800886	4.4546747	2.11061
18.758415063863115	4.1771708	2.0438128
18.77617952179546	4.3522468	2.0862038
18.793944435059814	4.1866136	2.0461216
18.811709804118184	4.1810193	2.044754
18.829475629432675	4.1327853	2.0329254
18.8472419114655	3.9042232	1.9759108
18.86500865067897	4.0344224	2.0085871
18.88277584753551	3.7175074	1.9280839
18.90054350249763	3.7129345	1.9268976
18.918311616027957	3.3682816	1.8352879
18.936080188589226	3.2594802	1.8054031
18.953849220644265	2.9753454	1.724919
18.971618712656007	2.8069181	1.675386
18.9893886650875	2.7591152	1.6610584
19.007159078401887	7.957615	2.8209245
19.024929953062408	32.85336	5.731785
19.042701289532435	32.766228	5.7241793
19.060473088275405	25.306177	5.0305247
19.07824534975489	2.5607643	1.6002388
19.096018074434568	2.5538387	1.5980735
19.113791262778197	2.5156705	1.5860865
19.13156491524966	2.5302908	1.5906888
19.149339032312945	2.55559	1.5986212
19.167113614432136	2.575031	1.6046903
19.184888662071433	2.5529368	1.5977912
19.202664175695123	2.50176	1.5816953
19.220440155767623	2.449691	1.565149
19.238216602753447	2.3957043	1.5478063
19.2559935171172	2.3800197	1.5427313
19.27377089932361	2.4039884	1.55048
19.291548749837514	2.4081738	1.5518292
19.309327069123835	2.4659064	1.5703205
19.32710585764763	2.4492812	1.5650179
19.344885115874032	2.4154778	1.5541807
19.362664844268313	2.4075906	1.5516412
19.380445043295822	2.398342	1.5486581
19.39822571342203	2.3902028	1.546028
19.41600685511252	2.4202561	1.5557172
19.43378846883297	2.4642353	1.5697883
19.451570555049173	2.4838219	1.5760145
19.469353114227037	2.4804678	1.5749501
19.48713614683254	2.4973795	1.58031
19.50491965333182	2.5088215	1.583926
19.52270363419109	2.4877791	1.5772696
19.540488089876686	2.43819	1.5614705
19.55827302085503	2.4425607	1.5628694
19.576058427592674	2.442061	1.5627095
19.593844310556282	2.440773	1.5622973
19.611630670212598	2.424159	1.5569711
19.629417507028506	2.4211068	1.5559906
19.64720482147098	2.4554577	1.56699
19.6649926140071	2.441856	1.5626439
19.682780885104084	2.422185	1.556337
19.70056963522921	2.4177625	1.5549155
19.718358864849908	2.443251	1.5630902
19.7361485744337	2.4781997	1.5742298
19.753938764448215	2.4906235	1.5781709
19.771729435361202	2.5075858	1.5835358
19.789520587640506	2.5183659	1.586936
19.807312221754092	2.512224	1.5849997
19.825104338170043	2.4734538	1.5727217
19.842896937356517	2.418094	1.5550221
19.860690019781824	2.390172	1.5460181
19.87848358591436	2.382965	1.5436856
19.896277636222635	2.370186	1.5395409
19.914072171175278	2.3729792	1.5404477
19.931867191241015	2.3863158	1.5447705
19.94966269688869	2.4009082	1.5494864
19.967458688587264	2.4199915	1.5556322
19.985255166805807	2.3921645	1.5466623
20.00305213201348	2.353092	1.5339792
20.020849584679578	2.3783057	1.5421757
20.038647525273507	2.417195	1.5547332
20.05644595426477	2.4210796	1.5559819
20.07424487212299	2.4260743	1.5575861
20.092044279317903	2.4178705	1.5549504
20.109844176319353	2.4071794	1.5515088
20.127644563597304	2.4285293	1.5583739
20.145445441621817	2.4139147	1.5536778
20.16324681086307	2.3837676	1.5439454
20.181048671791373	2.3714275	1.539944
20.198851024877122	2.3695662	1.5393395
20.216653870590836	2.3297622	1.5263559
20.234457209403146	2.261632	1.5038723
20.252261041784802	2.222877	1.4909316
20.270065368206662	2.2264657	1.4921346
20.287870189139685	2.2427359	1.4975767
20.305675505054968	2.2662983	1.505423
20.323481316423702	2.2585092	1.5028337
20.341287623717207	2.2481878	1.4993958
20.359094427406884	2.2421584	1.4973838
20.376901727964288	2.242298	1.4974304
20.39470952586107	2.2729073	1.5076164
20.41251782156899	2.318624	1.5227028
20.430326615559935	2.322258	1.5238956
20.448135908305886	2.2818735	1.5105871
20.465945700278965	2.275428	1.5084522
20.483755991951384	2.2752416	1.5083904
20.50156678379548	2.2892752	1.513035
20.519378076283708	2.27732	1.5090792
20.537189869888635	2.2776701	1.5091952
20.55500216508294	2.256472	1.5021558
20.572814962339415	2.2286768	1.4928753
20.59062826213098	2.27315	1.5076969
20.60844206493066	2.293642	1.5144775
20.626256371211593	2.310655	1.5200839
20.644071181447032	2.2590754	1.5030221
20.66188649611036	2.2379823	1.4959887
20.67970231567506	2.2214763	1.4904618
20.697518640614742	2.223949	1.491291
20.715335471403122	2.2398336	1.4966073
20.73315280851404	2.2525067	1.5008353
20.750970652421447	2.2722242	1.5073899
20.768789003599412	2.2831292	1.5110027
20.786607862522136	2.275805	1.5085771
20.8044272296639	2.2423556	1.4974496
20.82224710549913	2.211267	1.487033
20.84006749050237	2.1951804	1.4816141
20.857888385148268	3.7348351	1.9325721
20.8757097899116	45.8629	6.7722154
20.893531705267254	64.74173	8.046225
20.911354131690224	83.771645	9.152685
20.92917706965566	69.00162	8.306722
20.94700051963877	50.043274	7.074127
20.96482448211493	29.303915	5.413309
20.982648957559622	4.049248	2.0122745
21.00047394644843	2.1741428	1.4744974
21.01829944925707	2.1885161	1.4793634
21.036125466461375	2.195443	1.4817027
21.053951998537297	2.1845098	1.4780087
21.071779045960906	2.176193	1.4751925
21.089606609208378	2.189399	1.4796618
21.10743468875603	2.192979	1.4808711
21.12526328508028	2.1874895	1.4790164
21.143092398657675	2.149773	1.4662104
21.16092202996488	2.1004767	1.4493022
21.17875217947867	2.0951452	1.4474616
21.19658284767596	2.1584463	1.4691652
21.21441403503377	2.1747742	1.4747115
21.232245742029225	2.1518307	1.4669119
21.2500779691396	2.092068	1.4463983
21.26791071684227	2.1007297	1.4493895
21.28574398561475	2.1033509	1.4502934
21.30357777593465	2.1371374	1.4618951
21.321412088279704	2.1502583	1.466376
21.339246923127792	2.1520174	1.4669756
21.357082280956888	2.1231458	1.4571018
21.3749181622451	2.10602	1.4512132
21.392754567470647	2.0672307	1.4377867
21.41059149711187	2.0701306	1.4387949
21.42842895164726	2.0938535	1.4470154
21.446266931555378	2.1053138	1.4509699
21.464105437314945	2.1014526	1.4496387
21.481944469404798	2.0696473	1.4386269
21.49978402830388	2.0639513	1.4366459
21.51762411449127	2.0575502	1.4344163
21.53546472844617	2.0465367	1.4305722
21.553305870647876	2.040823	1.4285737
21.571147541575865	2.0487754	1.4313544
21.58898974170967	2.0764732	1.4409974
21.60683247152899	2.087448	1.4448003
21.62467573151363	2.0781476	1.4415781
21.642519522143523	2.0292482	1.4245168
21.660363843898722	2.0016806	1.4148077
21.6782086972594	2.0089498	1.4173743
21.696054082705864	2.0667663	1.4376252
21.713900000718535	2.0513697	1.4322604
21.73174645177795	2.0235307	1.4225086
21.749593436364794	1.9766136	1.4059209
21.767440954959845	1.982584	1.4080427
21.785289008044032	1.9670522	1.4025164
21.803137596098388	1.9544646	1.3980217
21.820986719604086	1.9502698	1.3965206
21.838836379042412	1.93388	1.3906401
21.85668657489478	1.9504741	1.3965938
21.87453730764273	1.9422674	1.3936526
21.892388577767914	1.9649903	1.4017811
21.91024038575213	1.9516125	1.3970013
21.928092732077285	1.9832817	1.4082904
21.945945617225426	1.9919907	1.411379
21.963799041678694	1.9843313	1.4086629
21.981653005919398	31.258986	5.5909734
21.999507510429943	78.07138	8.835801
22.01736255569286	73.04696	8.546751
22.035218142190818	4.1598377	2.039568
22.05307427040661	1.9531541	1.3975528
22.07093094082315	1.9141948	1.3835443
22.088788153923474	1.8871022	1.3737184
22.106645910190746	1.9140729	1.3835002
22.12450421010827	1.930763	1.389519
22.142363054159464	1.9518503	1.3970864
22.16022244282787	1.9273555	1.3882923
22.178082376597164	1.9354403	1.391201
22.195942855951145	1.9302341	1.3893286
22.213803881373742	1.919467	1.3854483
22.231665453349002	1.9176356	1.3847872
22.24952757236111	1.9246106	1.3873034
22.26739023889438	1.9488758	1.3960214
22.28525345343323	1.9372936	1.3918669
22.30311721646225	1.9391816	1.392545
22.320981528466113	1.9531344	1.3975458
22.33884638992964	1.9494275	1.396219
22.356711801337788	1.9296231	1.3891088
22.37457776317561	1.936354	1.3915294
22.392444275928337	1.9296212	1.3891081
22.410311340081282	1.8912652	1.3752328
22.428178956119904	1.8717939	1.3681352
22.446047124529805	1.8664358	1.3661757
22.46391584579669	1.8762811	1.3697741
22.481785120406414	1.900915	1.3787367
22.49965494884496	1.9106643	1.3822678
22.51752533159841	1.9208854	1.3859601
22.53539626915302	1.9173692	1.384691
22.553267761995137	1.8962425	1.3770412
22.571139810611264	1.8908131	1.3750684
22.589012415488025	1.9055887	1.3804306
22.60688557711216	1.9282032	1.3885976
22.624759295970566	1.9044347	1.3800125
22.642633572550263	1.912657	1.3829885
22.660508407338362	1.9516511	1.3970151
22.67838380082217	1.9756087	1.4055635
22.696259753489077	1.9390298	1.3924905
22.714136265826614	1.9138418	1.3834168
22.73201333832246	1.9014702	1.3789381
22.74989097146439	1.9171491	1.3846115
22.76776916574035	1.9146739	1.3837174
22.785647921638393	1.9232466	1.3868117
22.803527239646712	1.8989363	1.378019
22.82140712025363	1.8505831	1.3603613
22.839287563947593	1.884256	1.3726821
22.85716857121719	1.9142736	1.3835728
22.875050142551135	1.8939209	1.3761979
22.892932278438277	1.8442023	1.3580141
22.910814979367604	1.8408694	1.3567865
22.928698245828222	1.8509669	1.3605025
22.946582078309387	1.8659924	1.3660133
22.96446647730047	1.839662	1.3563414
22.98235144329098	1.8242297	1.3506405
23.000236976770562	1.8458596	1.3586242
23.018123078229	1.9165289	1.3843876
23.03600974815619	1.9232287	1.3868052
23.053896987042194	1.8518865	1.3608403
23.071784795377173	1.8057241	1.3437724
23.08967317365145	1.7664992	1.3290972
23.10756212235546	1.8031354	1.3428087
23.125451641979787	1.7916048	1.3385084
23.143341733015134	1.8198893	1.3490328
23.161232395952357	1.8489763	1.3597707
23.179123631282426	1.8854222	1.3731068
23.197015439496468	1.9011098	1.3788074
23.214907821085717	1.903836	1.3797957
23.23280077654157	1.9053421	1.3803413
23.250694306355538	1.8792247	1.3708482
23.268588411019277	1.8541262	1.361663
23.28648309102458	1.8193727	1.3488412
23.304378346863356	1.837976	1.3557197
23.322274179027676	1.8669744	1.3663727
23.340170588009723	1.902588	1.3793433
23.358067574301852	1.8714074	1.367994
23.37596513839651	1.8656491	1.3658876
23.39386328078629	1.8745003	1.3691239
23.411762001963947	1.870393	1.3676231
23.429661302422353	1.8673875	1.3665239
23.4475611826545	1.8597454	1.3637248
23.46546164315356	1.854185	1.3616846
23.48336268441279	1.832786	1.3538042
23.501264306925638	1.8698806	1.3674358
23.51916651118564	1.8904804	1.3749474
23.537069297686497	1.9387774	1.3923999
23.554972666922037	1.9412918	1.3933024
23.57287661938623	1.9587823	1.3995651
23.59078115557318	1.9329832	1.3903177
23.608686275977128	1.9070437	1.3809575
23.62659198109246	1.8963945	1.3770964
23.6444982714137	1.8713655	1.3679787
23.66240514743549	1.849348	1.3599074
23.68031260965263	1.7969633	1.3405086
23.698220658560068	1.7746844	1.3321729
23.716129294652845	1.7978351	1.3408338
23.7340385184262	1.8376766	1.3556093
23.75194833037546	1.8597287	1.3637187
23.769858730996123	1.8813981	1.3716407
23.78776972078382	1.9087598	1.3815788
23.80568130023431	1.9477656	1.3956237
23.823593469843495	1.9148028	1.383764
23.841506230107424	1.8945552	1.3764285
23.859419581522275	1.8428588	1.3575194
23.87733352458438	1.8284844	1.3522146
23.89524805979019	1.8234016	1.3503339
23.913163187636318	1.8143721	1.3469863
23.931078908619508	1.8762462	1.3697613
23.948995223236633	1.900473	1.3785764
23.966912131984735	1.9239323	1.3870589
23.98482963536096	1.9626318	1.4009396
24.002747733862616	1.9931768	1.4117992
24.020666427987155	1.9734311	1.4047886
24.038585718232156	1.9728429	1.4045793
24.056505605095353	1.9762826	1.4058032
24.074426089074617	1.9784701	1.406581
24.092347170667946	1.9584129	1.399433
24.110268850373515	1.979416	1.4069172
24.128191128689586	1.9969052	1.413119
24.146114006114626	1.9883523	1.4100895
24.164037483147187	1.981376	1.4076136
24.181961560286005	1.9905062	1.410853
24.199886238029926	2.0154955	1.4196815
24.21781151687797	2.037226	1.4273143
24.235737397329274	2.0191119	1.4209546
24.253663879883135	1.9755102	1.4055284
24.271590965038975	1.9870179	1.4096162
24.289518653296376	2.0059164	1.4163038
24.30744694515505	2.0392983	1.42804
24.32537584111486	2.0259542	1.4233602
24.34330534167581	2.009095	1.4174255
24.361235447338046	1.9715966	1.4041356
24.379166158601876	1.9755003	1.405525
24.39709747596772	1.9640555	1.4014477
24.41502939993615	1.9747185	1.4052467
24.432961931007917	1.9583791	1.399421
24.450895069683856	1.9478824	1.3956655
24.468828816465	1.9307225	1.3895044
24.4867631718525	1.925475	1.3876148
24.504698136347656	1.9314712	1.3897738
24.52263371045192	1.9160881	1.3842283
24.540569894666874	1.9092883	1.38177
24.558506689494266	1.9039747	1.3798459
24.57644409543597	1.8989316	1.3780173
24.594382112994012	1.8747841	1.3692275
24.61232074267057	1.9157708	1.3841137
24.630259984967953	1.9636714	1.4013106
24.64819984038863	2.0117571	1.4183643
24.66614030943522	2.0084395	1.4171942
24.684081392610462	1.9785361	1.4066044
24.702023090417274	1.9760858	1.4057332
24.7199654033587	1.9718723	1.4042337
24.737908331937927	1.9453193	1.394747
24.755851876658305	1.9554418	1.3983711
24.773796038023324	2.004898	1.4159442
24.79174081653661	2.0396514	1.4281636
24.809686212701962	2.078165	1.4415842
24.827632227023294	2.0636923	1.4365557
24.8455788600047	2.048027	1.431093
24.8635261121504	2.0613294	1.4357331
24.88147398396475	2.0932703	1.4468138
24.899422475952303	2.1366937	1.4617434
24.917371588617698	2.1088119	1.4521749
24.935321322465768	2.1213233	1.4564763
24.953271678001478	2.189054	1.4795452
24.97122265572994	2.3231041	1.5241733
24.989174256156414	2.6937497	1.6412647
25.00712647978632	3.3042588	1.817762
25.02507932712521	4.3220572	2.078956
25.043032798678798	5.8742166	2.4236784
25.060986894952933	7.516207	2.7415702
25.078941616453637	8.915687	2.9859147
25.096896963687055	9.775618	3.1265984
25.114852937159508	10.473161	3.2362263
25.132809537377444	10.265738	3.204019
25.150766764847468	9.510053	3.0838373
25.168724620076347	8.231212	2.8690088
25.186683103570985	7.142502	2.672546
25.204642215838426	5.7917886	2.4066136
25.222601957385894	4.621304	2.1497219
25.24056232872074	3.5384195	1.8810687
25.25852333035048	2.858675	1.6907617
25.276484962782778	2.4262192	1.5576326
25.294447226525435	2.1889935	1.4795247
25.312410122086423	2.028388	1.4242148
25.330373649973843	1.9663571	1.4022685
25.348337810695988	1.9520602	1.3971615
25.366302604761245	1.989992	1.4106708
25.384268032678207	1.9699775	1.4035589
25.40223409495558	1.9396254	1.3927044
25.420200792102257	1.8871146	1.3737229
25.438168124627246	1.8444341	1.3580995
25.45613609303974	1.8177369	1.3482348
25.474104697849057	1.8097504	1.3452697
25.492073939564698	1.8613793	1.3643237
25.510043818696285	1.8817447	1.371767
25.528014335753614	1.8626938	1.3648055
25.54598549124664	1.8389667	1.3560851
25.56395728568544	1.8349221	1.3545929
25.58192971958028	1.859015	1.363457
25.59990279344156	1.855488	1.362163
25.617876507779833	1.8690536	1.3671334
25.635850863105826	1.8469907	1.3590404
25.653825859930386	1.8641717	1.3653468
25.671801498764548	1.824023	1.350564
25.68977778011949	1.8230356	1.3501984
25.707754704506524	1.7954855	1.3399572
25.725732272437153	1.7881582	1.3372203
25.743710484423012	1.8356526	1.3548626
25.761689340975888	1.8732061	1.3686513
25.77966884260774	1.8957218	1.3768522
25.797648989830662	1.8355348	1.354819
25.815629783156922	1.8335657	1.3540922
25.83361122309895	1.823842	1.350497
25.85159331016929	1.8658843	1.3659737
25.869576044880695	1.86784	1.3666894
25.887559427746034	1.8693205	1.367231
25.90554345927836	1.816989	1.3479574
25.92352813999086	1.8388073	1.3560263
25.94151347039689	1.864258	1.3653784
25.959499451009965	1.8472784	1.3591462
25.97748608234374	1.7674673	1.3294612
25.995473364912062	1.7553364	1.3248911
26.013461299228904	1.804513	1.3433216
26.03144988580839	1.8293837	1.3525472
26.04943912516483	1.7738466	1.3318583
26.067429017812675	1.7430984	1.3202645
26.085419564266537	1.7378218	1.3182647
26.103410765041186	1.7814785	1.3347204
26.12140262065155	1.815915	1.3475589
26.139395131612723	1.8235298	1.3503814
26.157388298439948	1.8065257	1.3440706
26.17538212164861	1.769108	1.3300782
26.193376601754295	1.7759594	1.3326513
26.211371739272714	1.8357524	1.3548994
26.229367534719746	1.8212866	1.3495505
26.247363988611433	1.7998316	1.341578
26.26536110146397	1.7864742	1.3365905
26.283358873793727	1.7503138	1.3229942
26.301357306117204	1.6914059	1.3005406
26.319356398951104	1.6807225	1.2964268
26.33735615281224	1.7645079	1.3283478
26.35535656821762	1.8348677	1.3545729
26.373357645684404	1.8373065	1.3554728
26.39135938572991	1.7925981	1.3388795
26.409361788871614	1.8312052	1.3532203
26.427364855627165	1.8552449	1.3620738
26.445368586514352	1.8239548	1.3505387
26.46337298205115	1.7753524	1.3324234
26.48137804275568	1.7632881	1.3278886
26.499383769146217	1.7963545	1.3402815
26.517390161741215	1.8216572	1.3496878
26.53539722105928	1.7820942	1.334951
26.553404947619182	1.7375469	1.3181604
26.571413341939856	1.7532192	1.3240919
26.589422404540397	1.77583	1.3326027
26.60743213594006	1.7723223	1.331286
26.62544253665827	1.7730832	1.3315717
26.64345360721459	1.7539942	1.3243845
26.66146534812879	1.7542001	1.3244622
26.679477759920758	1.7733827	1.3316841
26.69749084311057	1.8232726	1.3502861
26.71550459821847	1.8368438	1.3553021
26.733519025764842	1.8173013	1.3480731
26.751534126270258	1.7807047	1.3344305
26.769549900255434	1.7588073	1.3262004
26.787566348241267	1.7441325	1.3206561
26.80558347074881	1.7451242	1.3210315
26.823601268299267	1.7809141	1.3345089
26.841619741414036	1.8220236	1.3498236
26.85963889061465	1.8292576	1.3525006
26.877658716422832	1.779919	1.334136
26.89567921936045	1.7496845	1.3227564
26.913700399949544	1.7020363	1.3046211
26.93172225871233	1.7387273	1.318608
26.949744796171174	1.730398	1.3154459
26.967768012848605	1.7078676	1.3068541
26.98579190926733	1.6528054	1.2856148
27.003816485950225	1.6886952	1.2994981
27.021841743420318	1.7473297	1.321866
27.039867682200814	1.7789762	1.3337827
27.057894302815072	1.7956077	1.3400029
27.07592160578664	1.8053206	1.3436222
27.0939495916392	1.8014604	1.3421849
27.111978260896635	1.7531271	1.3240571
27.13000761408296	1.7410892	1.3195034
27.148037651722397	1.7691965	1.3301115
27.166068374339304	1.7426327	1.3200881
27.184099782458215	1.7348295	1.3171293
27.20213187660384	1.7459198	1.3213326
27.22016465730105	1.747583	1.3219618
27.23819812507487	1.7694685	1.3302137
27.256232280450533	1.7726369	1.3314041
27.274267123953383	1.7745506	1.3321226
27.292302656108987	1.7491765	1.3225644
27.31033887744306	1.7141179	1.3092432
27.32837578848146	1.7027855	1.3049083
27.34641338975026	1.7467365	1.3216416
27.364451681775673	1.7335227	1.3166331
27.382490665084074	1.7225063	1.3124429
27.400530340202046	1.7483968	1.3222696
27.41857070765629	1.7755439	1.3324953
27.436611767973726	1.7712283	1.330875
27.454653521681404	1.7677671	1.329574
27.472695969306564	1.7598796	1.3266045
27.490739111376627	1.7325884	1.3162782
27.508782948419153	1.757778	1.3258122
27.526827480961902	1.7618209	1.3273361
27.54487270953279	1.7359214	1.3175437
27.562918634659898	1.7244811	1.313195
27.580965256871508	1.7469752	1.3217319
27.599012576696026	1.7572668	1.3256193
27.617060594662068	1.7847699	1.3359528
27.63510931129842	1.8246424	1.3507932
27.65315872713401	1.8176177	1.3481905
27.67120884269797	1.8074101	1.3443996
27.68925965851958	1.7703825	1.3305572
27.707311175128307	1.7967223	1.3404187
27.725363393053787	1.8212659	1.3495429
27.74341631282583	1.8689561	1.3670977
27.7614699349744	1.8452889	1.358414
27.77952426002968	2.0689077	1.4383699
27.797579288521973	2.1554518	1.4681457
27.815635020981784	2.594054	1.6106067
27.83369145793979	2.6607938	1.631194
27.85174859992682	2.4653118	1.5701312
27.869806447473923	2.34298	1.5306796
27.887865001112267	2.011713	1.4183487
27.905924261373233	1.8751315	1.3693544
27.92398422878836	1.901079	1.3787962
27.94204490388936	1.8903763	1.3749095
27.96010628720813	1.8564899	1.3625307
27.978168379276728	1.7809751	1.3345318
27.9962311806274	1.790446	1.3380755
28.014294691792568	1.8232932	1.3502938
28.0323589133048	1.8414198	1.3569893
28.050423845696887	1.819471	1.3488777
28.068489489501758	1.8155398	1.3474197
28.086555845252523	1.8598204	1.3637524
28.104622913482487	1.8998263	1.3783419
28.122690694725115	1.8602731	1.3639183
28.14075918951405	1.9076157	1.3811646
28.15882839838312	1.9277389	1.3884304
28.176898321866304	1.8801407	1.3711822
28.1949689604978	1.8427016	1.3574615
28.213040314811945	1.8731741	1.3686395
28.23111238534327	1.8488997	1.3597425
28.249185172626493	1.8581371	1.363135
28.267258677196473	1.8898021	1.3747008
28.285332899588294	1.9089192	1.3816364
28.303407840337172	1.8950186	1.3765967
28.321483499978545	1.8734887	1.3687544
28.33955987904799	1.8966534	1.3771904
28.357636978081285	1.8978393	1.3776209
28.37571479761439	1.9170898	1.3845901
28.393793338183425	1.895989	1.3769492
28.41187260032469	1.8863492	1.3734443
28.429952584574686	1.8581846	1.3631524
28.448033291470065	1.8935409	1.3760599
28.46611472154769	1.9101503	1.3820819
28.484196875344566	1.9643861	1.4015656
28.502279753397914	2.016324	1.4199733
28.52036335624511	2.0077713	1.4169585
28.538447684423716	1.9357005	1.3912946
28.556532738471482	1.9267546	1.3880758
28.574618518926325	1.9335399	1.3905178
28.59270502632635	1.9260646	1.3878273
28.61079226120985	1.9187094	1.3851749
28.628880224115274	1.8993	1.3781509
28.646968915581287	1.9680654	1.4028776
28.66505833614671	1.9814382	1.4076357
28.68314848635055	2.0024931	1.4150947
28.701239366732004	2.0349128	1.4265037
28.71933097783044	2.0673482	1.4378276
28.737423320185403	2.1107929	1.4528568
28.75551639433665	2.0845816	1.4438081
28.773610200824074	2.096289	1.4478567
28.791704740187793	2.1120331	1.4532835
28.80980001296809	2.175504	1.474959
28.827896019705413	2.1771328	1.4755111
28.845992760940433	2.119012	1.4556828
28.86409023721397	2.1151009	1.4543387
28.88218844906704	2.1180565	1.4553545
28.900287397040845	2.1146932	1.4541985
28.918387081676755	2.0996037	1.449001
28.936487503516343	2.189976	1.4798567
28.954588663101365	2.2939138	1.5145673
28.97269056097374	2.3657396	1.5380961
28.990793197675597	2.3237479	1.5243844
29.00889657374923	2.326231	1.5251987
29.027000689737125	2.3590014	1.535904
29.04510554618196	2.338231	1.5291276
29.06321114362659	2.3565912	1.5351193
29.08131748261405	2.375469	1.5412556
29.099424563687567	2.3616774	1.536775
29.11753238739057	2.389425	1.5457765
29.13564095426663	2.4228292	1.556544
29.15375026485954	2.4752645	1.5732974
29.171860319713275	2.4733243	1.5726806
29.18997111937199	2.5303411	1.5907046
29.20808266438002	2.5822747	1.6069458
29.226194955281898	2.669785	1.6339477
29.244307992622335	2.7273042	1.6514552
29.26242177694624	2.772395	1.665051
29.2805363087987	2.8157318	1.6780143
29.29865158872498	2.8451447	1.6867557
29.316767617270557	2.8333712	1.6832621
29.334884394981064	2.8433983	1.6862379
29.353001922402367	2.9076598	1.7051861
29.37112020008047	2.9438841	1.7157751
29.389239228561596	3.0483665	1.7459573
29.407359008392152	3.193985	1.7871723
29.42547954011872	3.4583578	1.859666
29.44360082428809	3.9250984	1.9811862
29.46172286144722	4.8407993	2.2001817
29.479845652143283	6.496342	2.5487924
29.497969196923606	9.2732525	3.0452015
29.516093496335728	13.190418	3.6318614
29.5342185509274	16.863419	4.106509
29.55234436124651	20.049082	4.47762
29.570470927841175	21.388685	4.62479
29.588598251259686	21.051563	4.588198
29.60672633205055	19.34505	4.398301
29.624855170762405	16.144068	4.017968
29.642984767944146	12.697985	3.5634232
29.66111512414481	9.396845	3.0654273
29.67924623991366	6.901406	2.6270528
29.697378115800138	5.1832924	2.2766845
29.71551075235387	4.226536	2.055854
29.733644150124675	3.749871	1.9364583
29.751778309662576	3.5060833	1.8724538
29.769913231517766	3.4167717	1.8484511
29.78804891624066	3.3482597	1.829825
29.806185364381818	3.3113103	1.8197006
29.82432257649206	3.300715	1.816787
29.842460553122333	3.2629218	1.806356
29.86059929482382	3.2561703	1.8044862
29.878738802147872	3.2629466	1.8063629
29.896879075646048	3.1874847	1.7853528
29.915020115870114	3.1492257	1.7746058
29.933161923371976	3.1436105	1.773023
29.951304498703777	3.149104	1.7745715
29.969447842417857	3.1788218	1.782925
29.987591955066733	3.159332	1.777451
30.005736837203123	3.1273947	1.7684442
30.023882489379943	3.1387331	1.771647
30.04202891215028	3.1831427	1.7841364
30.060176106067455	3.262347	1.8061968
30.078324071684946	3.222768	1.795207
30.09647280955646	3.0796723	1.7548995
30.114622320235863	3.0764697	1.7539868
30.132772604277257	3.0738506	1.75324
30.1509236622349	3.0123906	1.735624
30.16907549466328	2.990144	1.7292033
30.18722810211705	3.0428977	1.7443904
30.205381485151097	3.016592	1.7368339
30.22353564432045	2.9699814	1.7233634
30.241690580180403	2.9674492	1.7226286
30.25984629328638	3.0032914	1.7330006
30.278002784194037	2.994977	1.7306002
30.296160053459246	3.022063	1.7384082
30.314318101638033	3.0012162	1.7324018
30.332476929286646	2.9913864	1.7295625
30.35063653696153	3.014826	1.7363255
30.368796925219307	2.9427826	1.7154541
30.386958094616844	2.8584456	1.6906939
30.40512004571115	2.8568647	1.6902262
30.423282779059463	2.813198	1.6772591
30.441446295219233	2.8025339	1.674077
30.459610594748067	2.8301156	1.6822947
30.47777567820382	2.8034103	1.6743388
30.495941546144504	2.785696	1.6690404
30.51410819912835	2.8162951	1.6781821
30.532275637713795	2.8184483	1.6788235
30.55044386245946	2.792272	1.6710093
30.56861287392416	2.7973573	1.6725302
30.586782672666956	2.7732487	1.6653074
30.604953259247047	2.7358541	1.6540418
30.623124634223885	2.7264369	1.6511925
30.641296798157075	2.7281926	1.6517241
30.659469751606462	2.7089396	1.6458856
30.677643495132074	2.7152884	1.6478132
30.695818029294152	2.7131627	1.647168
30.713993354653116	2.7725132	1.6650865
30.73216947176962	2.7516825	1.6588197
30.75034638120448	2.674236	1.6353092
30.768524083518756	2.6138065	1.6167271
30.786702579273673	2.6723373	1.6347286
30.80488186903069	2.8283672	1.681775
30.82306195335144	3.028898	1.7403729
30.841242832797782	3.2341492	1.798374
30.85942450793176	3.4771667	1.8647163
30.877606979315637	3.8592935	1.9645084
30.895790247511883	4.3109493	2.0762825
30.913974313083134	4.709604	2.1701622
30.932159176592283	5.023286	2.2412689
30.95034483860237	5.363172	2.3158524
30.968531299676698	5.443618	2.333156
30.98671856037873	5.2175245	2.2841902
31.00490662127215	4.8233356	2.1962094
31.023095482920848	4.3280044	2.0803857
31.04128514588892	3.7010171	1.9238027
31.059475610740662	3.1971407	1.7880551
31.07766687804056	2.8436272	1.6863058
31.09585894835335	2.6272233	1.6208712
31.11405182224393	2.4640176	1.569719
31.132245500277417	2.402297	1.5499345
31.15043998301914	2.4137726	1.553632
31.168635271034628	2.411761	1.5529846
31.18683136488964	2.4174082	1.5548017
31.20502826515008	2.43632	1.5608716
31.223225972382135	2.4366384	1.5609735
31.241424487152155	2.3521717	1.5336791
31.259623810026692	2.3270822	1.5254776
31.27782394157253	2.3470328	1.5320029
31.296024882356644	2.4113503	1.5528523
31.314226632946237	2.396199	1.5479661
31.332429193908684	2.362046	1.5368949
31.350632565811598	2.3319676	1.5270782
31.368836749222787	2.3401465	1.5297538
31.387041744710295	2.418666	1.5552061
31.40524755284232	2.4565103	1.5673258
31.423454174187317	2.388055	1.5453333
31.441661609313922	2.3159702	1.5218312
31.459869858791002	2.3367307	1.5286369
31.478078923187628	2.3986742	1.5487654
31.496288803073064	2.3483562	1.5324347
31.514499499016807	2.301261	1.5169908
31.532711011588546	2.2949336	1.5149038
31.550923341358178	2.3038945	1.5178585
31.56913648889584	2.2365956	1.4955252
31.587350454771844	2.1719978	1.4737699
31.605565239556732	2.2259693	1.4919683
31.62378084382127	2.316844	1.5221182
31.641997268136382	2.3571105	1.5352885
31.660214513073274	2.3225749	1.5239996
31.67843257920331	2.352423	1.533761
31.6966514670981	2.3651683	1.5379103
31.71487117732944	2.4002326	1.5492684
31.733091710469346	2.4388413	1.561679
31.751313067090052	2.300954	1.5168896
31.769535247764008	2.2476642	1.4992212
31.787758253063878	2.1725657	1.4739625
31.805982083562526	2.1816638	1.4770457
31.824206739833024	2.2271037	1.4923484
31.84243222244869	2.2419274	1.4973067
31.860658531983013	2.2558897	1.501962
31.878885669009737	2.24634	1.4987795
31.897113634102784	2.2198143	1.4899042
31.91534242783632	2.2146113	1.488157
31.933572050784694	2.2012546	1.4836626
31.951802503522508	2.1321867	1.4602009
31.970033786624548	2.0849977	1.4439521
31.988265900665834	2.2163	1.4887242
32.006498846221575	2.277069	1.508996
32.02473262386724	2.2303784	1.4934452
32.04296723417845	2.091059	1.4460495
32.0612026777311	2.0751283	1.4405305
32.07943895510129	2.1439176	1.4642123
32.097676066865304	2.2015119	1.4837493
32.115914013599685	2.1888053	1.4794612
32.13415279588115	2.1305315	1.4596341
32.152392414286666	2.1731992	1.4741775
32.1706328693934	2.1831539	1.4775499
32.18887416177875	2.1612914	1.4701331
32.20711629202032	2.1328292	1.4604208
32.225359260695924	2.246065	1.4986877
32.243603068383614	2.1853502	1.478293
32.26184771566166	2.133102	1.4605143
32.28009320310852	2.1721168	1.4738103
32.2983395313029	2.049174	1.4314936
32.31658670082372	1.9949474	1.4124261
32.33483471225012	2.0454524	1.4301931
32.35308356616143	2.1176589	1.4552178
32.371333263137245	2.1261246	1.4581237
32.38958380375734	2.153009	1.4673135
32.407835188601744	2.157056	1.468692
32.42608741825067	2.104842	1.4508073
32.444340493284585	2.073332	1.439907
32.46259441428416	2.0830712	1.4432849
32.48084918183028	2.0381835	1.4276496
32.49910479650405	1.9769274	1.4060326
32.51736125888683	2.031772	1.4254024
32.53561856956014	2.0152104	1.419581
32.5538767291058	1.991237	1.411112
32.572135738105764	1.9783859	1.4065511
32.59039559714228	1.958782	1.3995649
32.608656306797776	1.9362164	1.39148
32.62691786765491	2.0201154	1.4213077
32.645180280296586	2.0359893	1.426881
32.663443545305896	1.9746164	1.4052105
32.68170766326619	1.9280375	1.3885379
32.69997263476099	1.8845123	1.3727754
32.7182384603741	1.9688832	1.4031689
32.7365051406895	2.018254	1.4206526
32.75477267629144	1.9683038	1.4029626
32.77304106776434	1.8604052	1.3639667
32.79131031569289	1.8590153	1.3634571
32.809580420661966	1.9266639	1.3880432
32.827851383256714	1.9695209	1.4033962
32.84612320406245	1.9302938	1.3893502
32.86439588366476	1.9424317	1.3937114
32.88266942264945	1.9908338	1.4109691
32.9009438216025	1.9836156	1.4084089
32.9192190811102	2.0079422	1.4170188
32.937495201758985	2.0866392	1.4445204
32.95577218413556	2.0506284	1.4320016
32.974050028826866	2.0440495	1.4297026
32.992328736420035	2.0130782	1.4188299
33.010608307502444	1.917039	1.3845718
33.02888874266169	1.8818483	1.3718047
33.047170042485604	1.86363	1.3651483
33.06545220756225	1.8695629	1.3673196
33.083735238479896	1.9191091	1.3853191
33.10201913582707	1.9117904	1.382675
33.12030390019248	1.8771939	1.3701073
33.138589532165135	1.8979435	1.3776587
33.15687603233419	1.8877138	1.373941
33.17516340128909	1.9436139	1.3941355
33.19345163961947	1.947683	1.3955941
33.211740747915215	1.905205	1.3802916
33.23003072676643	1.9452181	1.3947108
33.248321576763466	1.9608232	1.400294
33.266613298496885	2.0006597	1.4144468
33.28490589255747	2.0224593	1.4221319
33.30319935953626	1.8742443	1.3690305
33.32149370002451	1.8242828	1.3506601
33.339788914613706	1.9594026	1.3997866
33.358085003895575	1.9967408	1.4130608
33.376381968462034	1.9819666	1.4078233
33.39467980890529	1.9398777	1.392795
33.41297852581774	1.9061238	1.3806244
33.43127811979204	1.9175702	1.3847636
33.44957859142105	2.002193	1.4149886
33.467879941297866	1.9661089	1.4021801
33.486182170015844	1.8413364	1.3569585
33.50448527816853	1.7537397	1.3242884
33.522789266349754	1.838573	1.3559399
33.541094135153514	1.909414	1.3818154
33.55939988517411	1.9128621	1.3830626
33.57770651700602	1.9356872	1.3912897
33.59601403124398	1.9130497	1.3831304
33.61432242848296	1.8417445	1.357109
33.632631709318154	1.8286264	1.3522671
33.650941874344994	1.8810115	1.3714998
33.66925292415916	1.8642398	1.3653717
33.68756485935654	1.8021171	1.3424295
33.70587768053328	1.819613	1.3489304
33.724191388285746	1.8643984	1.3654298
33.74250598321054	1.8239889	1.3505514
33.760821465904506	1.8606498	1.3640563
33.77913783696474	1.9283893	1.3886646
33.79745509698852	1.9297562	1.3891566
33.815773246573414	1.8942944	1.3763337
33.8340922863172	1.9376259	1.3919863
33.852412216817896	1.9608297	1.4002963
33.87073303867377	1.965168	1.4018445
33.889054752483304	1.8549277	1.3619573
33.907377358845245	1.7960953	1.3401848
33.92570085835853	1.7349669	1.3171815
33.94402525162239	1.7676339	1.3295239
33.96235053923627	1.8750334	1.3693186
33.980676721799824	1.9601004	1.4000359
33.999003799912984	1.9084163	1.3814543
34.01733177417592	1.8777481	1.3703095
34.03566064518901	2.0076034	1.4168992
34.0539904135529	1.9831558	1.4082457
34.07232107986846	1.8573502	1.3628464
34.090652644736785	1.897162	1.377375
34.108985108759235	1.9564396	1.3987279
34.12731847253742	1.9244936	1.3872612
34.14565273667313	1.861495	1.3643662
34.16398790176847	1.8486449	1.3596488
34.18232396842574	1.9565879	1.3987808
34.20066093724749	2.019142	1.4209651
34.21899880883651	2.036049	1.4269018
34.23733758379583	2.0058765	1.4162897
34.25567726272874	1.878911	1.3707337
34.27401784623872	1.7820883	1.3349488
34.29235933492957	1.851771	1.3607979
34.31070172940526	1.8011649	1.3420749
34.32904503027003	1.7089009	1.3072494
34.347389238128386	1.7595415	1.326477
34.36573435358502	1.9273702	1.3882976
34.38408037724492	1.946964	1.3953365
34.402427309713296	1.9190857	1.3853106
34.42077515159559	1.8503492	1.3602754
34.43912390349752	1.8549632	1.3619703
34.45747356602499	1.8407388	1.3567383
34.47582413978423	1.9064012	1.3807249
34.49417562538163	2.0181253	1.4206073
34.51252802342388	2.0405107	1.4284644
34.53088133451789	2.1109743	1.4529192
34.54923555927084	2.1251066	1.4577745
34.567590698290104	2.081015	1.4425724
34.58594675218336	1.975615	1.4055657
34.6043037215585	1.985966	1.4092431
34.62266160702365	2.10199	1.4498241
34.641020409187234	2.1525114	1.4671439
34.65938012865785	1.9486675	1.3959469
34.677740766044394	1.8852847	1.3730567
34.69610232195598	2.0546799	1.4334154
34.714464797002016	1.997947	1.4134876
34.73282819179208	1.9653034	1.4018928
34.751192506936064	2.013569	1.4190029
34.76955774304408	1.999715	1.4141128
34.7879239007265	1.9723408	1.4044005
34.80629098059391	2.0329268	1.4258075
34.824658983257194	2.218438	1.4894421
34.843027909327446	2.2148354	1.4882323
34.86139775941603	2.0623066	1.4360733
34.879768534134534	1.9836836	1.4084331
34.89814023409483	2.0322237	1.4255608
34.91651285990901	2.0174718	1.4203774
34.93488641218944	2.0796351	1.442094
34.95326089154871	2.137841	1.4621358
34.97163629859967	1.9050541	1.380237
34.99001263395542	1.8098406	1.3453032
35.00838989822934	1.8612453	1.3642746
35.02676809203499	1.9119473	1.3827318
35.04514721598624	1.9981546	1.413561
35.063527270697215	2.0316024	1.4253429
35.081908256782256	1.9435533	1.3941138
35.10029017485597	2.0247128	1.422924
35.11867302553321	2.2067096	1.4854997
35.137056809429104	2.2841482	1.5113399
35.155441527159006	2.1960073	1.4818932
35.173827179338524	2.306591	1.5187465
35.19221376658354	2.126241	1.4581636
35.21060128951017	1.7294106	1.3150706
35.2289897487348	1.6684952	1.2917024
35.24737914487405	1.6813711	1.296677
35.26576947854479	1.7382039	1.3184096
35.28416075036418	1.6401379	1.2806787
35.30255296094958	1.65854	1.2878431
35.32094611091867	1.688385	1.2993788
35.33934020088932	1.8762424	1.36976
35.35773523147969	1.9028162	1.379426
35.3761312033082	1.7795812	1.3340094
35.394528116993506	1.5492083	1.244672
35.41292597315452	1.6215755	1.2734109
35.431324772410434	1.9912924	1.4111316
35.449724515380666	1.9182544	1.3850106
35.46812520268491	1.9739851	1.4049858
35.486526834943106	2.2126133	1.4874855
35.504929412775454	2.2271514	1.4923644
35.52333293680242	1.9877945	1.4098917
35.54173740764471	1.6094767	1.2686515
35.560142825923286	1.5334854	1.2383398
35.5785491922594	1.5884737	1.2603467
35.59695650727454	1.7793307	1.3339156
35.61536477159042	1.1889042	1.0903689
