0.008763373481513119	0.0	0.0
0.026290120649546365	0.17179282	0.414479
0.043816868432600686	0.12005361	0.34648752
0.06134361724069026	0.082868464	0.28786883
0.07887036748382949	0.047298722	0.21748269
0.0963971195720331	0.056627702	0.23796576
0.11392387391531617	0.09337312	0.30557016
0.1314506309236943	0.09552997	0.30907923
0.1489773910071836	0.10906625	0.33025178
0.16650415457580078	0.11030598	0.33212343
0.18403092203956356	0.14286919	0.3779804
0.20155769380849	0.1306627	0.36147296
0.2190844702925996	0.11072769	0.3327577
0.2366112519019124	0.062157724	0.2493145
0.2541380390464497	0.1162455	0.34094796
0.27166483213623416	0.15879968	0.39849678
0.28919163158128947	0.16562583	0.40697154
0.3067184377916406	0.1873755	0.43286893
0.324245251177314	0.16968316	0.41192615
0.34177207214833777	0.1536586	0.3919931
0.3592989011147415	0.14146197	0.3761143
0.37682573848655654	0.094859995	0.3079935
0.39435258467381573	0.083498016	0.28896022
0.41187944008655414	0.12723707	0.35670304
0.42940630513480854	0.12491332	0.35343078
0.446933180228618	0.15112658	0.38875002
0.4644600657780234	0.15066487	0.38815573
0.48198696219306775	0.14116523	0.3757196
0.49951386988379676	0.15788725	0.39735028
0.5170407892602581	0.18920434	0.43497625
0.5345677207325025	0.23210812	0.481776
0.5520946647105822	0.21776123	0.46664894
0.5696216216045534	0.1592518	0.39906365
0.5871485918244737	0.11728212	0.34246477
0.6046755757804043	0.11059995	0.3325657
0.6222025738824094	0.13565136	0.36830878
0.6397295865405557	0.13377531	0.36575308
0.6572566141649129	0.15186861	0.38970324
0.6747836571655547	0.15576676	0.39467296
0.6923107159525568	0.1556598	0.39453745
0.7098377909359992	0.16596359	0.4073863
0.7273648825259653	0.16630325	0.40780294
0.7448919911325411	0.20483693	0.45258915
0.762419117165817	0.24649565	0.4964833
0.7799462610358868	0.25342897	0.5034173
0.7974734231528482	0.2363099	0.48611715
0.8150006039268024	0.25101572	0.5010147
0.8325278037678551	0.24270163	0.4926476
0.8500550230861152	0.2587549	0.50867957
0.8675822622916969	0.25418428	0.5041669
0.8851095217947171	0.26336882	0.51319474
0.9026368020052984	0.26238722	0.5122375
0.9201641033335665	0.2290959	0.47863963
0.9376914261896523	0.22102316	0.470131
0.9552187709836915	0.23315057	0.4828567
0.9727461381258234	0.23149455	0.4811388
0.990273528026193	0.25665024	0.5066066
1.0078009410949496	0.23935436	0.48923856
1.0253283777422473	0.22038981	0.46945694
1.0428558383782454	0.24223676	0.49217555
1.0603833234131086	0.27427834	0.5237159
1.0779108332570058	0.3126096	0.55911505
1.0954383683201119	0.3338788	0.57782245
1.112965929012607	0.38680768	0.62193865
1.1304935157446763	0.55344284	0.7439374
1.1480211289265108	0.54635537	0.7391586
1.1655487689683062	1.1879672	1.0899391
1.1830764362802655	1.3490958	1.1615058
1.200604131272596	1.793305	1.3391434
1.2181318543555117	2.2237227	1.4912152
1.235659605939232	2.3054836	1.518382
1.253187386433982	3.8240585	1.95552
1.270715196249994	6.088354	2.467459
1.2882430357975057	11.518356	3.3938704
1.3057709054867608	16.08007	4.0099964
1.3232988057280106	21.887932	4.678454
1.3408267369315112	26.838959	5.180633
1.358354699507526	30.049639	5.4817553
1.3758826938663256	33.142406	5.756944
1.3934107204181858	34.793777	5.898625
1.410938779573391	35.501854	5.958343
1.4284668717422309	36.328094	6.0272794
1.4459949973350033	36.09403	6.0078306
1.4635231567620117	36.4123	6.0342607
1.4810513504335687	35.85218	5.987669
1.4985795787599925	35.471947	5.955833
1.5161078421516088	34.732563	5.893434
1.5336361410187505	33.973118	5.828646
1.5511644757717598	33.6387	5.7998877
1.5686928468209842	34.14208	5.8431225
1.58622125457678	34.660744	5.8873377
1.6037496994495108	35.85667	5.988044
1.621278181849548	35.769184	5.9807343
1.6388067021872719	36.52099	6.0432596
1.6563352608730693	36.357944	6.029755
1.673863858317336	35.556705	5.9629445
1.6913924949304753	34.737713	5.893871
1.7089211711228998	33.308525	5.7713537
1.7264498873050296	32.271362	5.680789
1.7439786438872935	31.566874	5.6184406
1.7615074412801288	30.805103	5.5502343
1.779036279893981	29.975487	5.4749875
1.796565160139305	28.955513	5.381033
1.814094082426564	28.165262	5.3070955
1.8316230471662298	27.748901	5.2677226
1.849152054768784	27.05036	5.200996
1.8666811056447168	26.760683	5.173073
1.8842102002045273	26.351547	5.1333756
1.901739338858724	25.8497	5.08426
1.9192685220178245	25.423784	5.0422006
1.9367977500923557	24.280243	4.927499
1.9543270234928547	23.779213	4.8763933
1.971856342629867	22.864292	4.781662
1.9893857079139496	22.266705	4.718761
2.006915119755667	21.781828	4.6671004
2.0244445785655945	21.357016	4.621365
2.0419740847543175	21.099125	4.5933785
2.0595036387324317	20.754145	4.5556717
2.0770332409105414	20.207336	4.495257
2.094562891699263	19.771046	4.4464645
2.1120925915092217	19.254135	4.3879533
2.129622340751053	19.235605	4.3858414
2.1471521398354043	187.35985	13.687945
2.1646819891729323	443.72913	21.064878
2.182211889174303	439.8823	20.973372
2.1997418402501974	452.2868	21.267036
2.2172718428113023	432.3568	20.793192
2.234801897268317	320.1316	17.892221
2.2523320040319548	16.700571	4.086633
2.269862163512935	16.414673	4.0515027
2.287392376121992	16.09342	4.0116606
2.304922642269869	15.753967	3.9691267
2.322452962367322	15.498286	3.9367862
2.3399833368251164	15.156939	3.8931913
2.357513766054032	14.854849	3.854199
2.3750442504648586	14.621913	3.823861
2.3925747904683963	14.416709	3.7969341
2.410105386475459	14.281659	3.7791083
2.4276360388968707	13.928264	3.732059
2.445166748143469	13.625985	3.6913393
2.4626975146261025	13.405377	3.6613355
2.4802283387556323	13.227305	3.6369362
2.4977592209429305	13.000902	3.6056764
2.5152901615988825	12.776882	3.5744765
2.5328211611343865	12.681967	3.5611749
2.5503522199603523	12.6519575	3.556959
2.5678833384877024	12.356403	3.5151677
2.5854145171273712	12.036309	3.4693384
2.6029457562903064	11.714355	3.422624
2.620477056387469	11.58349	3.4034526
2.6380084178298326	11.525365	3.3949027
2.655539841028383	11.47783	3.3878946
2.673071326394119	11.505475	3.391972
2.6906028743380523	11.191062	3.3453045
2.708134485271211	10.737045	3.2767432
2.7256661596046325	10.367855	3.2199154
2.743197897749369	10.184689	3.191346
2.760729700116486	10.216052	3.196256
2.778261567117063	10.107454	3.1792223
2.795793499162193	9.870481	3.141732
2.8133254966629817	9.61893	3.10144
2.830857560030551	9.451588	3.0743434
2.8483896896760337	9.473752	3.0779462
2.865921886010578	9.400905	3.0660894
2.883454149445347	9.288928	3.0477743
2.9009864803915177	9.087447	3.0145392
2.91851887926028	8.943167	2.9905128
2.9360513464628384	8.938465	2.9897265
2.953583882410413	8.77102	2.9615908
2.9711164875142373	8.57713	2.9286737
2.9886491621855606	8.3169	2.8839037
3.0061819068356455	8.288434	2.878964
3.023714721875769	8.33848	2.8876426
3.041247607717225	8.397287	2.8978074
3.0587805647713213	8.295464	2.8801847
3.0763135934493806	8.165961	2.8576145
3.0938466941627407	8.001854	2.828755
3.1113798673227544	7.9287305	2.8158002
3.1289131133407904	7.809712	2.7945862
3.1464464326282315	7.677613	2.7708507
3.1639798255964786	7.6683755	2.7691832
3.1815132926569443	7.575954	2.752445
3.1990468342210603	7.4674683	2.732667
3.216580450700272	7.2173038	2.686504
3.2341141425060416	7.10432	2.665393
3.251647910049847	7.0695415	2.658861
3.2691817537431813	7.1072054	2.6659343
3.286715673997555	7.093241	2.6633139
3.3042496712244938	7.0090775	2.6474662
3.32178374583554	6.8373275	2.6148283
3.339317898242251	6.6584115	2.5803897
3.3568521288562034	6.5773096	2.5646267
3.3743864380889876	6.649932	2.578746
3.3919208263522127	6.7033024	2.5890737
3.4094552940575023	6.639342	2.576692
3.4269898416164972	6.547672	2.558842
3.444524469440858	6.3044844	2.5108733
3.4620591779422587	6.293978	2.5087802
3.479593967532391	6.320492	2.5140588
3.4971288386229658	6.270808	2.5041583
3.5146637916257086	6.164656	2.4828725
3.5321988269523628	6.0733867	2.4644241
3.5497339450146903	6.041059	2.4578567
3.5672691462244708	6.103755	2.470578
3.5848044309934988	6.120118	2.4738872
3.60233979973359	6.071386	2.4640183
3.619875252856575	6.0231557	2.4542117
3.6374107907743034	6.0438733	2.458429
3.6549464138986427	6.088436	2.4674757
3.6724821226414788	6.079684	2.4657016
3.690017917414714	6.0781837	2.4653974
3.7075537986302702	6.041768	2.458001
3.7250897667000857	6.0955796	2.4689229
3.7426258220361235	6.221964	2.4943864
3.7601619650503553	6.599774	2.5690024
3.777698196154779	7.138464	2.6717904
3.7952345157614067	8.160027	2.856576
3.8127709242822716	8.92401	2.9873083
3.830307422129425	11.298787	3.3613667
3.847844009714936	12.852141	3.5849884
3.8653806874508954	16.336369	4.041827
3.882917455749409	15.866017	3.983217
3.900454315022606	15.840095	3.9799616
3.917991265682631	12.65395	3.557239
3.9355283081416506	10.759874	3.2802248
3.9530654428118495	8.516193	2.9182518
3.970602670105433	7.2172337	2.686491
3.9881399904346244	6.3654146	2.5229774
4.005677404211669	6.337562	2.5174515
4.023214911848827	6.2727733	2.5045505
4.0407525137583855	6.257223	2.501444
4.058290210352644	6.223005	2.494595
4.075828002043927	6.1377163	2.4774415
4.0933658892445814	6.043577	2.4583688
4.110903872366966	6.1225247	2.4743736
4.128441951823468	6.1071677	2.4712684
4.145980128026488	6.1420016	2.4783063
4.163518401388452	6.0770197	2.465161
4.181056772321807	6.069759	2.4636881
4.1985952412390155	6.060021	2.461711
4.216133808552567	6.1220717	2.474282
4.233672474674966	6.1485496	2.479627
4.251211240018741	6.273982	2.5047917
4.268750104996445	6.4165964	2.5331001
4.286289070020643	7.4496613	2.7294068
4.303828135503928	9.249619	3.0413187
4.3213673018589125	29.547882	5.4357963
4.3389065694982305	90.664406	9.521786
4.356445938834537	165.57529	12.867606
4.3739854102805085	170.77834	13.068218
4.391524984248844	171.63055	13.100784
4.409064661152262	135.77396	11.652208
4.426604441403504	96.09512	9.802812
4.444144325415337	75.30624	8.677917
4.461684313600543	21.294603	4.614608
4.47922440637193	21.697891	4.6580997
4.496764604142329	20.102133	4.48354
4.5143049073245916	18.188135	4.264755
4.531845316331589	16.112505	4.0140386
4.5493858315762195	13.13767	3.6245923
4.566926453471405	10.980682	3.3137112
4.584467182430081	8.942986	2.9904826
4.602008018865218	7.7905116	2.791149
4.619548963189798	7.1461678	2.6732316
4.637090015816834	6.6027412	2.56958
4.654631177159353	6.4178414	2.533346
4.672172447630417	6.2141223	2.492814
4.689713827643102	6.1518025	2.4802828
4.7072553176105085	5.979141	2.4452283
4.724796917945764	5.857147	2.4201543
4.742338629062015	5.6495585	2.37688
4.759880451372434	5.4664016	2.3380337
4.777422385290215	5.3502684	2.3130648
4.794964431228581	5.400854	2.323974
4.812506589600768	5.512786	2.3479323
4.830048860820047	5.4174223	2.3275356
4.847591245299709	5.370398	2.317412
4.8651337434530655	5.28984	2.2999654
4.882676355693457	5.2985826	2.301865
4.900219082434242	5.2924833	2.3005397
4.917761924088813	5.329132	2.3084912
4.935304881070575	5.3040614	2.3030548
4.952847953792969	5.4096494	2.3258653
4.970391142669449	5.4543266	2.33545
4.9879344481135055	5.4974732	2.344669
5.005477870538642	5.450182	2.3345625
5.023021410358394	5.4096417	2.3258636
5.040565067986324	5.354048	2.3138816
5.05810884383601	5.2164187	2.283948
5.075652738321066	5.1627727	2.2721736
5.09319675185512	5.094816	2.25717
5.110740884851836	5.1156054	2.2617705
5.128285137724894	5.075076	2.252793
5.145829510888007	5.0311823	2.2430296
5.163374004754908	5.0605826	2.249574
5.1809186197393595	5.069285	2.2515073
5.198463356255145	5.0877633	2.2556071
5.216008214716077	5.127434	2.2643838
5.233553195535998	5.0964265	2.2575266
5.251098299128764	5.138016	2.2667193
5.268643525908272	5.131753	2.2653372
5.286188876288432	5.0794363	2.2537606
5.3037343506831895	5.0677695	2.2511706
5.32127994950651	5.1016006	2.2586722
5.3388256731723915	5.1500335	2.2693684
5.356371522094851	5.127427	2.2643824
5.373917496687938	5.063661	2.250258
5.391463597365729	4.9411774	2.2228758
5.40900982454232	4.9132113	2.2165766
5.426556178631843	4.9910374	2.234063
5.444102660048449	5.051844	2.2476308
5.4616492692063225	5.0747395	2.2527182
5.479196006519669	5.0604477	2.249544
5.496742872402727	5.11355	2.261316
5.514289867269756	5.1339183	2.2658153
5.531836991535049	5.0975437	2.257774
5.549384245612924	5.0814075	2.2541978
5.566931629917724	5.0551815	2.248373
5.584479144863822	5.0453935	2.2461953
5.6020267908656205	5.0479183	2.2467573
5.619574568337545	5.091982	2.256542
5.637122477694054	5.0884833	2.2557666
5.654670519349629	5.122134	2.2632132
5.672218693718784	5.083525	2.2546675
5.689767001216059	5.0995636	2.2582214
5.707315442256021	5.0975256	2.25777
5.724864017253266	5.0398235	2.244955
5.7424127266224225	4.987231	2.2332108
5.75996157077814	4.9631004	2.2278018
5.777510550135105	5.009663	2.2382276
5.795059665108022	5.05858	2.2491288
5.812608916111639	5.092759	2.2567143
5.830158303560715	5.1904297	2.2782514
5.847707827870055	5.166632	2.2730227
5.86525748945448	5.2397585	2.2890518
5.8828072887288485	5.364774	2.316198
5.900357226108044	5.3809805	2.319694
5.917907302006979	5.4296603	2.3301632
5.9354575168406	6.0613317	2.4619772
5.9530078710238765	6.6438785	2.577572
5.970558364971812	7.210367	2.6852126
5.988108999099438	7.5294166	2.7439783
6.005659773821818	8.116028	2.8488643
6.023210689554039	7.870588	2.8054569
6.040761746711227	8.299579	2.880899
6.058312945708531	7.573648	2.752026
6.075864286961132	7.0017943	2.6460903
6.093415770884244	6.2681684	2.503631
6.1109673978931065	5.731537	2.3940628
6.128519168402993	5.2479043	2.2908304
6.146071082829204	5.2204432	2.284829
6.163623141587075	5.178491	2.2756298
6.181175345091969	5.163655	2.2723677
6.198727693759281	5.0879536	2.2556493
6.216280188004435	5.0203013	2.240603
6.233832828242885	4.936483	2.2218196
6.251385614890126	4.9446044	2.2236466
6.268938548361669	4.9894247	2.233702
6.286491629073067	5.00788	2.2378294
6.304044857439898	5.001196	2.2363353
6.321598233877777	4.911963	2.2162948
6.339151758802344	4.945216	2.2237842
6.356705432629277	4.952849	2.2254996
6.37425925577428	4.9567657	2.2263794
6.391813228653095	4.841702	2.2003868
6.409367351681486	4.8058743	2.1922305
6.426921625275259	4.8109174	2.1933804
6.44447604985025	4.8506346	2.2024157
6.46203062582232	4.9044676	2.2146032
6.47958535360737	4.9595737	2.22701
6.497140233621328	4.9793553	2.231447
6.514695266280161	4.977913	2.2311237
6.532250451999859	5.0115504	2.2386491
6.549805791196454	4.9202895	2.2181726
6.567361284286002	4.874503	2.2078278
6.584916931684597	4.821405	2.1957698
6.602472733808367	4.840077	2.2000175
6.6200286910734665	4.8987613	2.2133145
6.637584803896092	4.9190617	2.2178957
6.655141072692462	4.888168	2.21092
6.672697497878842	4.804092	2.191824
6.690254079871514	4.7178693	2.1720657
6.707810819086808	4.7064233	2.1694293
6.725367715941078	4.6755443	2.1623006
6.742924770850719	4.748543	2.179115
6.760481984232151	4.8691864	2.2066233
6.778039356501836	4.9623976	2.227644
6.795596888076266	4.9517503	2.2252529
6.813154579371963	4.884887	2.2101781
6.830712430805492	4.878022	2.2086246
6.84827044279344	4.885857	2.2103975
6.865828615752445	4.848622	2.2019587
6.883386950099159	4.8019032	2.1913245
6.900945446250287	4.792816	2.1892502
6.918504104622553	4.878513	2.2087355
6.936062925632727	4.930343	2.2204375
6.953621909697607	4.9423676	2.2231436
6.971181057234028	4.91632	2.2172775
6.988740368658859	4.927776	2.2198594
7.006299844389007	4.9642186	2.2280526
7.023859484841407	5.0207357	2.2406998
7.041419290433036	5.180469	2.2760644
7.058979261580902	5.3522882	2.3135014
7.0765393987020495	5.552519	2.3563783
7.094099702213559	5.8896008	2.42685
7.111660172532549	6.2241087	2.4948163
7.129220810076164	6.5294046	2.55527
7.146781615261595	7.0633407	2.6576946
7.16434258850606	7.262412	2.6948862
7.181903730226821	7.6660013	2.7687545
7.1994650408411704	7.832674	2.7986915
7.217026520766437	7.9842887	2.8256483
7.234588170419983	8.249211	2.872144
7.252149990219215	8.284097	2.8782108
7.269711980581568	8.163617	2.8572044
7.2872741419245175	7.9735594	2.823749
7.304836474665574	7.5643187	2.7503307
7.322398979222286	7.2636127	2.6951091
7.339961656012233	6.9311123	2.6327007
7.357524505453039	6.6190553	2.5727525
7.375087527962357	6.331739	2.5162947
7.392650723957886	6.115855	2.4730256
7.410214093857353	5.773701	2.4028528
7.427777638078528	5.5340486	2.3524559
7.445341357039213	5.295109	2.3011103
7.4629052511572525	5.156304	2.2707496
7.480469320850524	5.1110835	2.2607706
7.498033566536948	5.1413183	2.2674475
7.5155979886344735	5.1338215	2.2657938
7.5331625875610975	5.0716133	2.2520242
7.550727363734844	5.04856	2.2469
7.568292317573788	4.9893727	2.2336905
7.585857449496025	5.0437403	2.2458272
7.603422759919705	5.0422964	2.2455058
7.620988249263007	5.0113225	2.2385983
7.638553917944147	5.004433	2.237059
7.656119766381391	4.9782395	2.2311969
7.673685794993023	5.093877	2.2569618
7.691252004197388	5.1636515	2.272367
7.70881839441285	5.1946445	2.2791762
7.726384966057826	5.161669	2.2719307
7.743951719550762	5.1147795	2.2615879
7.761518655310149	5.10823	2.2601395
7.779085773754511	5.147355	2.2687783
7.796653075302419	5.199381	2.280215
7.814220560372475	5.234437	2.2878892
7.831788229383323	5.233627	2.287712
7.8493560827536495	5.24181	2.2895
7.866924120902174	5.22778	2.286434
7.884492344247663	5.1974444	2.2797904
7.9020607532089135	5.196867	2.2796638
7.919629348204771	5.1885843	2.2778463
7.937198129654115	5.2607718	2.2936373
7.954767097975865	5.2516026	2.2916377
7.972336253588986	5.2519164	2.291706
7.989905596912472	5.224775	2.2857766
8.007475128365371	5.3080263	2.3039155
8.025044848366756	5.382874	2.3201022
8.042614757335754	5.5410614	2.353946
8.060184855691523	5.5527463	2.3564265
8.07775514385327	5.6258645	2.3718905
8.095325622240228	5.6221232	2.3711016
8.112896291271687	5.6108723	2.368728
8.130467151366968	5.71549	2.3907092
8.148038202945436	5.7203155	2.3917181
8.165609446426497	5.757268	2.3994308
8.183180882229594	5.779243	2.4040055
8.200752510774217	5.7793927	2.4040368
8.218324332479893	5.8371387	2.416017
8.235896347766193	5.8104267	2.4104826
8.253468557052724	5.816972	2.41184
8.27104096075914	5.850007	2.4186788
8.288613559305137	5.913506	2.43177
8.306186353110448	6.058984	2.4615004
8.32375934259485	6.071519	2.4640453
8.341332528178162	6.106327	2.4710984
8.358905910280246	6.1154737	2.4729483
8.376479489321003	6.1056876	2.470969
8.394053265720377	6.1359663	2.4770882
8.411627239898356	6.0734506	2.4644372
8.42920141227497	6.064396	2.4625995
8.44677578327029	6.073717	2.4644914
8.464350353304427	6.07047	2.4638324
8.48192512279754	6.0355506	2.4567358
8.499500092169827	6.004413	2.4503903
8.51707526184153	5.9783435	2.445065
8.534650632232934	6.0018578	2.449869
8.552226203764365	5.978004	2.4449956
8.569801976856192	5.9766855	2.444726
8.587377951928834	5.995167	2.448503
8.60495412940274	6.022884	2.4541564
8.622530509698416	6.021725	2.4539204
8.6401070932364	6.162838	2.4825063
8.657683880437283	6.3592887	2.521763
8.675260871721695	6.605857	2.5701861
8.692838067510303	6.784093	2.604629
8.710415468223834	6.9001718	2.6268177
8.727993074283043	6.9345555	2.6333544
8.745570886108737	6.8879685	2.624494
8.763148904121765	6.886994	2.6243083
8.78072712874302	6.943155	2.6349866
8.798305560393441	7.173142	2.6782722
8.815884199494006	7.291103	2.7002041
8.833463046465745	7.448948	2.7292762
8.851042101729728	7.5796647	2.753119
8.86862136570707	7.865837	2.80461
8.886200838818924	7.993016	2.8271923
8.903780521486505	8.060385	2.8390818
8.921360414131055	8.201243	2.8637812
8.938940517173874	8.37837	2.8945415
8.956520831036297	8.527915	2.9202595
8.97410135613971	8.776407	2.9625
8.99168209290554	8.941507	2.9902353
9.009263041755265	9.284783	3.0470943
9.026844203110405	9.542386	3.0890753
9.044425577392525	9.697556	3.1140897
9.062007165023239	9.695763	3.113802
9.079588966424197	9.950639	3.1544633
9.097170982017108	10.0131855	3.1643617
9.11475321222372	11.10182	3.3319395
9.132335657465825	12.038416	3.4696422
9.149918318165264	12.213001	3.4947104
9.167501194743924	12.926778	3.595383
9.18508428762374	12.533271	3.540236
9.202667597226693	12.42718	3.5252206
9.220251123974803	12.052647	3.471692
9.237834868290143	11.760002	3.429286
9.255418830594836	11.577123	3.402517
9.273003011311046	11.003649	3.317175
9.290587410860985	10.734096	3.276293
9.308172029666911	10.099903	3.1780345
9.32575686815113	9.960309	3.1559958
9.343341926735997	8.696452	2.9489748
9.360927205843916	8.464938	2.9094567
9.378512705897327	8.233154	2.8693473
9.396098427318728	7.885597	2.8081305
9.413684370530664	7.849954	2.801777
9.431270535955722	7.7963996	2.7922034
9.448856924016539	7.762567	2.7861383
9.466443535135806	7.5661964	2.750672
9.484030369736251	7.4495573	2.7293878
9.501617428240658	7.4581656	2.7309642
9.519204711071852	7.4683843	2.7328346
9.536792218652714	7.506782	2.7398508
9.55437995140617	7.519535	2.742177
9.571967909755191	7.6659617	2.7687473
9.589556094122802	7.7041807	2.7756405
9.60714450493207	7.7942047	2.7918103
9.624733142606116	7.829149	2.7980616
9.642322007568108	7.8427114	2.8004842
9.659911100241267	7.8678684	2.8049722
9.677500421048851	7.856385	2.8029244
9.695089970414175	7.847065	2.8012614
9.712679748760609	7.845298	2.800946
9.730269756511557	7.885997	2.8082018
9.747859994090492	7.8957496	2.8099377
9.765450461920915	7.980334	2.8249485
9.78304116042639	7.986943	2.826118
9.800632090030527	8.064535	2.8398125
9.81822325115699	8.079602	2.8424642
9.835814644229481	8.081376	2.842776
9.853406269671762	7.9909267	2.8268228
9.870998127907646	7.9516673	2.81987
9.888590219360985	8.011359	2.8304346
9.906182544455698	8.116524	2.8489513
9.923775103615734	8.179189	2.8599281
9.941367897265108	8.093174	2.8448505
9.958960925827878	8.050516	2.8373432
9.97655418972816	8.067117	2.840267
9.994147689390106	8.133709	2.851966
10.011741425237934	8.103705	2.846701
10.029335397695904	8.044413	2.8362675
10.04692960718833	8.066653	2.8401854
10.06452405413958	8.036426	2.834859
10.082118738974064	8.015409	2.8311498
10.099713662116246	7.983702	2.8255446
10.117308823990651	7.920129	2.8142724
10.134904225021844	7.8910065	2.8090935
10.152499865634445	7.8775826	2.806703
10.170095746253125	7.920053	2.8142588
10.18769186730261	8.004375	2.8292005
10.205288229207675	8.03993	2.835477
10.222884832393145	7.9480357	2.819226
10.2404816772839	7.8578973	2.803194
10.258078764304868	7.8306885	2.7983367
10.275676093881035	7.8754525	2.8063238
10.293273666437438	7.964008	2.8220575
10.310871482399158	8.081096	2.8427267
10.32846954219134	8.074095	2.8414953
10.346067846239173	8.049029	2.8370812
10.363666394967908	7.9330864	2.8165736
10.38126518880283	7.8689184	2.8051593
10.398864228169298	7.9173474	2.8137782
10.416463513492713	7.980632	2.8250012
10.434063045198531	7.9816604	2.8251832
10.451662823712262	7.966994	2.8225863
10.469262849459467	7.9354596	2.8169947
10.486863122865758	7.8758497	2.8063943
10.504463644356806	7.9013453	2.810933
10.522064414358338	7.9202423	2.8142924
10.539665433296118	7.8727856	2.8058484
10.557266701595987	7.7463913	2.783234
10.574868219683818	7.6055894	2.7578232
10.592469987985552	7.5080094	2.7400746
10.610072006927185	7.481277	2.7351923
10.627674276934751	7.414971	2.7230444
10.64527679843435	7.2834435	2.6987855
10.662879571852143	7.1124754	2.6669226
10.680482597614331	6.987854	2.643455
10.698085876147173	6.8370576	2.6147768
10.715689407876988	6.7075853	2.5899007
10.733293193230146	6.5673556	2.5626853
10.750897232633072	6.4712605	2.5438673
10.76850152651225	6.4150677	2.5327983
10.786106075294207	6.4219556	2.5341578
10.803710879405534	6.321745	2.514308
10.821315939272877	6.2419944	2.4983983
10.83892125532294	6.2068553	2.4913561
10.856526827982472	6.1755037	2.4850562
10.874132657678285	6.200849	2.4901505
10.891738744837243	6.145334	2.4789784
10.909345089886271	6.0726385	2.4642725
10.926951693252343	5.9417653	2.4375737
10.944558555362494	5.848729	2.4184146
10.96216567664381	5.7563686	2.3992434
10.979773057523436	5.753045	2.3985505
10.997380698428573	5.704958	2.3885055
11.014988599786477	5.6433864	2.3755813
11.032596762024461	5.5296535	2.3515215
11.050205185569892	5.4617615	2.3370411
11.067813870850198	5.4145656	2.326922
11.085422818292859	5.391826	2.3220305
11.10303202832541	5.3855443	2.3206775
11.120641501375454	5.3187337	2.306238
11.138251237870636	5.2437468	2.289923
11.155861238238671	5.184339	2.2769144
11.173471502907317	5.164939	2.2726502
11.191082032304402	5.1132936	2.2612593
11.208692826857805	5.057395	2.2488654
11.226303886995465	4.972678	2.2299502
11.243915213145371	4.931352	2.2206647
11.261526805735578	4.874558	2.2078402
11.279138665194196	4.8254266	2.1966853
11.296750791949393	4.7426715	2.1777675
11.314363186429393	4.6675167	2.1604435
11.331975849062479	4.674407	2.1620376
11.34958878027699	4.6689587	2.1607773
11.36720198050133	4.6418056	2.154485
11.384815450163948	4.53305	2.129096
11.402429189693366	4.4261193	2.1038344
11.420043199518153	4.3244596	2.0795336
11.437657480066942	63.260796	7.9536657
11.455272031768422	84.96227	9.217498
11.472886855051353	107.359406	10.361439
11.490501950344528	98.97095	9.948414
11.508117318076819	84.34647	9.184033
11.52573295867715	45.758965	6.7645373
11.543348872574514	4.1126413	2.0279648
11.560965060197946	4.0725956	2.0180674
11.57858152197655	4.0510526	2.0127227
11.59619825833949	4.000382	2.0000954
11.613815269715985	3.9656112	1.9913843
11.631432556535323	38.484745	6.2036076
11.649050119226837	82.99013	9.109892
11.666667958219929	93.385895	9.663638
11.68428607394406	107.628136	10.374398
11.701904466828756	82.46948	9.081271
11.719523137303586	65.31713	8.081902
11.737142085798196	4.5417457	2.1311371
11.754761312742286	3.6521897	1.9110703
11.772380818565619	3.6132066	1.9008436
11.790000603698015	3.5825715	1.8927683
11.80762066856935	3.5660114	1.8883886
11.825241013609572	3.5323489	1.8794544
11.842861639248683	3.4862328	1.8671457
11.860482545916748	3.401042	1.8441914
11.878103734043883	3.3725195	1.8364421
11.895725204060282	3.3432224	1.828448
11.91334695639619	3.3210757	1.8223819
11.930968991481919	3.2910151	1.8141155
11.948591309747824	3.2959259	1.8154685
11.966213911624347	3.2822335	1.8116935
11.98383679754198	3.2261078	1.796137
12.001459967931268	3.1955185	1.7876014
12.019083423222835	3.1296196	1.7690731
12.036707163847352	3.094713	1.7591796
12.05433119023556	3.077733	1.7543468
12.071955502818259	3.0897105	1.7577572
12.089580102026313	3.1072464	1.7627383
12.107204988290643	3.0607343	1.7494954
12.12483016204224	3.0159864	1.7366595
12.142455623712152	3.0152435	1.7364457
12.16008137373149	3.0435781	1.7445854
12.177707412531431	3.0233479	1.7387776
12.19533374054321	3.0039527	1.7331915
12.212960358198126	2.9574013	1.7197096
12.230587265927545	2.9237378	1.7098941
12.248214464162889	2.9453266	1.7161953
12.265841953335649	2.9489374	1.717247
12.283469733877375	2.9296339	1.7116174
12.301097806219685	2.9036367	1.7040061
12.31872617079425	2.8833637	1.698047
12.336354828032825	2.869921	1.6940842
12.353983778367205	2.8515468	1.6886524
12.371613022229262	2.8405766	1.6854011
12.389242560050928	2.831516	1.6827109
12.406872392264201	2.8235981	1.6803565
12.424502519301143	2.7885067	1.6698823
12.442132941593874	2.8035278	1.6743739
12.459763659574586	2.8228197	1.6801249
12.477394673675532	2.7790456	1.667047
12.49502598432903	2.7492087	1.6580738
12.51265759196746	2.7399228	1.6552712
12.530289497023267	2.7634108	1.662351
12.547921699928967	2.7515378	1.658776
12.565554201117134	2.7342837	1.653567
12.583187001020404	2.7177253	1.6485525
12.600820100071486	2.6957822	1.6418837
12.618453498703152	2.7251763	1.6508108
12.636087197348235	2.7320805	1.6529006
12.65372119643964	2.7368438	1.6543409
12.671355496410326	2.7240245	1.6504619
12.68899009769333	2.7595122	1.661178
12.706625000721749	2.8298628	1.6822196
12.724260205928752	2.8873644	1.6992246
12.741895713747551	2.9139242	1.7070221
12.759531524611454	2.9181764	1.7082671
12.777167638953818	2.9110823	1.7061894
12.794804057208072	2.9117475	1.7063843
12.812440779807702	3.0090928	1.7346737
12.830077807186271	3.1949074	1.7874304
12.847715139777405	3.1931996	1.7869526
12.865352778014795	3.3175356	1.8214103
12.882990722332197	3.4221935	1.8499172
12.90062897316344	3.5371735	1.8807375
12.918267530942412	3.6433005	1.9087431
12.935906396103071	3.5546465	1.885377
12.953545569079449	3.7212017	1.9290416
12.971185050305628	3.5179007	1.8756068
12.988824840215775	3.467906	1.8622315
13.006464939244115	3.4520817	1.8579779
13.024105347824943	3.3116245	1.8197869
13.041746066392617	3.4383523	1.8542795
13.05938709538157	3.1991572	1.7886188
13.077028435226296	3.230039	1.7972308
13.094670086361363	3.187491	1.7853546
13.112312049221401	3.1579978	1.7770756
13.129954324241112	3.0602782	1.7493651
13.147596911855258	2.8347337	1.6836667
13.165239812498685	2.785253	1.6689078
13.182883026606293	2.7421215	1.6559352
13.200526554613058	2.689907	1.6400936
13.218170396954017	2.6519248	1.6284732
13.235814554064284	2.6753132	1.6356385
13.253459026379034	2.6812818	1.637462
13.271103814333523	2.6588528	1.6305989
13.288748918363058	2.6283038	1.6212044
13.306394338903031	2.5917673	1.6098967
13.32404007638889	2.5736282	1.6042532
13.341686131256164	2.6114829	1.6160083
13.359332503940449	2.62001	1.6186445
13.376979194877402	2.6378949	1.6241597
13.394626204502751	2.6776752	1.6363604
13.412273533252307	2.6779032	1.63643
13.429921181561937	2.64627	1.626736
13.447569149867581	2.6536899	1.629015
13.465217438605247	2.650968	1.6281794
13.482866048211022	2.6588185	1.6305884
13.500514979121052	2.6565251	1.629885
13.518164231771568	2.6220894	1.6192867
13.535813806598844	2.6314917	1.6221873
13.553463704039254	2.6120777	1.6161923
13.571113924529229	2.6165974	1.61759
13.588764468505275	2.626031	1.6205033
13.606415336403956	2.6980608	1.6425775
13.624066528661917	2.7303498	1.652377
13.641718045715882	2.7589586	1.6610113
13.659369888002635	2.798826	1.6729692
13.67702205595903	2.8765953	1.6960528
13.694674550021993	2.9421244	1.7152622
13.712327370628532	2.9763844	1.7252201
13.729980518215713	3.0758386	1.7538068
13.747633993220681	3.194473	1.7873089
13.765287796080647	3.2630172	1.8063823
13.7829419272329	3.2822611	1.8117012
13.800596387114801	3.2703798	1.8084191
13.818251176163775	3.2602897	1.8056272
13.835906294817324	3.2658978	1.8071795
13.853561743513023	3.3192759	1.821888
13.871217522688525	3.366775	1.8348774
13.888873632781538	3.4252036	1.8507305
13.906530074229858	3.491522	1.8685615
13.92418684747135	3.4914472	1.8685415
13.941843952943948	3.463867	1.8611467
13.959501391085665	3.4034688	1.8448492
13.977159162334578	3.3493311	1.8301178
13.994817267128846	3.3290505	1.8245686
14.012475705906693	3.259493	1.8054067
14.030134479106424	3.1580937	1.7771026
14.047793587166414	3.0619514	1.7498432
14.065453030525108	2.9943738	1.730426
14.083112809621026	2.9342875	1.7129762
14.100772924892766	2.8764002	1.6959953
14.118433376778997	2.8585033	1.6907109
14.136094165718458	2.815248	1.67787
14.153755292149969	2.7429187	1.656176
14.171416756512416	2.6258326	1.620442
14.189078559244768	2.5069141	1.5833237
14.20674070078606	2.4258924	1.5575277
14.224403181575408	2.380836	1.5429958
14.242066002051999	2.3726249	1.5403327
14.259729162655093	2.377748	1.5419948
14.277392663824022	2.4084008	1.5519023
14.295056505998208	2.4087963	1.5520297
14.312720689617128	2.428013	1.5582083
14.330385215120348	2.4335954	1.5599985
14.348050082947497	2.4164815	1.5545036
14.3657152935383	2.3758607	1.5413827
14.383380847332528	2.3084836	1.5193695
14.401046744770051	2.2800748	1.5099916
14.418712986290798	2.2799015	1.5099343
14.436379572334793	2.2931433	1.5143129
14.454046503342123	2.2842274	1.511366
14.471713779752946	2.285852	1.5119034
14.489381402007504	2.325081	1.5248216
14.507049370546113	2.3527145	1.5338562
14.524717685809168	2.357905	1.5355471
14.542386348237134	2.3477824	1.5322475
14.560055358270553	2.3385758	1.5292403
14.577724716350051	2.3877108	1.5452219
14.595394422916325	2.4237533	1.5568408
14.61306447841015	2.4599907	1.5684358
14.63073488327237	2.4598246	1.5683827
14.648405637943917	2.4765224	1.5736971
14.6660767428658	2.4673557	1.5707818
14.683748198479094	2.4603314	1.5685444
14.701420005224954	2.4804454	1.574943
14.719092163544628	2.5476584	1.5961386
14.73676467387942	2.582706	1.60708
14.754437536670727	2.612491	1.6163201
14.772110752360014	2.5863795	1.6082225
14.78978432138882	2.5759006	1.6049613
14.807458244198777	2.5981598	1.6118808
14.82513252123159	2.5960264	1.6112189
14.842807152929028	2.6374972	1.6240373
14.860482139732962	2.613529	1.6166413
14.87815748208531	2.5803905	1.6063594
14.8958331804281	2.6110184	1.6158646
14.91350923520342	2.609409	1.6153666
14.931185646853438	2.6682203	1.6334687
14.948862415820408	2.6097052	1.6154583
14.966539542546656	2.6056783	1.6142113
14.98421702747459	2.559544	1.5998576
15.001894871046696	2.6052957	1.6140928
15.019573073705542	2.604791	1.6139364
15.037251635893766	2.6039877	1.6136876
15.054930558054092	2.630234	1.6217996
15.072609840629323	2.623738	1.6197957
15.090289484062351	2.7092319	1.6459744
15.107969488796124	2.8434489	1.686253
15.125649855273691	3.068437	1.7516955
15.14333058393817	3.439796	1.8546687
15.161011675232768	3.9846613	1.9961617
15.17869312960076	4.5959034	2.1438057
15.196374947485506	5.2752976	2.2968016
15.214057129330447	6.573258	2.5638366
15.231739675579114	8.717876	2.952605
15.249422586675102	13.482365	3.671834
15.267105863062092	18.202385	4.266425
15.284789505183847	25.563145	5.0560007
15.302473513484218	30.651924	5.536418
15.320157888407127	34.907223	5.9082336
15.337842630396578	33.753338	5.8097625
15.355527739896656	30.650084	5.5362515
15.37321321735153	23.718763	4.870191
15.39089906320545	15.9622	3.9952722
15.408585277902748	10.081849	3.1751928
15.42627186188783	6.240149	2.498029
15.443958815605198	4.4674325	2.11363
15.461646139499424	3.690563	1.9210838
15.479333834015168	3.2827454	1.8118348
15.497021899597165	2.9475262	1.7168361
15.514710336690234	2.7120638	1.6468345
15.53239914573928	2.5867982	1.6083527
15.550088327189297	2.5032291	1.5821596
15.567777881485336	2.4954307	1.5796932
15.58546780907256	2.4897187	1.5778842
15.6031581103962	2.5041142	1.5824393
15.620848785901568	2.4984722	1.5806556
15.638539836034063	2.470136	1.5716666
15.656231261239173	2.4402635	1.5621343
15.673923061962451	2.419781	1.5555645
15.691615238649552	2.413932	1.5536834
15.709307791746202	2.382016	1.5433781
15.727000721698221	2.3812964	1.543145
15.744694028951498	2.360481	1.5363857
15.76238771395202	2.3858056	1.5446054
15.780081777145844	2.4129581	1.5533699
15.797776218979125	2.456876	1.5674425
15.815471039898094	2.4448774	1.5636103
15.833166240349064	2.4131851	1.553443
15.850861820778437	2.3475928	1.5321857
15.868557781632699	2.3764286	1.541567
15.886254123358412	2.4364429	1.5609109
15.903950846402232	2.4988554	1.5807768
15.921647951210897	2.497356	1.5803025
15.939345438231225	2.5295868	1.5904675
15.957043307910133	2.5125244	1.5850945
15.974741560694602	2.4917173	1.5785174
15.992440197031714	2.4592483	1.568199
16.01013921736862	2.4349034	1.5604177
16.02783862215259	2.443859	1.5632848
16.045538411830933	2.4101276	1.5524585
16.06323858685107	2.3807952	1.5429826
16.080939147660512	2.3873012	1.5450894
16.09864009470684	2.4146817	1.5539246
16.11634142843774	2.4075916	1.5516416
16.134043149300954	2.3998764	1.5491534
16.15174525774433	2.3800786	1.5427504
16.169447754215817	2.3519397	1.5336035
16.18715063916342	2.3538	1.53421
16.204853913035244	2.3619928	1.5368776
16.222557576279478	2.3977838	1.5484779
16.240261629344403	22.408129	4.7337227
16.257966072678386	42.95915	6.5543227
16.275670906729868	38.08816	6.171561
16.293376131947387	2.4761107	1.5735662
16.31108174877957	2.487189	1.5770824
16.328787757675133	2.5144787	1.5857108
16.34649415908287	2.509686	1.5841988
16.364200953451657	2.5238657	1.5886679
16.38190814123048	2.553007	1.5978131
16.39961572286839	2.6026173	1.6132629
16.41732369881455	2.6115701	1.6160353
16.43503206951817	2.6335423	1.6228192
16.45274083542859	2.6708307	1.6342677
16.47044999699522	2.7188916	1.6489062
16.488159554667558	2.7745385	1.6656946
16.505869508895184	2.7967873	1.6723598
16.523579860127786	2.8448675	1.6866735
16.541290608815117	2.9100115	1.7058756
16.559001755407035	2.97596	1.7250971
16.57671330035348	3.0537357	1.7474941
16.59442524410448	3.181784	1.7837555
16.61213758711015	3.3889534	1.840911
16.629850329820705	3.4650342	1.8614602
16.647563472686436	3.505957	1.8724201
16.665277016157724	3.4312935	1.8523751
16.682990960685053	3.4021852	1.8445014
16.70070530671898	3.3625615	1.8337288
16.718420054710155	3.444948	1.856057
16.736135205109335	3.498062	1.8703107
16.753850758367335	3.5478694	1.8835789
16.771566714935087	3.604321	1.898505
16.789283075263597	3.667207	1.9149953
16.80699983980398	3.7220905	1.929272
16.82471700900741	3.750712	1.9366754
16.84243458332518	3.8345072	1.9581897
16.860152563208665	3.9231954	1.9807057
16.87787094910932	4.0065584	2.001639
16.89558974147871	4.0299187	2.0074658
16.913308940768466	4.1092772	2.0271351
16.931028547430333	4.202386	2.049972
16.94874856191613	4.270278	2.0664651
16.966468984677785	4.2808127	2.0690124
16.98418981616729	4.288744	2.0709283
17.00191105683676	4.2932115	2.0720067
17.019632707138374	4.329398	2.0807207
17.03735476752442	4.3769436	2.0921147
17.05507723844728	4.4399095	2.1071093
17.072800120359403	4.4909687	2.1191907
17.090523413713353	4.504272	2.122327
17.108247118961785	4.5444255	2.1317658
17.125971236557437	4.6011634	2.1450322
17.143695766953133	4.637773	2.153549
17.161420710601806	4.627441	2.1511488
17.179146067956477	4.594206	2.14341
17.19687183947025	4.5339537	2.1293082
17.21459802559634	4.545684	2.132061
17.232324626788028	4.5551176	2.134272
17.25005164349871	4.587097	2.141751
17.267779076181863	4.588281	2.1420274
17.285506925291074	4.5426474	2.1313486
17.30323519127999	4.5506344	2.1332216
17.320963874602384	4.534632	2.1294675
17.33869297571211	4.5006404	2.1214712
17.356422495063114	4.4562354	2.1109798
17.37415243310944	4.4588823	2.1116066
17.391882790305218	4.482531	2.117199
17.40961356710468	4.521739	2.1264381
17.42734476396215	4.5306315	2.128528
17.445076381332044	4.5413985	2.1310558
17.462808419668868	4.5271893	2.1277192
17.48054087942723	4.569046	2.1375327
17.498273761061835	4.712318	2.1707873
17.51600706502747	5.097271	2.2577136
17.533740791779024	5.7590203	2.399796
17.551474941771485	6.6123013	2.5714395
17.56920951545993	8.372663	2.8935554
17.586944513299528	9.532483	3.087472
17.60467993574556	12.396909	3.5209243
17.622415783253373	15.165491	3.8942895
17.64015205627843	18.131073	4.25806
17.657888755276293	20.71937	4.5518537
17.675625880702604	22.350561	4.7276382
17.69336343301311	20.921412	4.5739927
17.71110141266366	18.692268	4.323456
17.728839820110178	15.780851	3.972512
17.746578655808705	12.617606	3.552127
17.764317920215372	10.5470915	3.2476287
17.7820576137864	8.829233	2.9714026
17.79979773697811	7.4178843	2.7235794
17.81753829024692	6.0202684	2.4536235
17.835279274049356	5.1973352	2.2797666
17.85302068884201	4.415083	2.1012099
17.870762535081607	4.006298	2.0015738
17.888504813224934	3.7865074	1.945895
17.90624752372891	3.6574028	1.9124337
17.923990667050536	3.5562165	1.8857933
17.941734243646895	3.4989855	1.8705575
17.959478253975185	3.461422	1.8604897
17.9772226984927	3.417449	1.8486344
17.994967577656833	3.3700757	1.8357766
18.01271289192506	3.328377	1.824384
18.030458641754965	3.2955165	1.8153558
18.04820482760425	3.267438	1.8076056
18.06595144993067	3.2953115	1.8152993
18.083698509192125	3.311682	1.8198028
18.101446005846576	3.2537172	1.8038063
18.119193940352105	3.170516	1.7805942
18.136942313166887	3.146175	1.773746
18.1546911247492	3.1769803	1.7824086
18.1724403755574	3.1556857	1.776425
18.19019006604997	3.1104658	1.7636513
18.207940196685467	3.0502477	1.7464958
18.225690767922575	3.0631375	1.7501822
18.243441780220046	3.0967553	1.75976
18.261193234036764	3.082124	1.755598
18.278945129831676	3.0623865	1.7499676
18.29669746806386	3.0105054	1.7350808
18.314450249192483	2.981712	1.7267635
18.3322034736768	2.9687588	1.7230086
18.349957141976184	2.9958131	1.7308418
18.3677112545501	2.9890907	1.7288986
18.385465811858108	2.978669	1.725882
18.403220814359884	2.9584563	1.7200164
18.420976262515172	2.9587007	1.7200874
18.43873215678387	2.971131	1.723697
18.456488497625923	3.0333982	1.7416654
18.474245285501407	3.1236603	1.767388
18.492002520870486	3.190351	1.7861553
18.50976020419343	3.2880929	1.8133099
18.527518335930615	3.5864766	1.8937995
18.545276916542516	4.1317964	2.032682
18.563035946489688	4.2618666	2.0644288
18.580795426232832	4.666112	2.1601186
18.598555356232698	4.550879	2.1332788
18.616315736950185	4.760105	2.1817665
18.63407656884626	4.441199	2.1074152
18.65183785238201	4.611934	2.1475415
18.669599588018617	4.492078	2.1194522
18.68736177621737	4.4373403	2.1064994
18.705124417439652	4.4575205	2.111284
18.72288751214696	4.2949815	2.0724337
18.740651060800886	4.4567356	2.1110983
18.758415063863115	4.1962237	2.0484686
18.77617952179546	4.3478885	2.085159
18.793944435059814	4.15207	2.037663
18.811709804118184	4.0944557	2.0234761
18.829475629432675	4.0174584	2.00436
18.8472419114655	3.8198092	1.9544332
18.86500865067897	3.8873973	1.9716483
18.88277584753551	3.605478	1.8988097
18.90054350249763	3.641529	1.9082791
18.918311616027957	3.3781252	1.8379676
18.936080188589226	3.24972	1.802698
18.953849220644265	3.0056198	1.7336724
18.971618712656007	2.8552928	1.6897612
18.9893886650875	2.7779217	1.6667098
19.007159078401887	7.9031825	2.81126
19.024929953062408	32.776775	5.7251005
19.042701289532435	32.75214	5.7229486
19.060473088275405	25.321072	5.032005
19.07824534975489	2.567134	1.6022278
19.096018074434568	2.5102687	1.5843828
19.113791262778197	2.5091283	1.5840229
19.13156491524966	2.4896498	1.5778624
19.149339032312945	2.4951487	1.5796039
19.167113614432136	2.5324304	1.5913612
19.184888662071433	2.56723	1.6022577
19.202664175695123	2.5233638	1.5885099
19.220440155767623	2.4939885	1.5792367
19.238216602753447	2.4691064	1.571339
19.2559935171172	2.4560716	1.5671859
19.27377089932361	2.4827445	1.5756727
19.291548749837514	2.488677	1.5775541
19.309327069123835	2.468309	1.5710852
19.32710585764763	2.4220204	1.5562842
19.344885115874032	2.4095075	1.5522588
19.362664844268313	2.3894773	1.5457934
19.380445043295822	2.4179647	1.5549806
19.39822571342203	2.4114065	1.5528704
19.41600685511252	2.4060326	1.5511391
19.43378846883297	2.422727	1.5565112
19.451570555049173	2.4624932	1.5692333
19.469353114227037	2.4492333	1.5650027
19.48713614683254	2.3930397	1.5469453
19.50491965333182	2.392711	1.546839
19.52270363419109	2.4354997	1.5606087
19.540488089876686	2.4824207	1.57557
19.55827302085503	2.484205	1.5761361
19.576058427592674	2.4736862	1.5727956
19.593844310556282	2.462388	1.5691998
19.611630670212598	2.487075	1.5770463
19.629417507028506	2.4592578	1.5682021
19.64720482147098	2.4640865	1.5697409
19.6649926140071	2.444152	1.5633785
19.682780885104084	2.4409823	1.5623643
19.70056963522921	2.4407501	1.5622901
19.718358864849908	2.4173133	1.5547712
19.7361485744337	2.4268613	1.5578387
19.753938764448215	2.4107082	1.5526456
19.771729435361202	2.43659	1.560958
19.789520587640506	2.486546	1.5768785
19.807312221754092	2.5195835	1.5873196
19.825104338170043	2.5290604	1.590302
19.842896937356517	2.5325024	1.5913838
19.860690019781824	2.4979944	1.5805045
19.87848358591436	2.452402	1.5660148
19.896277636222635	2.4503655	1.5653644
19.914072171175278	2.4420521	1.5627067
19.931867191241015	2.465761	1.5702741
19.94966269688869	2.4971526	1.5802381
19.967458688587264	2.465218	1.5701013
19.985255166805807	2.424202	1.5569849
20.00305213201348	2.3972366	1.5483012
20.020849584679578	2.4342916	1.5602217
20.038647525273507	2.4664588	1.5704963
20.05644595426477	2.4654398	1.570172
20.07424487212299	2.4158826	1.5543109
20.092044279317903	2.353493	1.5341098
20.109844176319353	2.3425467	1.5305381
20.127644563597304	2.3573594	1.5353695
20.145445441621817	2.365779	1.5381088
20.16324681086307	2.38393	1.543998
20.181048671791373	2.3931632	1.5469851
20.198851024877122	2.4187586	1.5552359
20.216653870590836	2.3899937	1.5459604
20.234457209403146	2.3901544	1.5460124
20.252261041784802	2.383042	1.5437105
20.270065368206662	2.3902428	1.546041
20.287870189139685	2.3595893	1.5360955
20.305675505054968	2.3342335	1.5278199
20.323481316423702	2.2977974	1.5158488
20.341287623717207	2.3027284	1.5174744
20.359094427406884	2.298475	1.5160723
20.376901727964288	2.3026512	1.5174489
20.39470952586107	2.315516	1.5216819
20.41251782156899	2.312826	1.5207978
20.430326615559935	2.2925913	1.5141306
20.448135908305886	2.3016634	1.5171233
20.465945700278965	2.3405526	1.5298865
20.483755991951384	2.3495505	1.5328244
20.50156678379548	2.3270152	1.5254557
20.519378076283708	2.3176513	1.5223835
20.537189869888635	2.337422	1.528863
20.55500216508294	2.3242123	1.5245367
20.572814962339415	2.314826	1.5214552
20.59062826213098	2.2786233	1.509511
20.60844206493066	2.2699206	1.5066255
20.626256371211593	2.281752	1.5105469
20.644071181447032	2.2779315	1.5092818
20.66188649611036	2.3005447	1.5167546
20.67970231567506	2.2760074	1.5086442
20.697518640614742	2.2401834	1.4967242
20.715335471403122	2.2380772	1.4960204
20.73315280851404	2.2628992	1.5042936
20.750970652421447	2.2863348	1.512063
20.768789003599412	2.2746718	1.5082015
20.786607862522136	2.212826	1.487557
20.8044272296639	2.18798	1.4791822
20.82224710549913	2.1976857	1.4824593
20.84006749050237	2.2220721	1.4906616
20.857888385148268	3.8043125	1.9504647
20.8757097899116	45.91516	6.7760725
20.893531705267254	64.76361	8.047585
20.911354131690224	83.77358	9.152791
20.92917706965566	69.022575	8.307982
20.94700051963877	50.061886	7.0754423
20.96482448211493	29.349628	5.4175296
20.982648957559622	4.106454	2.0264387
21.00047394644843	2.2304273	1.4934615
21.01829944925707	2.2158282	1.4885658
21.036125466461375	2.208597	1.4861349
21.053951998537297	2.1780016	1.4758054
21.071779045960906	2.164128	1.4710976
21.089606609208378	2.1623287	1.4704859
21.10743468875603	2.1561034	1.4683676
21.12526328508028	2.1350498	1.4611809
21.143092398657675	2.14229	1.4636564
21.16092202996488	2.1543694	1.467777
21.17875217947867	2.1935232	1.4810548
21.19658284767596	2.1820757	1.4771851
21.21441403503377	2.1240838	1.4574237
21.232245742029225	2.0841641	1.4436635
21.2500779691396	2.1130028	1.4536171
21.26791071684227	2.1490095	1.46595
21.28574398561475	2.0991874	1.4488573
21.30357777593465	2.0749366	1.440464
21.321412088279704	2.0716476	1.439322
21.339246923127792	2.0838242	1.4435457
21.357082280956888	2.1146908	1.4541976
21.3749181622451	2.1345716	1.4610173
21.392754567470647	2.16177	1.4702959
21.41059149711187	2.1161246	1.4546906
21.42842895164726	2.0755477	1.4406761
21.446266931555378	2.0514965	1.4323046
21.464105437314945	2.085903	1.4442655
21.481944469404798	2.1312635	1.4598848
21.49978402830388	2.1378036	1.4621229
21.51762411449127	2.105144	1.4509114
21.53546472844617	2.0746975	1.440381
21.553305870647876	2.05178	1.4324036
21.571147541575865	2.070117	1.4387901
21.58898974170967	2.036659	1.4271157
21.60683247152899	2.008711	1.4172901
21.62467573151363	1.9621075	1.4007525
21.642519522143523	1.9628034	1.4010009
21.660363843898722	1.9554906	1.3983886
21.6782086972594	1.9948256	1.412383
21.696054082705864	2.0234227	1.4224707
21.713900000718535	2.0331495	1.4258856
21.73174645177795	2.0533266	1.4329433
21.749593436364794	2.0601418	1.4353194
21.767440954959845	2.053305	1.4329357
21.785289008044032	2.0189416	1.4208946
21.803137596098388	1.9731184	1.4046774
21.820986719604086	1.9996119	1.4140763
21.838836379042412	2.033565	1.4260312
21.85668657489478	2.0231488	1.4223744
21.87453730764273	1.9807377	1.4073868
21.892388577767914	1.9347664	1.3909588
21.91024038575213	1.9407908	1.3931227
21.928092732077285	1.943954	1.3942575
21.945945617225426	1.9506307	1.3966498
21.963799041678694	1.9538412	1.3977987
21.981653005919398	31.274324	5.592345
21.999507510429943	78.070274	8.835738
22.01736255569286	73.0172	8.54501
22.035218142190818	4.114253	2.0283623
22.05307427040661	1.9400368	1.3928521
22.07093094082315	1.9549961	1.3982117
22.088788153923474	1.9980763	1.4135333
22.106645910190746	2.010757	1.4180117
22.12450421010827	2.0134346	1.4189554
22.142363054159464	1.9427669	1.3938317
22.16022244282787	1.9466023	1.3952069
22.178082376597164	1.8941389	1.3762772
22.195942855951145	1.8875695	1.3738885
22.213803881373742	1.8408045	1.3567625
22.231665453349002	1.8605363	1.3640147
22.24952757236111	1.8908031	1.3750647
22.26739023889438	1.9241768	1.387147
22.28525345343323	1.9488752	1.3960212
22.30311721646225	1.9612879	1.4004599
22.320981528466113	1.944028	1.394284
22.33884638992964	1.9330248	1.3903326
22.356711801337788	1.9465933	1.3952037
22.37457776317561	1.9411336	1.3932457
22.392444275928337	1.9192604	1.3853737
22.410311340081282	1.9268048	1.388094
22.428178956119904	1.9482106	1.3957832
22.446047124529805	1.940034	1.392851
22.46391584579669	1.9246992	1.3873353
22.481785120406414	1.9377601	1.3920345
22.49965494884496	1.9282192	1.3886033
22.51752533159841	1.915846	1.3841408
22.53539626915302	1.9215902	1.3862144
22.553267761995137	1.9286951	1.3887746
22.571139810611264	1.9371971	1.3918322
22.589012415488025	1.9271675	1.3882246
22.60688557711216	1.9378248	1.3920578
22.624759295970566	1.9461069	1.3950293
22.642633572550263	1.9352623	1.391137
22.660508407338362	1.9283954	1.3886667
22.67838380082217	1.972159	1.4043357
22.696259753489077	1.9818317	1.4077754
22.714136265826614	1.9005635	1.3786093
22.73201333832246	1.8578786	1.3630402
22.74989097146439	1.8830017	1.372225
22.76776916574035	1.9282143	1.3886015
22.785647921638393	1.9360956	1.3914366
22.803527239646712	1.9169832	1.3845516
22.82140712025363	1.9083275	1.3814223
22.839287563947593	1.911009	1.3823925
22.85716857121719	1.9050864	1.3802487
22.875050142551135	1.8988051	1.3779714
22.892932278438277	1.8762075	1.3697473
22.910814979367604	1.880506	1.3713155
22.928698245828222	1.8902502	1.3748637
22.946582078309387	1.9027034	1.3793851
22.96446647730047	1.9081368	1.3813533
22.98235144329098	1.8815291	1.3716884
23.000236976770562	1.8495975	1.3599991
23.018123078229	1.8571261	1.3627641
23.03600974815619	1.8564408	1.3625127
23.053896987042194	1.8602209	1.3638991
23.071784795377173	1.8540164	1.3616227
23.08967317365145	1.8927679	1.375779
23.10756212235546	1.902118	1.3791729
23.125451641979787	1.9157547	1.384108
23.143341733015134	1.9119643	1.382738
23.161232395952357	1.9043694	1.3799889
23.179123631282426	1.9180807	1.3849479
23.197015439496468	1.919648	1.3855137
23.214907821085717	1.9094856	1.3818414
23.23280077654157	1.9196554	1.3855163
23.250694306355538	1.9503032	1.3965325
23.268588411019277	1.9595486	1.3998388
23.28648309102458	1.9937844	1.4120144
23.304378346863356	1.9771389	1.4061077
23.322274179027676	1.9696046	1.403426
23.340170588009723	1.8828416	1.3721668
23.358067574301852	1.8760186	1.3696783
23.37596513839651	1.8955942	1.3768058
23.39386328078629	1.9330083	1.3903267
23.411762001963947	1.9422593	1.3936496
23.429661302422353	1.8972088	1.377392
23.4475611826545	1.9071214	1.3809856
23.46546164315356	1.9195038	1.3854616
23.48336268441279	1.9448948	1.3945949
23.501264306925638	1.9203361	1.385762
23.51916651118564	1.887236	1.3737671
23.537069297686497	1.8679501	1.3667297
23.554972666922037	1.8871349	1.3737303
23.57287661938623	1.8846217	1.3728153
23.59078115557318	1.8915166	1.3753241
23.608686275977128	1.8748385	1.3692474
23.62659198109246	1.9054166	1.3803682
23.6444982714137	1.9042697	1.3799528
23.66240514743549	1.8956282	1.3768182
23.68031260965263	1.9001617	1.3784635
23.698220658560068	1.8794812	1.3709418
23.716129294652845	1.861272	1.3642844
23.7340385184262	1.8520604	1.3609042
23.75194833037546	1.8562165	1.3624303
23.769858730996123	1.8649093	1.3656168
23.78776972078382	1.8631804	1.3649837
23.80568130023431	1.91675	1.3844674
23.823593469843495	1.9030834	1.3795229
23.841506230107424	1.8871297	1.3737284
23.859419581522275	1.8869312	1.3736562
23.87733352458438	1.880174	1.3711944
23.89524805979019	1.9228541	1.3866701
23.913163187636318	1.9109296	1.3823638
23.931078908619508	1.9455566	1.3948321
23.948995223236633	1.9330564	1.390344
23.966912131984735	1.9902362	1.4107573
23.98482963536096	2.0128522	1.4187502
24.002747733862616	1.9797522	1.4070367
24.020666427987155	1.9671527	1.4025522
24.038585718232156	1.9810214	1.4074876
24.056505605095353	2.0022593	1.4150121
24.074426089074617	2.0357761	1.4268063
24.092347170667946	2.062849	1.4362621
24.110268850373515	2.079086	1.4419036
24.128191128689586	2.0404572	1.4284457
24.146114006114626	2.0068908	1.4166477
24.164037483147187	2.0094085	1.417536
24.181961560286005	2.0082986	1.4171445
24.199886238029926	2.0095444	1.417584
24.21781151687797	1.9986107	1.4137223
24.235737397329274	2.0019984	1.41492
24.253663879883135	2.0267835	1.4236515
24.271590965038975	2.0279226	1.4240515
24.289518653296376	2.018602	1.420775
24.30744694515505	2.037515	1.4274155
24.32537584111486	2.0526538	1.4327085
24.34330534167581	2.0437286	1.4295903
24.361235447338046	2.0609732	1.435609
24.379166158601876	2.07327	1.4398855
24.39709747596772	2.0681562	1.4381086
24.41502939993615	2.0388582	1.4278859
24.432961931007917	1.9937289	1.4119947
24.450895069683856	1.9738777	1.4049475
24.468828816465	1.9551858	1.3982795
24.4867631718525	1.9674438	1.402656
24.504698136347656	1.9566944	1.398819
24.52263371045192	1.9431506	1.3939694
24.540569894666874	1.8927612	1.3757766
24.558506689494266	1.9152746	1.3839345
24.57644409543597	1.9316392	1.3898343
24.594382112994012	1.9305328	1.3894361
24.61232074267057	1.9093024	1.381775
24.630259984967953	1.9498276	1.3963623
24.64819984038863	1.962167	1.4007738
24.66614030943522	1.9756572	1.4055808
24.684081392610462	1.989575	1.4105229
24.702023090417274	1.9884597	1.4101275
24.7199654033587	1.9573768	1.3990629
24.737908331937927	1.9491189	1.3961085
24.755851876658305	2.0153534	1.4196315
24.773796038023324	2.0486412	1.4313076
24.79174081653661	2.0886078	1.4452016
24.809686212701962	2.0987663	1.448712
24.827632227023294	2.088779	1.4452609
24.8455788600047	2.1127093	1.4535161
24.8635261121504	2.07683	1.4411211
24.88147398396475	2.033527	1.4260179
24.899422475952303	2.0212104	1.4216928
24.917371588617698	2.1093628	1.4523646
24.935321322465768	2.2179136	1.4892662
24.953271678001478	2.3498678	1.5329279
24.97122265572994	2.4917057	1.5785137
24.989174256156414	2.7772417	1.6665058
25.00712647978632	3.2848635	1.8124192
25.02507932712521	4.297039	2.07293
25.043032798678798	5.8963394	2.428238
25.060986894952933	7.6252184	2.7613797
25.078941616453637	9.200044	3.0331573
25.096896963687055	10.0672	3.1728852
25.114852937159508	10.623368	3.259351
25.132809537377444	10.344491	3.2162852
25.150766764847468	9.626984	3.1027381
25.168724620076347	8.254719	2.8731027
25.186683103570985	6.9730644	2.640656
25.204642215838426	5.6230984	2.3713074
25.222601957385894	4.505884	2.122707
25.24056232872074	3.488864	1.8678501
25.25852333035048	2.7642846	1.6626137
25.276484962782778	2.3359354	1.5283767
25.294447226525435	2.1152434	1.4543877
25.312410122086423	1.9983177	1.4136187
25.330373649973843	1.9582211	1.3993645
25.348337810695988	1.9065998	1.3807968
25.366302604761245	1.8733174	1.3686918
25.384268032678207	1.8612765	1.3642861
25.40223409495558	1.8227919	1.3501081
25.420200792102257	1.8209512	1.3494263
25.438168124627246	1.8021152	1.3424288
25.45613609303974	1.8303361	1.3528992
25.474104697849057	1.8296075	1.3526299
25.492073939564698	1.843598	1.3577915
25.510043818696285	1.851538	1.3607123
25.528014335753614	1.844819	1.3582411
25.54598549124664	1.849205	1.3598548
25.56395728568544	1.8745228	1.3691322
25.58192971958028	1.8972256	1.3773981
25.59990279344156	1.8563693	1.3624865
25.617876507779833	1.840443	1.3566293
25.635850863105826	1.8557383	1.3622549
25.653825859930386	1.8999131	1.3783734
25.671801498764548	1.8982419	1.377767
25.68977778011949	1.914208	1.3835491
25.707754704506524	1.9070698	1.380967
25.725732272437153	1.8937535	1.3761371
25.743710484423012	1.8747727	1.3692234
25.761689340975888	1.8710538	1.3678647
25.77966884260774	1.8707341	1.3677478
25.797648989830662	1.8553616	1.3621166
25.815629783156922	1.8086588	1.3448639
25.83361122309895	1.7838699	1.3356159
25.85159331016929	1.814795	1.3471433
25.869576044880695	1.8211145	1.3494868
25.887559427746034	1.8534465	1.3614134
25.90554345927836	1.8791038	1.3708041
25.92352813999086	1.8810322	1.3715073
25.94151347039689	1.8134083	1.3466284
25.959499451009965	1.8144363	1.3470101
25.97748608234374	1.8175541	1.348167
25.995473364912062	1.869144	1.3671664
26.013461299228904	1.8196481	1.3489434
26.03144988580839	1.7994479	1.341435
26.04943912516483	1.7956272	1.3400102
26.067429017812675	1.792612	1.3388846
26.085419564266537	1.8069048	1.3442116
26.103410765041186	1.8087043	1.3448807
26.12140262065155	1.8388251	1.3560328
26.139395131612723	1.8153448	1.3473474
26.157388298439948	1.796537	1.3403496
26.17538212164861	1.8178929	1.3482926
26.193376601754295	1.8038471	1.3430737
26.211371739272714	1.8251308	1.3509741
26.229367534719746	1.8307848	1.353065
26.247363988611433	1.8391727	1.356161
26.26536110146397	1.779902	1.3341297
26.283358873793727	1.783057	1.3353115
26.301357306117204	1.8285776	1.3522491
26.319356398951104	1.8518205	1.3608161
26.33735615281224	1.8354653	1.3547934
26.35535656821762	1.7966422	1.3403888
26.373357645684404	1.7785211	1.3336121
26.39135938572991	1.8057699	1.3437893
26.409361788871614	1.8130006	1.3464772
26.427364855627165	1.8046314	1.3433657
26.445368586514352	1.8288703	1.3523573
26.46337298205115	1.8321849	1.3535823
26.48137804275568	1.80545	1.3436704
26.499383769146217	1.8155652	1.3474292
26.517390161741215	1.8743492	1.3690687
26.53539722105928	1.8826969	1.3721141
26.553404947619182	1.8581754	1.363149
26.571413341939856	1.7994736	1.3414446
26.589422404540397	1.8057749	1.3437912
26.60743213594006	1.8004245	1.341799
26.62544253665827	1.761684	1.3272845
26.64345360721459	1.7527823	1.3239268
26.66146534812879	1.7858506	1.3363572
26.679477759920758	1.8095934	1.3452113
26.69749084311057	1.7968024	1.3404486
26.71550459821847	1.7884272	1.3373209
26.733519025764842	1.7783209	1.333537
26.751534126270258	1.7683415	1.32979
26.769549900255434	1.7423387	1.3199768
26.787566348241267	1.7539904	1.324383
26.80558347074881	1.789384	1.3376786
26.823601268299267	1.8011112	1.3420548
26.841619741414036	1.7880162	1.3371673
26.85963889061465	1.7361976	1.3176485
26.877658716422832	1.7505331	1.3230771
26.89567921936045	1.8058041	1.3438021
26.913700399949544	1.8139892	1.3468442
26.93172225871233	1.8102396	1.3454515
26.949744796171174	1.8501848	1.360215
26.967768012848605	1.825654	1.3511677
26.98579190926733	1.80788	1.3445743
27.003816485950225	1.7920113	1.3386602
27.021841743420318	1.7972668	1.3406218
27.039867682200814	1.7957025	1.3400382
27.057894302815072	1.791826	1.3385911
27.07592160578664	1.781608	1.3347689
27.0939495916392	1.7970344	1.3405352
27.111978260896635	1.7895064	1.3377243
27.13000761408296	1.802674	1.342637
27.148037651722397	1.8470397	1.3590584
27.166068374339304	1.8790859	1.3707975
27.184099782458215	1.8446944	1.3581953
27.20213187660384	1.7915728	1.3384964
27.22016465730105	1.8075088	1.3444363
27.23819812507487	1.8256701	1.3511736
27.256232280450533	1.8041337	1.3431804
27.274267123953383	1.827225	1.3517488
27.292302656108987	1.826023	1.3513042
27.31033887744306	1.819773	1.3489896
27.32837578848146	1.7972776	1.3406258
27.34641338975026	1.765827	1.3288442
27.364451681775673	1.7793453	1.333921
27.382490665084074	1.8010668	1.3420383
27.400530340202046	1.8017919	1.3423084
27.41857070765629	1.8160697	1.3476163
27.436611767973726	1.7594781	1.3264532
27.454653521681404	1.750162	1.3229369
27.472695969306564	1.7699254	1.3303854
27.490739111376627	1.79595	1.3401306
27.508782948419153	1.7975281	1.3407192
27.526827480961902	1.7875074	1.336977
27.54487270953279	1.7767239	1.3329381
27.562918634659898	1.7363966	1.317724
27.580965256871508	1.7556441	1.3250072
27.599012576696026	1.8094862	1.3451715
27.617060594662068	1.8197538	1.3489825
27.63510931129842	1.8063365	1.3440002
27.65315872713401	1.8202143	1.3491532
27.67120884269797	1.8272841	1.3517708
27.68925965851958	1.8457111	1.3585695
27.707311175128307	1.8353746	1.3547599
27.725363393053787	1.8315809	1.3533591
27.74341631282583	1.8807776	1.3714144
27.7614699349744	1.9267243	1.388065
27.77952426002968	2.0995617	1.4489864
27.797579288521973	2.109279	1.4523357
27.815635020981784	2.4524078	1.5660166
27.83369145793979	2.5199451	1.5874335
27.85174859992682	2.3547654	1.5345244
27.869806447473923	2.231397	1.4937861
27.887865001112267	1.9872342	1.409693
27.905924261373233	1.9119279	1.3827249
27.92398422878836	1.8873197	1.3737975
27.94204490388936	1.8679702	1.3667371
27.96010628720813	1.8808928	1.3714564
27.978168379276728	1.8682674	1.3668458
27.9962311806274	1.8597894	1.3637409
28.014294691792568	1.880796	1.3714211
28.0323589133048	1.885008	1.3729559
28.050423845696887	1.8722488	1.3683014
28.068489489501758	1.8246871	1.3508098
28.086555845252523	1.7694349	1.330201
28.104622913482487	1.7896514	1.3377786
28.122690694725115	1.8245316	1.3507522
28.14075918951405	1.8781558	1.3704582
28.15882839838312	1.8715392	1.3680421
28.176898321866304	1.8760504	1.3696898
28.1949689604978	1.8725508	1.3684118
28.213040314811945	1.8949949	1.3765881
28.23111238534327	1.917393	1.3846996
28.249185172626493	1.9141676	1.3835344
28.267258677196473	1.9233543	1.3868505
28.285332899588294	1.9652218	1.4018637
28.303407840337172	1.9370139	1.3917664
28.321483499978545	1.9220061	1.3863643
28.33955987904799	1.9563332	1.3986897
28.357636978081285	1.9837805	1.4084674
28.37571479761439	2.0081537	1.4170934
28.393793338183425	2.0834877	1.4434291
28.41187260032469	2.0880177	1.4449974
28.429952584574686	2.083587	1.4434636
28.448033291470065	2.0658417	1.4373037
28.46611472154769	2.0280902	1.4241103
28.484196875344566	2.0168614	1.4201624
28.502279753397914	2.0364764	1.4270517
28.52036335624511	2.0386066	1.4277978
28.538447684423716	2.0317807	1.4254055
28.556532738471482	2.0035622	1.4154724
28.574618518926325	1.9986439	1.413734
28.59270502632635	1.94878	1.395987
28.61079226120985	1.9766139	1.405921
28.628880224115274	2.0146098	1.4193695
28.646968915581287	1.9812369	1.4075642
28.66505833614671	2.0118277	1.4183891
28.68314848635055	2.0160692	1.4198835
28.701239366732004	2.0607774	1.4355408
28.71933097783044	2.1347964	1.4610943
28.737423320185403	2.1741529	1.4745009
28.75551639433665	2.091225	1.4461068
28.773610200824074	2.0057726	1.416253
28.791704740187793	2.0579548	1.4345573
28.80980001296809	2.122547	1.4568963
28.827896019705413	2.1333475	1.4605983
28.845992760940433	2.1420732	1.4635823
28.86409023721397	2.1360161	1.4615116
28.88218844906704	2.1724596	1.4739265
28.900287397040845	2.223966	1.4912968
28.918387081676755	2.2200894	1.4899964
28.936487503516343	2.2675343	1.5058334
28.954588663101365	2.2951443	1.5149734
28.97269056097374	2.3105145	1.5200377
28.990793197675597	2.327055	1.5254688
29.00889657374923	2.3684857	1.5389885
29.027000689737125	2.3456385	1.5315478
29.04510554618196	2.375863	1.5413835
29.06321114362659	2.424849	1.5571927
29.08131748261405	2.4463894	1.5640938
29.099424563687567	2.4600751	1.5684626
29.11753238739057	2.4816637	1.5753297
29.13564095426663	2.4436212	1.5632086
29.15375026485954	2.489867	1.5779313
29.171860319713275	2.6197224	1.6185557
29.18997111937199	2.6326113	1.6225324
29.20808266438002	2.6092055	1.6153035
29.226194955281898	2.7185726	1.6488094
29.244307992622335	2.8842058	1.698295
29.26242177694624	2.9256723	1.7104597
29.2805363087987	2.900537	1.7030963
29.29865158872498	2.9419932	1.7152239
29.316767617270557	2.9779687	1.7256792
29.334884394981064	2.9690466	1.7230922
29.353001922402367	2.9415627	1.7150984
29.37112020008047	3.0397606	1.7434909
29.389239228561596	3.153442	1.7757933
29.407359008392152	3.3353446	1.8262925
29.42547954011872	3.554379	1.8853061
29.44360082428809	3.989096	1.9972721
29.46172286144722	4.9107122	2.2160127
29.479845652143283	6.57285	2.563757
29.497969196923606	9.360824	3.0595462
29.516093496335728	13.104612	3.6200292
29.5342185509274	16.677107	4.083761
29.55234436124651	19.819002	4.4518538
29.570470927841175	21.101322	4.5936174
29.588598251259686	20.982683	4.580686
29.60672633205055	19.369333	4.4010606
29.624855170762405	16.441858	4.0548563
29.642984767944146	12.950665	3.5987034
29.66111512414481	9.515375	3.0847
29.67924623991366	6.8256392	2.6125925
29.697378115800138	5.081116	2.2541332
29.71551075235387	4.254351	2.0626078
29.733644150124675	3.7816007	1.9446338
29.751778309662576	3.5415928	1.881912
29.769913231517766	3.4781306	1.8649747
29.78804891624066	3.3683186	1.835298
29.806185364381818	3.2893867	1.8136667
29.82432257649206	3.3115842	1.8197758
29.842460553122333	3.4021332	1.8444873
29.86059929482382	3.4317465	1.8524973
29.878738802147872	3.3755016	1.8372538
29.896879075646048	3.2689643	1.8080277
29.915020115870114	3.294552	1.8150901
29.933161923371976	3.3098252	1.8192925
29.951304498703777	3.3605988	1.8331937
29.969447842417857	3.352835	1.8310748
29.987591955066733	3.249773	1.8027127
30.005736837203123	3.1878462	1.785454
30.023882489379943	3.1618052	1.7781465
30.04202891215028	3.081543	1.7554324
30.060176106067455	3.0535083	1.747429
30.078324071684946	3.052142	1.747038
30.09647280955646	3.0755723	1.7537309
30.114622320235863	3.1003332	1.7607763
30.132772604277257	3.0857508	1.7566305
30.1509236622349	3.0840726	1.7561527
30.16907549466328	3.102257	1.7613225
30.18722810211705	3.1030133	1.7615372
30.205381485151097	3.0911582	1.7581689
30.22353564432045	3.1224668	1.7670503
30.241690580180403	3.0673723	1.7513915
30.25984629328638	2.9914124	1.72957
30.278002784194037	2.9421952	1.7152828
30.296160053459246	2.9702606	1.7234445
30.314318101638033	2.9974763	1.7313222
30.332476929286646	2.9397526	1.7145706
30.35063653696153	2.9126554	1.7066504
30.368796925219307	2.9271321	1.7108864
30.386958094616844	2.924212	1.7100327
30.40512004571115	2.863552	1.6922033
30.423282779059463	2.7203968	1.6493626
30.441446295219233	2.6783795	1.6365756
30.459610594748067	2.763341	1.66233
30.47777567820382	2.80285	1.6741714
30.495941546144504	2.8046024	1.6746947
30.51410819912835	2.794896	1.6717942
30.532275637713795	2.9083986	1.7054027
30.55044386245946	2.8922718	1.700668
30.56861287392416	2.830794	1.6824964
30.586782672666956	2.7919374	1.6709092
30.604953259247047	2.7953224	1.6719217
30.623124634223885	2.8227847	1.6801145
30.641296798157075	2.8463047	1.6870995
30.659469751606462	2.815276	1.6778784
30.677643495132074	2.8241575	1.6805229
30.695818029294152	2.7665668	1.6632999
30.713993354653116	2.7707164	1.664547
30.73216947176962	2.7913892	1.6707451
30.75034638120448	2.765619	1.663015
30.768524083518756	2.744013	1.6565063
30.786702579273673	2.7074	1.6454179
30.80488186903069	2.7541525	1.659564
30.82306195335144	3.012385	1.7356223
30.841242832797782	3.340985	1.8278362
30.85942450793176	3.6383865	1.9074554
30.877606979315637	3.926851	1.9816284
30.895790247511883	4.221763	2.054693
30.913974313083134	4.7093215	2.170097
30.932159176592283	5.2157383	2.2837992
30.95034483860237	5.6209526	2.3708549
30.968531299676698	5.5005574	2.3453267
30.98671856037873	5.0812974	2.2541733
31.00490662127215	4.5940514	2.1433737
31.023095482920848	4.2167006	2.0534606
31.04128514588892	3.7023041	1.9241372
31.059475610740662	3.1698072	1.7803953
31.07766687804056	2.7853017	1.6689223
31.09585894835335	2.6189375	1.6183132
31.11405182224393	2.4903655	1.5780892
31.132245500277417	2.4730008	1.5725777
31.15043998301914	2.5108278	1.5845592
31.168635271034628	2.5185118	1.586982
31.18683136488964	2.5147293	1.5857898
31.20502826515008	2.4882746	1.5774266
31.223225972382135	2.4098983	1.5523847
31.241424487152155	2.3796864	1.5426232
31.259623810026692	2.3884373	1.545457
31.27782394157253	2.4388895	1.5616944
31.296024882356644	2.4299245	1.5588216
31.314226632946237	2.393417	1.5470672
31.332429193908684	2.3866525	1.5448794
31.350632565811598	2.3886607	1.5455292
31.368836749222787	2.3958194	1.5478435
31.387041744710295	2.4181206	1.5550307
31.40524755284232	2.506811	1.5832912
31.423454174187317	2.498573	1.5806875
31.441661609313922	2.506557	1.583211
31.459869858791002	2.456331	1.5672686
31.478078923187628	2.435792	1.5607024
31.496288803073064	2.4123075	1.5531604
31.514499499016807	2.3963547	1.5480163
31.532711011588546	2.3683727	1.5389518
31.550923341358178	2.2490764	1.4996921
31.56913648889584	2.215677	1.488515
31.587350454771844	2.2649288	1.504968
31.605565239556732	2.278877	1.509595
31.62378084382127	2.2176223	1.4891683
31.641997268136382	2.2282548	1.492734
31.660214513073274	2.286541	1.5121312
31.67843257920331	2.2930217	1.5142727
31.6966514670981	2.210257	1.4866934
31.71487117732944	2.1771095	1.4755031
31.733091710469346	2.2329123	1.4942932
31.751313067090052	2.3342917	1.527839
31.769535247764008	2.3118906	1.5204903
31.787758253063878	2.2484035	1.4994677
31.805982083562526	2.2049618	1.4849113
31.824206739833024	2.2632387	1.5044065
31.84243222244869	2.2732315	1.5077239
31.860658531983013	2.2354128	1.4951297
31.878885669009737	2.2101958	1.4866728
31.897113634102784	2.2229328	1.4909503
31.91534242783632	2.2051616	1.4849787
31.933572050784694	2.208029	1.4859438
31.951802503522508	2.2250743	1.4916683
31.970033786624548	2.2634814	1.504487
31.988265900665834	2.2696867	1.5065479
32.006498846221575	2.2328632	1.4942768
32.02473262386724	2.2033505	1.4843687
32.04296723417845	2.2335749	1.494515
32.0612026777311	2.1936812	1.4811081
32.07943895510129	2.2045295	1.4847658
32.097676066865304	2.173177	1.47417
32.115914013599685	2.246047	1.4986818
32.13415279588115	2.1972764	1.4823213
32.152392414286666	2.0965412	1.4479438
32.1706328693934	2.104922	1.450835
32.18887416177875	2.1118302	1.4532138
32.20711629202032	2.1081793	1.4519571
32.225359260695924	2.1410902	1.4632465
32.243603068383614	2.2454045	1.4984673
32.26184771566166	2.2387657	1.4962505
32.28009320310852	2.1926558	1.4807619
32.2983395313029	2.153829	1.467593
32.31658670082372	2.1274676	1.4585841
32.33483471225012	2.133363	1.4606036
32.35308356616143	2.1528819	1.4672703
32.371333263137245	2.1645489	1.4712406
32.38958380375734	2.1255028	1.4579104
32.407835188601744	2.0723047	1.4395502
32.42608741825067	2.0560842	1.4339052
32.444340493284585	2.0339248	1.4261574
32.46259441428416	2.1124494	1.4534268
32.48084918183028	2.1479275	1.4655809
32.49910479650405	2.1403077	1.4629791
32.51736125888683	2.0824919	1.4430841
32.53561856956014	2.0653272	1.4371246
32.5538767291058	2.0553982	1.433666
32.572135738105764	2.0891984	1.445406
32.59039559714228	2.1274943	1.4585932
32.608656306797776	2.1447213	1.4644867
32.62691786765491	2.0904312	1.4458324
32.645180280296586	2.0331347	1.4258803
32.663443545305896	2.0110137	1.4181021
32.68170766326619	2.0153396	1.4196266
32.69997263476099	2.0659893	1.4373549
32.7182384603741	2.0587604	1.434838
32.7365051406895	1.9910538	1.4110471
32.75477267629144	1.9988222	1.4137971
32.77304106776434	2.0939045	1.447033
32.79131031569289	2.0569139	1.4341944
32.809580420661966	2.0367985	1.4271644
32.827851383256714	2.0606775	1.435506
32.84612320406245	2.1011627	1.4495388
32.86439588366476	2.0545576	1.4333727
32.88266942264945	2.02896	1.4244157
32.9009438216025	2.041555	1.4288299
32.9192190811102	2.1241786	1.4574562
32.937495201758985	2.1160917	1.4546793
32.95577218413556	2.1282134	1.4588398
32.974050028826866	2.1359422	1.4614863
32.992328736420035	2.0380244	1.427594
33.010608307502444	2.013894	1.4191173
33.02888874266169	2.0246644	1.422907
33.047170042485604	2.026851	1.4236752
33.06545220756225	2.1020162	1.4498332
33.083735238479896	2.1727648	1.4740301
33.10201913582707	2.1841378	1.4778829
33.12030390019248	2.0800967	1.4422541
33.138589532165135	2.0204651	1.4214307
33.15687603233419	1.9521639	1.3971986
33.17516340128909	1.84177	1.3571182
33.19345163961947	1.8042926	1.3432395
33.211740747915215	1.914631	1.3837019
33.23003072676643	1.9835794	1.408396
33.248321576763466	1.8602484	1.3639092
33.266613298496885	1.8623862	1.3646927
33.28490589255747	1.9677812	1.4027762
33.30319935953626	2.0371244	1.4272786
33.32149370002451	2.0232878	1.4224232
33.339788914613706	1.9625187	1.4008993
33.358085003895575	1.9166934	1.384447
33.376381968462034	1.8895656	1.3746147
33.39467980890529	1.9737734	1.4049104
33.41297852581774	1.9879582	1.4099497
33.43127811979204	1.8819232	1.371832
33.44957859142105	1.8904064	1.3749205
33.467879941297866	1.9694	1.4033531
33.486182170015844	2.0129979	1.4188015
33.50448527816853	1.9681157	1.4028955
33.522789266349754	1.9457743	1.3949101
33.541094135153514	1.932593	1.3901774
33.55939988517411	1.9545294	1.3980448
33.57770651700602	1.9065342	1.3807731
33.59601403124398	1.8674163	1.3665344
33.61432242848296	1.88469	1.3728402
33.632631709318154	1.8821989	1.3719325
33.650941874344994	1.7956457	1.3400171
33.66925292415916	1.8430313	1.3575829
33.68756485935654	1.8889989	1.3744086
33.70587768053328	1.8847957	1.3728786
33.724191388285746	1.9023296	1.3792497
33.74250598321054	1.9387434	1.3923876
33.760821465904506	1.9244336	1.3872396
33.77913783696474	1.9420915	1.3935894
33.79745509698852	1.7936102	1.3392574
33.815773246573414	1.7909065	1.3382475
33.8340922863172	1.9551021	1.3982496
33.852412216817896	2.003998	1.4156264
33.87073303867377	1.8656483	1.3658874
33.889054752483304	1.8775576	1.37024
33.907377358845245	1.9164518	1.3843597
33.92570085835853	2.0165071	1.4200377
33.94402525162239	2.0610473	1.4356349
33.96235053923627	2.0166419	1.4200852
33.980676721799824	2.0038908	1.4155885
33.999003799912984	1.9291703	1.3889457
34.01733177417592	2.0394945	1.4281087
34.03566064518901	2.0835268	1.4434427
34.0539904135529	2.0346932	1.4264268
34.07232107986846	1.9473855	1.3954875
34.090652644736785	1.9121209	1.3827946
34.108985108759235	1.9212195	1.3860806
34.12731847253742	1.947307	1.3954594
34.14565273667313	1.9457442	1.3948994
34.16398790176847	1.9235908	1.3869357
34.18232396842574	1.9015241	1.3789576
34.20066093724749	1.9357497	1.3913122
34.21899880883651	2.004579	1.4158316
34.23733758379583	2.0278175	1.4240146
34.25567726272874	2.0350535	1.426553
34.27401784623872	2.209027	1.4862796
34.29235933492957	2.2112594	1.4870304
34.31070172940526	2.0980005	1.4484476
34.32904503027003	2.0842104	1.4436795
34.347389238128386	2.0561242	1.4339192
34.36573435358502	1.881556	1.3716983
34.38408037724492	1.776889	1.333
34.402427309713296	1.7797928	1.3340888
34.42077515159559	1.8071187	1.3442911
34.43912390349752	1.8438225	1.3578743
34.45747356602499	1.9213227	1.3861178
34.47582413978423	1.8880255	1.3740544
34.49417562538163	1.7582573	1.325993
34.51252802342388	1.788159	1.3372207
34.53088133451789	1.8280916	1.3520694
34.54923555927084	1.8203671	1.3492098
34.567590698290104	1.9334886	1.3904994
34.58594675218336	2.0446463	1.4299113
34.6043037215585	1.9871253	1.4096543
34.62266160702365	1.9212264	1.3860831
34.641020409187234	1.8703256	1.3675984
34.65938012865785	2.0065885	1.416541
34.677740766044394	2.1232052	1.4571222
34.69610232195598	2.0892696	1.4454306
34.714464797002016	1.8522725	1.3609822
34.73282819179208	1.8547196	1.3618809
34.751192506936064	2.0418959	1.4289492
34.76955774304408	2.044289	1.4297864
34.7879239007265	1.896338	1.3770759
34.80629098059391	1.7730614	1.3315635
34.824658983257194	1.7826581	1.3351622
34.843027909327446	1.9150543	1.3838549
34.86139775941603	1.9917549	1.4112954
34.879768534134534	1.9714533	1.4040846
34.89814023409483	2.0060718	1.4163586
34.91651285990901	1.9828985	1.4081542
34.93488641218944	1.9060522	1.3805985
34.95326089154871	1.7852677	1.3361391
34.97163629859967	1.7896069	1.3377619
34.99001263395542	1.8065121	1.3440655
35.00838989822934	1.96138	1.4004928
35.02676809203499	1.8846346	1.3728199
35.04514721598624	1.638413	1.2800051
35.063527270697215	1.7768387	1.3329811
35.081908256782256	2.054419	1.4333245
35.10029017485597	1.9921463	1.411434
35.11867302553321	2.0238123	1.4226075
35.137056809429104	1.8622155	1.3646302
35.155441527159006	1.5383207	1.2402905
35.173827179338524	1.5825934	1.2580117
35.19221376658354	1.651881	1.2852552
35.21060128951017	1.5045298	1.2265928
35.2289897487348	1.3894719	1.1787586
35.24737914487405	1.5884546	1.2603391
35.26576947854479	2.3101635	1.5199223
35.28416075036418	2.5574164	1.5991924
35.30255296094958	2.2105412	1.4867889
35.32094611091867	2.16693	1.4720496
35.33934020088932	2.1809597	1.4768072
35.35773523147969	2.1885586	1.4793777
35.3761312033082	1.8245234	1.3507493
35.394528116993506	1.7032337	1.3050799
35.41292597315452	1.6264645	1.2753291
35.431324772410434	1.5666658	1.2516652
35.449724515380666	1.8128943	1.3464377
35.46812520268491	1.9046999	1.3801087
35.486526834943106	2.113176	1.4536767
35.504929412775454	2.329116	1.5261441
35.52333293680242	2.4992292	1.5808951
35.54173740764471	2.2135515	1.487801
35.560142825923286	1.9229717	1.3867126
35.5785491922594	1.4429891	1.2012448
35.59695650727454	1.1711195	1.0821828
35.61536477159042	1.4327071	1.1969575
