0.008763373481513119	0.0	0.0
0.026290120649546365	0.0	0.0
0.043816868432600686	0.03550094	0.18841693
0.06134361724069026	0.13480023	0.3671515
0.07887036748382949	0.13707814	0.37024066
0.0963971195720331	0.11333413	0.33665136
0.11392387391531617	0.062353216	0.24970625
0.1314506309236943	0.040553942	0.20138009
0.1489773910071836	0.124158524	0.35236135
0.16650415457580078	0.23295824	0.4826575
0.18403092203956356	0.23438355	0.48413175
0.20155769380849	0.21547061	0.46418813
0.2190844702925996	0.25749514	0.5074398
0.2366112519019124	0.21732087	0.46617687
0.2541380390464497	0.28360865	0.5325492
0.27166483213623416	0.16901445	0.41111368
0.28919163158128947	0.11936043	0.34548578
0.3067184377916406	0.064666435	0.25429595
0.324245251177314	0.05953513	0.24399821
0.34177207214833777	0.07665128	0.27685967
0.3592989011147415	0.06141888	0.24782833
0.37682573848655654	0.08259704	0.287397
0.39435258467381573	0.096808575	0.31114078
0.41187944008655414	0.15822369	0.3977734
0.42940630513480854	0.1596386	0.399548
0.446933180228618	0.1878685	0.433438
0.4644600657780234	0.15187226	0.38970792
0.48198696219306775	0.12747668	0.35703877
0.49951386988379676	0.062490325	0.24998064
0.5170407892602581	0.05189784	0.22781098
0.5345677207325025	0.1127631	0.33580217
0.5520946647105822	0.14472161	0.38042295
0.5696216216045534	0.22618873	0.47559303
0.5871485918244737	0.2594673	0.5093793
0.6046755757804043	0.26835686	0.5180317
0.6222025738824094	0.23371871	0.48344463
0.6397295865405557	0.19211444	0.43830863
0.6572566141649129	0.16698885	0.40864268
0.6747836571655547	0.14558733	0.38155907
0.6923107159525568	0.11655254	0.3413979
0.7098377909359992	0.11853914	0.34429514
0.7273648825259653	0.142802	0.3778915
0.7448919911325411	0.17954326	0.42372546
0.762419117165817	0.19096616	0.43699676
0.7799462610358868	0.20656987	0.45449957
0.7974734231528482	0.18222438	0.42687747
0.8150006039268024	0.18364841	0.4285422
0.8325278037678551	0.18107615	0.42553043
0.8500550230861152	0.18495335	0.43006203
0.8675822622916969	0.19317178	0.43951312
0.8851095217947171	0.23152828	0.48117387
0.9026368020052984	0.25719035	0.5071394
0.9201641033335665	0.26929224	0.5189338
0.9376914261896523	0.24956882	0.49956864
0.9552187709836915	0.2536148	0.50360185
0.9727461381258234	0.239384	0.48926884
0.990273528026193	0.27404544	0.52349347
1.0078009410949496	0.28293663	0.53191787
1.0253283777422473	0.29251996	0.5408511
1.0428558383782454	0.26368305	0.51350075
1.0603833234131086	0.28883728	0.5374358
1.0779108332570058	0.31965488	0.5653803
1.0954383683201119	0.37678167	0.61382544
1.112965929012607	0.38970014	0.62425965
1.1304935157446763	0.43809	0.66188365
1.1480211289265108	0.4780388	0.6914035
1.1655487689683062	1.3854656	1.177058
1.1830764362802655	1.7385461	1.3185394
1.200604131272596	2.1426916	1.4637935
1.2181318543555117	2.45429	1.5666174
1.235659605939232	2.435094	1.5604788
1.253187386433982	3.9633787	1.9908236
1.270715196249994	6.386338	2.5271206
1.2882430357975057	11.862521	3.444201
1.3057709054867608	16.332373	4.041333
1.3232988057280106	21.982536	4.688554
1.3408267369315112	26.978136	5.194048
1.358354699507526	30.79052	5.5489206
1.3758826938663256	35.18675	5.931842
1.3934107204181858	37.02847	6.085102
1.410938779573391	37.25878	6.103997
1.4284668717422309	37.941856	6.159696
1.4459949973350033	37.400547	6.1155987
1.4635231567620117	37.482174	6.1222687
1.4810513504335687	36.588596	6.048851
1.4985795787599925	35.635468	5.969545
1.5161078421516088	34.873135	5.905348
1.5336361410187505	34.037163	5.834138
1.5511644757717598	33.911194	5.823332
1.5686928468209842	34.825138	5.901283
1.58622125457678	35.732216	5.977643
1.6037496994495108	37.043015	6.0862975
1.621278181849548	37.19462	6.098739
1.6388067021872719	37.762035	6.145082
1.6563352608730693	36.94728	6.0784273
1.673863858317336	35.783615	5.9819407
1.6913924949304753	35.342087	5.944921
1.7089211711228998	34.643917	5.885908
1.7264498873050296	33.9554	5.827126
1.7439786438872935	32.900288	5.735877
1.7615074412801288	31.67535	5.6280856
1.779036279893981	30.945965	5.5629096
1.796565160139305	29.943811	5.472094
1.814094082426564	29.269611	5.4101396
1.8316230471662298	28.646954	5.352285
1.849152054768784	28.130486	5.303818
1.8666811056447168	27.567486	5.250475
1.8842102002045273	26.226618	5.121193
1.901739338858724	25.434935	5.043306
1.9192685220178245	24.820827	4.9820504
1.9367977500923557	24.426952	4.9423633
1.9543270234928547	24.161877	4.915473
1.971856342629867	23.602337	4.8582234
1.9893857079139496	23.110287	4.807316
2.006915119755667	22.619509	4.755997
2.0244445785655945	22.220804	4.713895
2.0419740847543175	21.862291	4.675713
2.0595036387324317	21.374174	4.6232214
2.0770332409105414	20.789867	4.559591
2.094562891699263	20.323046	4.508109
2.1120925915092217	19.543447	4.4207973
2.129622340751053	19.201632	4.3819666
2.1471521398354043	187.5122	13.69351
2.1646819891729323	444.04535	21.072384
2.182211889174303	440.4922	20.987906
2.1997418402501974	452.98676	21.283485
2.2172718428113023	432.85385	20.80514
2.234801897268317	320.87277	17.912922
2.2523320040319548	17.263945	4.15499
2.269862163512935	16.806215	4.0995383
2.287392376121992	16.34585	4.043
2.304922642269869	16.008158	4.0010195
2.322452962367322	15.78155	3.9726
2.3399833368251164	15.710031	3.963588
2.357513766054032	15.736028	3.9668663
2.3750442504648586	15.394341	3.9235623
2.3925747904683963	14.911822	3.861583
2.410105386475459	14.53576	3.8125792
2.4276360388968707	14.040404	3.7470527
2.445166748143469	13.7211685	3.7042096
2.4626975146261025	13.361937	3.6553984
2.4802283387556323	13.246533	3.6395788
2.4977592209429305	13.228733	3.6371326
2.5152901615988825	13.065876	3.614675
2.5328211611343865	12.795416	3.577068
2.5503522199603523	12.702411	3.5640442
2.5678833384877024	12.544464	3.5418165
2.5854145171273712	12.566768	3.5449636
2.6029457562903064	12.427046	3.5252016
2.620477056387469	12.097921	3.4782066
2.6380084178298326	11.824777	3.4387174
2.655539841028383	11.450231	3.3838189
2.673071326394119	11.32418	3.3651419
2.6906028743380523	11.07207	3.327472
2.708134485271211	10.915492	3.3038602
2.7256661596046325	10.704597	3.2717881
2.743197897749369	10.555313	3.2488942
2.760729700116486	10.69793	3.2707691
2.778261567117063	10.596561	3.255236
2.795793499162193	10.462548	3.2345862
2.8133254966629817	10.109737	3.1795814
2.830857560030551	9.765438	3.1249702
2.8483896896760337	9.686333	3.1122873
2.865921886010578	9.521018	3.0856147
2.883454149445347	9.394609	3.0650628
2.9009864803915177	9.193552	3.032087
2.91851887926028	9.011907	3.001984
2.9360513464628384	8.885507	2.9808567
2.953583882410413	8.780147	2.9631312
2.9711164875142373	8.771577	2.9616847
2.9886491621855606	8.604839	2.9334006
3.0061819068356455	8.451966	2.9072266
3.023714721875769	8.302247	2.881362
3.041247607717225	8.348788	2.889427
3.0587805647713213	8.375807	2.8940985
3.0763135934493806	8.305068	2.8818514
3.0938466941627407	8.107984	2.8474522
3.1113798673227544	8.017077	2.8314445
3.1289131133407904	7.8416348	2.800292
3.1464464326282315	7.7177052	2.778076
3.1639798255964786	7.597425	2.7563426
3.1815132926569443	7.640802	2.7642
3.1990468342210603	7.656254	2.7669938
3.216580450700272	7.533988	2.744811
3.2341141425060416	7.3986263	2.7200415
3.251647910049847	7.1439276	2.6728127
3.2691817537431813	7.043097	2.6538835
3.286715673997555	7.05943	2.6569588
3.3042496712244938	7.1485167	2.673671
3.32178374583554	7.210344	2.6852083
3.339317898242251	7.254336	2.6933875
3.3568521288562034	7.0756493	2.6600091
3.3743864380889876	6.7999935	2.6076796
3.3919208263522127	6.6159606	2.572151
3.4094552940575023	6.4326415	2.5362654
3.4269898416164972	6.326714	2.515296
3.444524469440858	6.3855357	2.5269618
3.4620591779422587	6.4733396	2.5442758
3.479593967532391	6.596381	2.5683422
3.4971288386229658	6.5522304	2.5597324
3.5146637916257086	6.4304667	2.5358365
3.5321988269523628	6.4456296	2.5388246
3.5497339450146903	6.4098415	2.5317664
3.5672691462244708	6.343354	2.5186017
3.5848044309934988	6.2329183	2.4965813
3.60233979973359	6.0915384	2.4681041
3.619875252856575	6.0652494	2.4627726
3.6374107907743034	6.125838	2.475043
3.6549464138986427	6.1956058	2.4890974
3.6724821226414788	6.290939	2.5081744
3.690017917414714	6.2767644	2.5053473
3.7075537986302702	6.2564077	2.5012813
3.7250897667000857	6.273209	2.5046375
3.7426258220361235	6.4723935	2.54409
3.7601619650503553	6.8270426	2.612861
3.777698196154779	7.373313	2.7153845
3.7952345157614067	8.389734	2.8965037
3.8127709242822716	9.08463	3.014072
3.830307422129425	11.370474	3.3720133
3.847844009714936	30.145737	5.4905133
3.8653806874508954	97.63923	9.881256
3.882917455749409	96.75948	9.836639
3.900454315022606	96.49636	9.8232565
3.917991265682631	41.112698	6.4119186
3.9355283081416506	10.760565	3.28033
3.9530654428118495	8.656408	2.9421775
3.970602670105433	7.3895993	2.7183816
3.9881399904346244	6.4669056	2.5430112
4.005677404211669	6.3443594	2.5188012
4.023214911848827	6.429905	2.5357258
4.0407525137583855	6.4435673	2.5384183
4.058290210352644	6.341141	2.5181623
4.075828002043927	6.2372923	2.4974573
4.0933658892445814	6.175569	2.4850693
4.110903872366966	6.194239	2.488823
4.128441951823468	6.1622252	2.482383
4.145980128026488	6.0048833	2.4504864
4.163518401388452	5.9111457	2.4312847
4.181056772321807	5.9655538	2.4424484
4.1985952412390155	6.0289183	2.4553854
4.216133808552567	6.105487	2.4709284
4.233672474674966	6.089419	2.4676747
4.251211240018741	6.2187715	2.4937465
4.268750104996445	6.385439	2.5269425
4.286289070020643	7.3975043	2.7198353
4.303828135503928	9.141884	3.0235548
4.3213673018589125	29.532566	5.434387
4.3389065694982305	90.72772	9.52511
4.356445938834537	165.92564	12.881213
4.3739854102805085	171.30687	13.088425
4.391524984248844	172.18237	13.121828
4.409064661152262	136.2273	11.671645
4.426604441403504	96.57432	9.827224
4.444144325415337	75.90798	8.712519
4.461684313600543	21.889616	4.678634
4.47922440637193	22.09154	4.700164
4.496764604142329	20.23685	4.498539
4.5143049073245916	18.216433	4.268071
4.531845316331589	16.207144	4.02581
4.5493858315762195	13.37412	3.6570644
4.566926453471405	11.200194	3.3466692
4.584467182430081	9.108119	3.017966
4.602008018865218	7.9265323	2.81541
4.619548963189798	7.286655	2.6993804
4.637090015816834	6.8444405	2.616188
4.654631177159353	6.6264443	2.574188
4.672172447630417	6.519955	2.5534203
4.689713827643102	6.308683	2.5117092
4.7072553176105085	6.070414	2.463821
4.724796917945764	5.886023	2.4261127
4.742338629062015	5.7791996	2.4039967
4.759880451372434	5.7976923	2.4078398
4.777422385290215	5.689415	2.3852494
4.794964431228581	5.63973	2.3748116
4.812506589600768	5.532119	2.3520458
4.830048860820047	5.557089	2.3573477
4.847591245299709	5.528137	2.3511992
4.8651337434530655	5.5231276	2.3501334
4.882676355693457	5.44687	2.333853
4.900219082434242	5.5255213	2.3506427
4.917761924088813	5.4669323	2.3381472
4.935304881070575	5.430572	2.3303587
4.952847953792969	5.3661494	2.3164952
4.970391142669449	5.32057	2.306636
4.9879344481135055	5.335968	2.3099713
5.005477870538642	5.3905888	2.3217642
5.023021410358394	5.4464707	2.3337674
5.040565067986324	5.451157	2.3347714
5.05810884383601	5.427141	2.3296225
5.075652738321066	5.3325005	2.3092208
5.09319675185512	5.29864	2.3018775
5.110740884851836	5.236258	2.2882872
5.128285137724894	5.2164674	2.2839587
5.145829510888007	5.2260494	2.2860553
5.163374004754908	5.3345504	2.3096645
5.1809186197393595	5.300716	2.3023283
5.198463356255145	5.2782173	2.2974372
5.216008214716077	5.2961826	2.3013437
5.233553195535998	5.2749643	2.296729
5.251098299128764	5.229133	2.2867298
5.268643525908272	5.2424965	2.28965
5.286188876288432	5.275531	2.2968524
5.3037343506831895	5.332122	2.3091388
5.32127994950651	5.3008733	2.3023624
5.3388256731723915	5.208195	2.2821472
5.356371522094851	5.1524615	2.2699034
5.373917496687938	5.199345	2.2802072
5.391463597365729	5.2277923	2.2864366
5.40900982454232	5.189945	2.278145
5.426556178631843	5.1775684	2.275427
5.444102660048449	5.1280084	2.2645106
5.4616492692063225	5.162755	2.2721696
5.479196006519669	5.194498	2.279144
5.496742872402727	5.1576176	2.2710388
5.514289867269756	5.112439	2.2610703
5.531836991535049	5.0577645	2.2489474
5.549384245612924	5.0470715	2.246569
5.566931629917724	5.0373983	2.2444148
5.584479144863822	5.0337243	2.2435963
5.6020267908656205	5.031528	2.2431068
5.619574568337545	5.0406427	2.2451377
5.637122477694054	5.046417	2.2464232
5.654670519349629	5.0767045	2.2531543
5.672218693718784	5.074211	2.252601
5.689767001216059	5.076389	2.2530842
5.707315442256021	5.013781	2.2391474
5.724864017253266	4.9789205	2.2313495
5.7424127266224225	5.0072308	2.2376842
5.75996157077814	4.989622	2.2337463
5.777510550135105	5.0860586	2.2552292
5.795059665108022	5.076542	2.2531183
5.812608916111639	5.198206	2.2799575
5.830158303560715	5.3710556	2.3175538
5.847707827870055	5.4088755	2.3256989
5.86525748945448	5.5149264	2.348388
5.8828072887288485	5.528114	2.3511941
5.900357226108044	5.5306892	2.3517418
5.917907302006979	5.5643206	2.3588812
5.9354575168406	6.1042137	2.4706707
5.9530078710238765	6.681708	2.5849
5.970558364971812	7.2612395	2.6946688
5.988108999099438	7.6582284	2.7673504
6.005659773821818	8.252334	2.8726876
6.023210689554039	7.9937973	2.8273304
6.040761746711227	8.379036	2.8946564
6.058312945708531	7.7740536	2.788199
6.075864286961132	7.2298427	2.6888366
6.093415770884244	6.6481175	2.5783944
6.1109673978931065	6.117556	2.4733694
6.128519168402993	5.578054	2.3617904
6.146071082829204	5.428663	2.3299491
6.163623141587075	5.256306	2.2926636
6.181175345091969	5.1354785	2.2661595
6.198727693759281	5.049404	2.247088
6.216280188004435	5.0699334	2.2516513
6.233832828242885	5.0288186	2.2425027
6.251385614890126	5.0978665	2.2578456
6.268938548361669	5.11297	2.2611878
6.286491629073067	5.0745215	2.2526698
6.304044857439898	5.0673485	2.2510772
6.321598233877777	4.9661627	2.228489
6.339151758802344	4.932977	2.2210307
6.356705432629277	4.9279356	2.2198954
6.37425925577428	4.965234	2.2282805
6.391813228653095	4.9897623	2.2337775
6.409367351681486	5.004281	2.237025
6.426921625275259	4.9761534	2.2307293
6.44447604985025	5.0214148	2.2408514
6.46203062582232	5.007703	2.2377896
6.47958535360737	5.036482	2.2442107
6.497140233621328	4.9714303	2.2296705
6.514695266280161	4.9861436	2.2329674
6.532250451999859	5.0333323	2.243509
6.549805791196454	5.0358734	2.2440753
6.567361284286002	5.015165	2.2394564
6.584916931684597	4.9748325	2.2304332
6.602472733808367	5.0074763	2.237739
6.6200286910734665	4.994786	2.2349017
6.637584803896092	4.952362	2.2253904
6.655141072692462	4.9170895	2.217451
6.672697497878842	4.9474044	2.224276
6.690254079871514	4.966275	2.2285142
6.707810819086808	4.974884	2.230445
6.725367715941078	4.981811	2.231997
6.742924770850719	5.017973	2.2400832
6.760481984232151	5.036056	2.2441158
6.778039356501836	5.0196104	2.2404487
6.795596888076266	4.9279065	2.219889
6.813154579371963	4.8655424	2.2057974
6.830712430805492	4.879731	2.2090113
6.84827044279344	4.937115	2.221962
6.865828615752445	4.9144707	2.2168605
6.883386950099159	4.965768	2.2284002
6.900945446250287	4.9628572	2.2277472
6.918504104622553	4.9882874	2.2334476
6.936062925632727	5.0100307	2.2383099
6.953621909697607	5.086679	2.2553668
6.971181057234028	5.1390038	2.266937
6.988740368658859	5.167213	2.2731504
7.006299844389007	5.201159	2.280605
7.023859484841407	5.2056117	2.281581
7.041419290433036	5.242881	2.289734
7.058979261580902	5.3803325	2.3195543
7.0765393987020495	5.5418377	2.3541107
7.094099702213559	5.9201956	2.4331453
7.111660172532549	6.30037	2.5100539
7.129220810076164	6.6297836	2.5748367
7.146781615261595	7.2487826	2.6923563
7.16434258850606	7.4333754	2.7264216
7.181903730226821	7.9526353	2.8200417
7.1994650408411704	8.083672	2.84318
7.217026520766437	8.2164955	2.866443
7.234588170419983	8.386873	2.89601
7.252149990219215	8.340482	2.8879893
7.269711980581568	8.295292	2.8801548
7.2872741419245175	8.136533	2.8524609
7.304836474665574	7.76953	2.7873876
7.322398979222286	7.469523	2.7330427
7.339961656012233	7.1708775	2.6778493
7.357524505453039	6.785234	2.6048481
7.375087527962357	6.495924	2.5487103
7.392650723957886	6.2174535	2.493482
7.410214093857353	5.9004054	2.429075
7.427777638078528	5.6547837	2.3779788
7.445341357039213	5.4394994	2.3322735
7.4629052511572525	5.352849	2.3136225
7.480469320850524	5.332514	2.3092237
7.498033566536948	5.331933	2.3090978
7.5155979886344735	5.289923	2.2999833
7.5331625875610975	5.154091	2.2702622
7.550727363734844	5.0944524	2.2570894
7.568292317573788	5.0571065	2.2488012
7.585857449496025	5.115751	2.2618024
7.603422759919705	5.1309686	2.2651641
7.620988249263007	5.139634	2.267076
7.638553917944147	5.142669	2.2677455
7.656119766381391	5.11904	2.2625296
7.673685794993023	5.1069455	2.2598553
7.691252004197388	5.06447	2.2504377
7.70881839441285	5.1120434	2.2609828
7.726384966057826	5.198626	2.2800496
7.743951719550762	5.2371907	2.288491
7.761518655310149	5.289831	2.2999632
7.779085773754511	5.300587	2.3023005
7.796653075302419	5.283058	2.2984905
7.814220560372475	5.24611	2.290439
7.831788229383323	5.264081	2.2943585
7.8493560827536495	5.2667413	2.294938
7.866924120902174	5.2829103	2.2984583
7.884492344247663	5.2498355	2.291252
7.9020607532089135	5.2743077	2.296586
7.919629348204771	5.3308516	2.3088636
7.937198129654115	5.4197564	2.328037
7.954767097975865	5.427225	2.3296406
7.972336253588986	5.4101896	2.3259814
7.989905596912472	5.3956017	2.3228436
8.007475128365371	5.4034657	2.3245356
8.025044848366756	5.4067874	2.32525
8.042614757335754	5.523428	2.3501973
8.060184855691523	5.6389165	2.3746402
8.07775514385327	5.7275977	2.39324
8.095325622240228	5.7596583	2.3999288
8.112896291271687	5.771607	2.402417
8.130467151366968	5.8295875	2.4144537
8.148038202945436	5.9124293	2.4315488
8.165609446426497	5.9730096	2.4439743
8.183180882229594	6.017171	2.4529922
8.200752510774217	5.991341	2.4477217
8.218324332479893	5.9983206	2.449147
8.235896347766193	5.94292	2.4378104
8.253468557052724	5.8901973	2.4269729
8.27104096075914	5.891961	2.4273362
8.288613559305137	5.951361	2.439541
8.306186353110448	6.0652423	2.4627712
8.32375934259485	6.1745186	2.4848578
8.341332528178162	6.1653547	2.4830132
8.358905910280246	6.1811275	2.4861875
8.376479489321003	6.1639757	2.4827356
8.394053265720377	6.2519703	2.500394
8.411627239898356	6.300707	2.5101209
8.42920141227497	6.272585	2.504513
8.44677578327029	6.2489033	2.4997807
8.464350353304427	6.200359	2.490052
8.48192512279754	6.092216	2.4682415
8.499500092169827	6.032875	2.456191
8.51707526184153	6.012072	2.4519527
8.534650632232934	6.067362	2.4632015
8.552226203764365	6.1582446	2.481581
8.569801976856192	6.1689005	2.4837272
8.587377951928834	6.1974735	2.4894726
8.60495412940274	6.2118506	2.4923584
8.622530509698416	6.2388043	2.4977598
8.6401070932364	6.3326335	2.5164723
8.657683880437283	6.4382887	2.5373783
8.675260871721695	6.6505036	2.578857
8.692838067510303	6.8568764	2.618564
8.710415468223834	6.977045	2.6414096
8.727993074283043	7.0918465	2.663052
8.745570886108737	7.086264	2.6620038
8.763148904121765	7.1429334	2.6726267
8.78072712874302	7.2016068	2.6835809
8.798305560393441	7.417665	2.723539
8.815884199494006	7.599168	2.7566588
8.833463046465745	7.7180333	2.7781348
8.851042101729728	7.8231564	2.7969906
8.86862136570707	8.07369	2.841424
8.886200838818924	8.2445345	2.8713298
8.903780521486505	8.324256	2.8851786
8.921360414131055	8.426984	2.9029267
8.938940517173874	8.493803	2.914413
8.956520831036297	8.688914	2.9476964
8.97410135613971	8.984755	2.997458
8.99168209290554	9.193035	3.0320017
9.009263041755265	9.449621	3.0740237
9.026844203110405	9.721885	3.1179936
9.044425577392525	9.826298	3.1346927
9.062007165023239	9.8895445	3.1447647
9.079588966424197	10.152173	3.1862476
9.097170982017108	10.267469	3.2042892
9.11475321222372	11.310707	3.3631394
9.132335657465825	12.249884	3.4999833
9.149918318165264	12.3973055	3.5209808
9.167501194743924	12.8994055	3.5915742
9.18508428762374	12.527363	3.5394015
9.202667597226693	12.463614	3.5303845
9.220251123974803	12.130681	3.4829128
9.237834868290143	11.83352	3.4399884
9.255418830594836	11.726513	3.4243996
9.273003011311046	11.208495	3.347909
9.290587410860985	10.921337	3.3047447
9.308172029666911	10.261346	3.2033336
9.32575686815113	10.132477	3.183155
9.343341926735997	8.892792	2.9820783
9.360927205843916	8.639406	2.9392867
9.378512705897327	8.32614	2.8855052
9.396098427318728	8.074367	2.841543
9.413684370530664	7.9450045	2.8186884
9.431270535955722	7.9243674	2.8150253
9.448856924016539	7.8819485	2.8074808
9.466443535135806	7.769218	2.7873316
9.484030369736251	7.72862	2.7800395
9.501617428240658	7.6910048	2.773266
9.519204711071852	7.6284833	2.761971
9.536792218652714	7.7162	2.7778049
9.55437995140617	7.769699	2.787418
9.571967909755191	7.8792534	2.8070009
9.589556094122802	7.872555	2.8058074
9.60714450493207	7.8997374	2.8106472
9.624733142606116	7.884058	2.8078566
9.642322007568108	7.9288363	2.815819
9.659911100241267	7.924694	2.8150833
9.677500421048851	7.887397	2.808451
9.695089970414175	7.907543	2.8120353
9.712679748760609	7.9065285	2.811855
9.730269756511557	8.026885	2.833176
9.747859994090492	8.102453	2.8464808
9.765450461920915	8.208119	2.8649817
9.78304116042639	8.265653	2.8750048
9.800632090030527	8.276099	2.876821
9.81822325115699	8.309643	2.8826451
9.835814644229481	8.323525	2.885052
9.853406269671762	8.300934	2.881134
9.870998127907646	8.278585	2.877253
9.888590219360985	8.234769	2.8696287
9.906182544455698	8.1865225	2.8612099
9.923775103615734	8.197576	2.8631408
9.941367897265108	8.145963	2.8541133
9.958960925827878	8.159379	2.8564627
9.97655418972816	8.20738	2.8648527
9.994147689390106	8.163869	2.8572485
10.011741425237934	8.169453	2.8582253
10.029335397695904	8.135483	2.8522768
10.04692960718833	8.065697	2.840017
10.06452405413958	8.075163	2.8416831
10.082118738974064	8.109837	2.8477774
10.099713662116246	8.154121	2.8555422
10.117308823990651	8.170055	2.858331
10.134904225021844	8.209843	2.8652823
10.152499865634445	8.226898	2.868257
10.170095746253125	8.196169	2.8628953
10.18769186730261	8.128807	2.8511064
10.205288229207675	8.115245	2.848727
10.222884832393145	8.130525	2.8514075
10.2404816772839	8.092088	2.8446596
10.258078764304868	8.02526	2.832889
10.275676093881035	8.000793	2.8285675
10.293273666437438	8.006577	2.8295894
10.310871482399158	8.04027	2.835537
10.32846954219134	8.01313	2.8307474
10.346067846239173	8.033054	2.8342643
10.363666394967908	8.068827	2.840568
10.38126518880283	8.10923	2.847671
10.398864228169298	8.125724	2.8505654
10.416463513492713	8.126418	2.8506873
10.434063045198531	8.113335	2.8483915
10.451662823712262	8.177008	2.8595467
10.469262849459467	8.154027	2.8555257
10.486863122865758	8.004338	2.8291938
10.504463644356806	7.914318	2.8132398
10.522064414358338	7.8997335	2.8106465
10.539665433296118	7.8943887	2.8096955
10.557266701595987	7.864241	2.8043253
10.574868219683818	7.7343774	2.7810748
10.592469987985552	7.673622	2.7701304
10.610072006927185	7.554646	2.7485716
10.627674276934751	7.481218	2.7351816
10.64527679843435	7.438546	2.7273698
10.662879571852143	7.3772087	2.7161016
10.680482597614331	7.270799	2.696442
10.698085876147173	7.0657244	2.658143
10.715689407876988	6.924217	2.6313908
10.733293193230146	6.86286	2.6197062
10.750897232633072	6.7801847	2.6038787
10.76850152651225	6.713229	2.59099
10.786106075294207	6.6222324	2.5733697
10.803710879405534	6.5080347	2.551085
10.821315939272877	6.38682	2.5272157
10.83892125532294	6.3514485	2.5202081
10.856526827982472	6.2675943	2.5035164
10.874132657678285	6.304035	2.5107837
10.891738744837243	6.261986	2.502396
10.909345089886271	6.2247515	2.4949453
10.926951693252343	6.0839667	2.46657
10.944558555362494	6.0054784	2.4506078
10.96216567664381	5.9305286	2.4352677
10.979773057523436	5.9083858	2.4307172
10.997380698428573	5.8763504	2.4241185
11.014988599786477	5.777053	2.4035501
11.032596762024461	5.7082925	2.3892033
11.050205185569892	5.653122	2.3776295
11.067813870850198	5.6194587	2.3705397
11.085422818292859	5.547555	2.3553247
11.10303202832541	5.463913	2.3375015
11.120641501375454	5.3539634	2.3138633
11.138251237870636	5.236835	2.2884133
11.155861238238671	5.226447	2.2861423
11.173471502907317	5.2170544	2.2840872
11.191082032304402	5.192054	2.2786078
11.208692826857805	5.0758157	2.252957
11.226303886995465	4.9679933	2.2288995
11.243915213145371	4.8893037	2.2111769
11.261526805735578	4.83394	2.1986222
11.279138665194196	4.8131404	2.193887
11.296750791949393	4.792606	2.189202
11.314363186429393	4.760003	2.1817431
11.331975849062479	4.6679163	2.160536
11.34958878027699	4.5953293	2.143672
11.36720198050133	4.548301	2.1326747
11.384815450163948	4.577438	2.1394947
11.402429189693366	4.5788035	2.139814
11.420043199518153	4.537185	2.1300669
11.437657480066942	63.501045	7.9687543
11.455272031768422	85.169334	9.228724
11.472886855051353	107.52466	10.36941
11.490501950344528	99.071976	9.95349
11.508117318076819	84.45136	9.189742
11.52573295867715	45.8648	6.7723556
11.543348872574514	4.1492867	2.03698
11.560965060197946	4.080743	2.0200849
11.57858152197655	4.046552	2.0116043
11.59619825833949	4.0496135	2.012365
11.613815269715985	4.0440445	2.010981
11.631432556535323	38.493366	6.2043023
11.649050119226837	82.981255	9.109405
11.666667958219929	93.366554	9.662637
11.68428607394406	107.67309	10.376564
11.701904466828756	82.52881	9.084537
11.719523137303586	65.40553	8.087369
11.737142085798196	4.5989795	2.1445231
11.754761312742286	3.7086627	1.9257889
11.772380818565619	3.6438613	1.9088901
11.790000603698015	3.6380916	1.9073782
11.80762066856935	3.6552205	1.9118631
11.825241013609572	3.6257908	1.904151
11.842861639248683	3.5902538	1.8947965
11.860482545916748	3.511332	1.8738549
11.878103734043883	3.4728205	1.8635505
11.895725204060282	3.3954859	1.8426844
11.91334695639619	3.3423696	1.8282149
11.930968991481919	3.2910516	1.8141255
11.948591309747824	3.3275487	1.824157
11.966213911624347	3.3456066	1.8290999
11.98383679754198	3.340454	1.827691
12.001459967931268	3.301633	1.8170396
12.019083423222835	3.25166	1.803236
12.036707163847352	3.2229185	1.7952489
12.05433119023556	3.1923428	1.7867129
12.071955502818259	3.197987	1.7882917
12.089580102026313	3.2073185	1.7908988
12.107204988290643	3.1846733	1.7845653
12.12483016204224	3.1463265	1.7737888
12.142455623712152	3.0755634	1.7537284
12.16008137373149	3.0655591	1.7508738
12.177707412531431	3.1196282	1.7662469
12.19533374054321	3.133078	1.7700503
12.212960358198126	3.106127	1.7624208
12.230587265927545	3.0426078	1.7443073
12.248214464162889	3.035462	1.7422577
12.265841953335649	2.9838638	1.7273865
12.283469733877375	2.9494183	1.7173871
12.301097806219685	2.935358	1.7132887
12.31872617079425	2.9412098	1.7149956
12.336354828032825	2.9514654	1.7179829
12.353983778367205	2.924401	1.710088
12.371613022229262	2.952614	1.7183173
12.389242560050928	2.957291	1.7196776
12.406872392264201	2.9698834	1.723335
12.424502519301143	2.9034057	1.7039382
12.442132941593874	2.8396182	1.6851166
12.459763659574586	2.771336	1.664733
12.477394673675532	2.7672718	1.6635119
12.49502598432903	2.7932534	1.6713029
12.51265759196746	2.7867475	1.6693554
12.530289497023267	2.7896998	1.6702394
12.547921699928967	2.798839	1.6729732
12.565554201117134	2.8480124	1.6876055
12.583187001020404	2.8502026	1.6882542
12.600820100071486	2.8026247	1.6741041
12.618453498703152	2.790171	1.6703805
12.636087197348235	2.7857	1.6690416
12.65372119643964	2.7900949	1.6703577
12.671355496410326	2.7789836	1.6670284
12.68899009769333	2.8226242	1.6800667
12.706625000721749	2.8723972	1.6948148
12.724260205928752	2.890096	1.7000282
12.741895713747551	2.8744738	1.6954273
12.759531524611454	2.9235976	1.709853
12.777167638953818	2.9418097	1.7151705
12.794804057208072	2.965092	1.7219442
12.812440779807702	2.9971616	1.7312312
12.830077807186271	3.1576128	1.7769673
12.847715139777405	3.180149	1.7832973
12.865352778014795	3.3813872	1.8388549
12.882990722332197	3.515228	1.8748941
12.90062897316344	3.5976338	1.8967429
12.918267530942412	3.6904123	1.9210446
12.935906396103071	3.5422735	1.8820928
12.953545569079449	3.6961346	1.9225334
12.971185050305628	3.505347	1.8722572
12.988824840215775	3.5220647	1.8767165
13.006464939244115	3.5639427	1.8878407
13.024105347824943	3.3875172	1.8405209
13.041746066392617	3.5100386	1.8735096
13.05938709538157	3.3282757	1.8243562
13.077028435226296	3.4202242	1.8493848
13.094670086361363	3.3389971	1.8272923
13.112312049221401	3.2223759	1.7950977
13.129954324241112	3.0969913	1.759827
13.147596911855258	2.8764563	1.6960119
13.165239812498685	2.8425057	1.6859732
13.182883026606293	2.7486818	1.6579149
13.200526554613058	2.69776	1.642486
13.218170396954017	2.6762412	1.6359221
13.235814554064284	2.6973267	1.642354
13.253459026379034	2.7240632	1.6504736
13.271103814333523	2.6938744	1.6413026
13.288748918363058	2.6766982	1.6360618
13.306394338903031	2.6714964	1.6344713
13.32404007638889	2.64185	1.6253768
13.341686131256164	2.6662035	1.6328514
13.359332503940449	2.6483624	1.627379
13.376979194877402	2.6585958	1.6305201
13.394626204502751	2.6770303	1.6361632
13.412273533252307	2.7096772	1.6461097
13.429921181561937	2.7362158	1.6541511
13.447569149867581	2.7237704	1.6503849
13.465217438605247	2.701699	1.6436846
13.482866048211022	2.6690412	1.63372
13.500514979121052	2.6978924	1.6425263
13.518164231771568	2.6839907	1.638289
13.535813806598844	2.6494029	1.6276987
13.553463704039254	2.6351607	1.6233178
13.571113924529229	2.6341252	1.6229988
13.588764468505275	2.6564097	1.6298496
13.606415336403956	2.713551	1.6472859
13.624066528661917	2.7454243	1.6569322
13.641718045715882	2.7937827	1.6714612
13.659369888002635	2.8131554	1.6772463
13.67702205595903	2.8807502	1.6972773
13.694674550021993	2.992535	1.7298945
13.712327370628532	3.0940304	1.7589856
13.729980518215713	3.153863	1.7759118
13.747633993220681	3.1746738	1.7817614
13.765287796080647	3.1796973	1.7831706
13.7829419272329	3.2068317	1.7907629
13.800596387114801	3.2367218	1.7990892
13.818251176163775	3.253339	1.8037015
13.835906294817324	3.2790897	1.8108257
13.853561743513023	3.3685596	1.8353636
13.871217522688525	3.4592175	1.8598971
13.888873632781538	3.499395	1.870667
13.906530074229858	3.4765716	1.8645567
13.92418684747135	3.4802477	1.8655422
13.941843952943948	3.4765663	1.8645552
13.959501391085665	3.4454293	1.8561867
13.977159162334578	3.3802817	1.8385543
13.994817267128846	3.3763006	1.8374712
14.012475705906693	3.308016	1.8187952
14.030134479106424	3.259199	1.8053252
14.047793587166414	3.1643298	1.7788563
14.065453030525108	3.0507367	1.7466358
14.083112809621026	2.9417295	1.7151471
14.100772924892766	2.8885822	1.6995829
14.118433376778997	2.8444686	1.6865553
14.136094165718458	2.8284683	1.6818051
14.153755292149969	2.7799492	1.667318
14.171416756512416	2.7459092	1.6570785
14.189078559244768	2.6999748	1.64316
14.20674070078606	2.6262224	1.6205623
14.224403181575408	2.5559523	1.5987346
14.242066002051999	2.4834702	1.5759029
14.259729162655093	2.4616196	1.568955
14.277392663824022	2.4289234	1.5585004
14.295056505998208	2.4221709	1.5563325
14.312720689617128	2.4186647	1.5552057
14.330385215120348	2.4082713	1.5518606
14.348050082947497	2.4015405	1.5496905
14.3657152935383	2.424861	1.5571965
14.383380847332528	2.4531517	1.566254
14.401046744770051	2.4610093	1.5687604
14.418712986290798	2.441412	1.5625018
14.436379572334793	2.4222152	1.5563468
14.454046503342123	2.395508	1.5477428
14.471713779752946	2.378101	1.5421093
14.489381402007504	2.4114697	1.5528908
14.507049370546113	2.4386537	1.5616189
14.524717685809168	2.4283354	1.5583117
14.542386348237134	2.3906589	1.5461756
14.560055358270553	2.377518	1.5419202
14.577724716350051	2.4172018	1.5547353
14.595394422916325	2.4399083	1.5620205
14.61306447841015	2.479709	1.5747092
14.63073488327237	2.497738	1.5804234
14.648405637943917	2.4987087	1.5807304
14.6660767428658	2.451076	1.5655912
14.683748198479094	2.4499605	1.5652349
14.701420005224954	2.5061564	1.5830845
14.719092163544628	2.5842025	1.6075455
14.73676467387942	2.6321301	1.6223841
14.754437536670727	2.6784823	1.6366069
14.772110752360014	2.7240129	1.6504583
14.78978432138882	2.72202	1.6498545
14.807458244198777	2.6991763	1.642917
14.82513252123159	2.636641	1.6237737
14.842807152929028	2.643187	1.6257881
14.860482139732962	2.6696248	1.6338986
14.87815748208531	2.6695914	1.6338885
14.8958331804281	2.6844912	1.6384417
14.91350923520342	2.6530366	1.6288145
14.931185646853438	2.7009661	1.6434616
14.948862415820408	2.6961792	1.6420046
14.966539542546656	2.6871076	1.6392399
14.98421702747459	2.6382341	1.6242642
15.001894871046696	2.653941	1.6290921
15.019573073705542	2.6702902	1.6341022
15.037251635893766	2.646817	1.6269041
15.054930558054092	2.6363392	1.6236807
15.072609840629323	2.5992424	1.6122166
15.090289484062351	2.6898	1.640061
15.107969488796124	2.840806	1.685469
15.125649855273691	3.0892289	1.7576202
15.14333058393817	3.466753	1.8619219
15.161011675232768	4.0708785	2.0176418
15.17869312960076	4.7837152	2.1871705
15.196374947485506	5.4716034	2.339146
15.214057129330447	6.78141	2.604114
15.231739675579114	8.917185	2.9861655
15.249422586675102	13.581919	3.6853654
15.267105863062092	18.22154	4.2686696
15.284789505183847	25.555431	5.0552382
15.302473513484218	30.62987	5.5344257
15.320157888407127	34.899937	5.9076166
15.337842630396578	33.797874	5.813594
15.355527739896656	30.784777	5.5484033
15.37321321735153	23.862486	4.8849244
15.39089906320545	16.151325	4.0188713
15.408585277902748	10.353771	3.2177277
15.42627186188783	6.43133	2.5360067
15.443958815605198	4.571705	2.1381545
15.461646139499424	3.7525775	1.937157
15.479333834015168	3.309968	1.8193318
15.497021899597165	3.0165946	1.7368346
15.514710336690234	2.828946	1.6819471
15.53239914573928	2.7188203	1.6488845
15.550088327189297	2.629974	1.6217195
15.567777881485336	2.587982	1.6087205
15.58546780907256	2.5890715	1.6090592
15.6031581103962	2.5713847	1.6035538
15.620848785901568	2.5473928	1.5960554
15.638539836034063	2.5208554	1.5877202
15.656231261239173	2.487637	1.5772245
15.673923061962451	2.4707425	1.5718596
15.691615238649552	2.4702313	1.571697
15.709307791746202	2.4452384	1.5637258
15.727000721698221	2.3883865	1.5454406
15.744694028951498	2.320389	1.5232823
15.76238771395202	2.3206394	1.5233645
15.780081777145844	2.3474944	1.5321535
15.797776218979125	2.3770823	1.5417789
15.815471039898094	2.3583624	1.535696
15.833166240349064	2.3809538	1.543034
15.850861820778437	2.413177	1.5534403
15.868557781632699	2.4691203	1.5713434
15.886254123358412	2.4759517	1.5735157
15.903950846402232	2.478671	1.5743796
15.921647951210897	2.4984038	1.580634
15.939345438231225	2.5286942	1.5901868
15.957043307910133	2.516071	1.5862128
15.974741560694602	2.5198987	1.5874189
15.992440197031714	2.525631	1.5892234
16.01013921736862	2.5233128	1.5884938
16.02783862215259	2.5105722	1.5844785
16.045538411830933	2.5299752	1.5905895
16.06323858685107	2.528837	1.5902318
16.080939147660512	2.5156155	1.5860692
16.09864009470684	2.4721723	1.5723143
16.11634142843774	2.4251955	1.5573039
16.134043149300954	2.4247718	1.5571679
16.15174525774433	2.4141335	1.5537483
16.169447754215817	2.3808937	1.5430145
16.18715063916342	2.4079807	1.551767
16.204853913035244	2.4211621	1.5560083
16.222557576279478	2.4645736	1.5698961
16.240261629344403	22.47545	4.740828
16.257966072678386	43.025536	6.5593853
16.275670906729868	38.139652	6.1757307
16.293376131947387	2.5623794	1.6007434
16.31108174877957	2.5593202	1.5997876
16.328787757675133	2.5803235	1.6063385
16.34649415908287	2.5820737	1.6068832
16.364200953451657	2.6413553	1.6252247
16.38190814123048	2.6817262	1.6375977
16.39961572286839	2.7223265	1.6499474
16.41732369881455	2.734265	1.6535614
16.43503206951817	2.7361267	1.6541241
16.45274083542859	2.8026707	1.6741179
16.47044999699522	2.8646197	1.6925187
16.488159554667558	2.900432	1.7030655
16.505869508895184	2.9206975	1.7090048
16.523579860127786	2.9807034	1.7264713
16.541290608815117	2.994064	1.7303364
16.559001755407035	3.0463386	1.7453763
16.57671330035348	3.130815	1.769411
16.59442524410448	3.2792852	1.8108797
16.61213758711015	3.459799	1.8600535
16.629850329820705	3.5360208	1.880431
16.647563472686436	3.5573204	1.886086
16.665277016157724	3.4839263	1.8665279
16.682990960685053	3.4583104	1.8596532
16.70070530671898	3.4526985	1.8581438
16.718420054710155	3.5099683	1.8734909
16.736135205109335	3.5671895	1.8887005
16.753850758367335	3.5856323	1.8935766
16.771566714935087	3.6170123	1.9018444
16.789283075263597	3.6477232	1.9099014
16.80699983980398	3.7256334	1.93019
16.82471700900741	3.7975073	1.9487194
16.84243458332518	3.8714337	1.9675959
16.860152563208665	3.9775486	1.9943793
16.87787094910932	4.057474	2.0143173
16.89558974147871	4.16173	2.040032
16.913308940768466	4.2149787	2.0530412
16.931028547430333	4.2630982	2.064727
16.94874856191613	4.274035	2.067374
16.966468984677785	4.350736	2.085842
16.98418981616729	4.403798	2.098523
17.00191105683676	4.4528008	2.110166
17.019632707138374	4.469183	2.1140442
17.03735476752442	4.451063	2.1097543
17.05507723844728	4.4955416	2.1202693
17.072800120359403	4.6191354	2.1492174
17.090523413713353	4.700843	2.1681428
17.108247118961785	4.709453	2.1701274
17.125971236557437	4.6859965	2.1647162
17.143695766953133	4.671884	2.1614542
17.161420710601806	4.6764503	2.1625102
17.179146067956477	4.6925216	2.1662228
17.19687183947025	4.673422	2.16181
17.21459802559634	4.6794653	2.1632073
17.232324626788028	4.645181	2.1552682
17.25005164349871	4.5983834	2.1443841
17.267779076181863	4.544113	2.1316926
17.285506925291074	4.522381	2.126589
17.30323519127999	4.5145774	2.1247535
17.320963874602384	4.5244284	2.1270704
17.33869297571211	4.491089	2.1192188
17.356422495063114	4.4607205	2.1120417
17.37415243310944	4.49006	2.118976
17.391882790305218	4.5385075	2.1303773
17.40961356710468	4.579405	2.1399543
17.42734476396215	4.5758734	2.1391292
17.445076381332044	4.549796	2.1330252
17.462808419668868	4.5986466	2.1444454
17.48054087942723	4.7274923	2.1742797
17.498273761061835	4.875436	2.2080388
17.51600706502747	5.235035	2.28802
17.533740791779024	5.850936	2.4188707
17.551474941771485	6.7989354	2.6074767
17.56920951545993	8.654552	2.941862
17.586944513299528	9.884006	3.143884
17.60467993574556	12.767757	3.5732
17.622415783253373	15.473335	3.9336162
17.64015205627843	18.424477	4.292374
17.657888755276293	20.736658	4.553752
17.675625880702604	22.400438	4.73291
17.69336343301311	20.950882	4.5772133
17.71110141266366	18.82427	4.3386946
17.728839820110178	15.942339	3.992786
17.746578655808705	12.62478	3.5531366
17.764317920215372	10.432094	3.229875
17.7820576137864	8.8032465	2.9670265
17.79979773697811	7.3894215	2.718349
17.81753829024692	6.0280647	2.4552116
17.835279274049356	5.2325172	2.2874696
17.85302068884201	4.550476	2.1331844
17.870762535081607	4.1604486	2.0397177
17.888504813224934	3.904326	1.9759368
17.90624752372891	3.6858163	1.919848
17.923990667050536	3.5962083	1.8963672
17.941734243646895	3.5587046	1.8864529
17.959478253975185	3.5468256	1.8833017
17.9772226984927	3.5291293	1.8785977
17.994967577656833	3.4982848	1.8703703
18.01271289192506	3.4455526	1.85622
18.030458641754965	3.359327	1.8328468
18.04820482760425	3.305339	1.8180592
18.06595144993067	3.2961261	1.8155236
18.083698509192125	3.2916248	1.8142835
18.101446005846576	3.2912252	1.8141735
18.119193940352105	3.2463384	1.8017598
18.136942313166887	3.2197442	1.7943646
18.1546911247492	3.1915274	1.7864846
18.1724403755574	3.2285986	1.7968302
18.19019006604997	3.213506	1.7926254
18.207940196685467	3.1623213	1.7782917
18.225690767922575	3.0987298	1.7603209
18.243441780220046	3.0888584	1.7575148
18.261193234036764	3.1499777	1.7748177
18.278945129831676	3.126022	1.768056
18.29669746806386	3.0474114	1.7456837
18.314450249192483	2.9714427	1.7237873
18.3322034736768	2.950785	1.7177849
18.349957141976184	2.9867952	1.7282346
18.3677112545501	2.990308	1.7292507
18.385465811858108	3.0074077	1.7341878
18.403220814359884	3.0517144	1.7469157
18.420976262515172	3.071849	1.7526691
18.43873215678387	3.1094449	1.7633618
18.456488497625923	3.120087	1.7663767
18.474245285501407	3.1837647	1.7843107
18.492002520870486	3.2434175	1.8009491
18.50976020419343	3.3468618	1.8294431
18.527518335930615	3.6584466	1.9127066
18.545276916542516	4.2436047	2.0600011
18.563035946489688	4.3996153	2.097526
18.580795426232832	4.7382174	2.1767447
18.598555356232698	4.602687	2.1453874
18.616315736950185	4.896142	2.2127228
18.63407656884626	4.6040344	2.1457014
18.65183785238201	4.7883663	2.1882336
18.669599588018617	4.66277	2.1593447
18.68736177621737	4.637227	2.153422
18.705124417439652	4.605966	2.1461515
18.72288751214696	4.373841	2.091373
18.740651060800886	4.5289235	2.1281269
18.758415063863115	4.317303	2.0778122
18.77617952179546	4.491849	2.1193984
18.793944435059814	4.19374	2.0478623
18.811709804118184	4.151289	2.0374713
18.829475629432675	4.092187	2.0229154
18.8472419114655	3.953964	1.9884577
18.86500865067897	4.10559	2.0262256
18.88277584753551	3.7827303	1.9449242
18.90054350249763	3.7430995	1.9347092
18.918311616027957	3.4200184	1.8493292
18.936080188589226	3.310819	1.8195655
18.953849220644265	3.0275192	1.7399768
18.971618712656007	2.8679724	1.6935089
18.9893886650875	2.8375723	1.6845095
19.007159078401887	7.9907293	2.8267877
19.024929953062408	32.823616	5.72919
19.042701289532435	32.76834	5.724364
19.060473088275405	25.340813	5.033966
19.07824534975489	2.6489305	1.6275536
19.096018074434568	2.6569073	1.6300023
19.113791262778197	2.674871	1.6355033
19.13156491524966	2.6535974	1.6289866
19.149339032312945	2.665323	1.6325817
19.167113614432136	2.6320336	1.6223544
19.184888662071433	2.6179981	1.6180229
19.202664175695123	2.5563493	1.5988587
19.220440155767623	2.5371838	1.592854
19.238216602753447	2.5131984	1.585307
19.2559935171172	2.546025	1.5956268
19.27377089932361	2.569371	1.6029258
19.291548749837514	2.563339	1.6010431
19.309327069123835	2.530541	1.5907674
19.32710585764763	2.505654	1.5829258
19.344885115874032	2.5086672	1.5838773
19.362664844268313	2.4642036	1.5697782
19.380445043295822	2.4543202	1.566627
19.39822571342203	2.4723108	1.5723584
19.41600685511252	2.4936247	1.5791215
19.43378846883297	2.5107596	1.5845376
19.451570555049173	2.5220768	1.5881048
19.469353114227037	2.5337403	1.5917727
19.48713614683254	2.5009763	1.5814475
19.50491965333182	2.4949794	1.5795504
19.52270363419109	2.5039773	1.582396
19.540488089876686	2.5248358	1.5889732
19.55827302085503	2.5260265	1.5893478
19.576058427592674	2.52316	1.5884458
19.593844310556282	2.5195413	1.5873063
19.611630670212598	2.5228012	1.5883328
19.629417507028506	2.5277944	1.5899038
19.64720482147098	2.52198	1.5880743
19.6649926140071	2.5001233	1.5811778
19.682780885104084	2.4959526	1.5798584
19.70056963522921	2.4938095	1.57918
19.718358864849908	2.5106504	1.5845032
19.7361485744337	2.5272837	1.5897433
19.753938764448215	2.5469818	1.5959266
19.771729435361202	2.530487	1.5907505
19.789520587640506	2.5018384	1.5817201
19.807312221754092	2.5123415	1.5850368
19.825104338170043	2.5123005	1.5850238
19.842896937356517	2.5254705	1.5891728
19.860690019781824	2.5346544	1.5920599
19.87848358591436	2.5528858	1.5977752
19.896277636222635	2.5689209	1.6027853
19.914072171175278	2.5578263	1.5993205
19.931867191241015	2.5601947	1.6000608
19.94966269688869	2.5281227	1.5900072
19.967458688587264	2.4977124	1.5804152
19.985255166805807	2.4641004	1.5697453
20.00305213201348	2.461595	1.5689471
20.020849584679578	2.4560912	1.5671921
20.038647525273507	2.4808414	1.5750687
20.05644595426477	2.4774175	1.5739814
20.07424487212299	2.4719455	1.5722421
20.092044279317903	2.453981	1.5665188
20.109844176319353	2.4848516	1.5763412
20.127644563597304	2.4595532	1.5682963
20.145445441621817	2.4553359	1.5669512
20.16324681086307	2.4231727	1.5566543
20.181048671791373	2.4055982	1.550999
20.198851024877122	2.375992	1.5414253
20.216653870590836	2.4024103	1.5499711
20.234457209403146	2.391467	1.5464369
20.252261041784802	2.3870368	1.5450038
20.270065368206662	2.4113262	1.5528445
20.287870189139685	2.4250326	1.5572516
20.305675505054968	2.396299	1.5479983
20.323481316423702	2.3654747	1.53801
20.341287623717207	2.3662655	1.538267
20.359094427406884	2.3559036	1.5348953
20.376901727964288	2.3517501	1.5335417
20.39470952586107	2.3260777	1.5251484
20.41251782156899	2.3319383	1.5270685
20.430326615559935	2.3165855	1.5220333
20.448135908305886	2.2968643	1.515541
20.465945700278965	2.2671347	1.5057007
20.483755991951384	2.2909906	1.5136019
20.50156678379548	2.3415413	1.5302095
20.519378076283708	2.3428323	1.5306313
20.537189869888635	2.3489945	1.532643
20.55500216508294	2.3613641	1.5366731
20.572814962339415	2.3887324	1.5455525
20.59062826213098	2.406553	1.5513068
20.60844206493066	2.3858128	1.5446076
20.626256371211593	2.3452165	1.53141
20.644071181447032	2.3296618	1.526323
20.66188649611036	2.2858934	1.5119171
20.67970231567506	2.3098242	1.5198106
20.697518640614742	2.3348203	1.5280119
20.715335471403122	2.3436077	1.5308846
20.73315280851404	2.3151073	1.5215477
20.750970652421447	2.2980578	1.5159346
20.768789003599412	2.2918713	1.5138928
20.786607862522136	2.2837183	1.5111977
20.8044272296639	2.2700562	1.5066706
20.82224710549913	2.2511852	1.500395
20.84006749050237	2.2331982	1.4943889
20.857888385148268	3.7917707	1.9472469
20.8757097899116	45.93201	6.777316
20.893531705267254	64.80517	8.050166
20.911354131690224	83.81049	9.154807
20.92917706965566	69.05363	8.309852
20.94700051963877	50.118214	7.079422
20.96482448211493	29.359861	5.418474
20.982648957559622	4.0934343	2.0232236
21.00047394644843	2.1996384	1.4831178
21.01829944925707	2.2545748	1.5015242
21.036125466461375	2.2589264	1.5029725
21.053951998537297	2.2632341	1.5044049
21.071779045960906	2.2442236	1.4980733
21.089606609208378	2.2695155	1.5064912
21.10743468875603	2.2598443	1.5032779
21.12526328508028	2.2407491	1.4969132
21.143092398657675	2.1874967	1.4790188
21.16092202996488	2.1797957	1.4764131
21.17875217947867	2.1799304	1.4764588
21.19658284767596	2.1954992	1.4817216
21.21441403503377	2.2051668	1.4849805
21.232245742029225	2.1951547	1.4816054
21.2500779691396	2.193359	1.4809992
21.26791071684227	2.1729405	1.4740897
21.28574398561475	2.150899	1.4665943
21.30357777593465	2.1522152	1.467043
21.321412088279704	2.184364	1.4779594
21.339246923127792	2.1958663	1.4818456
21.357082280956888	2.173392	1.4742429
21.3749181622451	2.139154	1.4625847
21.392754567470647	2.1421041	1.4635929
21.41059149711187	2.1209671	1.456354
21.42842895164726	2.117388	1.4551247
21.446266931555378	2.1396396	1.4627507
21.464105437314945	2.1669812	1.472067
21.481944469404798	2.139156	1.4625854
21.49978402830388	2.1138551	1.4539102
21.51762411449127	2.1096194	1.4524529
21.53546472844617	2.1103835	1.4527159
21.553305870647876	2.1179974	1.4553341
21.571147541575865	2.0967147	1.4480036
21.58898974170967	2.0746243	1.4403557
21.60683247152899	2.0742028	1.4402093
21.62467573151363	2.0951324	1.4474572
21.642519522143523	2.0862343	1.4443803
21.660363843898722	2.0927255	1.4466256
21.6782086972594	2.0465302	1.4305699
21.696054082705864	2.0388176	1.4278717
21.713900000718535	2.0426483	1.4292125
21.73174645177795	2.0705082	1.4389261
21.749593436364794	2.0525877	1.4326855
21.767440954959845	2.0293577	1.4245553
21.785289008044032	2.0165515	1.4200534
21.803137596098388	2.0176728	1.4204481
21.820986719604086	1.9999092	1.4141815
21.838836379042412	2.003212	1.4153488
21.85668657489478	1.9716089	1.4041399
21.87453730764273	1.9577594	1.3991996
21.892388577767914	1.936907	1.391728
21.91024038575213	1.9319917	1.389961
21.928092732077285	1.9599402	1.3999786
21.945945617225426	1.9664134	1.4022887
21.963799041678694	1.9780176	1.4064201
21.981653005919398	31.317923	5.596242
21.999507510429943	78.149574	8.840225
22.01736255569286	73.09847	8.549765
22.035218142190818	4.192126	2.0474682
22.05307427040661	2.0214422	1.4217743
22.07093094082315	2.0518587	1.432431
22.088788153923474	2.0374897	1.4274067
22.106645910190746	2.0019841	1.4149148
22.12450421010827	1.994943	1.4124246
22.142363054159464	2.0262818	1.4234753
22.16022244282787	2.0491083	1.4314706
22.178082376597164	2.0179586	1.4205487
22.195942855951145	1.985986	1.4092501
22.213803881373742	1.9654747	1.4019539
22.231665453349002	1.9889463	1.4103001
22.24952757236111	1.9945226	1.4122757
22.26739023889438	1.9804353	1.4072794
22.28525345343323	1.9679348	1.402831
22.30311721646225	1.9912118	1.411103
22.320981528466113	1.9808177	1.4074153
22.33884638992964	1.9936756	1.4119757
22.356711801337788	1.9719658	1.404267
22.37457776317561	1.9591106	1.3996823
22.392444275928337	1.9172032	1.384631
22.410311340081282	1.916929	1.3845321
22.428178956119904	1.9107406	1.3822954
22.446047124529805	1.9144623	1.383641
22.46391584579669	1.9542392	1.3979411
22.481785120406414	1.9871424	1.4096605
22.49965494884496	2.0049057	1.415947
22.51752533159841	1.9865415	1.4094472
22.53539626915302	1.9627273	1.4009737
22.553267761995137	1.9206997	1.3858931
22.571139810611264	1.908328	1.3814225
22.589012415488025	1.9305834	1.3894544
22.60688557711216	1.9782642	1.4065078
22.624759295970566	1.9562914	1.3986748
22.642633572550263	1.9607848	1.4002802
22.660508407338362	1.9516646	1.3970199
22.67838380082217	1.9688779	1.4031671
22.696259753489077	1.9591774	1.3997061
22.714136265826614	1.956303	1.398679
22.73201333832246	1.9418515	1.3935033
22.74989097146439	1.9196889	1.3855284
22.76776916574035	1.8879308	1.37402
22.785647921638393	1.9102386	1.3821138
22.803527239646712	1.9255636	1.3876468
22.82140712025363	1.9462926	1.395096
22.839287563947593	1.9205325	1.3858328
22.85716857121719	1.8790522	1.3707852
22.875050142551135	1.8809144	1.3714644
22.892932278438277	1.8990371	1.3780556
22.910814979367604	1.9388647	1.3924313
22.928698245828222	1.9007634	1.3786818
22.946582078309387	1.8644762	1.3654583
22.96446647730047	1.8878193	1.3739793
22.98235144329098	1.9033301	1.3796123
23.000236976770562	1.8728398	1.3685174
23.018123078229	1.8289753	1.3523961
23.03600974815619	1.8609726	1.3641747
23.053896987042194	1.8878587	1.3739938
23.071784795377173	1.9180912	1.3849517
23.08967317365145	1.8952607	1.3766847
23.10756212235546	1.8848784	1.3729087
23.125451641979787	1.87992	1.3711017
23.143341733015134	1.9248796	1.3874003
23.161232395952357	1.940477	1.39301
23.179123631282426	1.9573588	1.3990564
23.197015439496468	1.9460533	1.3950101
23.214907821085717	1.9426899	1.3938041
23.23280077654157	1.927574	1.388371
23.250694306355538	1.9550595	1.3982345
23.268588411019277	1.9948033	1.4123751
23.28648309102458	1.9782326	1.4064965
23.304378346863356	1.9328458	1.3902682
23.322274179027676	1.9251052	1.3874816
23.340170588009723	1.946626	1.3952154
23.358067574301852	1.9648509	1.4017314
23.37596513839651	1.9353334	1.3911626
23.39386328078629	1.9050997	1.3802536
23.411762001963947	1.9028981	1.3794557
23.429661302422353	1.9665259	1.4023287
23.4475611826545	1.9738793	1.4049481
23.46546164315356	1.9518746	1.3970951
23.48336268441279	1.9342234	1.3907636
23.501264306925638	1.956025	1.3985796
23.51916651118564	1.9292417	1.3889714
23.537069297686497	1.8942795	1.3763282
23.554972666922037	1.847388	1.3591865
23.57287661938623	1.8423713	1.3573399
23.59078115557318	1.8398684	1.3564175
23.608686275977128	1.8845514	1.3727896
23.62659198109246	1.929004	1.3888859
23.6444982714137	1.9352878	1.3911462
23.66240514743549	1.9457551	1.3949033
23.68031260965263	1.9575628	1.3991293
23.698220658560068	1.9275048	1.3883461
23.716129294652845	1.8872097	1.3737575
23.7340385184262	1.8778671	1.3703529
23.75194833037546	1.9085703	1.3815101
23.769858730996123	1.9192696	1.385377
23.78776972078382	1.906717	1.3808392
23.80568130023431	1.8851511	1.373008
23.823593469843495	1.9135367	1.3833064
23.841506230107424	1.9519217	1.3971119
23.859419581522275	1.9799061	1.4070914
23.87733352458438	1.9622729	1.4008116
23.89524805979019	1.9640576	1.4014484
23.913163187636318	1.947459	1.3955139
23.931078908619508	1.9656835	1.4020283
23.948995223236633	1.9872888	1.4097123
23.966912131984735	2.0073144	1.4167973
23.98482963536096	2.0393476	1.4280573
24.002747733862616	2.0399833	1.4282799
24.020666427987155	2.0591474	1.434973
24.038585718232156	2.0840714	1.4436313
24.056505605095353	2.1038628	1.4504699
24.074426089074617	2.139576	1.462729
24.092347170667946	2.1210508	1.4563828
24.110268850373515	2.072168	1.4395027
24.128191128689586	2.0703835	1.4388827
24.146114006114626	2.013701	1.4190493
24.164037483147187	2.0230658	1.4223452
24.181961560286005	2.0220854	1.4220005
24.199886238029926	2.0146956	1.4193997
24.21781151687797	2.006874	1.4166418
24.235737397329274	2.0127368	1.4187095
24.253663879883135	2.025239	1.4231089
24.271590965038975	2.0273936	1.4238657
24.289518653296376	2.034588	1.4263899
24.30744694515505	2.038217	1.4276614
24.32537584111486	2.0655785	1.437212
24.34330534167581	2.050731	1.4320374
24.361235447338046	2.0651724	1.4370707
24.379166158601876	2.0774336	1.4413304
24.39709747596772	2.063656	1.4365431
24.41502939993615	2.0367541	1.4271489
24.432961931007917	1.9866521	1.4094865
24.450895069683856	1.9843249	1.4086607
24.468828816465	1.966417	1.4022899
24.4867631718525	1.9901422	1.410724
24.504698136347656	2.0050917	1.4160126
24.52263371045192	1.9934609	1.4118998
24.540569894666874	2.0167387	1.4201193
24.558506689494266	1.9797199	1.4070252
24.57644409543597	1.9761558	1.405758
24.594382112994012	1.9802123	1.4072002
24.61232074267057	1.9870958	1.4096439
24.630259984967953	2.009197	1.4174615
24.64819984038863	2.014723	1.4194094
24.66614030943522	2.0046635	1.4158614
24.684081392610462	1.9917936	1.4113092
24.702023090417274	2.0244083	1.422817
24.7199654033587	2.0317283	1.425387
24.737908331937927	2.0224237	1.4221195
24.755851876658305	2.0136266	1.4190232
24.773796038023324	2.01855	1.4207568
24.79174081653661	2.0846336	1.4438261
24.809686212701962	2.1322267	1.4602146
24.827632227023294	2.1420484	1.4635738
24.8455788600047	2.1198952	1.455986
24.8635261121504	2.1297128	1.4593536
24.88147398396475	2.182644	1.4773774
24.899422475952303	2.1608872	1.4699956
24.917371588617698	2.0845246	1.4437883
24.935321322465768	2.1019266	1.4498023
24.953271678001478	2.2203555	1.4900857
24.97122265572994	2.478525	1.5743332
24.989174256156414	2.8442962	1.6865041
25.00712647978632	3.489037	1.8678964
25.02507932712521	4.449771	2.109448
25.043032798678798	5.9703355	2.443427
25.060986894952933	7.6859846	2.7723608
25.078941616453637	9.221649	3.036717
25.096896963687055	10.101514	3.178288
25.114852937159508	10.717083	3.2736957
25.132809537377444	10.532685	3.24541
25.150766764847468	9.877352	3.1428254
25.168724620076347	8.508349	2.9169075
25.186683103570985	7.1953897	2.6824224
25.204642215838426	5.7755837	2.4032445
25.222601957385894	4.683324	2.1640987
25.24056232872074	3.664903	1.9143937
25.25852333035048	2.8926528	1.70078
25.276484962782778	2.3900306	1.5459723
25.294447226525435	2.1550548	1.4680105
25.312410122086423	2.0415394	1.4288245
25.330373649973843	2.0321057	1.4255195
25.348337810695988	2.0410368	1.4286486
25.366302604761245	2.028247	1.4241654
25.384268032678207	1.9942341	1.4121735
25.40223409495558	1.9804112	1.4072708
25.420200792102257	1.9643708	1.4015602
25.438168124627246	1.9040897	1.3798876
25.45613609303974	1.8989625	1.3780285
25.474104697849057	1.9290842	1.3889147
25.492073939564698	1.9319353	1.3899407
25.510043818696285	1.9087489	1.3815747
25.528014335753614	1.8809729	1.3714856
25.54598549124664	1.8784193	1.3705543
25.56395728568544	1.9076777	1.3811871
25.58192971958028	1.9100132	1.3820323
25.59990279344156	1.9402127	1.3929152
25.617876507779833	1.9266007	1.3880204
25.635850863105826	1.9235265	1.3869126
25.653825859930386	1.9219666	1.38635
25.671801498764548	1.9211556	1.3860576
25.68977778011949	1.8960657	1.376977
25.707754704506524	1.8448114	1.3582383
25.725732272437153	1.8255593	1.3511326
25.743710484423012	1.8494526	1.3599458
25.761689340975888	1.8551457	1.3620373
25.77966884260774	1.8734007	1.3687223
25.797648989830662	1.9100016	1.3820281
25.815629783156922	1.9273269	1.3882821
25.83361122309895	1.8693131	1.3672283
25.85159331016929	1.8289175	1.3523748
25.869576044880695	1.822701	1.3500744
25.887559427746034	1.8457199	1.3585727
25.90554345927836	1.8620212	1.3645589
25.92352813999086	1.8529174	1.361219
25.94151347039689	1.8548561	1.3619311
25.959499451009965	1.850774	1.3604316
25.97748608234374	1.81515	1.347275
25.995473364912062	1.8266352	1.3515307
26.013461299228904	1.8671805	1.3664482
26.03144988580839	1.9439515	1.3942566
26.04943912516483	1.9409543	1.3931813
26.067429017812675	1.9085679	1.3815093
26.085419564266537	1.8763665	1.3698053
26.103410765041186	1.8787173	1.370663
26.12140262065155	1.8331962	1.3539557
26.139395131612723	1.7789357	1.3337674
26.157388298439948	1.7748041	1.3322177
26.17538212164861	1.8059316	1.3438495
26.193376601754295	1.8336123	1.3541094
26.211371739272714	1.837368	1.3554955
26.229367534719746	1.8244874	1.3507359
26.247363988611433	1.8065491	1.3440793
26.26536110146397	1.7753018	1.3324045
26.283358873793727	1.753616	1.3242416
26.301357306117204	1.7714301	1.3309509
26.319356398951104	1.7901156	1.337952
26.33735615281224	1.8009429	1.3419921
26.35535656821762	1.7878482	1.3371044
26.373357645684404	1.7706008	1.3306392
26.39135938572991	1.7594842	1.3264555
26.409361788871614	1.7502736	1.3229791
26.427364855627165	1.7550436	1.3247806
26.445368586514352	1.7554973	1.3249518
26.46337298205115	1.7662672	1.3290099
26.48137804275568	1.8144972	1.3470328
26.499383769146217	1.869995	1.3674777
26.517390161741215	1.8963226	1.3770703
26.53539722105928	1.8492806	1.3598826
26.553404947619182	1.8416207	1.3570633
26.571413341939856	1.8572723	1.3628178
26.589422404540397	1.8769631	1.370023
26.60743213594006	1.8828756	1.3721792
26.62544253665827	1.8259376	1.3512726
26.64345360721459	1.8142302	1.3469336
26.66146534812879	1.8248903	1.350885
26.679477759920758	1.8305349	1.3529726
26.69749084311057	1.7834758	1.3354684
26.71550459821847	1.7813766	1.3346822
26.733519025764842	1.8055638	1.3437127
26.751534126270258	1.8131136	1.3465191
26.769549900255434	1.8046834	1.3433851
26.787566348241267	1.8190039	1.3487046
26.80558347074881	1.8013724	1.3421521
26.823601268299267	1.8009317	1.341988
26.841619741414036	1.8251199	1.3509699
26.85963889061465	1.8133854	1.34662
26.877658716422832	1.7783082	1.3335322
26.89567921936045	1.7794026	1.3339425
26.913700399949544	1.7957052	1.3400393
26.93172225871233	1.8182857	1.3484383
26.949744796171174	1.8005038	1.3418286
26.967768012848605	1.7864468	1.3365803
26.98579190926733	1.7741259	1.3319632
27.003816485950225	1.7582715	1.3259983
27.021841743420318	1.8014553	1.342183
27.039867682200814	1.8345091	1.3544406
27.057894302815072	1.8806798	1.3713788
27.07592160578664	1.8936743	1.3761084
27.0939495916392	1.9005294	1.3785969
27.111978260896635	1.835424	1.3547782
27.13000761408296	1.8231845	1.3502535
27.148037651722397	1.840615	1.3566927
27.166068374339304	1.8451122	1.3583491
27.184099782458215	1.7843649	1.3358012
27.20213187660384	1.7856295	1.3362745
27.22016465730105	1.8199469	1.3490541
27.23819812507487	1.8014183	1.3421693
27.256232280450533	1.7827398	1.3351928
27.274267123953383	1.8062344	1.3439622
27.292302656108987	1.8056607	1.3437488
27.31033887744306	1.7734671	1.3317158
27.32837578848146	1.7722323	1.3312521
27.34641338975026	1.7775933	1.3332641
27.364451681775673	1.7548907	1.3247229
27.382490665084074	1.756322	1.325263
27.400530340202046	1.7661556	1.3289679
27.41857070765629	1.7927608	1.3389401
27.436611767973726	1.7976695	1.340772
27.454653521681404	1.8378412	1.35567
27.472695969306564	1.8522365	1.360969
27.490739111376627	1.8302097	1.3528525
27.508782948419153	1.835327	1.3547424
27.526827480961902	1.8663565	1.3661466
27.54487270953279	1.9062321	1.3806636
27.562918634659898	1.896787	1.3772389
27.580965256871508	1.8291421	1.3524578
27.599012576696026	1.8120885	1.3461384
27.617060594662068	1.8897804	1.3746928
27.63510931129842	1.9291402	1.388935
27.65315872713401	1.8795769	1.3709767
27.67120884269797	1.8177066	1.3482234
27.68925965851958	1.8494895	1.3599594
27.707311175128307	1.886215	1.3733954
27.725363393053787	1.9038974	1.3798178
27.74341631282583	1.8800316	1.3711424
27.7614699349744	1.9072478	1.3810314
27.77952426002968	2.1250224	1.4577457
27.797579288521973	2.1790895	1.476174
27.815635020981784	2.618537	1.6181895
27.83369145793979	2.741758	1.6558255
27.85174859992682	2.5373867	1.5929177
27.869806447473923	2.3014731	1.5170606
27.887865001112267	2.0056221	1.4161999
27.905924261373233	1.929605	1.3891022
27.92398422878836	1.94152	1.3933843
27.94204490388936	1.9462124	1.3950672
27.96010628720813	1.9344836	1.3908572
27.978168379276728	1.8900374	1.3747863
27.9962311806274	1.8547384	1.3618878
28.014294691792568	1.8723677	1.3683449
28.0323589133048	1.8563831	1.3624915
28.050423845696887	1.7853616	1.3361742
28.068489489501758	1.8457714	1.3585917
28.086555845252523	1.9507552	1.3966944
28.104622913482487	1.9755629	1.4055471
28.122690694725115	1.8907456	1.3750439
28.14075918951405	1.8850527	1.3729722
28.15882839838312	1.8922068	1.3755751
28.176898321866304	1.9318349	1.3899046
28.1949689604978	1.9408883	1.3931577
28.213040314811945	1.9299077	1.3892112
28.23111238534327	1.9356934	1.391292
28.249185172626493	1.9698329	1.4035074
28.267258677196473	1.9678537	1.4028021
28.285332899588294	1.9656019	1.4019992
28.303407840337172	1.9609588	1.4003423
28.321483499978545	1.9708611	1.4038736
28.33955987904799	1.9787326	1.4066743
28.357636978081285	1.9700876	1.4035981
28.37571479761439	1.9660131	1.4021459
28.393793338183425	2.0151975	1.4195765
28.41187260032469	2.0636466	1.4365398
28.429952584574686	2.0824974	1.443086
28.448033291470065	2.0875306	1.4448289
28.46611472154769	2.0255284	1.4232106
28.484196875344566	1.9681447	1.4029058
28.502279753397914	1.9309261	1.3895776
28.52036335624511	1.9747907	1.4052725
28.538447684423716	1.9955767	1.4126488
28.556532738471482	2.0183911	1.4207009
28.574618518926325	1.9646469	1.4016587
28.59270502632635	1.9394224	1.3926314
28.61079226120985	1.971711	1.4041762
28.628880224115274	1.9531527	1.3975524
28.646968915581287	1.9504825	1.3965968
28.66505833614671	2.0485685	1.4312822
28.68314848635055	2.0717983	1.4393743
28.701239366732004	2.0381145	1.4276255
28.71933097783044	2.0265772	1.423579
28.737423320185403	2.0321164	1.4255232
28.75551639433665	2.103232	1.4502524
28.773610200824074	2.1656241	1.471606
28.791704740187793	2.169356	1.4728734
28.80980001296809	2.198465	1.4827222
28.827896019705413	2.2152405	1.4883684
28.845992760940433	2.2455602	1.4985193
28.86409023721397	2.185705	1.478413
28.88218844906704	2.164413	1.4711944
28.900287397040845	2.1931484	1.4809282
28.918387081676755	2.2759013	1.508609
28.936487503516343	2.3085241	1.5193828
28.954588663101365	2.3036304	1.5177715
28.97269056097374	2.3253632	1.5249141
28.990793197675597	2.3229284	1.5241156
29.00889657374923	2.345344	1.5314516
29.027000689737125	2.3751853	1.5411636
29.04510554618196	2.4153225	1.5541308
29.06321114362659	2.4346054	1.5603222
29.08131748261405	2.4709575	1.5719279
29.099424563687567	2.5352674	1.5922523
29.11753238739057	2.5607212	1.6002253
29.13564095426663	2.562387	1.6007458
29.15375026485954	2.5565746	1.5989292
29.171860319713275	2.6394944	1.6246521
29.18997111937199	2.7143178	1.6475186
29.20808266438002	2.6877718	1.6394426
29.226194955281898	2.722899	1.6501209
29.244307992622335	2.7491977	1.6580704
29.26242177694624	2.8277209	1.6815828
29.2805363087987	2.8857281	1.6987431
29.29865158872498	2.9601345	1.7205042
29.316767617270557	2.980711	1.7264736
29.334884394981064	2.9742167	1.7245917
29.353001922402367	2.943055	1.7155334
29.37112020008047	3.016	1.7366635
29.389239228561596	3.1148136	1.7648834
29.407359008392152	3.2450843	1.8014117
29.42547954011872	3.5641513	1.887896
29.44360082428809	4.0632844	2.015759
29.46172286144722	4.9161263	2.217234
29.479845652143283	6.524527	2.5543153
29.497969196923606	9.249978	3.0413775
29.516093496335728	13.018779	3.6081545
29.5342185509274	16.740505	4.091516
29.55234436124651	20.040451	4.4766564
29.570470927841175	21.424755	4.6286883
29.588598251259686	21.280684	4.613099
29.60672633205055	19.637423	4.431413
29.624855170762405	16.431486	4.053577
29.642984767944146	12.984176	3.6033561
29.66111512414481	9.706476	3.115522
29.67924623991366	7.0393124	2.6531703
29.697378115800138	5.1485467	2.2690408
29.71551075235387	4.2369323	2.058381
29.733644150124675	3.8718038	1.96769
29.751778309662576	3.6401103	1.9079072
29.769913231517766	3.4965813	1.8699148
29.78804891624066	3.4137914	1.8476448
29.806185364381818	3.4142485	1.8477685
29.82432257649206	3.4151738	1.8480189
29.842460553122333	3.3340611	1.8259412
29.86059929482382	3.2975764	1.815923
29.878738802147872	3.350938	1.8305568
29.896879075646048	3.3494616	1.8301535
29.915020115870114	3.305879	1.8182076
29.933161923371976	3.2331617	1.7980995
29.951304498703777	3.244514	1.8012534
29.969447842417857	3.3008883	1.8168347
29.987591955066733	3.287153	1.8130507
30.005736837203123	3.2910578	1.8141273
30.023882489379943	3.269442	1.8081598
30.04202891215028	3.1816342	1.7837136
30.060176106067455	3.1367688	1.7710925
30.078324071684946	3.1183443	1.7658834
30.09647280955646	3.1884274	1.7856169
30.114622320235863	3.1973758	1.7881207
30.132772604277257	3.1920342	1.7866265
30.1509236622349	3.1552715	1.7763084
30.16907549466328	3.1448138	1.7733623
30.18722810211705	3.0905285	1.7579899
30.205381485151097	3.0649526	1.7507006
30.22353564432045	3.1365411	1.7710283
30.241690580180403	3.1175435	1.7656567
30.25984629328638	3.064048	1.7504423
30.278002784194037	3.060366	1.7493901
30.296160053459246	3.0525413	1.7471523
30.314318101638033	3.044955	1.74498
30.332476929286646	3.0310514	1.7409915
30.35063653696153	2.9813356	1.7266544
30.368796925219307	2.9770894	1.7254244
30.386958094616844	3.015278	1.7364556
30.40512004571115	2.9727507	1.7241666
30.423282779059463	2.934429	1.7130175
30.441446295219233	2.9227874	1.7096162
30.459610594748067	2.9757397	1.7250333
30.47777567820382	2.969384	1.7231901
30.495941546144504	2.908413	1.705407
30.51410819912835	2.8508253	1.6884388
30.532275637713795	2.7937374	1.6714478
30.55044386245946	2.8524148	1.6889094
30.56861287392416	2.9264414	1.7106845
30.586782672666956	2.9333687	1.712708
30.604953259247047	2.8922083	1.7006494
30.623124634223885	2.8194258	1.6791146
30.641296798157075	2.722192	1.6499066
30.659469751606462	2.6925867	1.6409103
30.677643495132074	2.7385683	1.654862
30.695818029294152	2.786748	1.6693555
30.713993354653116	2.8213322	1.6796821
30.73216947176962	2.828773	1.6818956
30.75034638120448	2.8000708	1.6733412
30.768524083518756	2.7572641	1.6605011
30.786702579273673	2.8216105	1.679765
30.80488186903069	2.9484262	1.7170982
30.82306195335144	3.127737	1.768541
30.841242832797782	3.3474112	1.8295932
30.85942450793176	3.6573348	1.912416
30.877606979315637	4.028437	2.0070968
30.895790247511883	4.4652133	2.113105
30.913974313083134	4.8495736	2.2021747
30.932159176592283	5.2489104	2.29105
30.95034483860237	5.590234	2.3643675
30.968531299676698	5.527483	2.35106
30.98671856037873	5.3247313	2.307538
31.00490662127215	4.91545	2.2170815
31.023095482920848	4.4820604	2.1170878
31.04128514588892	3.8529177	1.962885
31.059475610740662	3.266342	1.8073024
31.07766687804056	2.8600006	1.6911536
31.09585894835335	2.6751943	1.6356021
31.11405182224393	2.571706	1.603654
31.132245500277417	2.5737789	1.6043001
31.15043998301914	2.513389	1.5853672
31.168635271034628	2.498027	1.5805148
31.18683136488964	2.5306802	1.5908111
31.20502826515008	2.5088904	1.5839478
31.223225972382135	2.4505901	1.5654361
31.241424487152155	2.476587	1.5737176
31.259623810026692	2.4968197	1.5801328
31.27782394157253	2.4769306	1.5738268
31.296024882356644	2.4813297	1.5752237
31.314226632946237	2.5245824	1.5888934
31.332429193908684	2.4773576	1.5739625
31.350632565811598	2.3573248	1.5353582
31.368836749222787	2.4004555	1.5493404
31.387041744710295	2.5317438	1.5911454
31.40524755284232	2.5913317	1.6097614
31.423454174187317	2.5726943	1.6039621
31.441661609313922	2.5863056	1.6081995
31.459869858791002	2.5821583	1.6069095
31.478078923187628	2.4566767	1.5673789
31.496288803073064	2.4439437	1.5633118
31.514499499016807	2.376922	1.541727
31.532711011588546	2.3537219	1.5341845
31.550923341358178	2.3201718	1.523211
31.56913648889584	2.3432777	1.5307769
31.587350454771844	2.3611853	1.5366149
31.605565239556732	2.319146	1.5228742
31.62378084382127	2.2390463	1.4963443
31.641997268136382	2.22932	1.4930907
31.660214513073274	2.2674315	1.5057993
31.67843257920331	2.2648041	1.5049266
31.6966514670981	2.2987835	1.516174
31.71487117732944	2.348245	1.5323985
31.733091710469346	2.4117773	1.5529897
31.751313067090052	2.3398857	1.5296685
31.769535247764008	2.2269201	1.4922869
31.787758253063878	2.227718	1.4925542
31.805982083562526	2.2998593	1.5165287
31.824206739833024	2.3247352	1.5247083
31.84243222244869	2.2800577	1.5099859
31.860658531983013	2.2843153	1.5113952
31.878885669009737	2.3319771	1.5270813
31.897113634102784	2.239536	1.496508
31.91534242783632	2.1898904	1.4798279
31.933572050784694	2.218831	1.4895741
31.951802503522508	2.2333062	1.494425
31.970033786624548	2.2780533	1.5093222
31.988265900665834	2.3413892	1.5301598
32.006498846221575	2.2685761	1.5061793
32.02473262386724	2.2453253	1.498441
32.04296723417845	2.2574153	1.5024698
32.0612026777311	2.2822568	1.510714
32.07943895510129	2.2535775	1.501192
32.097676066865304	2.2111957	1.4870089
32.115914013599685	2.136637	1.4617239
32.13415279588115	2.221443	1.4904506
32.152392414286666	2.3053741	1.5183458
32.1706328693934	2.2918925	1.5138998
32.18887416177875	2.221409	1.4904392
32.20711629202032	2.249193	1.499731
32.225359260695924	2.2919254	1.5139107
32.243603068383614	2.2988472	1.5161949
32.26184771566166	2.2416186	1.4972036
32.28009320310852	2.2174754	1.489119
32.2983395313029	2.2178178	1.489234
32.31658670082372	2.2070315	1.4856081
32.33483471225012	2.1254387	1.4578885
32.35308356616143	2.0749779	1.4404783
32.371333263137245	2.0109284	1.4180721
32.38958380375734	2.1170554	1.4550104
32.407835188601744	2.1809528	1.476805
32.42608741825067	2.1173124	1.4550987
32.444340493284585	2.055966	1.433864
32.46259441428416	2.0919716	1.446365
32.48084918183028	2.0812552	1.4426556
32.49910479650405	2.0957303	1.4476638
32.51736125888683	2.1071787	1.4516125
32.53561856956014	2.1916203	1.4804122
32.5538767291058	2.2184632	1.4894506
32.572135738105764	2.1237295	1.4573021
32.59039559714228	2.025766	1.4232941
32.608656306797776	2.0417848	1.4289104
32.62691786765491	2.084149	1.4436581
32.645180280296586	2.0849688	1.4439421
32.663443545305896	2.0903	1.445787
32.68170766326619	2.0448394	1.4299788
32.69997263476099	1.9537878	1.3977796
32.7182384603741	1.87958	1.3709778
32.7365051406895	1.920258	1.3857337
32.75477267629144	1.9903843	1.4108099
32.77304106776434	2.033768	1.4261024
32.79131031569289	2.074237	1.4402212
32.809580420661966	2.0653977	1.4371492
32.827851383256714	2.0152721	1.4196028
32.84612320406245	1.9488794	1.3960227
32.86439588366476	2.0140045	1.4191562
32.88266942264945	1.977944	1.406394
32.9009438216025	1.8813555	1.3716252
32.9192190811102	1.889239	1.3744959
32.937495201758985	1.941257	1.39329
32.95577218413556	1.9667757	1.4024178
32.974050028826866	1.9075512	1.3811413
32.992328736420035	1.9183114	1.3850312
33.010608307502444	1.88463	1.3728182
33.02888874266169	1.8785291	1.3705944
33.047170042485604	1.945101	1.3946688
33.06545220756225	2.038935	1.4279128
33.083735238479896	2.0686815	1.4382912
33.10201913582707	1.9952674	1.4125394
33.12030390019248	1.9204265	1.3857945
33.138589532165135	1.8813621	1.3716276
33.15687603233419	1.9610716	1.4003826
33.17516340128909	2.0816784	1.4428023
33.19345163961947	2.106366	1.4513324
33.211740747915215	2.053255	1.4329184
33.23003072676643	2.0188935	1.4208777
33.248321576763466	1.9382229	1.3922007
33.266613298496885	1.929866	1.3891962
33.28490589255747	1.9570332	1.39894
33.30319935953626	1.9557414	1.3984783
33.32149370002451	1.8603793	1.3639573
33.339788914613706	1.8012725	1.3421149
33.358085003895575	1.8243345	1.3506793
33.376381968462034	1.9382008	1.3921928
33.39467980890529	1.9795988	1.4069822
33.41297852581774	1.9946756	1.4123299
33.43127811979204	2.0009184	1.4145383
33.44957859142105	2.0370028	1.4272361
33.467879941297866	2.0332701	1.4259278
33.486182170015844	1.9958054	1.4127297
33.50448527816853	1.8482364	1.3594986
33.522789266349754	1.7947786	1.3396934
33.541094135153514	1.8246529	1.3507972
33.55939988517411	1.8292687	1.3525046
33.57770651700602	1.8456914	1.3585622
33.59601403124398	1.8373548	1.3554906
33.61432242848296	1.8691735	1.3671772
33.632631709318154	1.9670205	1.402505
33.650941874344994	1.9841504	1.4085988
33.66925292415916	1.9967394	1.4130603
33.68756485935654	2.0289607	1.424416
33.70587768053328	2.0271225	1.4237705
33.724191388285746	2.0324779	1.42565
33.74250598321054	1.923853	1.3870302
33.760821465904506	1.9087299	1.381568
33.77913783696474	2.0026367	1.4151455
33.79745509698852	2.053227	1.4329085
33.815773246573414	2.0196164	1.4211321
33.8340922863172	1.9166272	1.384423
33.852412216817896	1.9061148	1.3806212
33.87073303867377	1.9698509	1.4035138
33.889054752483304	1.9032879	1.379597
33.907377358845245	1.7675512	1.3294928
33.92570085835853	1.6827313	1.2972013
33.94402525162239	1.6528213	1.2856209
33.96235053923627	1.7187184	1.310999
33.980676721799824	1.807815	1.3445501
33.999003799912984	1.938956	1.392464
34.01733177417592	1.9698229	1.4035038
34.03566064518901	1.8969221	1.377288
34.0539904135529	1.8759104	1.3696388
34.07232107986846	1.9193972	1.3854232
34.090652644736785	1.9642994	1.4015347
34.108985108759235	2.0571527	1.4342778
34.12731847253742	2.024208	1.4227467
34.14565273667313	2.0091972	1.4174615
34.16398790176847	2.0208633	1.4215707
34.18232396842574	1.9059974	1.3805786
34.20066093724749	1.8309109	1.3531116
34.21899880883651	1.9277184	1.388423
34.23733758379583	2.0301766	1.4248427
34.25567726272874	1.9834164	1.4083382
34.27401784623872	1.9528391	1.3974402
34.29235933492957	1.9832069	1.4082638
34.31070172940526	2.0156631	1.4197406
34.32904503027003	2.0273516	1.423851
34.347389238128386	2.0148683	1.4194605
34.36573435358502	2.0471678	1.4307927
34.38408037724492	1.9105445	1.3822244
34.402427309713296	1.9454798	1.3948046
34.42077515159559	2.0769713	1.4411701
34.43912390349752	2.0586808	1.4348104
34.45747356602499	2.0390522	1.4279538
34.47582413978423	1.9354855	1.3912172
34.49417562538163	1.8705586	1.3676836
34.51252802342388	1.9456303	1.3948585
34.53088133451789	2.0748465	1.4404328
34.54923555927084	1.8696054	1.3673352
34.567590698290104	1.743462	1.3204021
34.58594675218336	1.7600223	1.3266584
34.6043037215585	1.7899426	1.3378874
34.62266160702365	1.8099102	1.345329
34.641020409187234	1.9071511	1.3809965
34.65938012865785	2.0466335	1.430606
34.677740766044394	2.0644202	1.4368091
34.69610232195598	2.026391	1.4235137
34.714464797002016	2.0766103	1.4410449
34.73282819179208	2.0465748	1.4305855
34.751192506936064	1.8975478	1.3775151
34.76955774304408	1.7134613	1.3089925
34.7879239007265	1.7570956	1.3255548
34.80629098059391	1.905162	1.3802761
34.824658983257194	1.9668089	1.4024297
34.843027909327446	2.0390632	1.4279577
34.86139775941603	2.0570962	1.4342581
34.879768534134534	1.9494739	1.3962356
34.89814023409483	1.8131138	1.3465191
34.91651285990901	1.9610018	1.4003577
34.93488641218944	1.9423327	1.3936759
34.95326089154871	1.7542825	1.3244933
34.97163629859967	1.8702897	1.3675853
34.99001263395542	1.8232993	1.350296
35.00838989822934	1.7156484	1.3098277
35.02676809203499	1.7670329	1.3292979
35.04514721598624	1.7778269	1.3333517
35.063527270697215	1.7680962	1.3296978
35.081908256782256	1.8837142	1.3724847
35.10029017485597	1.7180499	1.310744
35.11867302553321	1.7484322	1.3222829
35.137056809429104	1.8430479	1.357589
35.155441527159006	1.8403441	1.3565928
35.173827179338524	1.9072688	1.381039
35.19221376658354	1.9160545	1.3842162
35.21060128951017	1.8935754	1.3760724
35.2289897487348	1.892435	1.375658
35.24737914487405	1.7775426	1.3332452
35.26576947854479	1.8203878	1.3492175
35.28416075036418	1.9741118	1.4050308
35.30255296094958	2.1785963	1.4760069
35.32094611091867	2.2498286	1.4999429
35.33934020088932	2.1117866	1.4531988
35.35773523147969	1.957716	1.399184
35.3761312033082	2.2249851	1.4916384
35.394528116993506	2.5241551	1.588759
35.41292597315452	2.2960072	1.5152581
35.431324772410434	1.9738616	1.4049418
35.449724515380666	1.9005339	1.3785986
35.46812520268491	1.9361918	1.3914711
35.486526834943106	1.896813	1.3772484
35.504929412775454	1.95823	1.3993677
35.52333293680242	2.0283985	1.4242185
35.54173740764471	1.8877039	1.3739374
35.560142825923286	1.8109506	1.3457156
35.5785491922594	1.9828032	1.4081205
35.59695650727454	2.3488913	1.5326093
35.61536477159042	3.0240254	1.7389725
