0.008763373481513119	0.43391317	0.65872085
0.026290120649546365	0.38063106	0.616953
0.043816868432600686	0.25542977	0.5054006
0.06134361724069026	0.18917876	0.43494686
0.07887036748382949	0.18371256	0.42861703
0.0963971195720331	0.3218708	0.56733656
0.11392387391531617	0.2705003	0.5200964
0.1314506309236943	0.15841685	0.39801615
0.1489773910071836	0.15535375	0.3941494
0.16650415457580078	0.13948098	0.37347153
0.18403092203956356	0.16239871	0.40298724
0.20155769380849	0.13742678	0.37071118
0.2190844702925996	0.09954425	0.31550634
0.2366112519019124	0.113740146	0.33725384
0.2541380390464497	0.116185084	0.34085932
0.27166483213623416	0.09629972	0.31032196
0.28919163158128947	0.07082394	0.26612768
0.3067184377916406	0.06670871	0.25828028
0.324245251177314	0.069676116	0.26396233
0.34177207214833777	0.070996545	0.26645178
0.3592989011147415	0.107328385	0.3276101
0.37682573848655654	0.14311917	0.37831095
0.39435258467381573	0.15696687	0.39619043
0.41187944008655414	0.1727267	0.41560403
0.42940630513480854	0.20100804	0.4483392
0.446933180228618	0.19441275	0.44092262
0.4644600657780234	0.15412818	0.39259163
0.48198696219306775	0.11620031	0.34088168
0.49951386988379676	0.13511923	0.3675857
0.5170407892602581	0.15034457	0.3877429
0.5345677207325025	0.16648689	0.40802804
0.5520946647105822	0.13179982	0.36304244
0.5696216216045534	0.15252519	0.39054474
0.5871485918244737	0.16288908	0.40359518
0.6046755757804043	0.19487233	0.44144347
0.6222025738824094	0.22556552	0.47493738
0.6397295865405557	0.22124878	0.4703709
0.6572566141649129	0.20488222	0.45263916
0.6747836571655547	0.20210624	0.44956228
0.6923107159525568	0.18185891	0.42644918
0.7098377909359992	0.17335008	0.41635332
0.7273648825259653	0.17014322	0.4124842
0.7448919911325411	0.17390722	0.41702184
0.762419117165817	0.1629728	0.4036989
0.7799462610358868	0.18801495	0.43360692
0.7974734231528482	0.19900964	0.44610497
0.8150006039268024	0.22827591	0.47778228
0.8325278037678551	0.18968269	0.43552577
0.8500550230861152	0.21348111	0.46204016
0.8675822622916969	0.21519475	0.46389088
0.8851095217947171	0.22148362	0.47062045
0.9026368020052984	0.21688367	0.46570772
0.9201641033335665	0.22815068	0.4776512
0.9376914261896523	0.2565464	0.5065041
0.9552187709836915	0.2786255	0.52784985
0.9727461381258234	0.26819375	0.51787424
0.990273528026193	0.27265295	0.5221618
1.0078009410949496	0.2759502	0.5253096
1.0253283777422473	0.31031942	0.5570632
1.0428558383782454	0.3395984	0.5827507
1.0603833234131086	0.35346574	0.59452987
1.0779108332570058	0.38654995	0.6217314
1.0954383683201119	0.37378776	0.6113818
1.112965929012607	0.38171753	0.61783296
1.1304935157446763	0.43505132	0.6595842
1.1480211289265108	0.47195977	0.6869933
1.1655487689683062	1.2746724	1.1290139
1.1830764362802655	1.5501983	1.2450696
1.200604131272596	2.014769	1.4194256
1.2181318543555117	2.4000018	1.5491939
1.235659605939232	2.469475	1.5714563
1.253187386433982	3.9981608	1.9995402
1.270715196249994	6.338979	2.5177329
1.2882430357975057	11.95921	3.458209
1.3057709054867608	17.173706	4.144117
1.3232988057280106	23.015867	4.7974854
1.3408267369315112	27.980892	5.2896967
1.358354699507526	31.616396	5.622846
1.3758826938663256	35.699398	5.9748974
1.3934107204181858	37.543446	6.1272707
1.410938779573391	37.76244	6.145115
1.4284668717422309	38.047607	6.1682744
1.4459949973350033	37.360996	6.1123643
1.4635231567620117	37.318565	6.1088924
1.4810513504335687	36.67771	6.0562124
1.4985795787599925	36.216618	6.0180244
1.5161078421516088	36.15877	6.0132165
1.5336361410187505	35.401405	5.949908
1.5511644757717598	35.393925	5.9492793
1.5686928468209842	36.19442	6.01618
1.58622125457678	36.558823	6.046389
1.6037496994495108	37.69579	6.1396894
1.621278181849548	37.46407	6.12079
1.6388067021872719	38.42279	6.198612
1.6563352608730693	37.80727	6.1487617
1.673863858317336	36.678658	6.0562906
1.6913924949304753	35.730392	5.9774904
1.7089211711228998	34.757893	5.8955827
1.7264498873050296	33.89144	5.8216357
1.7439786438872935	33.07976	5.7515006
1.7615074412801288	32.176323	5.6724176
1.779036279893981	31.813921	5.6403832
1.796565160139305	30.621952	5.5337105
1.814094082426564	29.954073	5.4730315
1.8316230471662298	29.201775	5.403867
1.849152054768784	28.400028	5.329168
1.8666811056447168	27.85847	5.2781124
1.8842102002045273	26.955305	5.1918497
1.901739338858724	26.466005	5.144512
1.9192685220178245	25.850376	5.0843267
1.9367977500923557	25.307007	5.030607
1.9543270234928547	24.794746	4.979432
1.971856342629867	23.968456	4.895759
1.9893857079139496	23.492558	4.8469124
2.006915119755667	23.143333	4.810752
2.0244445785655945	22.558483	4.749577
2.0419740847543175	21.98647	4.688973
2.0595036387324317	21.515997	4.638534
2.0770332409105414	20.828905	4.5638695
2.094562891699263	20.682066	4.547754
2.1120925915092217	20.099644	4.4832625
2.129622340751053	19.92095	4.4632893
2.1471521398354043	188.03682	13.712652
2.1646819891729323	444.43903	21.081722
2.182211889174303	440.87616	20.997051
2.1997418402501974	453.28256	21.290434
2.2172718428113023	433.12186	20.81158
2.234801897268317	320.7803	17.910341
2.2523320040319548	17.215927	4.149208
2.269862163512935	16.829912	4.1024275
2.287392376121992	16.571404	4.070799
2.304922642269869	16.301996	4.037573
2.322452962367322	16.043379	4.005419
2.3399833368251164	15.648403	3.9558063
2.357513766054032	15.361928	3.9194295
2.3750442504648586	15.179788	3.8961246
2.3925747904683963	15.074154	3.8825448
2.410105386475459	14.887974	3.8584938
2.4276360388968707	14.574853	3.8177025
2.445166748143469	14.366299	3.79029
2.4626975146261025	14.225263	3.7716393
2.4802283387556323	13.85796	3.722628
2.4977592209429305	13.515969	3.676407
2.5152901615988825	12.95174	3.5988526
2.5328211611343865	12.616218	3.5519316
2.5503522199603523	12.451177	3.5286224
2.5678833384877024	12.469559	3.5312262
2.5854145171273712	12.355849	3.5150888
2.6029457562903064	12.144567	3.4849055
2.620477056387469	11.997054	3.4636765
2.6380084178298326	11.89606	3.4490666
2.655539841028383	11.848915	3.4422252
2.673071326394119	11.7285	3.4246898
2.6906028743380523	11.424394	3.3799992
2.708134485271211	11.106137	3.3325872
2.7256661596046325	10.939511	3.3074932
2.743197897749369	10.783644	3.283846
2.760729700116486	10.592752	3.2546508
2.778261567117063	10.284973	3.2070193
2.795793499162193	10.205614	3.1946228
2.8133254966629817	10.089084	3.1763318
2.830857560030551	9.885066	3.1440525
2.8483896896760337	9.674841	3.1104407
2.865921886010578	9.511517	3.0840747
2.883454149445347	9.3695545	3.0609727
2.9009864803915177	9.268667	3.0444486
2.91851887926028	9.0872965	3.0145142
2.9360513464628384	8.97854	2.9964213
2.953583882410413	8.846416	2.9742925
2.9711164875142373	8.725312	2.9538639
2.9886491621855606	8.500192	2.9155087
3.0061819068356455	8.478395	2.9117684
3.023714721875769	8.387232	2.896072
3.041247607717225	8.32438	2.8852003
3.0587805647713213	8.207007	2.8647876
3.0763135934493806	8.10433	2.8468106
3.0938466941627407	8.133726	2.8519688
3.1113798673227544	8.15342	2.8554194
3.1289131133407904	8.172344	2.8587313
3.1464464326282315	7.9017363	2.8110027
3.1639798255964786	7.8043537	2.7936273
3.1815132926569443	7.7744336	2.7882671
3.1990468342210603	7.746954	2.783335
3.216580450700272	7.6915493	2.7733643
3.2341141425060416	7.486393	2.7361274
3.251647910049847	7.4199023	2.7239497
3.2691817537431813	7.2996826	2.7017925
3.286715673997555	7.258156	2.6940966
3.3042496712244938	7.2432857	2.6913352
3.32178374583554	7.132952	2.6707587
3.339317898242251	7.079449	2.6607234
3.3568521288562034	6.9665236	2.6394174
3.3743864380889876	6.8864613	2.6242068
3.3919208263522127	6.8293633	2.613305
3.4094552940575023	6.733748	2.5949466
3.4269898416164972	6.6388316	2.576593
3.444524469440858	6.507503	2.5509808
3.4620591779422587	6.4916825	2.547878
3.479593967532391	6.473902	2.5443864
3.4971288386229658	6.4211035	2.5339897
3.5146637916257086	6.415951	2.5329728
3.5321988269523628	6.4724493	2.544101
3.5497339450146903	6.4943624	2.548404
3.5672691462244708	6.532265	2.5558298
3.5848044309934988	6.3458285	2.5190928
3.60233979973359	6.275527	2.5051003
3.619875252856575	6.2894993	2.5078874
3.6374107907743034	6.287339	2.5074568
3.6549464138986427	6.4135847	2.5325055
3.6724821226414788	6.366723	2.5232365
3.690017917414714	6.38927	2.5277004
3.7075537986302702	6.4195814	2.5336893
3.7250897667000857	6.542966	2.5579221
3.7426258220361235	6.743826	2.5968878
3.7601619650503553	7.0533175	2.6558082
3.777698196154779	7.4996953	2.738557
3.7952345157614067	8.417058	2.9012167
3.8127709242822716	9.119131	3.01979
3.830307422129425	11.376392	3.3728907
3.847844009714936	30.31923	5.50629
3.8653806874508954	97.804985	9.88964
3.882917455749409	96.992966	9.8485
3.900454315022606	96.70095	9.833664
3.917991265682631	41.304	6.426819
3.9355283081416506	10.968057	3.3118057
3.9530654428118495	8.869917	2.9782405
3.970602670105433	7.6242504	2.7612045
3.9881399904346244	6.7166915	2.591658
4.005677404211669	6.543611	2.5580482
4.023214911848827	6.4549637	2.540662
4.0407525137583855	6.3626657	2.5224326
4.058290210352644	6.453251	2.540325
4.075828002043927	6.4523106	2.54014
4.0933658892445814	6.4412575	2.5379632
4.110903872366966	6.3327765	2.516501
4.128441951823468	6.1516714	2.4802563
4.145980128026488	6.0950665	2.468819
4.163518401388452	6.0741744	2.464584
4.181056772321807	6.0890183	2.4675937
4.1985952412390155	6.19587	2.4891505
4.216133808552567	6.254668	2.5009334
4.233672474674966	6.4002094	2.5298636
4.251211240018741	6.5017805	2.5498588
4.268750104996445	6.7163773	2.5915973
4.286289070020643	7.5476985	2.7473075
4.303828135503928	9.132522	3.0220063
4.3213673018589125	29.436274	5.4255204
4.3389065694982305	90.68812	9.523031
4.356445938834537	165.98616	12.883562
4.3739854102805085	171.87738	13.110202
4.391524984248844	172.77034	13.144213
4.409064661152262	136.97435	11.703604
4.426604441403504	97.04903	9.851346
4.444144325415337	75.97293	8.716246
4.461684313600543	21.893759	4.6790767
4.47922440637193	22.327627	4.725212
4.496764604142329	20.742867	4.554434
4.5143049073245916	18.990662	4.3578277
4.531845316331589	16.728415	4.0900383
4.5493858315762195	13.848851	3.7214046
4.566926453471405	11.38928	3.3748007
4.584467182430081	9.446041	3.0734413
4.602008018865218	8.308683	2.8824787
4.619548963189798	7.57203	2.751732
4.637090015816834	6.9748144	2.6409874
4.654631177159353	6.6824784	2.585049
4.672172447630417	6.4313664	2.5360138
4.689713827643102	6.2929697	2.5085793
4.7072553176105085	6.123316	2.4745336
4.724796917945764	5.978677	2.4451332
4.742338629062015	5.9020247	2.4294083
4.759880451372434	5.783148	2.4048176
4.777422385290215	5.6148043	2.3695579
4.794964431228581	5.531805	2.351979
4.812506589600768	5.616265	2.369866
4.830048860820047	5.6975803	2.3869605
4.847591245299709	5.6929502	2.3859904
4.8651337434530655	5.5814266	2.3625042
4.882676355693457	5.497477	2.3446698
4.900219082434242	5.5485907	2.3555446
4.917761924088813	5.577903	2.3617585
4.935304881070575	5.6619325	2.3794816
4.952847953792969	5.6500344	2.37698
4.970391142669449	5.6014757	2.3667438
4.9879344481135055	5.611071	2.36877
5.005477870538642	5.5675883	2.3595738
5.023021410358394	5.5739	2.360911
5.040565067986324	5.505733	2.3464298
5.05810884383601	5.4941907	2.343969
5.075652738321066	5.457262	2.3360784
5.09319675185512	5.3937764	2.3224506
5.110740884851836	5.3931756	2.3223212
5.128285137724894	5.331485	2.3090007
5.145829510888007	5.322822	2.3071241
5.163374004754908	5.25848	2.2931376
5.1809186197393595	5.2443323	2.2900507
5.198463356255145	5.251645	2.2916467
5.216008214716077	5.2973223	2.3015912
5.233553195535998	5.2833304	2.2985497
5.251098299128764	5.284492	2.2988024
5.268643525908272	5.299348	2.3020313
5.286188876288432	5.273321	2.2963712
5.3037343506831895	5.2937956	2.3008249
5.32127994950651	5.320175	2.3065505
5.3388256731723915	5.3090234	2.3041317
5.356371522094851	5.3021297	2.3026354
5.373917496687938	5.2904587	2.3000996
5.391463597365729	5.2229543	2.2853785
5.40900982454232	5.171195	2.2740262
5.426556178631843	5.2539797	2.2921562
5.444102660048449	5.324435	2.3074737
5.4616492692063225	5.2724576	2.2961833
5.479196006519669	5.23449	2.2879007
5.496742872402727	5.147411	2.2687907
5.514289867269756	5.1763077	2.27515
5.531836991535049	5.21189	2.2829564
5.549384245612924	5.17772	2.2754605
5.566931629917724	5.1760855	2.2751012
5.584479144863822	5.155244	2.2705162
5.6020267908656205	5.171758	2.27415
5.619574568337545	5.211778	2.2829318
5.637122477694054	5.2087216	2.2822623
5.654670519349629	5.2759385	2.296941
5.672218693718784	5.243489	2.2898664
5.689767001216059	5.2482653	2.2909093
5.707315442256021	5.2743325	2.2965915
5.724864017253266	5.2440224	2.289983
5.7424127266224225	5.2755475	2.296856
5.75996157077814	5.2383666	2.2887478
5.777510550135105	5.276317	2.2970235
5.795059665108022	5.267343	2.2950692
5.812608916111639	5.227775	2.2864327
5.830158303560715	5.2772512	2.297227
5.847707827870055	5.2458544	2.290383
5.86525748945448	5.363167	2.3158512
5.8828072887288485	5.50994	2.3473263
5.900357226108044	5.562116	2.358414
5.917907302006979	5.673438	2.381898
5.9354575168406	6.2422786	2.4984553
5.9530078710238765	6.7711864	2.6021504
5.970558364971812	7.245871	2.6918156
5.988108999099438	7.5341883	2.7448475
6.005659773821818	8.095136	2.8451953
6.023210689554039	7.9340577	2.816746
6.040761746711227	8.353188	2.8901882
6.058312945708531	7.7027135	2.7753763
6.075864286961132	7.220881	2.6871698
6.093415770884244	6.5734773	2.5638793
6.1109673978931065	6.123595	2.4745898
6.128519168402993	5.570528	2.3601966
6.146071082829204	5.461912	2.3370733
6.163623141587075	5.3501096	2.3130305
6.181175345091969	5.3131933	2.3050365
6.198727693759281	5.2834783	2.2985818
6.216280188004435	5.2686276	2.2953491
6.233832828242885	5.1879387	2.2777047
6.251385614890126	5.247878	2.2908247
6.268938548361669	5.2126565	2.2831242
6.286491629073067	5.1522613	2.2698593
6.304044857439898	5.097489	2.257762
6.321598233877777	4.9680376	2.2289095
6.339151758802344	5.033342	2.243511
6.356705432629277	5.0498714	2.247192
6.37425925577428	5.0603356	2.2495189
6.391813228653095	5.0359626	2.244095
6.409367351681486	5.0457673	2.2462785
6.426921625275259	5.033874	2.2436297
6.44447604985025	5.0245605	2.241553
6.46203062582232	4.942785	2.2232375
6.47958535360737	4.932115	2.2208366
6.497140233621328	4.955196	2.226027
6.514695266280161	5.0130787	2.2389905
6.532250451999859	5.0496454	2.2471416
6.549805791196454	5.094306	2.257057
6.567361284286002	5.1008115	2.2584977
6.584916931684597	5.0808353	2.2540708
6.602472733808367	5.0555224	2.2484488
6.6200286910734665	5.080503	2.253997
6.637584803896092	5.0627775	2.2500618
6.655141072692462	5.130937	2.2651572
6.672697497878842	5.1144342	2.2615116
6.690254079871514	5.060878	2.2496395
6.707810819086808	4.9895144	2.233722
6.725367715941078	4.910055	2.2158644
6.742924770850719	4.914322	2.216827
6.760481984232151	4.9291763	2.2201748
6.778039356501836	4.9408994	2.2228134
6.795596888076266	5.029014	2.2425463
6.813154579371963	5.0124807	2.238857
6.830712430805492	5.001573	2.2364197
6.84827044279344	4.953531	2.225653
6.865828615752445	4.935314	2.2215567
6.883386950099159	4.9680457	2.2289114
6.900945446250287	5.06609	2.2507977
6.918504104622553	5.151598	2.2697132
6.936062925632727	5.1846294	2.2769783
6.953621909697607	5.0986366	2.258016
6.971181057234028	5.0541487	2.2481434
6.988740368658859	5.1092544	2.260366
7.006299844389007	5.211097	2.2827828
7.023859484841407	5.235451	2.2881107
7.041419290433036	5.255855	2.292565
7.058979261580902	5.3241253	2.3074067
7.0765393987020495	5.5921283	2.364768
7.094099702213559	6.05804	2.4613087
7.111660172532549	6.5047927	2.5504496
7.129220810076164	6.9261093	2.6317503
7.146781615261595	7.583606	2.7538347
7.16434258850606	7.7752023	2.788405
7.181903730226821	8.277173	2.8770077
7.1994650408411704	8.245169	2.8714402
7.217026520766437	8.321738	2.8847423
7.234588170419983	8.471419	2.9105704
7.252149990219215	8.538861	2.922133
7.269711980581568	8.520246	2.918946
7.2872741419245175	8.27806	2.8771617
7.304836474665574	7.8366017	2.7993932
7.322398979222286	7.4928885	2.737314
7.339961656012233	7.226471	2.6882095
7.357524505453039	6.8867235	2.6242568
7.375087527962357	6.6997375	2.588385
7.392650723957886	6.4408817	2.5378892
7.410214093857353	6.08045	2.4658568
7.427777638078528	5.809911	2.4103756
7.445341357039213	5.5956607	2.365515
7.4629052511572525	5.4779687	2.340506
7.480469320850524	5.380478	2.3195858
7.498033566536948	5.293294	2.300716
7.5155979886344735	5.194915	2.2792356
7.5331625875610975	5.1453285	2.2683318
7.550727363734844	5.177217	2.2753499
7.568292317573788	5.2109327	2.2827468
7.585857449496025	5.249475	2.2911732
7.603422759919705	5.2847457	2.2988575
7.620988249263007	5.2509303	2.2914908
7.638553917944147	5.2285037	2.2865922
7.656119766381391	5.2205453	2.2848513
7.673685794993023	5.209597	2.2824543
7.691252004197388	5.150523	2.2694764
7.70881839441285	5.1438475	2.2680051
7.726384966057826	5.2099	2.2825205
7.743951719550762	5.3144817	2.305316
7.761518655310149	5.33133	2.3089674
7.779085773754511	5.3163033	2.305711
7.796653075302419	5.2632427	2.2941759
7.814220560372475	5.2612057	2.293732
7.831788229383323	5.2757764	2.2969058
7.8493560827536495	5.2910266	2.300223
7.866924120902174	5.290122	2.3000264
7.884492344247663	5.284907	2.2988925
7.9020607532089135	5.3137093	2.3051484
7.919629348204771	5.337263	2.3102517
7.937198129654115	5.3747196	2.318344
7.954767097975865	5.3890085	2.3214238
7.972336253588986	5.3668294	2.3166418
7.989905596912472	5.426828	2.3295553
8.007475128365371	5.4179645	2.3276522
8.025044848366756	5.487812	2.342608
8.042614757335754	5.572337	2.3605797
8.060184855691523	5.6419735	2.375284
8.07775514385327	5.8297153	2.4144802
8.095325622240228	5.9410243	2.4374216
8.112896291271687	5.9716506	2.443696
8.130467151366968	6.0258074	2.454752
8.148038202945436	6.0521646	2.4601147
8.165609446426497	5.989945	2.4474363
8.183180882229594	6.0607705	2.4618633
8.200752510774217	6.048579	2.4593859
8.218324332479893	6.044767	2.4586108
8.235896347766193	5.955585	2.4404068
8.253468557052724	5.9601912	2.4413502
8.27104096075914	6.0127597	2.452093
8.288613559305137	6.1280413	2.4754882
8.306186353110448	6.182637	2.486491
8.32375934259485	6.213908	2.4927711
8.341332528178162	6.227436	2.4954832
8.358905910280246	6.2725906	2.504514
8.376479489321003	6.235353	2.497069
8.394053265720377	6.2976294	2.509508
8.411627239898356	6.319682	2.513898
8.42920141227497	6.332356	2.5164173
8.44677578327029	6.3369346	2.5173268
8.464350353304427	6.220257	2.4940443
8.48192512279754	6.1746783	2.48489
8.499500092169827	6.1420045	2.4783068
8.51707526184153	6.214267	2.4928432
8.534650632232934	6.195846	2.4891458
8.552226203764365	6.1419277	2.4782913
8.569801976856192	6.125246	2.4749234
8.587377951928834	6.182361	2.4864354
8.60495412940274	6.327145	2.5153818
8.622530509698416	6.4111967	2.5320342
8.6401070932364	6.4967494	2.5488722
8.657683880437283	6.548488	2.5590014
8.675260871721695	6.6537333	2.579483
8.692838067510303	6.7858343	2.6049633
8.710415468223834	6.9217825	2.630928
8.727993074283043	7.0624437	2.6575258
8.745570886108737	7.08569	2.661896
8.763148904121765	7.199746	2.6832342
8.78072712874302	7.2169185	2.6864324
8.798305560393441	7.405693	2.7213404
8.815884199494006	7.559996	2.7495446
8.833463046465745	7.79989	2.7928283
8.851042101729728	7.9439096	2.8184943
8.86862136570707	8.182517	2.8605099
8.886200838818924	8.350224	2.8896754
8.903780521486505	8.426417	2.9028292
8.921360414131055	8.6060705	2.9336104
8.938940517173874	8.704374	2.9503176
8.956520831036297	8.794129	2.9654896
8.97410135613971	9.010288	3.0017142
8.99168209290554	9.20365	3.033752
9.009263041755265	9.487566	3.0801892
9.026844203110405	9.68441	3.1119785
9.044425577392525	9.803179	3.131003
9.062007165023239	9.942601	3.153189
9.079588966424197	10.259708	3.203078
9.097170982017108	10.41126	3.2266483
9.11475321222372	11.361406	3.3706684
9.132335657465825	12.294628	3.5063696
9.149918318165264	12.352594	3.5146258
9.167501194743924	12.866067	3.58693
9.18508428762374	12.519542	3.5382965
9.202667597226693	12.511815	3.5372045
9.220251123974803	12.146932	3.4852448
9.237834868290143	11.897998	3.4493475
9.255418830594836	11.753102	3.4282799
9.273003011311046	11.256397	3.3550556
9.290587410860985	10.983477	3.314133
9.308172029666911	10.292417	3.2081797
9.32575686815113	10.029318	3.16691
9.343341926735997	8.823954	2.970514
9.360927205843916	8.608198	2.933973
9.378512705897327	8.359892	2.8913476
9.396098427318728	8.083286	2.843112
9.413684370530664	7.9791756	2.8247435
9.431270535955722	7.9077845	2.8120782
9.448856924016539	7.8687525	2.8051298
9.466443535135806	7.7956686	2.7920725
9.484030369736251	7.7771096	2.788747
9.501617428240658	7.845671	2.8010125
9.519204711071852	7.869728	2.8053036
9.536792218652714	7.822138	2.7968085
9.55437995140617	7.7269397	2.7797372
9.571967909755191	7.772264	2.787878
9.589556094122802	7.933568	2.816659
9.60714450493207	8.033765	2.8343897
9.624733142606116	7.998053	2.828083
9.642322007568108	7.9308195	2.8161712
9.659911100241267	7.9027863	2.8111894
9.677500421048851	7.996935	2.8278852
9.695089970414175	8.0919285	2.8446314
9.712679748760609	8.130465	2.851397
9.730269756511557	8.107961	2.847448
9.747859994090492	8.10837	2.8475199
9.765450461920915	8.147321	2.8543513
9.78304116042639	8.213033	2.865839
9.800632090030527	8.248991	2.8721056
9.81822325115699	8.263496	2.8746297
9.835814644229481	8.301155	2.8811724
9.853406269671762	8.340388	2.887973
9.870998127907646	8.359113	2.891213
9.888590219360985	8.365532	2.892323
9.906182544455698	8.386733	2.8959856
9.923775103615734	8.383859	2.8954895
9.941367897265108	8.418433	2.9014537
9.958960925827878	8.403611	2.8988984
9.97655418972816	8.369327	2.892979
9.994147689390106	8.342713	2.8883755
10.011741425237934	8.334524	2.8869576
10.029335397695904	8.3007765	2.8811069
10.04692960718833	8.297004	2.880452
10.06452405413958	8.254362	2.8730407
10.082118738974064	8.259892	2.874003
10.099713662116246	8.227678	2.868393
10.117308823990651	8.184157	2.8607967
10.134904225021844	8.141462	2.853325
10.152499865634445	8.162716	2.8570466
10.170095746253125	8.2218275	2.867373
10.18769186730261	8.191294	2.8620436
10.205288229207675	8.152882	2.8553252
10.222884832393145	8.175718	2.8593214
10.2404816772839	8.189787	2.8617804
10.258078764304868	8.221721	2.8673544
10.275676093881035	8.179159	2.859923
10.293273666437438	8.098769	2.8458335
10.310871482399158	8.107417	2.8473527
10.32846954219134	8.089	2.8441167
10.346067846239173	8.119271	2.8494334
10.363666394967908	8.121684	2.8498569
10.38126518880283	8.092831	2.84479
10.398864228169298	8.146883	2.8542745
10.416463513492713	8.217472	2.8666134
10.434063045198531	8.17548	2.8592796
10.451662823712262	8.217354	2.8665926
10.469262849459467	8.186193	2.8611524
10.486863122865758	8.089381	2.8441837
10.504463644356806	8.078484	2.8422673
10.522064414358338	8.037131	2.8349836
10.539665433296118	8.04404	2.8362017
10.557266701595987	8.014049	2.8309095
10.574868219683818	7.8532724	2.802369
10.592469987985552	7.731664	2.780587
10.610072006927185	7.600068	2.756822
10.627674276934751	7.5824723	2.753629
10.64527679843435	7.521951	2.7426176
10.662879571852143	7.379193	2.716467
10.680482597614331	7.2574096	2.693958
10.698085876147173	7.122963	2.6688879
10.715689407876988	7.080003	2.6608274
10.733293193230146	6.9881315	2.6435075
10.750897232633072	6.9064417	2.628011
10.76850152651225	6.77381	2.6026545
10.786106075294207	6.627911	2.574473
10.803710879405534	6.504995	2.5504892
10.821315939272877	6.4528894	2.5402539
10.83892125532294	6.3445373	2.5188365
10.856526827982472	6.2236342	2.4947212
10.874132657678285	6.1787896	2.485717
10.891738744837243	6.1744356	2.484841
10.909345089886271	6.1626964	2.482478
10.926951693252343	6.0718803	2.4641185
10.944558555362494	6.0396237	2.4575646
10.96216567664381	5.9260716	2.4343524
10.979773057523436	5.8331833	2.4151983
10.997380698428573	5.745597	2.3969975
11.014988599786477	5.6837916	2.3840704
11.032596762024461	5.722278	2.3921285
11.050205185569892	5.768901	2.4018536
11.067813870850198	5.7025867	2.3880088
11.085422818292859	5.554895	2.3568826
11.10303202832541	5.423885	2.3289235
11.120641501375454	5.374871	2.3183768
11.138251237870636	5.319529	2.3064103
11.155861238238671	5.275493	2.2968442
11.173471502907317	5.2014794	2.2806752
11.191082032304402	5.1162434	2.2619114
11.208692826857805	5.059125	2.24925
11.226303886995465	5.0433273	2.2457354
11.243915213145371	5.005322	2.2372577
11.261526805735578	4.9721255	2.2298265
11.279138665194196	4.916075	2.2172225
11.296750791949393	4.8679914	2.2063525
11.314363186429393	4.8017664	2.1912932
11.331975849062479	4.751792	2.1798606
11.34958878027699	4.6909184	2.1658528
11.36720198050133	4.634454	2.1527781
11.384815450163948	4.5604835	2.1355288
11.402429189693366	4.5354123	2.1296508
11.420043199518153	4.4988394	2.1210468
11.437657480066942	63.449783	7.965537
11.455272031768422	85.191696	9.229935
11.472886855051353	107.58538	10.372337
11.490501950344528	99.21648	9.960747
11.508117318076819	84.54945	9.195078
11.52573295867715	45.904503	6.775286
11.543348872574514	4.202143	2.049913
11.560965060197946	4.1418185	2.0351458
11.57858152197655	4.1217527	2.03021
11.59619825833949	4.041922	2.0104532
11.613815269715985	4.002492	2.000623
11.631432556535323	38.506943	6.205396
11.649050119226837	83.05862	9.11365
11.666667958219929	93.46633	9.667799
11.68428607394406	107.72491	10.379061
11.701904466828756	82.59568	9.088217
11.719523137303586	65.4159	8.08801
11.737142085798196	4.6027546	2.1454031
11.754761312742286	3.6735637	1.9166543
11.772380818565619	3.6512241	1.9108176
11.790000603698015	3.6548202	1.9117584
11.80762066856935	3.625474	1.9040678
11.825241013609572	3.5929115	1.8954977
11.842861639248683	3.5151894	1.8748839
11.860482545916748	3.4385552	1.8543342
11.878103734043883	3.3881397	1.84069
11.895725204060282	3.3953722	1.8426535
11.91334695639619	3.4229474	1.8501209
11.930968991481919	3.4001763	1.8439567
11.948591309747824	3.3921635	1.8417827
11.966213911624347	3.3419726	1.8281063
11.98383679754198	3.3262522	1.8238016
12.001459967931268	3.2596498	1.80545
12.019083423222835	3.210834	1.79188
12.036707163847352	3.2364476	1.7990129
12.05433119023556	3.2378542	1.7994039
12.071955502818259	3.272584	1.8090285
12.089580102026313	3.240283	1.8000786
12.107204988290643	3.2283032	1.7967479
12.12483016204224	3.2228732	1.7952362
12.142455623712152	3.2124915	1.7923424
12.16008137373149	3.1588073	1.7773033
12.177707412531431	3.1277869	1.768555
12.19533374054321	3.0954046	1.7593762
12.212960358198126	3.0868185	1.7569344
12.230587265927545	3.0840535	1.7561474
12.248214464162889	3.0761187	1.7538867
12.265841953335649	3.0619218	1.7498348
12.283469733877375	3.0141292	1.7361248
12.301097806219685	2.9765637	1.725272
12.31872617079425	2.9407103	1.71485
12.336354828032825	2.9301143	1.7117577
12.353983778367205	2.940247	1.7147149
12.371613022229262	2.971052	1.7236739
12.389242560050928	2.9296157	1.711612
12.406872392264201	2.8949945	1.7014683
12.424502519301143	2.8618093	1.6916883
12.442132941593874	2.8492374	1.6879685
12.459763659574586	2.8518052	1.6887289
12.477394673675532	2.8882253	1.6994779
12.49502598432903	2.89328	1.7009645
12.51265759196746	2.8841753	1.6982859
12.530289497023267	2.8641999	1.6923947
12.547921699928967	2.8019106	1.6738908
12.565554201117134	2.7469764	1.6574005
12.583187001020404	2.7580197	1.6607287
12.600820100071486	2.7583518	1.6608286
12.618453498703152	2.7767668	1.6663634
12.636087197348235	2.7670794	1.663454
12.65372119643964	2.7652543	1.6629053
12.671355496410326	2.7648435	1.6627818
12.68899009769333	2.8059049	1.6750835
12.706625000721749	2.8574173	1.6903898
12.724260205928752	2.9351676	1.7132331
12.741895713747551	2.9897609	1.7290925
12.759531524611454	3.0435824	1.7445866
12.777167638953818	3.0680683	1.7515903
12.794804057208072	3.0651665	1.7507616
12.812440779807702	3.0684304	1.7516936
12.830077807186271	3.216296	1.7934035
12.847715139777405	3.2933333	1.8147544
12.865352778014795	3.5274363	1.878147
12.882990722332197	3.6584537	1.9127085
12.90062897316344	3.725036	1.9300352
12.918267530942412	3.7518463	1.9369683
12.935906396103071	3.6069582	1.8991994
12.953545569079449	3.737918	1.9333695
12.971185050305628	3.5682511	1.8889815
12.988824840215775	3.5714324	1.8898233
13.006464939244115	3.5379786	1.8809515
13.024105347824943	3.373331	1.836663
13.041746066392617	3.4416215	1.8551608
13.05938709538157	3.238387	1.799552
13.077028435226296	3.2787335	1.8107274
13.094670086361363	3.2595499	1.8054223
13.112312049221401	3.2182536	1.7939491
13.129954324241112	3.1552758	1.7763096
13.147596911855258	2.9584484	1.7200141
13.165239812498685	2.9099422	1.7058553
13.182883026606293	2.824016	1.680481
13.200526554613058	2.7538433	1.6594708
13.218170396954017	2.7340531	1.6534972
13.235814554064284	2.7569568	1.6604086
13.253459026379034	2.7539692	1.6595087
13.271103814333523	2.7023015	1.6438679
13.288748918363058	2.6638963	1.6321447
13.306394338903031	2.6393228	1.6245992
13.32404007638889	2.6374185	1.6240131
13.341686131256164	2.6448078	1.6262865
13.359332503940449	2.6303556	1.6218371
13.376979194877402	2.651801	1.6284351
13.394626204502751	2.695983	1.6419449
13.412273533252307	2.7416987	1.6558076
13.429921181561937	2.7467916	1.6573447
13.447569149867581	2.754243	1.6595912
13.465217438605247	2.7238197	1.6503999
13.482866048211022	2.6747332	1.6354611
13.500514979121052	2.6918454	1.6406845
13.518164231771568	2.6967425	1.6421762
13.535813806598844	2.703801	1.6443238
13.553463704039254	2.7057278	1.6449096
13.571113924529229	2.6977096	1.6424706
13.588764468505275	2.6490836	1.6276006
13.606415336403956	2.6591845	1.6307006
13.624066528661917	2.6926966	1.6409438
13.641718045715882	2.7929401	1.6712092
13.659369888002635	2.8276575	1.681564
13.67702205595903	2.8684735	1.6936568
13.694674550021993	2.9516845	1.7180467
13.712327370628532	3.0239997	1.7389652
13.729980518215713	3.1256456	1.7679496
13.747633993220681	3.1617558	1.7781327
13.765287796080647	3.144794	1.7733567
13.7829419272329	3.2181306	1.7939149
13.800596387114801	3.2877555	1.8132169
13.818251176163775	3.3608663	1.8332666
13.835906294817324	3.3643246	1.8342096
13.853561743513023	3.3702657	1.8358283
13.871217522688525	3.4303215	1.8521127
13.888873632781538	3.483428	1.8663944
13.906530074229858	3.4997098	1.8707511
13.92418684747135	3.5142186	1.874625
13.941843952943948	3.5263748	1.8778645
13.959501391085665	3.5248642	1.8774621
13.977159162334578	3.434927	1.8533556
13.994817267128846	3.4083123	1.8461615
14.012475705906693	3.3152676	1.8207877
14.030134479106424	3.2614279	1.8059424
14.047793587166414	3.1853948	1.7847674
14.065453030525108	3.1052449	1.7621706
14.083112809621026	3.0055413	1.7336497
14.100772924892766	2.9359603	1.7134644
14.118433376778997	2.9018154	1.7034715
14.136094165718458	2.860065	1.6911727
14.153755292149969	2.8146348	1.6776873
14.171416756512416	2.7543542	1.6596247
14.189078559244768	2.655178	1.6294717
14.20674070078606	2.5837684	1.6074104
14.224403181575408	2.5078287	1.5836126
14.242066002051999	2.4979815	1.5805004
14.259729162655093	2.4620852	1.5691034
14.277392663824022	2.4516544	1.565776
14.295056505998208	2.4550345	1.566855
14.312720689617128	2.4507537	1.5654883
14.330385215120348	2.440197	1.562113
14.348050082947497	2.435958	1.5607556
14.3657152935383	2.4405973	1.5622411
14.383380847332528	2.4038522	1.5504361
14.401046744770051	2.3596675	1.5361209
14.418712986290798	2.3447278	1.5312504
14.436379572334793	2.3784156	1.5422113
14.454046503342123	2.4079537	1.5517583
14.471713779752946	2.417619	1.5548694
14.489381402007504	2.4218075	1.5562158
14.507049370546113	2.4291766	1.5585816
14.524717685809168	2.4390543	1.5617472
14.542386348237134	2.4536684	1.566419
14.560055358270553	2.4749784	1.5732064
14.577724716350051	2.5037668	1.5823295
14.595394422916325	2.4879065	1.5773098
14.61306447841015	2.4889064	1.5776268
14.63073488327237	2.466621	1.5705479
14.648405637943917	2.515772	1.5861186
14.6660767428658	2.5200083	1.5874534
14.683748198479094	2.5453477	1.5954146
14.701420005224954	2.5353143	1.592267
14.719092163544628	2.612026	1.6161764
14.73676467387942	2.6603677	1.6310633
14.754437536670727	2.6519196	1.6284716
14.772110752360014	2.6306198	1.6219186
14.78978432138882	2.636214	1.6236422
14.807458244198777	2.6604323	1.6310831
14.82513252123159	2.665533	1.6326461
14.842807152929028	2.6958516	1.6419048
14.860482139732962	2.7326725	1.6530796
14.87815748208531	2.7438753	1.6564647
14.8958331804281	2.746809	1.65735
14.91350923520342	2.7141454	1.6474664
14.931185646853438	2.7143404	1.6475255
14.948862415820408	2.6952274	1.6417148
14.966539542546656	2.684241	1.6383654
14.98421702747459	2.6849918	1.6385945
15.001894871046696	2.7056727	1.6448929
15.019573073705542	2.7319105	1.6528492
15.037251635893766	2.696561	1.642121
15.054930558054092	2.6814566	1.6375153
15.072609840629323	2.717164	1.6483823
15.090289484062351	2.8800757	1.6970786
15.107969488796124	3.1735904	1.7814574
15.125649855273691	3.633872	1.9062718
15.14333058393817	4.1708384	2.042263
15.161011675232768	5.156942	2.27089
15.17869312960076	6.4300833	2.5357609
15.196374947485506	8.251853	2.872604
15.214057129330447	11.376839	3.372957
15.231739675579114	16.058592	4.007317
15.249422586675102	20.95914	4.5781155
15.267105863062092	23.939356	4.892786
15.284789505183847	24.12353	4.911571
15.302473513484218	22.03278	4.6939087
15.320157888407127	18.468996	4.297557
15.337842630396578	14.360633	3.7895427
15.355527739896656	11.178919	3.343489
15.37321321735153	8.702601	2.9500172
15.39089906320545	6.374617	2.5248003
15.408585277902748	4.8308387	2.197917
15.42627186188783	3.7750988	1.9429613
15.443958815605198	3.234173	1.7983807
15.461646139499424	2.91439	1.7071584
15.479333834015168	2.7906432	1.6705219
15.497021899597165	2.7427003	1.65611
15.514710336690234	2.6700435	1.6340268
15.53239914573928	2.599144	1.6121861
15.550088327189297	2.5679123	1.6024708
15.567777881485336	2.540517	1.5939
15.58546780907256	2.5258167	1.5892818
15.6031581103962	2.5039933	1.5824012
15.620848785901568	2.513877	1.585521
15.638539836034063	2.5400424	1.5937511
15.656231261239173	2.5519085	1.5974694
15.673923061962451	2.5268064	1.5895932
15.691615238649552	2.4760783	1.573556
15.709307791746202	2.4199798	1.5556284
15.727000721698221	2.410859	1.5526942
15.744694028951498	2.436285	1.5608604
15.76238771395202	2.4006932	1.549417
15.780081777145844	2.3642533	1.5376128
15.797776218979125	2.3267646	1.5253736
15.815471039898094	2.3231323	1.5241824
15.833166240349064	2.3702407	1.5395586
15.850861820778437	2.4005303	1.5493644
15.868557781632699	2.405884	1.5510912
15.886254123358412	2.3877976	1.54525
15.903950846402232	2.3755152	1.5412706
15.921647951210897	2.3894448	1.5457829
15.939345438231225	2.3987923	1.5488034
15.957043307910133	2.3838913	1.5439855
15.974741560694602	2.3826318	1.5435776
15.992440197031714	2.3572006	1.5353178
16.01013921736862	2.352661	1.5338386
16.02783862215259	2.3640664	1.5375521
16.045538411830933	2.3801444	1.5427717
16.06323858685107	2.38162	1.5432498
16.080939147660512	2.3731265	1.5404955
16.09864009470684	2.3970544	1.5482423
16.11634142843774	2.4222898	1.5563707
16.134043149300954	2.4558773	1.5671239
16.15174525774433	2.4399264	1.5620264
16.169447754215817	2.4604733	1.5685896
16.18715063916342	2.4485066	1.5647705
16.204853913035244	2.4443831	1.5634524
16.222557576279478	2.4389904	1.5617267
16.240261629344403	22.413721	4.734313
16.257966072678386	42.960472	6.554424
16.275670906729868	38.10936	6.173278
16.293376131947387	2.5958138	1.6111529
16.31108174877957	2.599048	1.6121563
16.328787757675133	2.5963147	1.6113083
16.34649415908287	2.569517	1.6029713
16.364200953451657	2.5847287	1.6077092
16.38190814123048	2.6049895	1.6139979
16.39961572286839	2.6507318	1.6281068
16.41732369881455	2.7055998	1.6448708
16.43503206951817	2.748098	1.6577388
16.45274083542859	2.7878876	1.6696968
16.47044999699522	2.8288188	1.6819093
16.488159554667558	2.867782	1.6934527
16.505869508895184	2.8927326	1.7008035
16.523579860127786	2.8992367	1.7027146
16.541290608815117	2.9582279	1.71995
16.559001755407035	2.9975483	1.7313429
16.57671330035348	3.0375836	1.7428665
16.59442524410448	3.1095622	1.7633951
16.61213758711015	3.2070718	1.7908299
16.629850329820705	3.2632334	1.8064421
16.647563472686436	3.327041	1.8240178
16.665277016157724	3.3446875	1.8288487
16.682990960685053	3.3974063	1.8432055
16.70070530671898	3.4296973	1.8519442
16.718420054710155	3.4478164	1.8568296
16.736135205109335	3.4885035	1.8677536
16.753850758367335	3.588829	1.8944205
16.771566714935087	3.6974792	1.922883
16.789283075263597	3.8014243	1.9497242
16.80699983980398	3.8426158	1.9602591
16.82471700900741	3.899454	1.9747036
16.84243458332518	3.9342237	1.9834877
16.860152563208665	3.9839869	1.9959927
16.87787094910932	4.04115	2.0102613
16.89558974147871	4.0945272	2.0234938
16.913308940768466	4.1867447	2.0461535
16.931028547430333	4.243471	2.0599687
16.94874856191613	4.290022	2.0712368
16.966468984677785	4.32675	2.080084
16.98418981616729	4.384669	2.09396
17.00191105683676	4.451976	2.1099706
17.019632707138374	4.5038056	2.1222172
17.03735476752442	4.500286	2.1213877
17.05507723844728	4.5470986	2.1323926
17.072800120359403	4.555585	2.1343815
17.090523413713353	4.6003876	2.1448514
17.108247118961785	4.6390104	2.1538363
17.125971236557437	4.674436	2.1620445
17.143695766953133	4.655942	2.1577632
17.161420710601806	4.6228743	2.150087
17.179146067956477	4.6116266	2.1474698
17.19687183947025	4.6116714	2.1474802
17.21459802559634	4.6396904	2.153994
17.232324626788028	4.631377	2.1520634
17.25005164349871	4.6669517	2.160313
17.267779076181863	4.674336	2.1620212
17.285506925291074	4.5901527	2.1424642
17.30323519127999	4.530629	2.1285274
17.320963874602384	4.524736	2.1271427
17.33869297571211	4.563609	2.1362605
17.356422495063114	4.5694566	2.1376288
17.37415243310944	4.535741	2.1297278
17.391882790305218	4.5243893	2.1270611
17.40961356710468	4.5629683	2.1361105
17.42734476396215	4.5742745	2.1387553
17.445076381332044	4.5626626	2.136039
17.462808419668868	4.6060257	2.1461654
17.48054087942723	4.702823	2.1685994
17.498273761061835	5.0344486	2.2437577
17.51600706502747	5.563387	2.3586833
17.533740791779024	6.344164	2.5187624
17.551474941771485	7.6971016	2.7743652
17.56920951545993	8.734604	2.9554362
17.586944513299528	10.869684	3.2969203
17.60467993574556	12.501542	3.535752
17.622415783253373	14.090747	3.7537644
17.64015205627843	15.27646	3.9085112
17.657888755276293	16.23864	4.0297194
17.675625880702604	16.796246	4.0983224
17.69336343301311	16.668505	4.082708
17.71110141266366	15.889425	3.986154
17.728839820110178	14.957794	3.8675308
17.746578655808705	14.141889	3.7605703
17.764317920215372	12.847095	3.5842843
17.7820576137864	11.384443	3.374084
17.79979773697811	9.406352	3.0669777
17.81753829024692	7.56914	2.751207
17.835279274049356	5.877936	2.4244454
17.85302068884201	4.8238072	2.1963167
17.870762535081607	4.1147823	2.0284927
17.888504813224934	3.8171413	1.9537506
17.90624752372891	3.6783001	1.9178895
17.923990667050536	3.6006334	1.8975335
17.941734243646895	3.50322	1.8716891
17.959478253975185	3.4167392	1.8484424
17.9772226984927	3.3994162	1.8437506
17.994967577656833	3.3599224	1.8330091
18.01271289192506	3.3595424	1.8329054
18.030458641754965	3.367532	1.8350836
18.04820482760425	3.373033	1.836582
18.06595144993067	3.3547769	1.831605
18.083698509192125	3.3364682	1.8266002
18.101446005846576	3.274072	1.8094397
18.119193940352105	3.237562	1.7993226
18.136942313166887	3.2086117	1.7912598
18.1546911247492	3.211929	1.7921855
18.1724403755574	3.1791434	1.7830153
18.19019006604997	3.1771686	1.7824614
18.207940196685467	3.169825	1.7804003
18.225690767922575	3.145484	1.7735512
18.243441780220046	3.1273348	1.7684273
18.261193234036764	3.1080387	1.762963
18.278945129831676	3.0975404	1.7599831
18.29669746806386	3.0235443	1.7388341
18.314450249192483	2.9760387	1.72512
18.3322034736768	2.9722776	1.7240294
18.349957141976184	3.004634	1.733388
18.3677112545501	3.0313663	1.741082
18.385465811858108	3.0580952	1.748741
18.403220814359884	3.0805082	1.7551377
18.420976262515172	3.094738	1.7591867
18.43873215678387	3.1208134	1.7665824
18.456488497625923	3.152592	1.775554
18.474245285501407	3.2046814	1.7901624
18.492002520870486	3.2632012	1.8064333
18.50976020419343	3.3480415	1.8297654
18.527518335930615	3.6705823	1.9158764
18.545276916542516	4.1842594	2.0455463
18.563035946489688	4.3823843	2.0934145
18.580795426232832	4.8948474	2.2124302
18.598555356232698	4.8137045	2.1940155
18.616315736950185	5.1078715	2.26006
18.63407656884626	4.740697	2.177314
18.65183785238201	4.939014	2.2223892
18.669599588018617	4.6931486	2.1663675
18.68736177621737	4.7009954	2.1681778
18.705124417439652	4.700566	2.168079
18.72288751214696	4.5059566	2.1227238
18.740651060800886	4.6345916	2.15281
18.758415063863115	4.3824816	2.0934377
18.77617952179546	4.5335073	2.1292036
18.793944435059814	4.227151	2.0560036
18.811709804118184	4.2439466	2.060084
18.829475629432675	4.2300572	2.0567102
18.8472419114655	4.0168633	2.0042114
18.86500865067897	4.124201	2.0308127
18.88277584753551	3.8106275	1.9520829
18.90054350249763	3.852235	1.9627111
18.918311616027957	3.5076451	1.8728708
18.936080188589226	3.4061558	1.8455774
18.953849220644265	3.0466597	1.7454684
18.971618712656007	2.8950918	1.701497
18.9893886650875	2.8712113	1.6944649
19.007159078401887	8.062677	2.8394854
19.024929953062408	32.926464	5.7381587
19.042701289532435	32.824326	5.729252
19.060473088275405	25.351425	5.03502
19.07824534975489	2.6520941	1.6285251
19.096018074434568	2.669671	1.6339128
19.113791262778197	2.6098495	1.6155028
19.13156491524966	2.5607421	1.6002319
19.149339032312945	2.531011	1.5909152
19.167113614432136	2.5189521	1.5871207
19.184888662071433	2.4754663	1.5733614
19.202664175695123	2.5075183	1.5835146
19.220440155767623	2.5682232	1.6025677
19.238216602753447	2.6026776	1.6132816
19.2559935171172	2.6006103	1.6126407
19.27377089932361	2.5660262	1.6018821
19.291548749837514	2.5166893	1.5864077
19.309327069123835	2.484264	1.5761548
19.32710585764763	2.50916	1.5840329
19.344885115874032	2.5010502	1.581471
19.362664844268313	2.5191102	1.5871705
19.380445043295822	2.4932184	1.5789928
19.39822571342203	2.5080297	1.583676
19.41600685511252	2.5083323	1.5837716
19.43378846883297	2.5092442	1.5840594
19.451570555049173	2.4872875	1.5771136
19.469353114227037	2.5004191	1.5812714
19.48713614683254	2.4950047	1.5795584
19.50491965333182	2.5122354	1.5850033
19.52270363419109	2.5293012	1.5903777
19.540488089876686	2.529911	1.5905694
19.55827302085503	2.5182483	1.5868989
19.576058427592674	2.5488553	1.5965135
19.593844310556282	2.5776067	1.6054927
19.611630670212598	2.5846097	1.6076721
19.629417507028506	2.52373	1.5886252
19.64720482147098	2.490423	1.5781074
19.6649926140071	2.5090363	1.5839938
19.682780885104084	2.505757	1.5829583
19.70056963522921	2.4675837	1.5708544
19.718358864849908	2.4637558	1.5696356
19.7361485744337	2.518371	1.5869377
19.753938764448215	2.5666516	1.6020772
19.771729435361202	2.5454242	1.5954386
19.789520587640506	2.5393183	1.5935239
19.807312221754092	2.553128	1.597851
19.825104338170043	2.5484521	1.5963873
19.842896937356517	2.5448935	1.5952722
19.860690019781824	2.5360348	1.5924933
19.87848358591436	2.5437353	1.5949092
19.896277636222635	2.5803025	1.606332
19.914072171175278	2.5676627	1.6023928
19.931867191241015	2.530613	1.59079
19.94966269688869	2.499984	1.5811337
19.967458688587264	2.505401	1.5828458
19.985255166805807	2.4977496	1.580427
20.00305213201348	2.4675407	1.5708407
20.020849584679578	2.4288006	1.558461
20.038647525273507	2.423705	1.5568253
20.05644595426477	2.4133713	1.5535029
20.07424487212299	2.435502	1.5606095
20.092044279317903	2.4633431	1.5695041
20.109844176319353	2.5085163	1.5838296
20.127644563597304	2.4830542	1.575771
20.145445441621817	2.4073393	1.5515603
20.16324681086307	2.3766255	1.5416309
20.181048671791373	2.3589618	1.5358912
20.198851024877122	2.3788638	1.5423566
20.216653870590836	2.365876	1.5381404
20.234457209403146	2.351815	1.5335629
20.252261041784802	2.3827374	1.5436118
20.270065368206662	2.3757455	1.5413454
20.287870189139685	2.383931	1.5439984
20.305675505054968	2.3677623	1.5387535
20.323481316423702	2.3619366	1.5368593
20.341287623717207	2.3530502	1.5339655
20.359094427406884	2.310761	1.5201187
20.376901727964288	2.2878551	1.5125657
20.39470952586107	2.317168	1.5222247
20.41251782156899	2.3915243	1.5464554
20.430326615559935	2.389832	1.5459082
20.448135908305886	2.3804529	1.5428716
20.465945700278965	2.3344412	1.5278878
20.483755991951384	2.317721	1.5224063
20.50156678379548	2.28526	1.5117077
20.519378076283708	2.2907848	1.5135338
20.537189869888635	2.323934	1.5244455
20.55500216508294	2.3245533	1.5246485
20.572814962339415	2.3064811	1.5187104
20.59062826213098	2.301536	1.5170814
20.60844206493066	2.3175178	1.5223396
20.626256371211593	2.29455	1.5147772
20.644071181447032	2.2843993	1.5114229
20.66188649611036	2.3007154	1.5168109
20.67970231567506	2.3123965	1.5206566
20.697518640614742	2.301925	1.5172096
20.715335471403122	2.2832444	1.5110408
20.73315280851404	2.296163	1.5153096
20.750970652421447	2.2737877	1.5079083
20.768789003599412	2.2917292	1.5138458
20.786607862522136	2.2750723	1.5083343
20.8044272296639	2.2748275	1.5082531
20.82224710549913	2.2671528	1.5057068
20.84006749050237	2.2827797	1.510887
20.857888385148268	3.84041	1.9596964
20.8757097899116	45.925148	6.7768097
20.893531705267254	64.757454	8.047201
20.911354131690224	83.78171	9.1532345
20.92917706965566	69.0771	8.311264
20.94700051963877	50.188084	7.084355
20.96482448211493	29.487257	5.4302173
20.982648957559622	4.191962	2.0474281
21.00047394644843	2.22086	1.490255
21.01829944925707	2.2018287	1.4838561
21.036125466461375	2.2096517	1.4864898
21.053951998537297	2.2241638	1.491363
21.071779045960906	2.2343073	1.4947599
21.089606609208378	2.240569	1.4968531
21.10743468875603	2.2852366	1.5116999
21.12526328508028	2.2751648	1.5083649
21.143092398657675	2.2473502	1.4991164
21.16092202996488	2.2113523	1.4870616
21.17875217947867	2.2203186	1.4900733
21.19658284767596	2.1903396	1.4799796
21.21441403503377	2.1484497	1.465759
21.232245742029225	2.1564627	1.4684899
21.2500779691396	2.173923	1.4744229
21.26791071684227	2.1665883	1.4719335
21.28574398561475	2.1835938	1.4776988
21.30357777593465	2.1909716	1.4801931
21.321412088279704	2.185383	1.4783041
21.339246923127792	2.183659	1.4777209
21.357082280956888	2.2007406	1.4834893
21.3749181622451	2.1780462	1.4758205
21.392754567470647	2.1675725	1.4722679
21.41059149711187	2.1506884	1.4665226
21.42842895164726	2.1574757	1.4688348
21.446266931555378	2.157139	1.4687202
21.464105437314945	2.1530812	1.4673381
21.481944469404798	2.1188667	1.4556327
21.49978402830388	2.0977862	1.4483737
21.51762411449127	2.076935	1.4411576
21.53546472844617	2.0770266	1.4411893
21.553305870647876	2.098625	1.4486631
21.571147541575865	2.1446793	1.4644724
21.58898974170967	2.1261184	1.4581215
21.60683247152899	2.0848708	1.4439082
21.62467573151363	2.0731053	1.4398283
21.642519522143523	2.0863988	1.4444371
21.660363843898722	2.0992737	1.448887
21.6782086972594	2.0795672	1.4420705
21.696054082705864	2.0586977	1.4348162
21.713900000718535	2.0498898	1.4317436
21.73174645177795	2.0666153	1.4375727
21.749593436364794	2.0848196	1.4438905
21.767440954959845	2.0462937	1.4304873
21.785289008044032	2.0056846	1.416222
21.803137596098388	1.985072	1.4089259
21.820986719604086	2.0026708	1.4151576
21.838836379042412	1.9908059	1.4109592
21.85668657489478	2.0139694	1.4191439
21.87453730764273	2.015689	1.4197496
21.892388577767914	2.01339	1.4189397
21.91024038575213	2.0354414	1.4266889
21.928092732077285	2.0303333	1.4248977
21.945945617225426	2.027245	1.4238136
21.963799041678694	2.00015	1.4142666
21.981653005919398	31.315407	5.596017
21.999507510429943	78.12727	8.8389635
22.01736255569286	73.091515	8.549357
22.035218142190818	4.2184005	2.0538745
22.05307427040661	2.0395048	1.4281123
22.07093094082315	2.01252	1.4186332
22.088788153923474	1.9608508	1.4003038
22.106645910190746	1.9942498	1.4121791
22.12450421010827	2.0171816	1.4202752
22.142363054159464	2.0475945	1.4309418
22.16022244282787	2.0213764	1.4217511
22.178082376597164	1.9897231	1.4105754
22.195942855951145	2.0008972	1.4145308
22.213803881373742	2.0057101	1.4162309
22.231665453349002	2.0295117	1.4246093
22.24952757236111	2.0240605	1.4226948
22.26739023889438	2.0289433	1.4244099
22.28525345343323	1.9916931	1.4112736
22.30311721646225	1.9523479	1.3972645
22.320981528466113	1.9515312	1.3969722
22.33884638992964	1.9803696	1.407256
22.356711801337788	1.9552794	1.398313
22.37457776317561	1.9325278	1.3901539
22.392444275928337	1.9618728	1.4006687
22.410311340081282	1.9848937	1.4088626
22.428178956119904	2.0024688	1.4150862
22.446047124529805	1.9636483	1.4013023
22.46391584579669	1.9894164	1.4104667
22.481785120406414	2.001729	1.4148247
22.49965494884496	2.0133107	1.4189118
22.51752533159841	2.0061243	1.4163772
22.53539626915302	1.9657428	1.4020495
22.553267761995137	1.9275076	1.388347
22.571139810611264	1.92713	1.3882111
22.589012415488025	1.959349	1.3997675
22.60688557711216	1.9896369	1.4105449
22.624759295970566	1.9928458	1.4116819
22.642633572550263	1.9529696	1.3974869
22.660508407338362	1.9167612	1.3844714
22.67838380082217	1.9442515	1.3943642
22.696259753489077	1.9377677	1.3920373
22.714136265826614	1.9591386	1.3996923
22.73201333832246	1.93195	1.389946
22.74989097146439	1.960192	1.4000685
22.76776916574035	1.9555843	1.3984221
22.785647921638393	1.9673046	1.4026064
22.803527239646712	1.9412751	1.3932965
22.82140712025363	1.901045	1.3787838
22.839287563947593	1.8725811	1.3684229
22.85716857121719	1.8886889	1.3742958
22.875050142551135	1.8846264	1.3728169
22.892932278438277	1.8580298	1.3630956
22.910814979367604	1.8882712	1.3741438
22.928698245828222	1.8975849	1.3775285
22.946582078309387	1.8804215	1.3712846
22.96446647730047	1.874078	1.3689697
22.98235144329098	1.8809229	1.3714675
23.000236976770562	1.8714397	1.3680058
23.018123078229	1.8496479	1.3600177
23.03600974815619	1.8694642	1.3672835
23.053896987042194	1.8362637	1.3550881
23.071784795377173	1.8339651	1.3542397
23.08967317365145	1.8277837	1.3519555
23.10756212235546	1.8667399	1.3662869
23.125451641979787	1.8771758	1.3701006
23.143341733015134	1.9021665	1.3791906
23.161232395952357	1.9098737	1.3819818
23.179123631282426	1.9201628	1.3856994
23.197015439496468	1.9224926	1.3865398
23.214907821085717	1.9221327	1.38641
23.23280077654157	1.948474	1.3958775
23.250694306355538	1.9487276	1.3959683
23.268588411019277	1.9062157	1.3806577
23.28648309102458	1.8731462	1.3686293
23.304378346863356	1.8888003	1.3743362
23.322274179027676	1.9472232	1.3954294
23.340170588009723	1.9736154	1.4048542
23.358067574301852	1.9773178	1.4061713
23.37596513839651	1.9735067	1.4048156
23.39386328078629	1.9597069	1.3998953
23.411762001963947	1.9669739	1.4024885
23.429661302422353	1.9469961	1.3953481
23.4475611826545	1.9500805	1.3964528
23.46546164315356	1.9513302	1.3969002
23.48336268441279	1.9284468	1.3886852
23.501264306925638	1.9022208	1.3792102
23.51916651118564	1.8849777	1.372945
23.537069297686497	1.8985028	1.3778617
23.554972666922037	1.9358976	1.3913654
23.57287661938623	1.9454151	1.3947814
23.59078115557318	1.937264	1.3918563
23.608686275977128	1.8753862	1.3694475
23.62659198109246	1.8693932	1.3672576
23.6444982714137	1.8909034	1.3751012
23.66240514743549	1.9588217	1.399579
23.68031260965263	1.9672956	1.4026031
23.698220658560068	1.92926	1.388978
23.716129294652845	1.8821446	1.3719127
23.7340385184262	1.9247059	1.3873377
23.75194833037546	1.9405732	1.3930446
23.769858730996123	1.9316102	1.3898238
23.78776972078382	1.9080173	1.38131
23.80568130023431	1.9034472	1.3796548
23.823593469843495	1.8849938	1.3729508
23.841506230107424	1.864003	1.3652849
23.859419581522275	1.8720267	1.3682202
23.87733352458438	1.8663611	1.3661482
23.89524805979019	1.8735706	1.3687843
23.913163187636318	1.8726789	1.3684586
23.931078908619508	1.8963879	1.377094
23.948995223236633	1.9409491	1.3931795
23.966912131984735	1.9847523	1.4088124
23.98482963536096	2.024762	1.4229413
24.002747733862616	2.0357578	1.4267999
24.020666427987155	2.0321152	1.4255228
24.038585718232156	2.0654275	1.4371595
24.056505605095353	2.0689828	1.438396
24.074426089074617	2.0916212	1.4462438
24.092347170667946	2.025709	1.423274
24.110268850373515	2.0039072	1.4155943
24.128191128689586	2.0779624	1.4415139
24.146114006114626	2.1131365	1.4536631
24.164037483147187	2.1026592	1.4500549
24.181961560286005	2.0583494	1.4346949
24.199886238029926	2.016078	1.4198866
24.21781151687797	2.024082	1.4227023
24.235737397329274	2.0356853	1.4267744
24.253663879883135	2.0355434	1.4267247
24.271590965038975	2.0169356	1.4201885
24.289518653296376	2.0242345	1.422756
24.30744694515505	2.0221455	1.4220216
24.32537584111486	2.0332198	1.4259101
24.34330534167581	2.0170314	1.4202223
24.361235447338046	1.9824034	1.4079785
24.379166158601876	1.9253926	1.3875852
24.39709747596772	1.9684736	1.403023
24.41502939993615	2.0053196	1.4160931
24.432961931007917	2.021503	1.4217957
24.450895069683856	2.001245	1.4146537
24.468828816465	1.9679172	1.4028248
24.4867631718525	1.966056	1.4021612
24.504698136347656	1.9291044	1.3889221
24.52263371045192	1.9058319	1.3805187
24.540569894666874	1.9259514	1.3877865
24.558506689494266	1.9461535	1.3950461
24.57644409543597	1.9485627	1.3959093
24.594382112994012	1.9518713	1.3970939
24.61232074267057	1.9762992	1.405809
24.630259984967953	1.971308	1.4040327
24.64819984038863	1.966041	1.4021559
24.66614030943522	1.9557563	1.3984835
24.684081392610462	1.9570802	1.3989569
24.702023090417274	1.9502288	1.396506
24.7199654033587	1.9149143	1.3838043
24.737908331937927	1.9345297	1.3908737
24.755851876658305	2.0081582	1.417095
24.773796038023324	2.0469387	1.4307126
24.79174081653661	2.0534189	1.4329755
24.809686212701962	2.0949996	1.4474113
24.827632227023294	2.099662	1.4490211
24.8455788600047	2.0875235	1.4448265
24.8635261121504	2.066081	1.4373869
24.88147398396475	2.1036026	1.4503802
24.899422475952303	2.103794	1.4504461
24.917371588617698	2.059252	1.4350094
24.935321322465768	2.1135814	1.4538162
24.953271678001478	2.2383027	1.4960958
24.97122265572994	2.4686356	1.5711892
24.989174256156414	2.8280113	1.6816692
25.00712647978632	3.2903934	1.8139441
25.02507932712521	3.735837	1.9328313
25.043032798678798	4.2237086	2.0551662
25.060986894952933	4.78284	2.1869705
25.078941616453637	5.53375	2.3523924
25.096896963687055	6.450372	2.5397582
25.114852937159508	7.676984	2.7707372
25.132809537377444	8.229902	2.8687806
25.150766764847468	8.247223	2.8717978
25.168724620076347	7.668002	2.7691157
25.186683103570985	6.687229	2.5859678
25.204642215838426	5.545357	2.3548582
25.222601957385894	4.1454406	2.0360355
25.24056232872074	3.160483	1.7777747
25.25852333035048	2.5974257	1.6116531
25.276484962782778	2.2805033	1.5101335
25.294447226525435	2.1470509	1.4652818
25.312410122086423	2.0902913	1.445784
25.330373649973843	2.0199883	1.421263
25.348337810695988	1.958647	1.3995167
25.366302604761245	1.9042572	1.3799483
25.384268032678207	1.8507478	1.3604219
25.40223409495558	1.8258605	1.3512441
25.420200792102257	1.858413	1.3632362
25.438168124627246	1.8535342	1.3614457
25.45613609303974	1.8634342	1.3650767
25.474104697849057	1.8957434	1.37686
25.492073939564698	1.9391216	1.3925234
25.510043818696285	1.9429604	1.3939011
25.528014335753614	1.9199126	1.3856091
25.54598549124664	1.8947704	1.3765066
25.56395728568544	1.8756567	1.3695462
25.58192971958028	1.9080197	1.3813108
25.59990279344156	1.8970157	1.377322
25.617876507779833	1.8692017	1.3671875
25.635850863105826	1.8372148	1.355439
25.653825859930386	1.8353728	1.3547593
25.671801498764548	1.8420916	1.3572367
25.68977778011949	1.8410194	1.3568417
25.707754704506524	1.8122725	1.3462068
25.725732272437153	1.795923	1.3401206
25.743710484423012	1.8150176	1.3472259
25.761689340975888	1.811694	1.3459918
25.77966884260774	1.8402491	1.3565578
25.797648989830662	1.8777363	1.3703052
25.815629783156922	1.8557543	1.3622607
25.83361122309895	1.8520037	1.3608835
25.85159331016929	1.848614	1.3596375
25.869576044880695	1.8590958	1.3634866
25.887559427746034	1.8249602	1.3509109
25.90554345927836	1.832237	1.3536015
25.92352813999086	1.8250847	1.3509569
25.94151347039689	1.8401142	1.3565081
25.959499451009965	1.8479233	1.3593835
25.97748608234374	1.8299439	1.3527542
25.995473364912062	1.7965503	1.3403546
26.013461299228904	1.8196996	1.3489624
26.03144988580839	1.8539232	1.3615885
26.04943912516483	1.8194836	1.3488823
26.067429017812675	1.7971172	1.340566
26.085419564266537	1.8087177	1.3448858
26.103410765041186	1.809418	1.3451461
26.12140262065155	1.8381559	1.3557861
26.139395131612723	1.8192478	1.3487949
26.157388298439948	1.8352932	1.3547299
26.17538212164861	1.812874	1.3464301
26.193376601754295	1.803771	1.3430455
26.211371739272714	1.7822311	1.3350023
26.229367534719746	1.7952188	1.3398578
26.247363988611433	1.8425381	1.3574013
26.26536110146397	1.8254782	1.3511026
26.283358873793727	1.8207994	1.34937
26.301357306117204	1.838572	1.3559395
26.319356398951104	1.8214679	1.3496177
26.33735615281224	1.778097	1.333453
26.35535656821762	1.769411	1.3301921
26.373357645684404	1.794807	1.339704
26.39135938572991	1.832908	1.3538493
26.409361788871614	1.8214107	1.3495965
26.427364855627165	1.788847	1.3374778
26.445368586514352	1.792569	1.3388686
26.46337298205115	1.8102363	1.3454503
26.48137804275568	1.83271	1.3537762
26.499383769146217	1.844584	1.3581547
26.517390161741215	1.8786844	1.3706511
26.53539722105928	1.8953943	1.3767332
26.553404947619182	1.863588	1.3651329
26.571413341939856	1.7909874	1.3382778
26.589422404540397	1.7238456	1.312953
26.60743213594006	1.7503666	1.3230141
26.62544253665827	1.805566	1.3437135
26.64345360721459	1.7948672	1.3397266
26.66146534812879	1.7589126	1.3262401
26.679477759920758	1.7669033	1.3292491
26.69749084311057	1.8324744	1.3536892
26.71550459821847	1.8199403	1.3490516
26.733519025764842	1.789028	1.3375455
26.751534126270258	1.7635098	1.327972
26.769549900255434	1.7749854	1.3322858
26.787566348241267	1.749308	1.3226141
26.80558347074881	1.7935665	1.339241
26.823601268299267	1.8630452	1.3649341
26.841619741414036	1.8913676	1.37527
26.85963889061465	1.8242067	1.350632
26.877658716422832	1.7990965	1.3413041
26.89567921936045	1.8225065	1.3500024
26.913700399949544	1.8572266	1.3628011
26.93172225871233	1.859099	1.3634878
26.949744796171174	1.8579655	1.363072
26.967768012848605	1.8406416	1.3567024
26.98579190926733	1.8243663	1.3506911
27.003816485950225	1.8010768	1.342042
27.021841743420318	1.7914819	1.3384625
27.039867682200814	1.788271	1.3372625
27.057894302815072	1.7564067	1.325295
27.07592160578664	1.7622722	1.3275061
27.0939495916392	1.8003747	1.3417804
27.111978260896635	1.8335268	1.3540778
27.13000761408296	1.78259	1.3351367
27.148037651722397	1.7720733	1.3311924
27.166068374339304	1.7576786	1.3257747
27.184099782458215	1.7814142	1.3346963
27.20213187660384	1.795367	1.339913
27.22016465730105	1.79144	1.3384469
27.23819812507487	1.8450559	1.3583283
27.256232280450533	1.8444386	1.3581011
27.274267123953383	1.883413	1.3723749
27.292302656108987	1.8588111	1.3633822
27.31033887744306	1.8756739	1.3695525
27.32837578848146	1.8455092	1.3584952
27.34641338975026	1.8303834	1.3529166
27.364451681775673	1.8431767	1.3576365
27.382490665084074	1.845805	1.3586041
27.400530340202046	1.7760249	1.3326758
27.41857070765629	1.7304001	1.3154467
27.436611767973726	1.7457572	1.3212711
27.454653521681404	1.7599702	1.3266387
27.472695969306564	1.783495	1.3354756
27.490739111376627	1.7962317	1.3402357
27.508782948419153	1.7940931	1.3394376
27.526827480961902	1.8118501	1.3460498
27.54487270953279	1.8492994	1.3598895
27.562918634659898	1.8717186	1.3681077
27.580965256871508	1.8543605	1.361749
27.599012576696026	1.848617	1.3596386
27.617060594662068	1.8396484	1.3563364
27.63510931129842	1.8156301	1.3474532
27.65315872713401	1.7680467	1.3296791
27.67120884269797	1.7683429	1.3297905
27.68925965851958	1.8212422	1.349534
27.707311175128307	1.8274902	1.3518469
27.725363393053787	1.862389	1.3646938
27.74341631282583	1.9178174	1.3848529
27.7614699349744	1.9129201	1.3830836
27.77952426002968	2.1150408	1.4543179
27.797579288521973	2.1366844	1.4617403
27.815635020981784	2.5533798	1.5979298
27.83369145793979	2.6134171	1.6166067
27.85174859992682	2.4945796	1.5794238
27.869806447473923	2.358547	1.5357561
27.887865001112267	2.0301473	1.4248323
27.905924261373233	1.939872	1.3927929
27.92398422878836	1.893912	1.3761947
27.94204490388936	1.8607745	1.3641021
27.96010628720813	1.8521026	1.3609198
27.978168379276728	1.860423	1.3639733
27.9962311806274	1.842258	1.357298
28.014294691792568	1.8453003	1.3584183
28.0323589133048	1.8045013	1.3433173
28.050423845696887	1.7928736	1.3389823
28.068489489501758	1.836231	1.355076
28.086555845252523	1.8562285	1.3624347
28.104622913482487	1.833365	1.3540181
28.122690694725115	1.826458	1.3514651
28.14075918951405	1.8618591	1.3644996
28.15882839838312	1.8836235	1.3724517
28.176898321866304	1.9054092	1.3803656
28.1949689604978	1.918898	1.3852429
28.213040314811945	1.9071447	1.3809941
28.23111238534327	1.8853707	1.373088
28.249185172626493	1.8727387	1.3684804
28.267258677196473	1.8781942	1.3704723
28.285332899588294	1.8417789	1.3571216
28.303407840337172	1.833032	1.3538951
28.321483499978545	1.8654776	1.3658248
28.33955987904799	1.8963889	1.3770944
28.357636978081285	1.9186376	1.385149
28.37571479761439	1.9416848	1.3934435
28.393793338183425	1.9558358	1.398512
28.41187260032469	2.0056694	1.4162166
28.429952584574686	1.9685416	1.4030472
28.448033291470065	1.9453304	1.394751
28.46611472154769	1.939392	1.3926206
28.484196875344566	1.9681592	1.402911
28.502279753397914	1.961081	1.400386
28.52036335624511	2.0144732	1.4193214
28.538447684423716	2.024018	1.4226799
28.556532738471482	2.0020363	1.4149333
28.574618518926325	1.9958967	1.412762
28.59270502632635	2.0166104	1.4200741
28.61079226120985	2.046082	1.4304132
28.628880224115274	2.0617878	1.4358927
28.646968915581287	2.0154238	1.4196562
28.66505833614671	1.9545382	1.398048
28.68314848635055	1.9575065	1.3991092
28.701239366732004	1.9689735	1.4032012
28.71933097783044	2.0109386	1.4180757
28.737423320185403	2.0706725	1.4389832
28.75551639433665	2.0834959	1.443432
28.773610200824074	2.0924814	1.4465412
28.791704740187793	2.1193373	1.4557945
28.80980001296809	2.1236799	1.457285
28.827896019705413	2.1477313	1.4655141
28.845992760940433	2.181698	1.4770572
28.86409023721397	2.2114213	1.4870849
28.88218844906704	2.1815777	1.4770164
28.900287397040845	2.1512928	1.4667286
28.918387081676755	2.174379	1.4745775
28.936487503516343	2.2511623	1.5003874
28.954588663101365	2.3236353	1.5243475
28.97269056097374	2.3287153	1.5260129
28.990793197675597	2.3033874	1.5176915
29.00889657374923	2.2701085	1.5066879
29.027000689737125	2.255294	1.5017637
29.04510554618196	2.2917683	1.5138588
29.06321114362659	2.382019	1.5433791
29.08131748261405	2.473755	1.5728174
29.099424563687567	2.5183113	1.5869188
29.11753238739057	2.5272112	1.5897205
29.13564095426663	2.5228732	1.5883555
29.15375026485954	2.5121171	1.584966
29.171860319713275	2.4974132	1.5803206
29.18997111937199	2.5470533	1.595949
29.20808266438002	2.6149015	1.6170657
29.226194955281898	2.7035663	1.6442525
29.244307992622335	2.7996705	1.6732216
29.26242177694624	2.8073552	1.6755164
29.2805363087987	2.8094542	1.6761427
29.29865158872498	2.8818965	1.6976149
29.316767617270557	2.9437203	1.7157273
29.334884394981064	2.8918407	1.7005413
29.353001922402367	2.8567927	1.690205
29.37112020008047	2.9837284	1.7273473
29.389239228561596	3.1734595	1.7814207
29.407359008392152	3.3288383	1.8245105
29.42547954011872	3.60811	1.8995025
29.44360082428809	4.2661805	2.0654733
29.46172286144722	5.3630753	2.3158314
29.479845652143283	6.833381	2.6140738
29.497969196923606	8.770439	2.9614928
29.516093496335728	11.234884	3.351848
29.5342185509274	14.015453	3.743722
29.55234436124651	16.170948	4.0213118
29.570470927841175	17.548315	4.1890707
29.588598251259686	17.258163	4.1542945
29.60672633205055	15.853508	3.9816463
29.624855170762405	13.6158085	3.6899605
29.642984767944146	11.173043	3.3426104
29.66111512414481	8.787186	2.9643188
29.67924623991366	6.590383	2.5671742
29.697378115800138	5.0721574	2.252145
29.71551075235387	4.217968	2.053769
29.733644150124675	3.8177502	1.9539064
29.751778309662576	3.6087494	1.8996708
29.769913231517766	3.4566636	1.8592105
29.78804891624066	3.3355463	1.8263478
29.806185364381818	3.3433015	1.8284698
29.82432257649206	3.3253095	1.8235431
29.842460553122333	3.2429116	1.8008085
29.86059929482382	3.2458706	1.80163
29.878738802147872	3.2645879	1.806817
29.896879075646048	3.2441254	1.8011456
29.915020115870114	3.222072	1.7950131
29.933161923371976	3.22448	1.7956837
29.951304498703777	3.2381928	1.799498
29.969447842417857	3.2260146	1.796111
29.987591955066733	3.2115364	1.792076
30.005736837203123	3.2006338	1.7890315
30.023882489379943	3.1979747	1.7882882
30.04202891215028	3.133822	1.7702605
30.060176106067455	3.1968124	1.7879632
30.078324071684946	3.2412305	1.8003417
30.09647280955646	3.1889107	1.7857522
30.114622320235863	3.1338923	1.7702802
30.132772604277257	3.13833	1.7715333
30.1509236622349	3.095442	1.7593869
30.16907549466328	3.0746267	1.7534614
30.18722810211705	3.0447977	1.7449349
30.205381485151097	2.9684007	1.7229047
30.22353564432045	2.9419851	1.7152216
30.241690580180403	2.993715	1.7302356
30.25984629328638	3.0416255	1.7440257
30.278002784194037	3.0549738	1.7478484
30.296160053459246	3.0063043	1.7338698
30.314318101638033	2.9513202	1.7179407
30.332476929286646	2.895766	1.7016951
30.35063653696153	2.8588805	1.6908225
30.368796925219307	2.8179953	1.6786885
30.386958094616844	2.7935138	1.6713808
30.40512004571115	2.847906	1.687574
30.423282779059463	2.827307	1.6814598
30.441446295219233	2.7678385	1.6636822
30.459610594748067	2.8102977	1.6763942
30.47777567820382	2.843642	1.6863102
30.495941546144504	2.8024247	1.6740444
30.51410819912835	2.734905	1.6537548
30.532275637713795	2.7286339	1.6518577
30.55044386245946	2.773777	1.665466
30.56861287392416	2.7386105	1.6548748
30.586782672666956	2.6923044	1.6408243
30.604953259247047	2.6791637	1.6368151
30.623124634223885	2.7192907	1.6490272
30.641296798157075	2.8062315	1.675181
30.659469751606462	2.8102107	1.6763684
30.677643495132074	2.7959538	1.6721106
30.695818029294152	2.81622	1.6781597
30.713993354653116	2.8140662	1.6775179
30.73216947176962	2.7315037	1.6527262
30.75034638120448	2.6865067	1.6390567
30.768524083518756	2.7037396	1.6443052
30.786702579273673	2.7595592	1.661192
30.80488186903069	2.8198526	1.6792417
30.82306195335144	2.9469662	1.716673
30.841242832797782	3.1415524	1.7724425
30.85942450793176	3.4255536	1.8508251
30.877606979315637	3.71999	1.9287275
30.895790247511883	4.04893	2.0121953
30.913974313083134	4.464706	2.1129851
30.932159176592283	4.8454003	2.201227
30.95034483860237	4.849557	2.2021708
30.968531299676698	4.6080875	2.1466455
30.98671856037873	4.315957	2.0774882
31.00490662127215	3.8974586	1.9741982
31.023095482920848	3.502163	1.8714067
31.04128514588892	3.0966086	1.7597183
31.059475610740662	2.7270162	1.651368
31.07766687804056	2.571343	1.6035408
31.09585894835335	2.5197554	1.5873737
31.11405182224393	2.4685912	1.5711751
31.132245500277417	2.464124	1.5697528
31.15043998301914	2.4004982	1.5493541
31.168635271034628	2.3333023	1.527515
31.18683136488964	2.3950033	1.5475799
31.20502826515008	2.4545925	1.5667139
31.223225972382135	2.4488668	1.5648856
31.241424487152155	2.3978136	1.5484875
31.259623810026692	2.3512115	1.5333661
31.27782394157253	2.327211	1.5255198
31.296024882356644	2.3990693	1.548893
31.314226632946237	2.451992	1.5658838
31.332429193908684	2.3738263	1.5407226
31.350632565811598	2.3228025	1.5240743
31.368836749222787	2.3426416	1.5305691
31.387041744710295	2.4223776	1.5563989
31.40524755284232	2.4710274	1.5719502
31.423454174187317	2.4837773	1.5760005
31.441661609313922	2.4792888	1.5745758
31.459869858791002	2.4715867	1.572128
31.478078923187628	2.4563863	1.5672863
31.496288803073064	2.4567952	1.5674168
31.514499499016807	2.4338906	1.5600932
31.532711011588546	2.3914862	1.5464431
31.550923341358178	2.302536	1.517411
31.56913648889584	2.316589	1.5220345
31.587350454771844	2.3351374	1.5281156
31.605565239556732	2.361905	1.536849
31.62378084382127	2.2937148	1.5145015
31.641997268136382	2.2449243	1.4983071
31.660214513073274	2.2085228	1.48611
31.67843257920331	2.2559516	1.5019826
31.6966514670981	2.2904105	1.5134102
31.71487117732944	2.418997	1.5553125
31.733091710469346	2.3779662	1.5420655
31.751313067090052	2.3180237	1.5225058
31.769535247764008	2.2073975	1.4857312
31.787758253063878	2.1801815	1.4765438
31.805982083562526	2.2284253	1.492791
31.824206739833024	2.2959337	1.5152339
31.84243222244869	2.2716203	1.5071895
31.860658531983013	2.255441	1.5018126
31.878885669009737	2.221704	1.4905381
31.897113634102784	2.2429256	1.49764
31.91534242783632	2.2420404	1.4973445
31.933572050784694	2.1804235	1.4766257
31.951802503522508	2.1328263	1.4604199
31.970033786624548	2.1742492	1.4745336
31.988265900665834	2.191442	1.480352
32.006498846221575	2.1615553	1.4702228
32.02473262386724	2.1561255	1.4683751
32.04296723417845	2.1487515	1.465862
32.0612026777311	2.1521318	1.4670146
32.07943895510129	2.1877532	1.4791056
32.097676066865304	2.135791	1.4614346
32.115914013599685	2.0908904	1.4459912
32.13415279588115	2.121234	1.4564457
32.152392414286666	2.1278403	1.4587119
32.1706328693934	2.1445765	1.4644372
32.18887416177875	2.1679752	1.4724046
32.20711629202032	2.1659544	1.4717182
32.225359260695924	2.0958426	1.4477025
32.243603068383614	2.084588	1.4438102
32.26184771566166	2.1616075	1.4702406
32.28009320310852	2.218671	1.4895204
32.2983395313029	2.1869977	1.4788501
32.31658670082372	2.165161	1.4714485
32.33483471225012	2.143271	1.4639914
32.35308356616143	2.137961	1.4621768
32.371333263137245	2.0370147	1.4272403
32.38958380375734	2.0521889	1.4325463
32.407835188601744	2.0750575	1.440506
32.42608741825067	2.0971243	1.4481452
32.444340493284585	2.128	1.4587666
32.46259441428416	2.1159496	1.4546304
32.48084918183028	2.073356	1.4399153
32.49910479650405	1.987996	1.4099631
32.51736125888683	1.9725465	1.4044738
32.53561856956014	2.0718834	1.4394039
32.5538767291058	2.135783	1.4614319
32.572135738105764	2.1645663	1.4712465
32.59039559714228	2.1165075	1.4548222
32.608656306797776	2.076674	1.441067
32.62691786765491	1.9813181	1.407593
32.645180280296586	1.9971498	1.4132055
32.663443545305896	1.9923925	1.4115213
32.68170766326619	1.9988761	1.4138161
32.69997263476099	1.9864376	1.4094104
32.7182384603741	2.0147023	1.4194021
32.7365051406895	2.033172	1.4258934
32.75477267629144	2.0773914	1.4413159
32.77304106776434	2.0262382	1.4234599
32.79131031569289	2.032511	1.4256616
32.809580420661966	2.0857058	1.4441973
32.827851383256714	2.0022507	1.415009
32.84612320406245	1.9358348	1.3913428
32.86439588366476	1.9630332	1.4010829
32.88266942264945	1.9984926	1.4136806
32.9009438216025	1.9953116	1.412555
32.9192190811102	1.927788	1.3884481
32.937495201758985	1.9279621	1.3885107
32.95577218413556	1.9454726	1.394802
32.974050028826866	1.9732147	1.4047116
32.992328736420035	2.0167584	1.4201262
33.010608307502444	2.0435035	1.4295117
33.02888874266169	2.0181186	1.4206051
33.047170042485604	1.9481016	1.3957441
33.06545220756225	1.9471073	1.3953879
33.083735238479896	2.0216134	1.4218345
33.10201913582707	2.0463603	1.4305105
33.12030390019248	1.9675826	1.4027054
33.138589532165135	1.8996135	1.3782647
33.15687603233419	1.8394225	1.3562531
33.17516340128909	1.921163	1.3860602
33.19345163961947	1.9775901	1.4062681
33.211740747915215	1.9829555	1.4081745
33.23003072676643	1.9690487	1.4032279
33.248321576763466	2.0426087	1.4291986
33.266613298496885	2.0674126	1.43785
33.28490589255747	2.0007496	1.4144785
33.30319935953626	1.8159717	1.34758
33.32149370002451	1.8697044	1.3673713
33.339788914613706	1.990873	1.410983
33.358085003895575	1.9540031	1.3978566
33.376381968462034	1.7835953	1.3355131
33.39467980890529	1.8725184	1.3684
33.41297852581774	1.949123	1.3961099
33.43127811979204	1.8984932	1.3778582
33.44957859142105	1.9208364	1.3859425
33.467879941297866	2.0521793	1.4325429
33.486182170015844	2.0670414	1.4377209
33.50448527816853	1.9222721	1.3864603
33.522789266349754	1.9377385	1.3920268
33.541094135153514	2.022976	1.4223136
33.55939988517411	2.0399222	1.4282584
33.57770651700602	2.0463572	1.4305094
33.59601403124398	2.0287385	1.4243379
33.61432242848296	2.015834	1.4198008
33.632631709318154	1.9361537	1.3914574
33.650941874344994	1.9376098	1.3919805
33.66925292415916	1.9455519	1.3948305
33.68756485935654	1.9649526	1.4017676
33.70587768053328	1.9652902	1.4018881
33.724191388285746	1.9311072	1.3896428
33.74250598321054	1.8777591	1.3703135
33.760821465904506	1.904348	1.3799812
33.77913783696474	1.8843913	1.3727313
33.79745509698852	1.7696165	1.3302693
33.815773246573414	1.7177011	1.310611
33.8340922863172	1.8326194	1.3537427
33.852412216817896	1.8610421	1.3642002
33.87073303867377	1.9080946	1.381338
33.889054752483304	1.9262751	1.3879031
33.907377358845245	1.9000568	1.3784255
33.92570085835853	1.894807	1.3765199
33.94402525162239	1.9510915	1.3968148
33.96235053923627	1.9302008	1.3893167
33.980676721799824	1.9033823	1.3796312
33.999003799912984	1.8479464	1.3593919
34.01733177417592	1.8579363	1.3630613
34.03566064518901	1.825449	1.3510917
34.0539904135529	1.8976345	1.3775465
34.07232107986846	1.9070001	1.3809417
34.090652644736785	1.9453707	1.3947655
34.108985108759235	2.0159671	1.4198476
34.12731847253742	1.9544501	1.3980165
34.14565273667313	1.8951269	1.3766361
34.16398790176847	1.7870058	1.3367894
34.18232396842574	1.9190513	1.3852983
34.20066093724749	2.0718718	1.4393998
34.21899880883651	2.0005352	1.4144028
34.23733758379583	1.8927349	1.375767
34.25567726272874	1.8721461	1.368264
34.27401784623872	1.9356592	1.3912797
34.29235933492957	2.0101953	1.4178135
34.31070172940526	1.945494	1.3948097
34.32904503027003	1.9492075	1.3961402
34.347389238128386	2.0445926	1.4298925
34.36573435358502	1.9870105	1.4096136
34.38408037724492	1.8563913	1.3624945
34.402427309713296	1.8988503	1.3779877
34.42077515159559	2.024122	1.4227164
34.43912390349752	2.0713289	1.4392112
34.45747356602499	1.8778553	1.3703486
34.47582413978423	1.8631077	1.364957
34.49417562538163	1.9239413	1.3870621
34.51252802342388	1.7797589	1.334076
34.53088133451789	1.7079246	1.306876
34.54923555927084	1.6911232	1.300432
34.567590698290104	1.7213808	1.312014
34.58594675218336	1.9273055	1.3882743
34.6043037215585	1.9998808	1.4141715
34.62266160702365	1.9819199	1.4078068
34.641020409187234	1.9745575	1.4051895
34.65938012865785	2.0190716	1.4209404
34.677740766044394	1.9920264	1.4113916
34.69610232195598	1.9600613	1.4000219
34.714464797002016	1.8874468	1.3738438
34.73282819179208	1.8483671	1.3595467
34.751192506936064	1.9665124	1.402324
34.76955774304408	2.0301325	1.4248272
34.7879239007265	1.9162792	1.3842974
34.80629098059391	1.8825606	1.3720644
34.824658983257194	1.9366921	1.3916509
34.843027909327446	1.8820503	1.3718784
34.86139775941603	2.057863	1.4345254
34.879768534134534	2.2899582	1.5132608
34.89814023409483	2.2595744	1.5031881
34.91651285990901	2.142958	1.4638846
34.93488641218944	2.1637015	1.4709526
34.95326089154871	1.9969012	1.4131175
34.97163629859967	1.7644926	1.3283421
34.99001263395542	1.8358531	1.3549366
35.00838989822934	1.9908097	1.4109606
35.02676809203499	2.0231	1.4223572
35.04514721598624	1.965622	1.4020064
35.063527270697215	1.8520132	1.3608869
35.081908256782256	1.6891054	1.2996559
35.10029017485597	1.680384	1.2962962
35.11867302553321	1.76767	1.3295375
35.137056809429104	1.8928063	1.375793
35.155441527159006	2.1306117	1.4596615
35.173827179338524	2.1850858	1.4782035
35.19221376658354	2.108727	1.4521457
35.21060128951017	2.0868242	1.4445845
35.2289897487348	1.8968422	1.377259
35.24737914487405	1.6976202	1.3029275
35.26576947854479	1.8655536	1.3658527
35.28416075036418	2.0316377	1.4253553
35.30255296094958	1.8235197	1.3503776
35.32094611091867	1.6688696	1.2918473
35.33934020088932	1.7033266	1.3051156
35.35773523147969	1.974948	1.4053284
35.3761312033082	2.0580564	1.4345927
35.394528116993506	2.1111465	1.4529785
35.41292597315452	2.133774	1.4607444
35.431324772410434	2.0617254	1.435871
35.449724515380666	2.2290695	1.4930068
35.46812520268491	2.294573	1.5147848
35.486526834943106	1.8295166	1.3525963
35.504929412775454	1.6896863	1.2998793
35.52333293680242	1.7238159	1.3129417
35.54173740764471	1.450883	1.2045261
35.560142825923286	1.2111895	1.1005405
35.5785491922594	0.9879578	0.9939607
35.59695650727454	0.7263075	0.85223675
35.61536477159042	0.6149216	0.7841694
