0.008763373481513119	0.0	0.0
0.026290120649546365	0.0	0.0
0.043816868432600686	0.0	0.0
0.06134361724069026	0.0	0.0
0.07887036748382949	0.03274868	0.18096596
0.0963971195720331	0.123894356	0.3519863
0.11392387391531617	0.10153772	0.31864983
0.1314506309236943	0.07714766	0.2777547
0.1489773910071836	0.05418894	0.23278518
0.16650415457580078	0.08863919	0.29772335
0.18403092203956356	0.09179669	0.30297968
0.20155769380849	0.13438523	0.3665859
0.2190844702925996	0.15445092	0.39300245
0.2366112519019124	0.11770168	0.3430768
0.2541380390464497	0.06677607	0.25841066
0.27166483213623416	0.061266623	0.24752095
0.28919163158128947	0.0724424	0.26915124
0.3067184377916406	0.10956347	0.33100373
0.324245251177314	0.12661816	0.35583445
0.34177207214833777	0.13104793	0.36200544
0.3592989011147415	0.12672411	0.3559833
0.37682573848655654	0.10076426	0.31743386
0.39435258467381573	0.08497461	0.29150406
0.41187944008655414	0.11994582	0.34633195
0.42940630513480854	0.11934654	0.3454657
0.446933180228618	0.13562262	0.36826977
0.4644600657780234	0.12466552	0.35308003
0.48198696219306775	0.11472364	0.3387088
0.49951386988379676	0.12641379	0.35554716
0.5170407892602581	0.18613172	0.43142986
0.5345677207325025	0.19537699	0.4420147
0.5520946647105822	0.21125475	0.45962456
0.5696216216045534	0.19099869	0.43703398
0.5871485918244737	0.18852443	0.434194
0.6046755757804043	0.20525289	0.45304844
0.6222025738824094	0.22993214	0.4795124
0.6397295865405557	0.23319937	0.4829072
0.6572566141649129	0.20697549	0.4549456
0.6747836571655547	0.1878748	0.43344527
0.6923107159525568	0.18058394	0.4249517
0.7098377909359992	0.18997212	0.43585792
0.7273648825259653	0.170808	0.41328925
0.7448919911325411	0.18406925	0.42903292
0.762419117165817	0.24439421	0.49436244
0.7799462610358868	0.24682821	0.4968181
0.7974734231528482	0.25338745	0.50337607
0.8150006039268024	0.20850179	0.45661995
0.8325278037678551	0.20855671	0.4566801
0.8500550230861152	0.20511883	0.45290047
0.8675822622916969	0.24444677	0.49441558
0.8851095217947171	0.2368196	0.48664114
0.9026368020052984	0.26194307	0.51180375
0.9201641033335665	0.23171993	0.48137295
0.9376914261896523	0.21103734	0.45938802
0.9552187709836915	0.2164433	0.46523467
0.9727461381258234	0.21463607	0.46328834
0.990273528026193	0.17960311	0.4237961
1.0078009410949496	0.17505991	0.41840163
1.0253283777422473	0.19742331	0.44432342
1.0428558383782454	0.24475442	0.4947266
1.0603833234131086	0.25549677	0.5054669
1.0779108332570058	0.30917576	0.55603576
1.0954383683201119	0.3226078	0.5679857
1.112965929012607	0.33593565	0.57959956
1.1304935157446763	0.39554635	0.6289247
1.1480211289265108	0.4223699	0.6498999
1.1655487689683062	1.3126138	1.1456937
1.1830764362802655	1.6069187	1.267643
1.200604131272596	2.04683	1.4306747
1.2181318543555117	2.421272	1.5560437
1.235659605939232	2.4469838	1.5642838
1.253187386433982	4.1399417	2.0346847
1.270715196249994	6.4561462	2.5408947
1.2882430357975057	11.911613	3.4513206
1.3057709054867608	16.675158	4.083523
1.3232988057280106	22.20661	4.712389
1.3408267369315112	26.83604	5.1803513
1.358354699507526	30.037403	5.480639
1.3758826938663256	34.2497	5.852324
1.3934107204181858	36.140923	6.011732
1.410938779573391	37.20969	6.0999746
1.4284668717422309	38.234257	6.1833854
1.4459949973350033	37.8059	6.14865
1.4635231567620117	37.795174	6.147778
1.4810513504335687	36.94623	6.078341
1.4985795787599925	36.162678	6.013541
1.5161078421516088	35.436317	5.9528413
1.5336361410187505	34.600513	5.8822203
1.5511644757717598	34.773296	5.8968887
1.5686928468209842	35.360634	5.9464808
1.58622125457678	35.914425	5.9928646
1.6037496994495108	36.57039	6.0473456
1.621278181849548	36.53561	6.0444694
1.6388067021872719	37.37479	6.1134925
1.6563352608730693	36.861835	6.071395
1.673863858317336	35.98523	5.998769
1.6913924949304753	35.387993	5.948781
1.7089211711228998	34.433796	5.8680315
1.7264498873050296	33.906548	5.8229327
1.7439786438872935	33.236847	5.7651405
1.7615074412801288	32.064972	5.6625943
1.779036279893981	31.113548	5.577952
1.796565160139305	30.259653	5.5008774
1.814094082426564	29.662882	5.446364
1.8316230471662298	28.875961	5.373636
1.849152054768784	27.82784	5.27521
1.8666811056447168	27.262295	5.2213306
1.8842102002045273	26.533241	5.151043
1.901739338858724	26.084003	5.10725
1.9192685220178245	25.626017	5.0622144
1.9367977500923557	24.883177	4.988304
1.9543270234928547	24.320452	4.931577
1.971856342629867	23.666426	4.864815
1.9893857079139496	23.308855	4.8279247
2.006915119755667	22.865938	4.781834
2.0244445785655945	22.513485	4.7448378
2.0419740847543175	22.094452	4.700474
2.0595036387324317	21.536718	4.640767
2.0770332409105414	20.76785	4.5571756
2.094562891699263	20.097527	4.4830265
2.1120925915092217	19.613674	4.428733
2.129622340751053	19.355854	4.399529
2.1471521398354043	187.81168	13.70444
2.1646819891729323	444.31717	21.078833
2.182211889174303	440.63287	20.991257
2.1997418402501974	452.8689	21.280716
2.2172718428113023	432.79425	20.803707
2.234801897268317	320.54932	17.90389
2.2523320040319548	16.932476	4.114909
2.269862163512935	16.6908	4.0854373
2.287392376121992	16.476322	4.0591035
2.304922642269869	16.252565	4.031447
2.322452962367322	16.018532	4.002316
2.3399833368251164	15.633182	3.9538817
2.357513766054032	15.357933	3.9189198
2.3750442504648586	14.979923	3.8703907
2.3925747904683963	14.852751	3.8539267
2.410105386475459	14.517039	3.8101232
2.4276360388968707	14.243108	3.7740042
2.445166748143469	14.016905	3.7439158
2.4626975146261025	13.8520975	3.7218406
2.4802283387556323	13.810934	3.7163064
2.4977592209429305	13.462091	3.6690724
2.5152901615988825	13.026773	3.6092622
2.5328211611343865	12.719656	3.5664628
2.5503522199603523	12.474471	3.5319216
2.5678833384877024	12.414675	3.5234463
2.5854145171273712	12.234273	3.4977527
2.6029457562903064	12.109378	3.4798532
2.620477056387469	11.958043	3.4580402
2.6380084178298326	11.779209	3.4320853
2.655539841028383	11.490976	3.3898342
2.673071326394119	11.240625	3.3527043
2.6906028743380523	10.884032	3.2990956
2.708134485271211	10.810242	3.2878933
2.7256661596046325	10.601377	3.2559755
2.743197897749369	10.552642	3.248483
2.760729700116486	10.543332	3.2470498
2.778261567117063	10.596162	3.2551746
2.795793499162193	10.4586	3.233976
2.8133254966629817	10.072127	3.1736615
2.830857560030551	9.81522	3.132925
2.8483896896760337	9.576289	3.094558
2.865921886010578	9.515736	3.0847585
2.883454149445347	9.40804	3.0672529
2.9009864803915177	9.358742	3.059206
2.91851887926028	9.1360035	3.0225823
2.9360513464628384	9.025052	3.0041723
2.953583882410413	8.869817	2.9782238
2.9711164875142373	8.679727	2.9461377
2.9886491621855606	8.561398	2.9259865
3.0061819068356455	8.5155	2.918133
3.023714721875769	8.466643	2.9097497
3.041247607717225	8.364821	2.8922
3.0587805647713213	8.277155	2.8770046
3.0763135934493806	8.213778	2.865969
3.0938466941627407	8.1920185	2.8621702
3.1113798673227544	8.079624	2.842468
3.1289131133407904	8.049569	2.8371763
3.1464464326282315	7.8863606	2.8082664
3.1639798255964786	7.706761	2.7761054
3.1815132926569443	7.5156436	2.7414675
3.1990468342210603	7.503769	2.7393007
3.216580450700272	7.4494743	2.7293725
3.2341141425060416	7.3958178	2.7195253
3.251647910049847	7.2358866	2.6899602
3.2691817537431813	7.180215	2.6795924
3.286715673997555	7.2209153	2.687176
3.3042496712244938	7.159269	2.675681
3.32178374583554	7.118086	2.667974
3.339317898242251	6.9525824	2.636775
3.3568521288562034	6.8128743	2.6101484
3.3743864380889876	6.759845	2.59997
3.3919208263522127	6.7220397	2.5926898
3.4094552940575023	6.537445	2.5568428
3.4269898416164972	6.476481	2.544893
3.444524469440858	6.3813257	2.5261285
3.4620591779422587	6.404882	2.5307868
3.479593967532391	6.4667096	2.5429726
3.4971288386229658	6.3998375	2.52979
3.5146637916257086	6.428151	2.53538
3.5321988269523628	6.3781457	2.525499
3.5497339450146903	6.3591056	2.5217266
3.5672691462244708	6.362806	2.5224602
3.5848044309934988	6.4459844	2.5388944
3.60233979973359	6.4615035	2.5419488
3.619875252856575	6.4555597	2.5407794
3.6374107907743034	6.380664	2.5259976
3.6549464138986427	6.462105	2.542067
3.6724821226414788	6.4762044	2.5448387
3.690017917414714	6.4706793	2.543753
3.7075537986302702	6.510379	2.5515444
3.7250897667000857	6.4995675	2.549425
3.7426258220361235	6.48566	2.546696
3.7601619650503553	6.5701766	2.5632355
3.777698196154779	7.047175	2.6546516
3.7952345157614067	8.205689	2.8645575
3.8127709242822716	9.1894245	3.0314064
3.830307422129425	11.380372	3.3734808
3.847844009714936	30.181173	5.4937396
3.8653806874508954	97.69916	9.884289
3.882917455749409	97.0731	9.852568
3.900454315022606	96.72767	9.835023
3.917991265682631	41.085033	6.409761
3.9355283081416506	10.62899	3.2602131
3.9530654428118495	8.637607	2.9389806
3.970602670105433	7.483507	2.7356
3.9881399904346244	6.612394	2.5714576
4.005677404211669	6.510455	2.5515594
4.023214911848827	6.4486303	2.5394154
4.0407525137583855	6.445928	2.5388832
4.058290210352644	6.385704	2.526995
4.075828002043927	6.2318764	2.4963727
4.0933658892445814	6.2241364	2.494822
4.110903872366966	6.222038	2.4944012
4.128441951823468	6.1436286	2.4786344
4.145980128026488	6.167469	2.483439
4.163518401388452	6.2454133	2.4990826
4.181056772321807	6.2205153	2.494096
4.1985952412390155	6.199324	2.489844
4.216133808552567	6.122579	2.4743845
4.233672474674966	6.1151075	2.4728744
4.251211240018741	6.307841	2.5115416
4.268750104996445	6.557975	2.5608542
4.286289070020643	7.614121	2.7593696
4.303828135503928	9.273649	3.0452666
4.3213673018589125	29.612173	5.4417067
4.3389065694982305	90.64906	9.52098
4.356445938834537	165.70262	12.872553
4.3739854102805085	171.32053	13.088946
4.391524984248844	172.18912	13.122086
4.409064661152262	136.4714	11.682097
4.426604441403504	96.77262	9.837308
4.444144325415337	76.09525	8.723259
4.461684313600543	22.202528	4.711956
4.47922440637193	22.548143	4.7484884
4.496764604142329	20.692944	4.5489497
4.5143049073245916	18.614624	4.314467
4.531845316331589	16.298527	4.037143
4.5493858315762195	13.423873	3.6638603
4.566926453471405	11.229297	3.3510144
4.584467182430081	9.307692	3.0508509
4.602008018865218	8.219882	2.8670337
4.619548963189798	7.5088806	2.7402337
4.637090015816834	6.9979005	2.6453545
4.654631177159353	6.7041435	2.589236
4.672172447630417	6.4751906	2.5446396
4.689713827643102	6.3698072	2.5238478
4.7072553176105085	6.180869	2.4861355
4.724796917945764	6.001096	2.4497135
4.742338629062015	5.7985325	2.4080143
4.759880451372434	5.6739707	2.3820097
4.777422385290215	5.5700197	2.3600888
4.794964431228581	5.5751243	2.36117
4.812506589600768	5.5947137	2.3653147
4.830048860820047	5.6355195	2.373925
4.847591245299709	5.536632	2.353005
4.8651337434530655	5.4662056	2.3379917
4.882676355693457	5.4167547	2.3273923
4.900219082434242	5.4912457	2.3433406
4.917761924088813	5.550447	2.3559387
4.935304881070575	5.571849	2.3604765
4.952847953792969	5.517933	2.349028
4.970391142669449	5.425959	2.3293688
4.9879344481135055	5.450568	2.3346453
5.005477870538642	5.447556	2.334
5.023021410358394	5.4252687	2.3292205
5.040565067986324	5.378366	2.3191304
5.05810884383601	5.3201566	2.3065464
5.075652738321066	5.356713	2.3144574
5.09319675185512	5.392452	2.3221653
5.110740884851836	5.349302	2.3128557
5.128285137724894	5.355031	2.314094
5.145829510888007	5.2969065	2.301501
5.163374004754908	5.3018456	2.3025737
5.1809186197393595	5.270444	2.2957447
5.198463356255145	5.2760596	2.2969675
5.216008214716077	5.286004	2.2991312
5.233553195535998	5.2895727	2.2999072
5.251098299128764	5.302979	2.3028197
5.268643525908272	5.2778106	2.2973485
5.286188876288432	5.2295055	2.286811
5.3037343506831895	5.1671014	2.273126
5.32127994950651	5.198577	2.2800388
5.3388256731723915	5.2327795	2.2875268
5.356371522094851	5.252066	2.2917387
5.373917496687938	5.2138686	2.2833898
5.391463597365729	5.1639223	2.2724266
5.40900982454232	5.0991306	2.2581255
5.426556178631843	5.1825733	2.2765267
5.444102660048449	5.1568933	2.2708795
5.4616492692063225	5.137653	2.2666392
5.479196006519669	5.075835	2.2529614
5.496742872402727	5.1160336	2.2618651
5.514289867269756	5.1027718	2.2589316
5.531836991535049	5.0803123	2.253955
5.549384245612924	5.1234174	2.2634966
5.566931629917724	5.0853167	2.2550647
5.584479144863822	5.135415	2.2661455
5.6020267908656205	5.0234814	2.2413125
5.619574568337545	5.052749	2.247832
5.637122477694054	5.0117264	2.2386885
5.654670519349629	5.1060996	2.259668
5.672218693718784	5.145135	2.268289
5.689767001216059	5.2834454	2.2985747
5.707315442256021	5.266178	2.2948155
5.724864017253266	5.252338	2.2917979
5.7424127266224225	5.1444793	2.2681444
5.75996157077814	5.114383	2.2615001
5.777510550135105	5.129084	2.264748
5.795059665108022	5.0670123	2.2510026
5.812608916111639	5.073817	2.2525134
5.830158303560715	5.2494173	2.2911606
5.847707827870055	5.3734384	2.3180678
5.86525748945448	5.3880258	2.321212
5.8828072887288485	5.4077888	2.3254652
5.900357226108044	5.3891163	2.3214471
5.917907302006979	5.5674567	2.359546
5.9354575168406	6.2052946	2.4910429
5.9530078710238765	6.824737	2.6124198
5.970558364971812	7.4223127	2.7243922
5.988108999099438	7.794343	2.791835
6.005659773821818	8.269881	2.87574
6.023210689554039	7.952427	2.8200047
6.040761746711227	8.302176	2.8813498
6.058312945708531	7.756923	2.7851253
6.075864286961132	7.246443	2.6919217
6.093415770884244	6.5358152	2.556524
6.1109673978931065	5.979461	2.4452937
6.128519168402993	5.4513583	2.3348143
6.146071082829204	5.3810835	2.3197162
6.163623141587075	5.2562838	2.2926586
6.181175345091969	5.1782403	2.2755747
6.198727693759281	5.0833626	2.2546313
6.216280188004435	5.0755982	2.252909
6.233832828242885	5.1457458	2.2684236
6.251385614890126	5.220997	2.28495
6.268938548361669	5.205088	2.2814662
6.286491629073067	5.126007	2.2640686
6.304044857439898	5.1259847	2.2640638
6.321598233877777	5.0877705	2.2556086
6.339151758802344	5.102172	2.2587988
6.356705432629277	5.0360928	2.244124
6.37425925577428	5.0082946	2.237922
6.391813228653095	4.96404	2.2280126
6.409367351681486	4.987883	2.233357
6.426921625275259	4.9766088	2.2308314
6.44447604985025	4.9768085	2.2308762
6.46203062582232	5.079324	2.2537355
6.47958535360737	5.1326137	2.2655272
6.497140233621328	5.1531343	2.2700517
6.514695266280161	5.0871534	2.255472
6.532250451999859	4.9980564	2.2356334
6.549805791196454	5.009213	2.238127
6.567361284286002	5.0113254	2.238599
6.584916931684597	4.991448	2.234155
6.602472733808367	4.96269	2.2277095
6.6200286910734665	4.9924927	2.2343886
6.637584803896092	5.0992427	2.2581503
6.655141072692462	5.106057	2.2596586
6.672697497878842	5.1062384	2.2596986
6.690254079871514	5.0154567	2.2395215
6.707810819086808	4.957717	2.226593
6.725367715941078	4.909748	2.215795
6.742924770850719	4.9406075	2.2227478
6.760481984232151	4.9522176	2.2253578
6.778039356501836	4.986751	2.2331035
6.795596888076266	4.9465384	2.2240815
6.813154579371963	4.9581957	2.2267005
6.830712430805492	4.9769535	2.2309086
6.84827044279344	5.015209	2.2394662
6.865828615752445	5.0226426	2.2411253
6.883386950099159	5.0162616	2.2397013
6.900945446250287	5.0429735	2.2456565
6.918504104622553	5.0306115	2.2429025
6.936062925632727	5.0310383	2.2429976
6.953621909697607	5.0401773	2.245034
6.971181057234028	5.0984282	2.2579699
6.988740368658859	5.1624565	2.272104
7.006299844389007	5.228608	2.286615
7.023859484841407	5.222549	2.2852898
7.041419290433036	5.259129	2.2932792
7.058979261580902	5.2744923	2.2966263
7.0765393987020495	5.51631	2.3486826
7.094099702213559	5.973666	2.4441085
7.111660172532549	6.479591	2.545504
7.129220810076164	6.943243	2.6350033
7.146781615261595	7.4991536	2.7384582
7.16434258850606	7.729107	2.780127
7.181903730226821	8.130985	2.8514884
7.1994650408411704	8.25268	2.872748
7.217026520766437	8.344595	2.8887012
7.234588170419983	8.515929	2.9182065
7.252149990219215	8.435365	2.9043698
7.269711980581568	8.3393345	2.8877907
7.2872741419245175	8.093852	2.8449695
7.304836474665574	7.5937166	2.7556698
7.322398979222286	7.303001	2.7024064
7.339961656012233	7.1076345	2.6660147
7.357524505453039	6.8611608	2.6193817
7.375087527962357	6.6275206	2.574397
7.392650723957886	6.379817	2.52583
7.410214093857353	6.018626	2.4532888
7.427777638078528	5.69589	2.3866065
7.445341357039213	5.4866343	2.3423564
7.4629052511572525	5.3102703	2.3044024
7.480469320850524	5.2901173	2.3000255
7.498033566536948	5.244888	2.290172
7.5155979886344735	5.175901	2.2750607
7.5331625875610975	5.114277	2.2614768
7.550727363734844	5.0724816	2.252217
7.568292317573788	5.075257	2.2528331
7.585857449496025	5.0971665	2.2576904
7.603422759919705	5.1085057	2.2602003
7.620988249263007	5.147035	2.2687078
7.638553917944147	5.1463094	2.2685478
7.656119766381391	5.1501646	2.2693975
7.673685794993023	5.0822453	2.2543836
7.691252004197388	5.155503	2.2705731
7.70881839441285	5.1885858	2.2778468
7.726384966057826	5.271627	2.2960024
7.743951719550762	5.232843	2.287541
7.761518655310149	5.2841225	2.298722
7.779085773754511	5.3057256	2.303416
7.796653075302419	5.3430123	2.3114958
7.814220560372475	5.308884	2.3041017
7.831788229383323	5.2921767	2.3004732
7.8493560827536495	5.27785	2.2973573
7.866924120902174	5.2792916	2.2976708
7.884492344247663	5.2932734	2.3007114
7.9020607532089135	5.2481365	2.2908812
7.919629348204771	5.2378407	2.2886329
7.937198129654115	5.3032584	2.3028805
7.954767097975865	5.3426995	2.311428
7.972336253588986	5.403126	2.3244624
7.989905596912472	5.4701147	2.3388276
8.007475128365371	5.4943013	2.3439927
8.025044848366756	5.5044546	2.3461573
8.042614757335754	5.5967784	2.365751
8.060184855691523	5.656785	2.3783996
8.07775514385327	5.7973027	2.407759
8.095325622240228	5.8731027	2.4234486
8.112896291271687	5.930166	2.435193
8.130467151366968	5.963129	2.441952
8.148038202945436	5.987549	2.4469469
8.165609446426497	5.954915	2.4402695
8.183180882229594	5.9466867	2.438583
8.200752510774217	5.9492397	2.4391062
8.218324332479893	5.924094	2.4339461
8.235896347766193	5.9791436	2.4452288
8.253468557052724	5.9351964	2.436226
8.27104096075914	5.9313965	2.4354458
8.288613559305137	6.0024953	2.449999
8.306186353110448	6.078042	2.4653685
8.32375934259485	6.1679435	2.4835346
8.341332528178162	6.2164116	2.4932733
8.358905910280246	6.2829733	2.506586
8.376479489321003	6.2218366	2.494361
8.394053265720377	6.279798	2.5059526
8.411627239898356	6.2646565	2.5029297
8.42920141227497	6.2942085	2.508826
8.44677578327029	6.2027297	2.490528
8.464350353304427	6.105057	2.4708414
8.48192512279754	6.0404925	2.4577413
8.499500092169827	6.039367	2.4575124
8.51707526184153	6.116988	2.4732547
8.534650632232934	6.202729	2.4905279
8.552226203764365	6.263534	2.5027053
8.569801976856192	6.2415957	2.4983187
8.587377951928834	6.262306	2.50246
8.60495412940274	6.2773347	2.505461
8.622530509698416	6.3318644	2.5163195
8.6401070932364	6.4509664	2.5398753
8.657683880437283	6.58568	2.566258
8.675260871721695	6.747913	2.5976746
8.692838067510303	6.9187875	2.6303587
8.710415468223834	7.0372915	2.6527894
8.727993074283043	7.119675	2.668272
8.745570886108737	7.0822496	2.6612496
8.763148904121765	7.1020083	2.6649594
8.78072712874302	7.0985603	2.6643124
8.798305560393441	7.2636123	2.695109
8.815884199494006	7.4244685	2.7247877
8.833463046465745	7.6182714	2.7601216
8.851042101729728	7.8249044	2.797303
8.86862136570707	8.110416	2.8478792
8.886200838818924	8.290486	2.8793204
8.903780521486505	8.324421	2.8852072
8.921360414131055	8.445861	2.9061763
8.938940517173874	8.620195	2.936017
8.956520831036297	8.73655	2.9557657
8.97410135613971	8.914292	2.9856813
8.99168209290554	9.071181	3.01184
9.009263041755265	9.395081	3.0651395
9.026844203110405	9.731817	3.119586
9.044425577392525	9.940235	3.152814
9.062007165023239	9.9475565	3.1539748
9.079588966424197	10.1797695	3.1905751
9.097170982017108	10.272993	3.205151
9.11475321222372	11.147101	3.3387275
9.132335657465825	12.063722	3.4732869
9.149918318165264	12.191276	3.4916008
9.167501194743924	12.865072	3.5867913
9.18508428762374	12.630934	3.5540025
9.202667597226693	12.674987	3.5601947
9.220251123974803	12.267415	3.502487
9.237834868290143	11.882638	3.4471202
9.255418830594836	11.606393	3.4068158
9.273003011311046	11.041409	3.3228614
9.290587410860985	10.909931	3.3030186
9.308172029666911	10.322829	3.212916
9.32575686815113	10.091684	3.1767411
9.343341926735997	8.829919	2.971518
9.360927205843916	8.554791	2.9248576
9.378512705897327	8.399244	2.898145
9.396098427318728	8.180777	2.8602057
9.413684370530664	8.126368	2.8506784
9.431270535955722	8.031046	2.83391
9.448856924016539	7.9084883	2.8122034
9.466443535135806	7.7180867	2.7781444
9.484030369736251	7.598625	2.7565603
9.501617428240658	7.587472	2.7545366
9.519204711071852	7.648117	2.765523
9.536792218652714	7.7292237	2.7801483
9.55437995140617	7.796885	2.7922902
9.571967909755191	7.824762	2.7972777
9.589556094122802	7.8467674	2.8012083
9.60714450493207	7.896212	2.81002
9.624733142606116	7.891005	2.8090932
9.642322007568108	7.894662	2.8097441
9.659911100241267	7.947805	2.8191853
9.677500421048851	8.020315	2.832016
9.695089970414175	8.04128	2.835715
9.712679748760609	8.040806	2.8356314
9.730269756511557	8.126715	2.8507392
9.747859994090492	8.161435	2.8568225
9.765450461920915	8.145733	2.854073
9.78304116042639	8.177141	2.85957
9.800632090030527	8.174038	2.8590274
9.81822325115699	8.244523	2.8713276
9.835814644229481	8.271543	2.876029
9.853406269671762	8.244156	2.8712637
9.870998127907646	8.284586	2.8782957
9.888590219360985	8.284384	2.8782606
9.906182544455698	8.269772	2.875721
9.923775103615734	8.2810955	2.8776894
9.941367897265108	8.270185	2.875793
9.958960925827878	8.289991	2.8792346
9.97655418972816	8.27914	2.8773496
9.994147689390106	8.293474	2.8798392
10.011741425237934	8.25254	2.8727233
10.029335397695904	8.182019	2.8604228
10.04692960718833	8.192311	2.8622215
10.06452405413958	8.220376	2.8671198
10.082118738974064	8.267566	2.8753376
10.099713662116246	8.255597	2.8732555
10.117308823990651	8.183713	2.860719
10.134904225021844	8.145747	2.8540754
10.152499865634445	8.113176	2.8483639
10.170095746253125	8.081452	2.8427896
10.18769186730261	8.025331	2.8329015
10.205288229207675	8.077607	2.8421133
10.222884832393145	8.154851	2.85567
10.2404816772839	8.140536	2.8531625
10.258078764304868	8.133505	2.8519301
10.275676093881035	8.11587	2.8488367
10.293273666437438	8.120448	2.84964
10.310871482399158	8.118145	2.8492358
10.32846954219134	8.085851	2.843563
10.346067846239173	8.084553	2.843335
10.363666394967908	8.147183	2.8543272
10.38126518880283	8.218528	2.8667974
10.398864228169298	8.295963	2.8802714
10.416463513492713	8.295216	2.8801415
10.434063045198531	8.216985	2.8665283
10.451662823712262	8.16843	2.8580465
10.469262849459467	8.196532	2.8629587
10.486863122865758	8.185352	2.8610055
10.504463644356806	8.112429	2.8482325
10.522064414358338	7.9909954	2.826835
10.539665433296118	7.8316584	2.79851
10.557266701595987	7.7936764	2.7917156
10.574868219683818	7.7521687	2.7842717
10.592469987985552	7.75565	2.7848969
10.610072006927185	7.6724935	2.7699265
10.627674276934751	7.6028733	2.757331
10.64527679843435	7.4152727	2.7231
10.662879571852143	7.239373	2.6906083
10.680482597614331	7.1072726	2.665947
10.698085876147173	6.9604135	2.6382596
10.715689407876988	6.866498	2.6204004
10.733293193230146	6.8063207	2.6088927
10.750897232633072	6.7733493	2.602566
10.76850152651225	6.7267203	2.5935922
10.786106075294207	6.704126	2.5892327
10.803710879405534	6.612925	2.5715609
10.821315939272877	6.522101	2.5538404
10.83892125532294	6.4553757	2.540743
10.856526827982472	6.381805	2.5262234
10.874132657678285	6.327907	2.5155332
10.891738744837243	6.2528157	2.5005631
10.909345089886271	6.155438	2.4810154
10.926951693252343	6.136641	2.4772243
10.944558555362494	6.0382376	2.4572825
10.96216567664381	5.9610753	2.4415314
10.979773057523436	5.8513517	2.4189568
10.997380698428573	5.803753	2.409098
11.014988599786477	5.7475576	2.3974063
11.032596762024461	5.6719413	2.3815837
11.050205185569892	5.6243525	2.3715718
11.067813870850198	5.552063	2.3562815
11.085422818292859	5.5145903	2.3483164
11.10303202832541	5.447283	2.3339415
11.120641501375454	5.3793654	2.319346
11.138251237870636	5.3339515	2.3095348
11.155861238238671	5.3010297	2.3023965
11.173471502907317	5.219263	2.2845707
11.191082032304402	5.1041675	2.2592404
11.208692826857805	5.048496	2.2468858
11.226303886995465	4.9955516	2.235073
11.243915213145371	4.9270864	2.2197042
11.261526805735578	4.877934	2.2086046
11.279138665194196	4.8734746	2.2075949
11.296750791949393	4.87483	2.2079017
11.314363186429393	4.8206844	2.1956058
11.331975849062479	4.7444615	2.1781785
11.34958878027699	4.6944594	2.16667
11.36720198050133	4.634155	2.1527088
11.384815450163948	4.542578	2.1313324
11.402429189693366	4.489678	2.118886
11.420043199518153	4.4120336	2.1004841
11.437657480066942	63.37954	7.961127
11.455272031768422	85.10223	9.225087
11.472886855051353	107.508064	10.368609
11.490501950344528	99.12085	9.955945
11.508117318076819	84.473045	9.190922
11.52573295867715	45.813313	6.7685533
11.543348872574514	4.07687	2.019126
11.560965060197946	4.061515	2.01532
11.57858152197655	4.0679665	2.01692
11.59619825833949	4.0570126	2.0142026
11.613815269715985	4.0135164	2.0033762
11.631432556535323	38.511784	6.205786
11.649050119226837	83.06045	9.11375
11.666667958219929	93.42689	9.665758
11.68428607394406	107.712265	10.378452
11.701904466828756	82.51064	9.083537
11.719523137303586	65.37444	8.085446
11.737142085798196	4.6469517	2.155679
11.754761312742286	3.7719288	1.9421455
11.772380818565619	3.6902854	1.9210116
11.790000603698015	3.6032763	1.8982297
11.80762066856935	3.5521235	1.8847078
11.825241013609572	3.5669937	1.8886486
11.842861639248683	3.5528119	1.8848904
11.860482545916748	3.5010765	1.8711164
11.878103734043883	3.4565926	1.8591914
11.895725204060282	3.3825562	1.8391727
11.91334695639619	3.3702538	1.8358251
11.930968991481919	3.3665915	1.8348273
11.948591309747824	3.372869	1.8365372
11.966213911624347	3.3492749	1.8301024
11.98383679754198	3.2892137	1.8136189
12.001459967931268	3.2637155	1.8065757
12.019083423222835	3.2162538	1.7933917
12.036707163847352	3.2185318	1.7940267
12.05433119023556	3.173691	1.7814857
12.071955502818259	3.1660779	1.7793475
12.089580102026313	3.1656668	1.7792321
12.107204988290643	3.1626227	1.7783765
12.12483016204224	3.145092	1.7734407
12.142455623712152	3.1006558	1.760868
12.16008137373149	3.0522444	1.7470673
12.177707412531431	3.04179	1.7440728
12.19533374054321	3.0200596	1.7378318
12.212960358198126	3.0888112	1.7575014
12.230587265927545	3.0794616	1.7548394
12.248214464162889	3.0779681	1.7544138
12.265841953335649	3.0293274	1.7404963
12.283469733877375	3.0437958	1.7446477
12.301097806219685	3.0450356	1.745003
12.31872617079425	3.015603	1.7365491
12.336354828032825	2.9702778	1.7234493
12.353983778367205	2.9240513	1.7099857
12.371613022229262	2.9092722	1.7056589
12.389242560050928	2.89193	1.7005676
12.406872392264201	2.8765635	1.6960435
12.424502519301143	2.8722153	1.6947612
12.442132941593874	2.8628132	1.691985
12.459763659574586	2.8536513	1.6892754
12.477394673675532	2.828631	1.6818534
12.49502598432903	2.814532	1.6776568
12.51265759196746	2.7924914	1.671075
12.530289497023267	2.7888594	1.6699878
12.547921699928967	2.8083658	1.675818
12.565554201117134	2.8092685	1.6760873
12.583187001020404	2.8114378	1.6767343
12.600820100071486	2.750484	1.6584584
12.618453498703152	2.7350097	1.6537864
12.636087197348235	2.7491395	1.6580529
12.65372119643964	2.7801225	1.66737
12.671355496410326	2.7962587	1.6722018
12.68899009769333	2.804944	1.6747967
12.706625000721749	2.8240132	1.68048
12.724260205928752	2.8985388	1.7025095
12.741895713747551	2.8957095	1.7016784
12.759531524611454	2.945732	1.7163135
12.777167638953818	2.9428103	1.7154621
12.794804057208072	2.97693	1.7253782
12.812440779807702	3.0102756	1.7350146
12.830077807186271	3.1881754	1.7855463
12.847715139777405	3.2610655	1.805842
12.865352778014795	3.4794195	1.8653202
12.882990722332197	3.5821943	1.8926686
12.90062897316344	3.6348565	1.9065299
12.918267530942412	3.684792	1.9195812
12.935906396103071	3.5574918	1.8861314
12.953545569079449	3.724295	1.9298432
12.971185050305628	3.550588	1.8843004
12.988824840215775	3.5564556	1.8858567
13.006464939244115	3.5577848	1.8862091
13.024105347824943	3.4314806	1.8524256
13.041746066392617	3.5280316	1.8783056
13.05938709538157	3.3296769	1.8247402
13.077028435226296	3.316773	1.821201
13.094670086361363	3.2153015	1.7931262
13.112312049221401	3.1741292	1.7816086
13.129954324241112	3.1304047	1.769295
13.147596911855258	2.9959407	1.7308786
13.165239812498685	2.9177644	1.7081465
13.182883026606293	2.787759	1.6696584
13.200526554613058	2.706558	1.645162
13.218170396954017	2.706946	1.6452799
13.235814554064284	2.7307518	1.6524986
13.253459026379034	2.767161	1.6634785
13.271103814333523	2.7169585	1.64832
13.288748918363058	2.700613	1.6433542
13.306394338903031	2.7014186	1.6435993
13.32404007638889	2.7118304	1.6467636
13.341686131256164	2.724265	1.6505347
13.359332503940449	2.6641603	1.6322255
13.376979194877402	2.6206071	1.6188289
13.394626204502751	2.6274264	1.6209338
13.412273533252307	2.6571043	1.6300627
13.429921181561937	2.6584287	1.6304688
13.447569149867581	2.696709	1.6421659
13.465217438605247	2.7240222	1.6504612
13.482866048211022	2.7208762	1.6495079
13.500514979121052	2.7052355	1.64476
13.518164231771568	2.6837862	1.6382265
13.535813806598844	2.6738853	1.6352019
13.553463704039254	2.6311712	1.6220886
13.571113924529229	2.5975668	1.6116968
13.588764468505275	2.5937076	1.6104991
13.606415336403956	2.6465664	1.6268271
13.624066528661917	2.740711	1.6555092
13.641718045715882	2.8209627	1.6795722
13.659369888002635	2.8673155	1.6933149
13.67702205595903	2.8957548	1.7016917
13.694674550021993	2.9261532	1.7106003
13.712327370628532	2.9926233	1.72992
13.729980518215713	3.041409	1.7439636
13.747633993220681	3.1322749	1.7698234
13.765287796080647	3.1686132	1.7800599
13.7829419272329	3.2223241	1.7950833
13.800596387114801	3.2541912	1.8039377
13.818251176163775	3.323095	1.8229358
13.835906294817324	3.3857558	1.8400424
13.853561743513023	3.4303186	1.8521119
13.871217522688525	3.467919	1.862235
13.888873632781538	3.4966428	1.8699312
13.906530074229858	3.5175703	1.8755187
13.92418684747135	3.490762	1.8683581
13.941843952943948	3.4617343	1.8605736
13.959501391085665	3.4215875	1.8497534
13.977159162334578	3.3677042	1.8351306
13.994817267128846	3.3294384	1.8246748
14.012475705906693	3.2546804	1.8040733
14.030134479106424	3.193291	1.7869781
14.047793587166414	3.1094685	1.7633685
14.065453030525108	3.0358663	1.7423737
14.083112809621026	2.9492483	1.7173376
14.100772924892766	2.9190507	1.7085229
14.118433376778997	2.934075	1.7129142
14.136094165718458	2.8927777	1.7008168
14.153755292149969	2.825174	1.6808255
14.171416756512416	2.7492268	1.6580793
14.189078559244768	2.7201812	1.6492972
14.20674070078606	2.6703393	1.6341172
14.224403181575408	2.5936396	1.610478
14.242066002051999	2.4863732	1.5768237
14.259729162655093	2.4333262	1.5599122
14.277392663824022	2.4212904	1.5560496
14.295056505998208	2.4259593	1.5575491
14.312720689617128	2.4432292	1.5630833
14.330385215120348	2.434299	1.560224
14.348050082947497	2.4398746	1.5620098
14.3657152935383	2.4085288	1.5519435
14.383380847332528	2.4570265	1.5674905
14.401046744770051	2.4672027	1.5707332
14.418712986290798	2.4821856	1.5754954
14.436379572334793	2.4553916	1.5669689
14.454046503342123	2.4501395	1.5652921
14.471713779752946	2.456493	1.5673203
14.489381402007504	2.460729	1.5686711
14.507049370546113	2.4855862	1.5765742
14.524717685809168	2.480135	1.5748445
14.542386348237134	2.457172	1.567537
14.560055358270553	2.4473412	1.564398
14.577724716350051	2.4521484	1.5659337
14.595394422916325	2.4470952	1.5643194
14.61306447841015	2.436916	1.5610625
14.63073488327237	2.4184923	1.5551503
14.648405637943917	2.487735	1.5772555
14.6660767428658	2.5230002	1.5883955
14.683748198479094	2.5598884	1.5999651
14.701420005224954	2.553039	1.5978233
14.719092163544628	2.5852883	1.6078832
14.73676467387942	2.6066196	1.6145029
14.754437536670727	2.6275353	1.6209674
14.772110752360014	2.6242664	1.6199588
14.78978432138882	2.6462522	1.6267306
14.807458244198777	2.7029946	1.6440786
14.82513252123159	2.7179747	1.6486281
14.842807152929028	2.7258942	1.6510283
14.860482139732962	2.7045832	1.6445616
14.87815748208531	2.699195	1.6429226
14.8958331804281	2.690022	1.6401286
14.91350923520342	2.6391437	1.6245441
14.931185646853438	2.6454778	1.6264925
14.948862415820408	2.6566396	1.6299201
14.966539542546656	2.6967487	1.642178
14.98421702747459	2.7055092	1.6448432
15.001894871046696	2.7147315	1.6476442
15.019573073705542	2.6933534	1.6411439
15.037251635893766	2.6418297	1.6253706
15.054930558054092	2.6756372	1.6357375
15.072609840629323	2.70413	1.6444238
15.090289484062351	2.7924418	1.6710601
15.107969488796124	2.9393578	1.7144555
15.125649855273691	3.1426864	1.7727623
15.14333058393817	3.5170822	1.8753885
15.161011675232768	4.057755	2.014387
15.17869312960076	4.7059994	2.1693316
15.196374947485506	5.4046025	2.32478
15.214057129330447	6.821863	2.6118696
15.231739675579114	9.012352	3.002058
15.249422586675102	13.627925	3.691602
15.267105863062092	18.168558	4.2624593
15.284789505183847	25.281382	5.0280595
15.302473513484218	30.211342	5.4964843
15.320157888407127	34.279358	5.8548574
15.337842630396578	33.193115	5.761347
15.355527739896656	30.328938	5.5071716
15.37321321735153	23.72508	4.8708396
15.39089906320545	16.23944	4.029819
15.408585277902748	10.371687	3.2205102
15.42627186188783	6.420381	2.533847
15.443958815605198	4.6050863	2.1459465
15.461646139499424	3.809104	1.9516926
15.479333834015168	3.3449416	1.8289181
15.497021899597165	3.0633636	1.7502468
15.514710336690234	2.8217041	1.6797929
15.53239914573928	2.68968	1.6400244
15.550088327189297	2.6071546	1.6146686
15.567777881485336	2.5825744	1.607039
15.58546780907256	2.588209	1.6087911
15.6031581103962	2.5830948	1.607201
15.620848785901568	2.5616572	1.6005177
15.638539836034063	2.538837	1.5933728
15.656231261239173	2.5069327	1.5833297
15.673923061962451	2.5057144	1.5829449
15.691615238649552	2.4763443	1.5736405
15.709307791746202	2.4634745	1.569546
15.727000721698221	2.4321675	1.5595407
15.744694028951498	2.4036465	1.5503697
15.76238771395202	2.3946192	1.5474557
15.780081777145844	2.3946183	1.5474554
15.797776218979125	2.4288254	1.5584689
15.815471039898094	2.4337163	1.5600373
15.833166240349064	2.4558852	1.5671264
15.850861820778437	2.4981053	1.5805396
15.868557781632699	2.5638947	1.6012167
15.886254123358412	2.5634787	1.6010867
15.903950846402232	2.5765872	1.6051751
15.921647951210897	2.5661538	1.6019219
15.939345438231225	2.538236	1.5931842
15.957043307910133	2.4894817	1.5778091
15.974741560694602	2.5052505	1.5827982
15.992440197031714	2.5257483	1.5892603
16.01013921736862	2.5314488	1.5910528
16.02783862215259	2.5354078	1.5922964
16.045538411830933	2.5305526	1.5907711
16.06323858685107	2.5083742	1.5837848
16.080939147660512	2.5177557	1.5867437
16.09864009470684	2.482477	1.5755879
16.11634142843774	2.4317653	1.5594119
16.134043149300954	2.418555	1.5551704
16.15174525774433	2.3903682	1.5460815
16.169447754215817	2.3744774	1.540934
16.18715063916342	2.3742654	1.5408652
16.204853913035244	2.3698363	1.5394273
16.222557576279478	2.4141808	1.5537634
16.240261629344403	22.443367	4.737443
16.257966072678386	43.0081	6.558056
16.275670906729868	38.1077	6.1731434
16.293376131947387	2.5287054	1.5901904
16.31108174877957	2.5343482	1.5919636
16.328787757675133	2.5792093	1.6059917
16.34649415908287	2.603102	1.6134131
16.364200953451657	2.6166677	1.6176118
16.38190814123048	2.6295328	1.6215835
16.39961572286839	2.6438534	1.625993
16.41732369881455	2.6780555	1.6364765
16.43503206951817	2.7305524	1.6524383
16.45274083542859	2.7511497	1.658659
16.47044999699522	2.8066387	1.6753026
16.488159554667558	2.8454869	1.6868571
16.505869508895184	2.9150898	1.7073634
16.523579860127786	2.977459	1.7255315
16.541290608815117	3.042508	1.7442787
16.559001755407035	3.1015205	1.7611134
16.57671330035348	3.1848836	1.7846242
16.59442524410448	3.2706153	1.8084843
16.61213758711015	3.421007	1.8495964
16.629850329820705	3.5005677	1.8709804
16.647563472686436	3.5759208	1.8910105
16.665277016157724	3.5167708	1.8753055
16.682990960685053	3.4930718	1.8689761
16.70070530671898	3.4911127	1.868452
16.718420054710155	3.5548468	1.8854301
16.736135205109335	3.614242	1.901116
16.753850758367335	3.6486242	1.9101372
16.771566714935087	3.6654582	1.9145386
16.789283075263597	3.7164347	1.9278057
16.80699983980398	3.8033497	1.9502178
16.82471700900741	3.8728333	1.9679515
16.84243458332518	3.9231248	1.980688
16.860152563208665	3.9744709	1.9936075
16.87787094910932	4.05449	2.0135765
16.89558974147871	4.163937	2.0405726
16.913308940768466	4.2259803	2.055719
16.931028547430333	4.2336416	2.0575814
16.94874856191613	4.2321076	2.0572088
16.966468984677785	4.252702	2.0622082
16.98418981616729	4.325683	2.0798275
17.00191105683676	4.431291	2.1050632
17.019632707138374	4.5505934	2.133212
17.03735476752442	4.6256943	2.1507428
17.05507723844728	4.670617	2.161161
17.072800120359403	4.683334	2.1641011
17.090523413713353	4.704363	2.1689544
17.108247118961785	4.6888576	2.165377
17.125971236557437	4.6248136	2.150538
17.143695766953133	4.611062	2.1473384
17.161420710601806	4.6450143	2.1552296
17.179146067956477	4.644071	2.1550107
17.19687183947025	4.623972	2.1503422
17.21459802559634	4.6480923	2.1559434
17.232324626788028	4.676487	2.1625187
17.25005164349871	4.7009735	2.1681728
17.267779076181863	4.642184	2.1545727
17.285506925291074	4.6401296	2.154096
17.30323519127999	4.5787354	2.139798
17.320963874602384	4.5951896	2.1436393
17.33869297571211	4.577833	2.1395872
17.356422495063114	4.5304313	2.128481
17.37415243310944	4.494148	2.1199405
17.391882790305218	4.45842	2.1114972
17.40961356710468	4.4768124	2.1158478
17.42734476396215	4.521429	2.1263652
17.445076381332044	4.627227	2.151099
17.462808419668868	4.7443795	2.1781597
17.48054087942723	4.8593016	2.2043824
17.498273761061835	4.962744	2.2277217
17.51600706502747	5.2400823	2.2891226
17.533740791779024	5.7975416	2.4078085
17.551474941771485	6.7062387	2.5896406
17.56920951545993	8.658627	2.9425545
17.586944513299528	9.90384	3.1470368
17.60467993574556	12.703862	3.5642478
17.622415783253373	15.387036	3.9226313
17.64015205627843	18.265444	4.273809
17.657888755276293	20.612505	4.5400996
17.675625880702604	22.120329	4.703225
17.69336343301311	20.638412	4.542952
17.71110141266366	18.550312	4.3070073
17.728839820110178	15.824168	3.9779603
17.746578655808705	12.654394	3.5573015
17.764317920215372	10.519229	3.243336
17.7820576137864	8.883797	2.9805698
17.79979773697811	7.502267	2.7390265
17.81753829024692	6.089109	2.467612
17.835279274049356	5.2323833	2.2874403
17.85302068884201	4.500898	2.121532
17.870762535081607	4.103559	2.0257244
17.888504813224934	3.8606336	1.9648495
17.90624752372891	3.7251303	1.9300597
17.923990667050536	3.6328444	1.9060022
17.941734243646895	3.5897193	1.8946555
17.959478253975185	3.5255861	1.8776544
17.9772226984927	3.4507623	1.8576227
17.994967577656833	3.4108613	1.8468517
18.01271289192506	3.4072783	1.8458815
18.030458641754965	3.432368	1.8526651
18.04820482760425	3.412121	1.8471928
18.06595144993067	3.4030697	1.8447411
18.083698509192125	3.3794584	1.8383304
18.101446005846576	3.3147244	1.8206384
18.119193940352105	3.2821605	1.8116734
18.136942313166887	3.2371097	1.799197
18.1546911247492	3.2291992	1.7969973
18.1724403755574	3.1960793	1.7877581
18.19019006604997	3.1462486	1.7737668
18.207940196685467	3.13474	1.7705197
18.225690767922575	3.1111956	1.7638582
18.243441780220046	3.0999873	1.760678
18.261193234036764	3.0596788	1.7491938
18.278945129831676	3.0396678	1.7434644
18.29669746806386	3.0563855	1.7482522
18.314450249192483	3.0334435	1.7416784
18.3322034736768	3.0298386	1.7406431
18.349957141976184	3.008598	1.734531
18.3677112545501	3.0824735	1.7556975
18.385465811858108	3.108404	1.7630666
18.403220814359884	3.1300046	1.769182
18.420976262515172	3.1249595	1.7677555
18.43873215678387	3.1301665	1.7692276
18.456488497625923	3.1819465	1.7838012
18.474245285501407	3.288531	1.8134308
18.492002520870486	3.3224807	1.8227673
18.50976020419343	3.3583164	1.832571
18.527518335930615	3.5954804	1.8961753
18.545276916542516	4.1942887	2.0479963
18.563035946489688	4.361201	2.0883489
18.580795426232832	4.8078446	2.19268
18.598555356232698	4.714838	2.171368
18.616315736950185	4.989311	2.2336767
18.63407656884626	4.6388507	2.153799
18.65183785238201	4.8125973	2.1937633
18.669599588018617	4.627394	2.1511378
18.68736177621737	4.6628304	2.1593587
18.705124417439652	4.683512	2.1641424
18.72288751214696	4.50721	2.123019
18.740651060800886	4.6024275	2.1453269
18.758415063863115	4.3084965	2.0756917
18.77617952179546	4.4309015	2.1049707
18.793944435059814	4.166679	2.0412445
18.811709804118184	4.1641164	2.0406168
18.829475629432675	4.1474233	2.0365224
18.8472419114655	3.9538863	1.9884381
18.86500865067897	4.04191	2.0104501
18.88277584753551	3.7280002	1.930803
18.90054350249763	3.749469	1.9363545
18.918311616027957	3.4640882	1.8612062
18.936080188589226	3.393722	1.8422058
18.953849220644265	3.1067839	1.7626071
18.971618712656007	2.9211557	1.7091389
18.9893886650875	2.8485494	1.6877646
19.007159078401887	8.022926	2.832477
19.024929953062408	32.9239	5.737935
19.042701289532435	32.840744	5.7306843
19.060473088275405	25.368164	5.0366817
19.07824534975489	2.6587794	1.6305764
19.096018074434568	2.6622455	1.6316389
19.113791262778197	2.6341205	1.6229974
19.13156491524966	2.579124	1.6059651
19.149339032312945	2.545885	1.595583
19.167113614432136	2.5230649	1.5884159
19.184888662071433	2.5226324	1.5882797
19.202664175695123	2.5228596	1.5883512
19.220440155767623	2.5105283	1.5844647
19.238216602753447	2.519098	1.5871667
19.2559935171172	2.5337825	1.5917859
19.27377089932361	2.5208735	1.5877259
19.291548749837514	2.5090106	1.5839857
19.309327069123835	2.507547	1.5835236
19.32710585764763	2.5139635	1.5855483
19.344885115874032	2.5054398	1.5828581
19.362664844268313	2.5166483	1.5863948
19.380445043295822	2.5097597	1.5842221
19.39822571342203	2.4882486	1.5774183
19.41600685511252	2.4891245	1.577696
19.43378846883297	2.5094419	1.5841218
19.451570555049173	2.536371	1.5925988
19.469353114227037	2.52499	1.5890217
19.48713614683254	2.532576	1.591407
19.50491965333182	2.5143816	1.5856801
19.52270363419109	2.4953477	1.579667
19.540488089876686	2.4780242	1.5741742
19.55827302085503	2.440856	1.5623239
19.576058427592674	2.453015	1.5662104
19.593844310556282	2.4673405	1.570777
19.611630670212598	2.5015326	1.5816234
19.629417507028506	2.475564	1.5733925
19.64720482147098	2.4808445	1.5750697
19.6649926140071	2.4800336	1.5748123
19.682780885104084	2.4802098	1.5748682
19.70056963522921	2.4501188	1.5652856
19.718358864849908	2.466369	1.5704677
19.7361485744337	2.4692616	1.5713885
19.753938764448215	2.4838128	1.5760117
19.771729435361202	2.50633	1.5831393
19.789520587640506	2.533342	1.5916475
19.807312221754092	2.5379848	1.5931054
19.825104338170043	2.5193737	1.5872535
19.842896937356517	2.5506344	1.5970706
19.860690019781824	2.5350497	1.592184
19.87848358591436	2.5431018	1.5947106
19.896277636222635	2.5255558	1.5891998
19.914072171175278	2.4993384	1.5809296
19.931867191241015	2.4878273	1.5772848
19.94966269688869	2.4912362	1.5783651
19.967458688587264	2.465838	1.5702987
19.985255166805807	2.4117055	1.5529667
20.00305213201348	2.4219418	1.5562589
20.020849584679578	2.42959	1.5587142
20.038647525273507	2.4574084	1.5676123
20.05644595426477	2.4365458	1.5609438
20.07424487212299	2.4620533	1.5690931
20.092044279317903	2.4573019	1.5675783
20.109844176319353	2.440172	1.562105
20.127644563597304	2.4271085	1.557918
20.145445441621817	2.4249082	1.5572116
20.16324681086307	2.4227145	1.5565071
20.181048671791373	2.444062	1.5633496
20.198851024877122	2.4476976	1.5645119
20.216653870590836	2.4168115	1.5546098
20.234457209403146	2.3539195	1.5342488
20.252261041784802	2.342825	1.5306289
20.270065368206662	2.3631306	1.5372478
20.287870189139685	2.3772326	1.5418277
20.305675505054968	2.3905675	1.546146
20.323481316423702	2.387705	1.5452201
20.341287623717207	2.3851721	1.5444002
20.359094427406884	2.363551	1.5373844
20.376901727964288	2.3529181	1.5339224
20.39470952586107	2.3557866	1.5348572
20.41251782156899	2.359672	1.5361224
20.430326615559935	2.3652267	1.5379294
20.448135908305886	2.3443472	1.5311261
20.465945700278965	2.3158474	1.5217909
20.483755991951384	2.33559	1.5282637
20.50156678379548	2.3397496	1.529624
20.519378076283708	2.3118107	1.520464
20.537189869888635	2.3150651	1.5215338
20.55500216508294	2.3565168	1.5350951
20.572814962339415	2.362128	1.5369216
20.59062826213098	2.3501017	1.5330042
20.60844206493066	2.3672457	1.5385857
20.626256371211593	2.3516202	1.5334994
20.644071181447032	2.3271103	1.525487
20.66188649611036	2.3448489	1.5312899
20.67970231567506	2.3423166	1.5304629
20.697518640614742	2.3230855	1.5241672
20.715335471403122	2.290853	1.5135564
20.73315280851404	2.322627	1.5240167
20.750970652421447	2.3527884	1.5338802
20.768789003599412	2.3723242	1.5402352
20.786607862522136	2.3426096	1.5305586
20.8044272296639	2.3055172	1.5183929
20.82224710549913	2.2755537	1.5084939
20.84006749050237	2.3007114	1.5168096
20.857888385148268	3.888893	1.9720277
20.8757097899116	45.979763	6.780838
20.893531705267254	64.783806	8.048839
20.911354131690224	83.78111	9.153202
20.92917706965566	69.08949	8.312009
20.94700051963877	50.15605	7.0820937
20.96482448211493	29.417818	5.4238195
20.982648957559622	4.1668057	2.0412755
21.00047394644843	2.2627654	1.5042491
21.01829944925707	2.224687	1.4915385
21.036125466461375	2.1896608	1.4797503
21.053951998537297	2.2191093	1.4896675
21.071779045960906	2.2653866	1.5051202
21.089606609208378	2.2811847	1.5103592
21.10743468875603	2.2639797	1.5046526
21.12526328508028	2.2731156	1.5076855
21.143092398657675	2.2731469	1.5076959
21.16092202996488	2.2617238	1.5039028
21.17875217947867	2.2024598	1.4840686
21.19658284767596	2.1839929	1.4778339
21.21441403503377	2.1690896	1.472783
21.232245742029225	2.2043908	1.484719
21.2500779691396	2.2073305	1.4857087
21.26791071684227	2.196318	1.481998
21.28574398561475	2.1993082	1.4830065
21.30357777593465	2.1909041	1.4801702
21.321412088279704	2.1645038	1.4712253
21.339246923127792	2.1412964	1.4633169
21.357082280956888	2.1330802	1.4605068
21.3749181622451	2.1385703	1.4623852
21.392754567470647	2.1245148	1.4575715
21.41059149711187	2.1342218	1.4608976
21.42842895164726	2.1254566	1.4578946
21.446266931555378	2.1257572	1.4579977
21.464105437314945	2.1020164	1.4498333
21.481944469404798	2.1047866	1.4507883
21.49978402830388	2.1234984	1.4572228
21.51762411449127	2.114541	1.4541461
21.53546472844617	2.1218755	1.4566659
21.553305870647876	2.11245	1.453427
21.571147541575865	2.115557	1.4544954
21.58898974170967	2.0933857	1.4468538
21.60683247152899	2.077871	1.4414823
21.62467573151363	2.0461855	1.4304494
21.642519522143523	2.0316377	1.4253553
21.660363843898722	2.0967102	1.4480021
21.6782086972594	2.1065288	1.4513886
21.696054082705864	2.0740213	1.4401463
21.713900000718535	2.0341752	1.4262451
21.73174645177795	2.0725958	1.4396513
21.749593436364794	2.0458434	1.4303298
21.767440954959845	2.0323534	1.4256064
21.785289008044032	2.008203	1.4171108
21.803137596098388	2.0306253	1.4250001
21.820986719604086	2.0224082	1.422114
21.838836379042412	2.0183427	1.4206839
21.85668657489478	2.008387	1.4171758
21.87453730764273	2.035164	1.4265918
21.892388577767914	2.0611591	1.4356737
21.91024038575213	2.0533235	1.4329423
21.928092732077285	2.0364158	1.4270304
21.945945617225426	2.038368	1.4277142
21.963799041678694	2.016523	1.4200432
21.981653005919398	31.346804	5.5988216
21.999507510429943	78.1499	8.840243
22.01736255569286	73.113	8.550614
22.035218142190818	4.186624	2.0461242
22.05307427040661	2.0231006	1.4223574
22.07093094082315	2.0156066	1.4197206
22.088788153923474	2.01485	1.4194541
22.106645910190746	2.0135906	1.4190104
22.12450421010827	2.0406523	1.428514
22.142363054159464	2.0296638	1.4246627
22.16022244282787	1.9851624	1.408958
22.178082376597164	1.9748496	1.4052935
22.195942855951145	1.9888784	1.4102759
22.213803881373742	2.013169	1.4188619
22.231665453349002	1.9995466	1.4140533
22.24952757236111	1.9790508	1.4067874
22.26739023889438	1.9784956	1.4065901
22.28525345343323	1.9788655	1.4067216
22.30311721646225	1.9799441	1.4071048
22.320981528466113	1.9492998	1.3961732
22.33884638992964	1.9264866	1.3879793
22.356711801337788	1.9236428	1.3869545
22.37457776317561	1.937587	1.3919723
22.392444275928337	1.9770473	1.4060751
22.410311340081282	1.9864577	1.4094175
22.428178956119904	1.9854311	1.4090532
22.446047124529805	1.9555085	1.398395
22.46391584579669	1.9721943	1.4043484
22.481785120406414	2.0008173	1.4145025
22.49965494884496	1.9845084	1.4087259
22.51752533159841	1.9585401	1.3994786
22.53539626915302	1.9369025	1.3917265
22.553267761995137	1.9252285	1.387526
22.571139810611264	1.9283942	1.3886664
22.589012415488025	1.9481797	1.3957721
22.60688557711216	1.9566828	1.3988148
22.624759295970566	1.9924217	1.4115317
22.642633572550263	1.9930866	1.4117671
22.660508407338362	2.0118084	1.4183823
22.67838380082217	2.0016048	1.4147809
22.696259753489077	1.9703069	1.4036762
22.714136265826614	1.9731016	1.4046713
22.73201333832246	1.9836015	1.4084039
22.74989097146439	1.9812529	1.4075699
22.76776916574035	1.9787734	1.4066888
22.785647921638393	1.9696486	1.4034417
22.803527239646712	1.9644493	1.4015881
22.82140712025363	1.9394977	1.3926585
22.839287563947593	1.9385428	1.3923156
22.85716857121719	1.9352686	1.3911394
22.875050142551135	1.941972	1.3935466
22.892932278438277	1.9194586	1.3854452
22.910814979367604	1.8888054	1.3743382
22.928698245828222	1.9136467	1.3833462
22.946582078309387	1.958193	1.3993545
22.96446647730047	1.9911487	1.4110807
22.98235144329098	2.006644	1.4165606
23.000236976770562	1.9854714	1.4090675
23.018123078229	1.9378407	1.3920635
23.03600974815619	1.877794	1.3703263
23.053896987042194	1.8840833	1.3726192
23.071784795377173	1.959059	1.3996639
23.08967317365145	1.9939148	1.4120605
23.10756212235546	1.964745	1.4016936
23.125451641979787	1.9178768	1.3848743
23.143341733015134	1.9388657	1.3924316
23.161232395952357	1.9765129	1.4058851
23.179123631282426	1.985723	1.4091568
23.197015439496468	1.9852936	1.4090044
23.214907821085717	2.0092766	1.4174895
23.23280077654157	1.9883077	1.4100736
23.250694306355538	1.9701631	1.403625
23.268588411019277	1.9933895	1.4118744
23.28648309102458	2.001705	1.4148163
23.304378346863356	1.9467256	1.395251
23.322274179027676	1.900543	1.3786018
23.340170588009723	1.8765843	1.3698847
23.358067574301852	1.886454	1.3734825
23.37596513839651	1.9195358	1.3854731
23.39386328078629	1.9321704	1.3900254
23.411762001963947	1.9376826	1.3920066
23.429661302422353	1.9197284	1.3855426
23.4475611826545	1.9378344	1.3920612
23.46546164315356	1.9347863	1.3909659
23.48336268441279	1.9305917	1.3894573
23.501264306925638	1.8982453	1.3777683
23.51916651118564	1.8831639	1.3722842
23.537069297686497	1.8788937	1.3707274
23.554972666922037	1.8898185	1.3747067
23.57287661938623	1.9166348	1.3844258
23.59078115557318	1.9540612	1.3978773
23.608686275977128	1.9650437	1.4018002
23.62659198109246	1.9645382	1.4016199
23.6444982714137	1.9027262	1.3793935
23.66240514743549	1.8896859	1.3746585
23.68031260965263	1.8850465	1.37297
23.698220658560068	1.9069073	1.3809081
23.716129294652845	1.8864222	1.3734709
23.7340385184262	1.8976617	1.3775564
23.75194833037546	1.9255918	1.3876569
23.769858730996123	1.9482675	1.3958036
23.78776972078382	1.9372848	1.3918638
23.80568130023431	1.9696813	1.4034534
23.823593469843495	1.9486676	1.3959469
23.841506230107424	1.9310635	1.3896271
23.859419581522275	1.9029198	1.3794636
23.87733352458438	1.9241908	1.3871521
23.89524805979019	1.92659	1.3880166
23.913163187636318	1.9410067	1.3932002
23.931078908619508	1.9937838	1.4120141
23.948995223236633	2.0429747	1.4293267
23.966912131984735	2.0763116	1.4409412
23.98482963536096	2.0857434	1.4442103
24.002747733862616	2.0450518	1.4300531
24.020666427987155	2.011359	1.4182239
24.038585718232156	1.9993025	1.4139669
24.056505605095353	2.0112202	1.418175
24.074426089074617	2.0604398	1.4354233
24.092347170667946	2.080193	1.4422874
24.110268850373515	2.1240125	1.4573992
24.128191128689586	2.0991232	1.4488351
24.146114006114626	2.081436	1.4427183
24.164037483147187	2.0716252	1.4393141
24.181961560286005	2.0862503	1.4443858
24.199886238029926	2.0674608	1.4378667
24.21781151687797	2.0826612	1.4431428
24.235737397329274	2.0487587	1.4313486
24.253663879883135	2.0308976	1.4250957
24.271590965038975	2.051623	1.4323488
24.289518653296376	2.0877898	1.4449186
24.30744694515505	2.0990946	1.4488252
24.32537584111486	2.0510802	1.4321593
24.34330534167581	2.0078223	1.4169765
24.361235447338046	1.9740442	1.4050069
24.379166158601876	1.995387	1.4125817
24.39709747596772	1.9802793	1.4072239
24.41502939993615	1.9894509	1.410479
24.432961931007917	2.0068946	1.4166491
24.450895069683856	2.0179534	1.4205469
24.468828816465	1.9870934	1.409643
24.4867631718525	2.0051074	1.4160181
24.504698136347656	2.0302658	1.424874
24.52263371045192	2.023262	1.4224142
24.540569894666874	1.9979703	1.4134958
24.558506689494266	2.0038779	1.415584
24.57644409543597	2.0084198	1.4171872
24.594382112994012	2.018719	1.4208163
24.61232074267057	1.9880689	1.409989
24.630259984967953	1.9918864	1.411342
24.64819984038863	1.9840225	1.4085534
24.66614030943522	1.9768845	1.4060172
24.684081392610462	1.9893382	1.410439
24.702023090417274	2.0413103	1.4287443
24.7199654033587	2.0876539	1.4448715
24.737908331937927	2.1009996	1.4494826
24.755851876658305	2.0805697	1.442418
24.773796038023324	2.038072	1.4276106
24.79174081653661	2.0461216	1.4304271
24.809686212701962	2.09244	1.4465269
24.827632227023294	2.1413114	1.463322
24.8455788600047	2.1444051	1.4643787
24.8635261121504	2.145072	1.4646064
24.88147398396475	2.1160831	1.4546763
24.899422475952303	2.1585865	1.4692129
24.917371588617698	2.1343422	1.4609388
24.935321322465768	2.210582	1.4868026
24.953271678001478	2.2974102	1.5157211
24.97122265572994	2.4677083	1.5708941
24.989174256156414	2.7672555	1.663507
25.00712647978632	3.3971696	1.8431412
25.02507932712521	4.404977	2.0988038
25.043032798678798	5.9894214	2.4473295
25.060986894952933	7.674251	2.770244
25.078941616453637	9.087484	3.0145454
25.096896963687055	9.903216	3.1469376
25.114852937159508	10.493733	3.2394032
25.132809537377444	10.356332	3.2181256
25.150766764847468	9.759514	3.124022
25.168724620076347	8.453024	2.9074085
25.186683103570985	7.1293826	2.6700904
25.204642215838426	5.76231	2.4004812
25.222601957385894	4.672917	2.161693
25.24056232872074	3.636708	1.9070154
25.25852333035048	2.9355762	1.7133523
25.276484962782778	2.470036	1.5716348
25.294447226525435	2.2970362	1.5155976
25.312410122086423	2.1786633	1.4760295
25.330373649973843	2.0971563	1.4481561
25.348337810695988	2.0376582	1.4274657
25.366302604761245	2.0113726	1.4182286
25.384268032678207	1.9629388	1.4010491
25.40223409495558	1.9392273	1.3925614
25.420200792102257	1.9422711	1.3936539
25.438168124627246	1.9549761	1.3982046
25.45613609303974	1.9509534	1.3967654
25.474104697849057	1.959953	1.3999832
25.492073939564698	1.9215664	1.3862058
25.510043818696285	1.9118865	1.3827099
25.528014335753614	1.8970416	1.3773314
25.54598549124664	1.9018308	1.3790689
25.56395728568544	1.8768823	1.3699936
25.58192971958028	1.8877703	1.3739616
25.59990279344156	1.8880311	1.3740565
25.617876507779833	1.8488151	1.3597114
25.635850863105826	1.8675762	1.3665929
25.653825859930386	1.9090458	1.3816823
25.671801498764548	1.9210621	1.3860239
25.68977778011949	1.898668	1.3779217
25.707754704506524	1.890069	1.3747978
25.725732272437153	1.870186	1.3675474
25.743710484423012	1.8464174	1.3588294
25.761689340975888	1.8745075	1.3691266
25.77966884260774	1.906716	1.3808389
25.797648989830662	1.8787533	1.3706763
25.815629783156922	1.8234298	1.3503443
25.83361122309895	1.824093	1.3505899
25.85159331016929	1.8572876	1.3628234
25.869576044880695	1.8881931	1.3741153
25.887559427746034	1.889007	1.3744115
25.90554345927836	1.910562	1.3822309
25.92352813999086	1.8975039	1.3774991
25.94151347039689	1.8748477	1.3692508
25.959499451009965	1.7889537	1.3375177
25.97748608234374	1.7645575	1.3283665
25.995473364912062	1.7913127	1.3383993
26.013461299228904	1.869332	1.3672352
26.03144988580839	1.8698899	1.3674392
26.04943912516483	1.8452284	1.3583919
26.067429017812675	1.7878878	1.3371192
26.085419564266537	1.797122	1.3405678
26.103410765041186	1.8819808	1.371853
26.12140262065155	1.9547827	1.3981354
26.139395131612723	1.9798265	1.407063
26.157388298439948	1.937229	1.3918438
26.17538212164861	1.9086506	1.3815392
26.193376601754295	1.8486865	1.3596641
26.211371739272714	1.7857956	1.3363366
26.229367534719746	1.751891	1.3235902
26.247363988611433	1.81654	1.3477908
26.26536110146397	1.8523932	1.3610265
26.283358873793727	1.8548318	1.3619221
26.301357306117204	1.8566934	1.3626053
26.319356398951104	1.8348236	1.3545566
26.33735615281224	1.8227286	1.3500847
26.35535656821762	1.8154166	1.347374
26.373357645684404	1.8444647	1.3581107
26.39135938572991	1.911475	1.382561
26.409361788871614	1.8926637	1.3757411
26.427364855627165	1.8899068	1.3747388
26.445368586514352	1.8800156	1.3711367
26.46337298205115	1.8837365	1.3724928
26.48137804275568	1.8500466	1.3601642
26.499383769146217	1.845211	1.3583854
26.517390161741215	1.8417875	1.3571247
26.53539722105928	1.867557	1.3665859
26.553404947619182	1.8438953	1.3579011
26.571413341939856	1.81882	1.3486364
26.589422404540397	1.8074249	1.344405
26.60743213594006	1.8638692	1.3652359
26.62544253665827	1.8610184	1.3641915
26.64345360721459	1.8455361	1.3585051
26.66146534812879	1.7951962	1.3398494
26.679477759920758	1.7431293	1.3202763
26.69749084311057	1.8141004	1.3468854
26.71550459821847	1.8378915	1.3556886
26.733519025764842	1.7586021	1.326123
26.751534126270258	1.7173717	1.3104852
26.769549900255434	1.6979339	1.3030479
26.787566348241267	1.7213401	1.3119985
26.80558347074881	1.7408139	1.319399
26.823601268299267	1.7494576	1.3226706
26.841619741414036	1.7014006	1.3043774
26.85963889061465	1.7387506	1.3186169
26.877658716422832	1.8377277	1.3556281
26.89567921936045	1.9004864	1.3785813
26.913700399949544	1.8853104	1.3730661
26.93172225871233	1.8863958	1.3734612
26.949744796171174	1.8901536	1.3748286
26.967768012848605	1.8477263	1.359311
26.98579190926733	1.7917682	1.3385694
27.003816485950225	1.8054279	1.3436621
27.021841743420318	1.8986477	1.3779142
27.039867682200814	1.9062037	1.3806534
27.057894302815072	1.8349228	1.3545933
27.07592160578664	1.7998235	1.341575
27.0939495916392	1.8111755	1.3457992
27.111978260896635	1.8105216	1.3455563
27.13000761408296	1.7945267	1.3395995
27.148037651722397	1.811776	1.3460222
27.166068374339304	1.8487823	1.3596994
27.184099782458215	1.8362813	1.3550946
27.20213187660384	1.8553636	1.3621173
27.22016465730105	1.8503736	1.3602844
27.23819812507487	1.8203131	1.3491898
27.256232280450533	1.7812265	1.334626
27.274267123953383	1.7640238	1.3281655
27.292302656108987	1.7790246	1.3338008
27.31033887744306	1.8241504	1.3506111
27.32837578848146	1.8519753	1.360873
27.34641338975026	1.8531208	1.3612938
27.364451681775673	1.8281311	1.3520839
27.382490665084074	1.8336776	1.3541335
27.400530340202046	1.8203473	1.3492025
27.41857070765629	1.8063627	1.34401
27.436611767973726	1.8450235	1.3583164
27.454653521681404	1.9097251	1.381928
27.472695969306564	1.908497	1.3814836
27.490739111376627	1.8488306	1.3597171
27.508782948419153	1.8327454	1.3537893
27.526827480961902	1.8216954	1.349702
27.54487270953279	1.7892374	1.3376238
27.562918634659898	1.8060533	1.3438948
27.580965256871508	1.8363082	1.3551046
27.599012576696026	1.858258	1.3631793
27.617060594662068	1.8172787	1.3480648
27.63510931129842	1.8458506	1.3586209
27.65315872713401	1.8949746	1.3765807
27.67120884269797	1.9203517	1.3857676
27.68925965851958	1.8935143	1.3760502
27.707311175128307	1.8856229	1.3731798
27.725363393053787	1.9078069	1.3812338
27.74341631282583	1.9290652	1.3889079
27.7614699349744	1.9464984	1.3951696
27.77952426002968	2.1348333	1.4611069
27.797579288521973	2.2355676	1.4951814
27.815635020981784	2.6511676	1.6282407
27.83369145793979	2.7411017	1.6556273
27.85174859992682	2.5963771	1.6113278
27.869806447473923	2.4540734	1.5665482
27.887865001112267	2.127492	1.4585924
27.905924261373233	1.9472932	1.3954544
27.92398422878836	1.8983244	1.3777969
27.94204490388936	1.9126438	1.3829837
27.96010628720813	1.9190563	1.3853
27.978168379276728	1.8722041	1.3682851
27.9962311806274	1.821986	1.3498096
28.014294691792568	1.8449593	1.3582928
28.0323589133048	1.8459141	1.3586442
28.050423845696887	1.8894559	1.3745748
28.068489489501758	1.8752408	1.3693943
28.086555845252523	1.8422581	1.3572981
28.104622913482487	1.8302271	1.3528589
28.122690694725115	1.876955	1.37002
28.14075918951405	1.8996934	1.3782936
28.15882839838312	1.8798993	1.3710942
28.176898321866304	1.9667696	1.4024156
28.1949689604978	2.0258849	1.4233358
28.213040314811945	1.9993159	1.4139717
28.23111238534327	1.9253577	1.3875726
28.249185172626493	1.8811634	1.3715551
28.267258677196473	1.8943728	1.3763622
28.285332899588294	1.9517328	1.3970443
28.303407840337172	2.0232408	1.4224067
28.321483499978545	2.0128784	1.4187595
28.33955987904799	2.0267398	1.4236361
28.357636978081285	2.0398636	1.4282379
28.37571479761439	2.0000877	1.4142445
28.393793338183425	2.0561018	1.4339113
28.41187260032469	2.0319486	1.4254644
28.429952584574686	2.0128965	1.4187659
28.448033291470065	2.0380573	1.4276055
28.46611472154769	2.0463476	1.4305061
28.484196875344566	2.0302587	1.4248714
28.502279753397914	2.032224	1.425561
28.52036335624511	2.0260086	1.4233793
28.538447684423716	1.9848518	1.4088477
28.556532738471482	1.9573187	1.399042
28.574618518926325	1.9313084	1.3897152
28.59270502632635	1.9853543	1.409026
28.61079226120985	2.0122736	1.4185463
28.628880224115274	2.0217855	1.421895
28.646968915581287	2.0332313	1.4259142
28.66505833614671	2.0628784	1.4362724
28.68314848635055	2.071881	1.439403
28.701239366732004	2.0471091	1.4307722
28.71933097783044	2.0582764	1.4346695
28.737423320185403	2.0906913	1.4459223
28.75551639433665	2.1044629	1.4506767
28.773610200824074	2.1107752	1.4528507
28.791704740187793	2.125714	1.4579829
28.80980001296809	2.1593838	1.4694842
28.827896019705413	2.1412976	1.4633173
28.845992760940433	2.0946958	1.4473064
28.86409023721397	2.1467485	1.4651787
28.88218844906704	2.2375724	1.4958518
28.900287397040845	2.3073797	1.5190061
28.918387081676755	2.339201	1.5294447
28.936487503516343	2.3473358	1.5321018
28.954588663101365	2.3465602	1.5318487
28.97269056097374	2.3521872	1.5336841
28.990793197675597	2.3718913	1.5400946
29.00889657374923	2.3889356	1.5456182
29.027000689737125	2.39163	1.5464896
29.04510554618196	2.4590132	1.568124
29.06321114362659	2.4751503	1.573261
29.08131748261405	2.4418764	1.5626504
29.099424563687567	2.4672875	1.5707601
29.11753238739057	2.5121393	1.584973
29.13564095426663	2.548081	1.5962709
29.15375026485954	2.5776038	1.6054918
29.171860319713275	2.6186554	1.618226
29.18997111937199	2.6321263	1.6223829
29.20808266438002	2.6911187	1.640463
29.226194955281898	2.8196485	1.6791809
29.244307992622335	2.9227748	1.7096125
29.26242177694624	2.931449	1.7121475
29.2805363087987	2.9132621	1.7068281
29.29865158872498	2.9499593	1.7175446
29.316767617270557	2.9643376	1.7217252
29.334884394981064	3.0104313	1.7350595
29.353001922402367	3.0512416	1.7467804
29.37112020008047	3.0592787	1.7490793
29.389239228561596	3.1596885	1.7775513
29.407359008392152	3.397032	1.8431039
29.42547954011872	3.6954093	1.9223447
29.44360082428809	4.165026	2.0408397
29.46172286144722	5.001396	2.23638
29.479845652143283	6.7087045	2.5901167
29.497969196923606	9.580157	3.095183
29.516093496335728	13.591255	3.686632
29.5342185509274	17.121733	4.1378417
29.55234436124651	20.287424	4.504156
29.570470927841175	21.798021	4.668835
29.588598251259686	21.786428	4.6675935
29.60672633205055	19.89151	4.45999
29.624855170762405	16.55715	4.069048
29.642984767944146	12.977349	3.602409
29.66111512414481	9.626088	3.1025937
29.67924623991366	7.0402055	2.6533387
29.697378115800138	5.2582726	2.2930925
29.71551075235387	4.3271585	2.0801823
29.733644150124675	3.915445	1.9787483
29.751778309662576	3.6756728	1.9172044
29.769913231517766	3.5254464	1.8776172
29.78804891624066	3.4502585	1.8574872
29.806185364381818	3.3860219	1.8401146
29.82432257649206	3.280163	1.8111221
29.842460553122333	3.2819834	1.8116245
29.86059929482382	3.2703774	1.8084185
29.878738802147872	3.2405457	1.8001516
29.896879075646048	3.2362542	1.7989593
29.915020115870114	3.2432253	1.8008957
29.933161923371976	3.2518027	1.8032756
29.951304498703777	3.2965589	1.8156428
29.969447842417857	3.366726	1.834864
29.987591955066733	3.3647525	1.8343261
30.005736837203123	3.3105	1.8194779
30.023882489379943	3.2534862	1.8037423
30.04202891215028	3.2523842	1.8034368
30.060176106067455	3.2666516	1.8073881
30.078324071684946	3.2230918	1.7952971
30.09647280955646	3.2129388	1.7924672
30.114622320235863	3.2513063	1.8031379
30.132772604277257	3.2831821	1.8119553
30.1509236622349	3.220806	1.7946603
30.16907549466328	3.175588	1.782018
30.18722810211705	3.108484	1.7630893
30.205381485151097	3.0505095	1.7465708
30.22353564432045	3.0902126	1.7579
30.241690580180403	3.089893	1.7578092
30.25984629328638	3.09607	1.7595654
30.278002784194037	3.156884	1.7767622
30.296160053459246	3.0965583	1.759704
30.314318101638033	2.989698	1.7290744
30.332476929286646	2.9628205	1.7212845
30.35063653696153	2.9693003	1.7231658
30.368796925219307	2.9707987	1.7236005
30.386958094616844	2.9552276	1.7190776
30.40512004571115	2.967131	1.7225362
30.423282779059463	3.0077505	1.7342868
30.441446295219233	2.91567	1.7075332
30.459610594748067	2.8201873	1.6793413
30.47777567820382	2.8385935	1.6848125
30.495941546144504	2.8881502	1.6994559
30.51410819912835	2.8704333	1.6942353
30.532275637713795	2.8255956	1.6809508
30.55044386245946	2.8706183	1.6942899
30.56861287392416	2.865452	1.6927646
30.586782672666956	2.887373	1.6992272
30.604953259247047	2.8962045	1.7018238
30.623124634223885	2.8571982	1.6903249
30.641296798157075	2.8146636	1.677696
30.659469751606462	2.7927847	1.6711627
30.677643495132074	2.8245525	1.6806405
30.695818029294152	2.8084118	1.6758317
30.713993354653116	2.7910264	1.6706365
30.73216947176962	2.8264427	1.6812028
30.75034638120448	2.8217015	1.6797922
30.768524083518756	2.8089445	1.6759906
30.786702579273673	2.845989	1.6870059
30.80488186903069	2.8779652	1.6964567
30.82306195335144	2.959305	1.7202631
30.841242832797782	3.188597	1.7856643
30.85942450793176	3.6148648	1.9012798
30.877606979315637	4.0555644	2.0138433
30.895790247511883	4.4305544	2.1048882
30.913974313083134	4.8119636	2.1936188
30.932159176592283	5.159788	2.2715168
30.95034483860237	5.4657555	2.3378956
30.968531299676698	5.3835187	2.320241
30.98671856037873	5.171313	2.2740521
31.00490662127215	4.7761655	2.185444
31.023095482920848	4.2957797	2.0726264
31.04128514588892	3.7627082	1.9397701
31.059475610740662	3.2855198	1.8126003
31.07766687804056	2.864886	1.6925974
31.09585894835335	2.5994816	1.6122907
31.11405182224393	2.4945583	1.5794171
31.132245500277417	2.4271274	1.557924
31.15043998301914	2.4072073	1.5515177
31.168635271034628	2.4206462	1.5558426
31.18683136488964	2.4764745	1.5736818
31.20502826515008	2.4830399	1.5757664
31.223225972382135	2.4495318	1.565098
31.241424487152155	2.4741557	1.5729449
31.259623810026692	2.468757	1.5712278
31.27782394157253	2.4758716	1.5734903
31.296024882356644	2.468705	1.5712113
31.314226632946237	2.4663055	1.5704476
31.332429193908684	2.4659872	1.5703462
31.350632565811598	2.418551	1.5551691
31.368836749222787	2.4376996	1.5613134
31.387041744710295	2.4910965	1.5783207
31.40524755284232	2.5758908	1.6049582
31.423454174187317	2.6196325	1.6185279
31.441661609313922	2.592237	1.6100426
31.459869858791002	2.496674	1.5800867
31.478078923187628	2.4494283	1.5650649
31.496288803073064	2.45536	1.5669588
31.514499499016807	2.4327297	1.559721
31.532711011588546	2.4283829	1.558327
31.550923341358178	2.382979	1.5436901
31.56913648889584	2.2761939	1.508706
31.587350454771844	2.3414152	1.5301683
31.605565239556732	2.3786516	1.5422878
31.62378084382127	2.3227923	1.524071
31.641997268136382	2.267618	1.5058612
31.660214513073274	2.3331547	1.5274668
31.67843257920331	2.337164	1.5287786
31.6966514670981	2.3255405	1.5249723
31.71487117732944	2.308617	1.5194134
31.733091710469346	2.318439	1.5226421
31.751313067090052	2.2910075	1.5136075
31.769535247764008	2.2964523	1.5154049
31.787758253063878	2.3758838	1.5413902
31.805982083562526	2.3856192	1.5445449
31.824206739833024	2.363364	1.5373236
31.84243222244869	2.2839253	1.5112661
31.860658531983013	2.2633965	1.5044589
31.878885669009737	2.252154	1.5007179
31.897113634102784	2.230745	1.493568
31.91534242783632	2.1602404	1.4697757
31.933572050784694	2.2085683	1.4861252
31.951802503522508	2.3537176	1.534183
31.970033786624548	2.3684995	1.538993
31.988265900665834	2.260209	1.5033991
32.006498846221575	2.2250264	1.4916523
32.02473262386724	2.2115817	1.4871387
32.04296723417845	2.111351	1.4530488
32.0612026777311	2.0493884	1.4315685
32.07943895510129	2.0745518	1.4403305
32.097676066865304	2.1781425	1.4758532
32.115914013599685	2.2304068	1.4934547
32.13415279588115	2.2955089	1.5150937
32.152392414286666	2.1994288	1.4830471
32.1706328693934	2.1585894	1.4692138
32.18887416177875	2.180316	1.4765893
32.20711629202032	2.1794417	1.4762932
32.225359260695924	2.0740252	1.4401476
32.243603068383614	2.1137834	1.4538856
32.26184771566166	2.1654508	1.4715471
32.28009320310852	2.2046416	1.4848036
32.2983395313029	2.2271497	1.4923638
32.31658670082372	2.1817038	1.4770591
32.33483471225012	2.092215	1.4464492
32.35308356616143	2.069312	1.4385104
32.371333263137245	2.1061602	1.4512615
32.38958380375734	2.1599572	1.4696792
32.407835188601744	2.1710205	1.4734384
32.42608741825067	2.1859035	1.4784801
32.444340493284585	2.1732712	1.4742019
32.46259441428416	2.18061	1.4766889
32.48084918183028	2.0993009	1.4488964
32.49910479650405	2.055146	1.433578
32.51736125888683	2.075633	1.4407058
32.53561856956014	2.047304	1.4308403
32.5538767291058	2.0337842	1.426108
32.572135738105764	2.0276744	1.4239644
32.59039559714228	1.945414	1.394781
32.608656306797776	1.9211832	1.3860675
32.62691786765491	1.951157	1.3968382
32.645180280296586	1.9684691	1.4030215
32.663443545305896	1.9954219	1.4125941
32.68170766326619	1.9960961	1.4128326
32.69997263476099	2.0257046	1.4232725
32.7182384603741	2.1182816	1.4554317
32.7365051406895	2.1422837	1.4636543
32.75477267629144	2.0475476	1.4309254
32.77304106776434	1.9999754	1.4142048
32.79131031569289	2.054949	1.4335093
32.809580420661966	2.0892565	1.4454261
32.827851383256714	2.1200101	1.4560255
32.84612320406245	2.0836813	1.4434962
32.86439588366476	2.0773692	1.4413081
32.88266942264945	2.0901248	1.4457264
32.9009438216025	2.055032	1.4335383
32.9192190811102	1.9869645	1.4095973
32.937495201758985	1.9888341	1.4102603
32.95577218413556	2.028013	1.4240832
32.974050028826866	1.9796954	1.4070165
32.992328736420035	1.9658289	1.4020802
33.010608307502444	1.9538015	1.3977845
33.02888874266169	1.8483844	1.359553
33.047170042485604	1.95473	1.3981166
33.06545220756225	2.0751705	1.4405452
33.083735238479896	2.0756547	1.4407133
33.10201913582707	2.2011871	1.4836398
33.12030390019248	2.225934	1.4919565
33.138589532165135	2.11862	1.4555479
33.15687603233419	2.059483	1.43509
33.17516340128909	2.0016925	1.4148118
33.19345163961947	1.9024023	1.379276
33.211740747915215	1.9034121	1.379642
33.23003072676643	1.9452512	1.3947226
33.248321576763466	1.9412336	1.3932816
33.266613298496885	1.9316053	1.389822
33.28490589255747	1.9303933	1.3893859
33.30319935953626	1.9639384	1.4014058
33.32149370002451	1.9541203	1.3978986
33.339788914613706	1.9756447	1.4055763
33.358085003895575	1.9811871	1.4075465
33.376381968462034	2.0101557	1.4177996
33.39467980890529	2.0136287	1.4190239
33.41297852581774	2.0211027	1.4216549
33.43127811979204	2.0278778	1.4240358
33.44957859142105	2.0744054	1.4402796
33.467879941297866	2.091549	1.4462188
33.486182170015844	2.0509849	1.432126
33.50448527816853	1.9044938	1.380034
33.522789266349754	1.9086868	1.3815523
33.541094135153514	1.9330239	1.3903323
33.55939988517411	1.9380736	1.3921472
33.57770651700602	1.8798175	1.3710643
33.59601403124398	1.8991063	1.3780806
33.61432242848296	1.8742534	1.3690337
33.632631709318154	1.9003497	1.3785317
33.650941874344994	1.9462825	1.3950922
33.66925292415916	1.9785411	1.4066062
33.68756485935654	1.9696939	1.4034579
33.70587768053328	1.9689015	1.4031755
33.724191388285746	1.8953296	1.3767097
33.74250598321054	1.8110775	1.3457627
33.760821465904506	1.7655877	1.3287542
33.77913783696474	1.8820636	1.3718833
33.79745509698852	2.032943	1.4258131
33.815773246573414	2.082962	1.4432471
33.8340922863172	1.9990904	1.4138919
33.852412216817896	1.8569444	1.3626975
33.87073303867377	1.8051255	1.3435496
33.889054752483304	1.8862426	1.3734055
33.907377358845245	1.935408	1.3911895
33.92570085835853	1.9521669	1.3971996
33.94402525162239	1.8744478	1.3691047
33.96235053923627	1.8115622	1.3459429
33.980676721799824	1.8935978	1.3760806
33.999003799912984	2.0201356	1.4213147
34.01733177417592	2.0729122	1.4397612
34.03566064518901	2.0809748	1.4425584
34.0539904135529	2.0743427	1.4402579
34.07232107986846	1.980462	1.4072889
34.090652644736785	2.106612	1.4514172
34.108985108759235	2.0828977	1.4432248
34.12731847253742	1.9187535	1.3851907
34.14565273667313	1.9523742	1.3972739
34.16398790176847	1.9246707	1.387325
34.18232396842574	1.9593322	1.3997614
34.20066093724749	1.9763973	1.405844
34.21899880883651	2.020545	1.4214587
34.23733758379583	2.1849163	1.4781462
34.25567726272874	2.2840347	1.5113024
34.27401784623872	2.1539319	1.467628
34.29235933492957	2.0394824	1.4281045
34.31070172940526	1.9851316	1.408947
34.32904503027003	1.961677	1.4005988
34.347389238128386	2.0918584	1.4463258
34.36573435358502	2.103642	1.4503937
34.38408037724492	1.947947	1.3956888
34.402427309713296	1.9409598	1.3931834
34.42077515159559	1.9179167	1.3848886
34.43912390349752	1.9757136	1.4056008
34.45747356602499	2.082298	1.443017
34.47582413978423	2.1617258	1.4702809
34.49417562538163	1.9884797	1.4101347
34.51252802342388	1.9271936	1.388234
34.53088133451789	2.1517503	1.4668846
34.54923555927084	2.1627483	1.4706285
34.567590698290104	1.9549682	1.3982018
34.58594675218336	1.922603	1.3865796
34.6043037215585	1.8738345	1.3688807
34.62266160702365	1.7992759	1.3413709
34.641020409187234	1.8572469	1.3628085
34.65938012865785	1.9772502	1.4061472
34.677740766044394	1.9539421	1.3978348
34.69610232195598	1.9286369	1.3887538
34.714464797002016	2.1791863	1.4762068
34.73282819179208	2.2558973	1.5019644
34.751192506936064	2.1812203	1.4768955
34.76955774304408	1.9772102	1.406133
34.7879239007265	1.9416414	1.393428
34.80629098059391	2.1049466	1.4508435
34.824658983257194	2.0833862	1.443394
34.843027909327446	1.9983913	1.4136447
34.86139775941603	2.0211864	1.4216844
34.879768534134534	1.9639488	1.4014096
34.89814023409483	1.9919813	1.4113756
34.91651285990901	1.9460796	1.3950195
34.93488641218944	1.9604053	1.4001448
34.95326089154871	2.245526	1.498508
34.97163629859967	2.3901596	1.5460141
34.99001263395542	2.2394345	1.496474
35.00838989822934	2.1438966	1.4642051
35.02676809203499	2.0273252	1.4238417
35.04514721598624	2.0098124	1.4176785
35.063527270697215	2.036093	1.4269173
35.081908256782256	1.853385	1.3613908
35.10029017485597	1.6122153	1.2697304
35.11867302553321	1.5586536	1.2484605
35.137056809429104	1.8492861	1.3598846
35.155441527159006	1.9597212	1.3999004
35.173827179338524	1.7479087	1.322085
35.19221376658354	1.7245386	1.3132169
35.21060128951017	2.0189877	1.4209108
35.2289897487348	2.1340492	1.4608386
35.24737914487405	1.9962819	1.4128984
35.26576947854479	1.8173944	1.3481077
35.28416075036418	1.9318585	1.3899131
35.30255296094958	2.2679164	1.5059603
35.32094611091867	2.1571202	1.4687138
35.33934020088932	2.206386	1.4853909
35.35773523147969	2.2231126	1.4910105
35.3761312033082	2.0888762	1.4452945
35.394528116993506	2.122247	1.4567934
35.41292597315452	2.4323342	1.5595943
35.431324772410434	2.5826	1.607047
35.449724515380666	2.5283446	1.5900769
35.46812520268491	2.1959996	1.4818906
35.486526834943106	1.9368186	1.3916963
35.504929412775454	2.3222358	1.5238883
35.52333293680242	2.409772	1.552344
35.54173740764471	1.7481853	1.3221896
35.560142825923286	1.4737408	1.2139772
35.5785491922594	1.4933407	1.2220232
35.59695650727454	1.572558	1.2540168
35.61536477159042	1.6540529	1.2860999
