0.008763373481513119	0.56609195	0.7523908
0.026290120649546365	0.18888974	0.43461448
0.043816868432600686	0.0908709	0.30144802
0.06134361724069026	0.0	0.0
0.07887036748382949	0.051972475	0.22797473
0.0963971195720331	0.19387928	0.44031724
0.11392387391531617	0.2879646	0.53662336
0.1314506309236943	0.29337528	0.5416413
0.1489773910071836	0.17829043	0.42224452
0.16650415457580078	0.0953282	0.30875266
0.18403092203956356	0.09156575	0.30259833
0.20155769380849	0.14522271	0.38108099
0.2190844702925996	0.17146479	0.41408306
0.2366112519019124	0.19525436	0.44187596
0.2541380390464497	0.20715255	0.45514014
0.27166483213623416	0.17514415	0.41850227
0.28919163158128947	0.17399436	0.41712633
0.3067184377916406	0.12086938	0.34766275
0.324245251177314	0.09044398	0.30073905
0.34177207214833777	0.056006353	0.23665662
0.3592989011147415	0.07787174	0.2790551
0.37682573848655654	0.1495294	0.38669032
0.39435258467381573	0.16117443	0.40146536
0.41187944008655414	0.18203717	0.42665815
0.42940630513480854	0.20560387	0.45343563
0.446933180228618	0.23201098	0.48167518
0.4644600657780234	0.17477718	0.4180636
0.48198696219306775	0.12539986	0.35411844
0.49951386988379676	0.06725342	0.25933263
0.5170407892602581	0.08320572	0.28845403
0.5345677207325025	0.12004493	0.346475
0.5520946647105822	0.16223103	0.40277913
0.5696216216045534	0.18749061	0.43300188
0.5871485918244737	0.2032437	0.45082557
0.6046755757804043	0.18803306	0.43362778
0.6222025738824094	0.20383142	0.45147693
0.6397295865405557	0.19642481	0.44319838
0.6572566141649129	0.21178415	0.46020013
0.6747836571655547	0.20602687	0.45390183
0.6923107159525568	0.17534591	0.41874325
0.7098377909359992	0.14525583	0.38112444
0.7273648825259653	0.15029934	0.38768458
0.7448919911325411	0.17427096	0.41745773
0.762419117165817	0.20151457	0.44890374
0.7799462610358868	0.19890776	0.44599077
0.7974734231528482	0.18440098	0.42941934
0.8150006039268024	0.18240333	0.42708704
0.8325278037678551	0.20399287	0.45165572
0.8500550230861152	0.2108934	0.45923132
0.8675822622916969	0.1839236	0.42886314
0.8851095217947171	0.14905705	0.38607907
0.9026368020052984	0.16640729	0.4079305
0.9201641033335665	0.18595026	0.43121952
0.9376914261896523	0.20896007	0.4571215
0.9552187709836915	0.22312148	0.47235736
0.9727461381258234	0.21086217	0.4591973
0.990273528026193	0.22034687	0.4694112
1.0078009410949496	0.20983398	0.4580764
1.0253283777422473	0.21199536	0.46042955
1.0428558383782454	0.18576176	0.4310009
1.0603833234131086	0.20803589	0.45610952
1.0779108332570058	0.2575799	0.5075233
1.0954383683201119	0.27529666	0.5246872
1.112965929012607	0.3543605	0.59528184
1.1304935157446763	0.4844696	0.6960385
1.1480211289265108	0.53762317	0.7332279
1.1655487689683062	1.3964797	1.1817274
1.1830764362802655	1.6912415	1.3004774
1.200604131272596	2.1071193	1.451592
1.2181318543555117	2.404494	1.5506431
1.235659605939232	2.4809382	1.5750995
1.253187386433982	3.8925853	1.9729636
1.270715196249994	6.300328	2.5100453
1.2882430357975057	11.960597	3.4584095
1.3057709054867608	16.624273	4.0772877
1.3232988057280106	22.352846	4.7278795
1.3408267369315112	27.01186	5.1972933
1.358354699507526	30.689295	5.539792
1.3758826938663256	34.563217	5.879049
1.3934107204181858	36.813866	6.067443
1.410938779573391	36.893227	6.0739794
1.4284668717422309	37.5009	6.123798
1.4459949973350033	36.920887	6.076256
1.4635231567620117	36.973347	6.080571
1.4810513504335687	36.087852	6.0073166
1.4985795787599925	35.542023	5.961713
1.5161078421516088	34.98853	5.91511
1.5336361410187505	34.2313	5.8507524
1.5511644757717598	34.155415	5.8442636
1.5686928468209842	35.112514	5.9255815
1.58622125457678	35.63331	5.969364
1.6037496994495108	36.86158	6.071374
1.621278181849548	36.41054	6.034115
1.6388067021872719	36.893517	6.074003
1.6563352608730693	36.421635	6.035034
1.673863858317336	35.491726	5.9574933
1.6913924949304753	34.899162	5.9075513
1.7089211711228998	33.696217	5.8048444
1.7264498873050296	33.143036	5.756999
1.7439786438872935	32.248867	5.6788087
1.7615074412801288	31.27176	5.592116
1.779036279893981	30.566458	5.528694
1.796565160139305	29.662521	5.446331
1.814094082426564	29.226707	5.406173
1.8316230471662298	28.583183	5.3463244
1.849152054768784	27.4996	5.244006
1.8666811056447168	26.998133	5.195973
1.8842102002045273	26.23648	5.1221557
1.901739338858724	25.976948	5.0967584
1.9192685220178245	25.297552	5.0296674
1.9367977500923557	24.67092	4.966983
1.9543270234928547	24.17834	4.9171476
1.971856342629867	23.829432	4.88154
1.9893857079139496	23.485157	4.8461485
2.006915119755667	23.00635	4.7964935
2.0244445785655945	22.243465	4.7162976
2.0419740847543175	21.7171	4.660161
2.0595036387324317	21.047415	4.587746
2.0770332409105414	20.650543	4.5442867
2.094562891699263	20.416143	4.5184226
2.1120925915092217	20.072569	4.4802423
2.129622340751053	19.668114	4.4348745
2.1471521398354043	187.6228	13.697547
2.1646819891729323	443.8317	21.067314
2.182211889174303	439.9692	20.975443
2.1997418402501974	452.20486	21.26511
2.2172718428113023	431.98636	20.78428
2.234801897268317	320.00934	17.888805
2.2523320040319548	16.789629	4.097515
2.269862163512935	16.627882	4.07773
2.287392376121992	16.317883	4.03954
2.304922642269869	16.059376	4.0074153
2.322452962367322	15.666436	3.9580848
2.3399833368251164	15.4141445	3.9260852
2.357513766054032	15.076572	3.8828561
2.3750442504648586	14.971238	3.8692684
2.3925747904683963	14.7021055	3.8343325
2.410105386475459	14.445079	3.8006682
2.4276360388968707	14.070868	3.7511156
2.445166748143469	13.879911	3.7255752
2.4626975146261025	13.595409	3.6871953
2.4802283387556323	13.265095	3.6421278
2.4977592209429305	12.835331	3.582643
2.5152901615988825	12.628946	3.5537229
2.5328211611343865	12.55752	3.5436592
2.5503522199603523	12.600879	3.5497715
2.5678833384877024	12.400822	3.52148
2.5854145171273712	12.215754	3.4951043
2.6029457562903064	11.950106	3.4568925
2.620477056387469	11.704807	3.421229
2.6380084178298326	11.589017	3.4042645
2.655539841028383	11.390682	3.3750086
2.673071326394119	11.302259	3.3618834
2.6906028743380523	11.127805	3.3358364
2.708134485271211	10.926861	3.3055801
2.7256661596046325	10.848306	3.2936766
2.743197897749369	10.540001	3.2465367
2.760729700116486	10.364163	3.219342
2.778261567117063	10.085671	3.1757946
2.795793499162193	9.903018	3.1469061
2.8133254966629817	9.815977	3.133046
2.830857560030551	9.643813	3.105449
2.8483896896760337	9.749869	3.122478
2.865921886010578	9.510822	3.0839622
2.883454149445347	9.275755	3.0456123
2.9009864803915177	8.969828	2.994967
2.91851887926028	8.851841	2.9752045
2.9360513464628384	8.855904	2.975887
2.953583882410413	8.962648	2.9937682
2.9711164875142373	8.861645	2.9768515
2.9886491621855606	8.729912	2.9546425
3.0061819068356455	8.455617	2.9078543
3.023714721875769	8.2571	2.873517
3.041247607717225	8.285069	2.8783796
3.0587805647713213	8.364235	2.8920987
3.0763135934493806	8.311366	2.882944
3.0938466941627407	8.204859	2.8644125
3.1113798673227544	8.0291605	2.8335774
3.1289131133407904	7.8723826	2.8057766
3.1464464326282315	7.865015	2.8044634
3.1639798255964786	7.7699475	2.7874625
3.1815132926569443	7.629116	2.7620854
3.1990468342210603	7.466797	2.732544
3.216580450700272	7.2823696	2.6985867
3.2341141425060416	7.210059	2.6851554
3.251647910049847	7.0932755	2.6633203
3.2691817537431813	7.111754	2.6667871
3.286715673997555	7.0397506	2.6532528
3.3042496712244938	6.98457	2.6428337
3.32178374583554	6.943823	2.6351135
3.339317898242251	6.8952703	2.6258848
3.3568521288562034	6.790796	2.6059155
3.3743864380889876	6.6495414	2.5786705
3.3919208263522127	6.568656	2.562939
3.4094552940575023	6.4359856	2.5369244
3.4269898416164972	6.4785304	2.5452957
3.444524469440858	6.3805833	2.5259817
3.4620591779422587	6.3607864	2.52206
3.479593967532391	6.342236	2.5183797
3.4971288386229658	6.338427	2.5176232
3.5146637916257086	6.258012	2.501602
3.5321988269523628	6.2535253	2.500705
3.5497339450146903	6.3254776	2.5150502
3.5672691462244708	6.330302	2.516009
3.5848044309934988	6.2448354	2.498967
3.60233979973359	6.2295055	2.4958978
3.619875252856575	6.228918	2.49578
3.6374107907743034	6.2920704	2.5084
3.6549464138986427	6.274612	2.5049176
3.6724821226414788	6.276325	2.5052595
3.690017917414714	6.1653957	2.4830215
3.7075537986302702	6.1907616	2.4881241
3.7250897667000857	6.171279	2.484206
3.7426258220361235	6.37591	2.5250564
3.7601619650503553	6.7115526	2.5906665
3.777698196154779	7.1796775	2.679492
3.7952345157614067	8.075397	2.8417242
3.8127709242822716	8.742701	2.9568057
3.830307422129425	10.806693	3.2873535
3.847844009714936	12.2999935	3.5071347
3.8653806874508954	15.415852	3.9263024
3.882917455749409	15.050779	3.8795333
3.900454315022606	14.995645	3.872421
3.917991265682631	12.179313	3.4898872
3.9355283081416506	10.45508	3.2334316
3.9530654428118495	8.505165	2.9163616
3.970602670105433	7.3816485	2.716919
3.9881399904346244	6.4819136	2.5459602
4.005677404211669	6.2970896	2.5094001
4.023214911848827	6.1835184	2.486668
4.0407525137583855	6.216356	2.493262
4.058290210352644	6.329733	2.515896
4.075828002043927	6.3482475	2.519573
4.0933658892445814	6.4110713	2.5320094
4.110903872366966	6.3874426	2.527339
4.128441951823468	6.268191	2.5036356
4.145980128026488	6.163974	2.4827352
4.163518401388452	6.0721574	2.4641747
4.181056772321807	6.0484223	2.4593542
4.1985952412390155	6.0382433	2.4572837
4.216133808552567	6.090429	2.4678795
4.233672474674966	6.057003	2.461098
4.251211240018741	6.219433	2.493879
4.268750104996445	6.420286	2.5338283
4.286289070020643	7.421028	2.7241564
4.303828135503928	9.050801	3.008455
4.3213673018589125	29.207703	5.404415
4.3389065694982305	90.317665	9.503561
4.356445938834537	165.42706	12.861845
4.3739854102805085	171.04419	13.078386
4.391524984248844	171.99872	13.114828
4.409064661152262	136.06094	11.664516
4.426604441403504	96.32939	9.814754
4.444144325415337	75.39093	8.682796
4.461684313600543	21.52304	4.639293
4.47922440637193	21.915333	4.6813817
4.496764604142329	20.207893	4.495319
4.5143049073245916	18.443304	4.2945666
4.531845316331589	16.413456	4.0513525
4.5493858315762195	13.581994	3.6853757
4.566926453471405	11.286249	3.3595014
4.584467182430081	9.086506	3.014383
4.602008018865218	7.885346	2.808086
4.619548963189798	7.175045	2.6786275
4.637090015816834	6.7937994	2.6064918
4.654631177159353	6.6586485	2.5804358
4.672172447630417	6.411567	2.5321074
4.689713827643102	6.2180705	2.4936059
4.7072553176105085	5.9169908	2.4324865
4.724796917945764	5.6857376	2.3844786
4.742338629062015	5.603974	2.3672714
4.759880451372434	5.622381	2.371156
4.777422385290215	5.665601	2.3802524
4.794964431228581	5.660559	2.379193
4.812506589600768	5.6171722	2.3700573
4.830048860820047	5.5855913	2.3633857
4.847591245299709	5.482038	2.3413754
4.8651337434530655	5.525515	2.3506415
4.882676355693457	5.49957	2.3451161
4.900219082434242	5.5375476	2.3531995
4.917761924088813	5.5340085	2.3524473
4.935304881070575	5.522145	2.3499243
4.952847953792969	5.4885793	2.3427718
4.970391142669449	5.3528304	2.3136184
4.9879344481135055	5.2957773	2.3012557
5.005477870538642	5.3241925	2.3074212
5.023021410358394	5.465936	2.3379343
5.040565067986324	5.484558	2.3419135
5.05810884383601	5.417435	2.3275385
5.075652738321066	5.274345	2.2965941
5.09319675185512	5.2014823	2.280676
5.110740884851836	5.1820707	2.2764163
5.128285137724894	5.2927394	2.3005955
5.145829510888007	5.2735147	2.2964134
5.163374004754908	5.303335	2.3028972
5.1809186197393595	5.2190003	2.2845132
5.198463356255145	5.234035	2.2878013
5.216008214716077	5.251415	2.2915967
5.233553195535998	5.2729373	2.2962878
5.251098299128764	5.35401	2.3138733
5.268643525908272	5.3192234	2.3063443
5.286188876288432	5.284543	2.2988133
5.3037343506831895	5.2902412	2.3000524
5.32127994950651	5.231608	2.2872708
5.3388256731723915	5.199828	2.2803133
5.356371522094851	5.181171	2.2762187
5.373917496687938	5.184639	2.2769802
5.391463597365729	5.2319613	2.287348
5.40900982454232	5.3055363	2.303375
5.426556178631843	5.295232	2.301137
5.444102660048449	5.2176504	2.2842176
5.4616492692063225	5.146833	2.2686632
5.479196006519669	5.0689096	2.2514238
5.496742872402727	5.0547514	2.2482774
5.514289867269756	5.0088153	2.2380383
5.531836991535049	4.9731307	2.2300518
5.549384245612924	5.0353975	2.2439692
5.566931629917724	5.1133776	2.261278
5.584479144863822	5.1379585	2.2667065
5.6020267908656205	5.1052322	2.2594762
5.619574568337545	5.013204	2.2390184
5.637122477694054	4.988636	2.2335255
5.654670519349629	5.026356	2.2419536
5.672218693718784	5.0456357	2.2462492
5.689767001216059	5.062501	2.2500002
5.707315442256021	5.0724745	2.2522154
5.724864017253266	5.011524	2.2386434
5.7424127266224225	5.0256667	2.2417998
5.75996157077814	5.122788	2.2633576
5.777510550135105	5.1739383	2.2746294
5.795059665108022	5.216148	2.2838888
5.812608916111639	5.206192	2.2817082
5.830158303560715	5.252998	2.291942
5.847707827870055	5.225356	2.2859037
5.86525748945448	5.257803	2.29299
5.8828072887288485	5.3290367	2.3084707
5.900357226108044	5.3949895	2.3227117
5.917907302006979	5.5304666	2.3516943
5.9354575168406	6.146136	2.47914
5.9530078710238765	6.816952	2.6109295
5.970558364971812	7.2827806	2.6986628
5.988108999099438	7.599479	2.7567153
6.005659773821818	8.129816	2.8512833
6.023210689554039	7.906433	2.811838
6.040761746711227	8.235286	2.8697188
6.058312945708531	7.588958	2.7548063
6.075864286961132	7.095719	2.663779
6.093415770884244	6.551566	2.5596027
6.1109673978931065	6.071637	2.4640691
6.128519168402993	5.5084724	2.3470135
6.146071082829204	5.371119	2.3175676
6.163623141587075	5.231215	2.287185
6.181175345091969	5.1493506	2.269218
6.198727693759281	5.08707	2.2554533
6.216280188004435	5.0640874	2.2503526
6.233832828242885	5.0524015	2.2477548
6.251385614890126	5.0479584	2.246766
6.268938548361669	4.9845214	2.2326043
6.286491629073067	4.875303	2.2080088
6.304044857439898	4.835349	2.1989427
6.321598233877777	4.8451076	2.2011604
6.339151758802344	4.8558736	2.2036047
6.356705432629277	4.8654785	2.205783
6.37425925577428	4.83322	2.1984584
6.391813228653095	4.8702602	2.2068665
6.409367351681486	4.9068217	2.2151346
6.426921625275259	4.9200883	2.2181273
6.44447604985025	4.927986	2.2199068
6.46203062582232	4.9633737	2.227863
6.47958535360737	4.9702754	2.2294114
6.497140233621328	4.9857755	2.2328851
6.514695266280161	4.9229527	2.218773
6.532250451999859	4.9210196	2.218337
6.549805791196454	4.959365	2.226963
6.567361284286002	4.975486	2.2305796
6.584916931684597	5.0327992	2.24339
6.602472733808367	4.9751625	2.2305071
6.6200286910734665	4.9592767	2.2269433
6.637584803896092	4.9405327	2.2227309
6.655141072692462	4.9311676	2.2206233
6.672697497878842	4.9104204	2.215947
6.690254079871514	4.895951	2.2126796
6.707810819086808	4.909573	2.2157557
6.725367715941078	4.943202	2.2233312
6.742924770850719	4.972899	2.2299998
6.760481984232151	4.9912615	2.2341132
6.778039356501836	4.9530525	2.2255454
6.795596888076266	4.92005	2.2181187
6.813154579371963	4.8722477	2.2073169
6.830712430805492	4.8721004	2.2072835
6.84827044279344	4.837746	2.1994877
6.865828615752445	4.8247194	2.1965244
6.883386950099159	4.842334	2.2005303
6.900945446250287	4.872403	2.2073522
6.918504104622553	4.8615155	2.2048845
6.936062925632727	4.852371	2.2028098
6.953621909697607	4.9012294	2.213872
6.971181057234028	5.0025773	2.2366443
6.988740368658859	5.0745916	2.2526855
7.006299844389007	5.082737	2.2544925
7.023859484841407	5.097554	2.2577765
7.041419290433036	5.1681457	2.2733555
7.058979261580902	5.356844	2.3144858
7.0765393987020495	5.6091313	2.3683605
7.094099702213559	5.944776	2.4381912
7.111660172532549	6.2883606	2.5076604
7.129220810076164	6.6112914	2.571243
7.146781615261595	7.244389	2.6915402
7.16434258850606	7.509445	2.7403367
7.181903730226821	7.9320965	2.8163977
7.1994650408411704	7.998153	2.8281007
7.217026520766437	8.107913	2.8474398
7.234588170419983	8.33945	2.8878105
7.252149990219215	8.321151	2.8846405
7.269711980581568	8.316143	2.8837724
7.2872741419245175	8.149567	2.8547447
7.304836474665574	7.728709	2.7800555
7.322398979222286	7.347933	2.7107072
7.339961656012233	7.063108	2.657651
7.357524505453039	6.7484646	2.5977807
7.375087527962357	6.5012074	2.5497465
7.392650723957886	6.2425923	2.498518
7.410214093857353	5.9137936	2.4318292
7.427777638078528	5.767735	2.4016109
7.445341357039213	5.542256	2.3541996
7.4629052511572525	5.4986553	2.344921
7.480469320850524	5.3338814	2.3095198
7.498033566536948	5.203554	2.28113
7.5155979886344735	5.078211	2.2534885
7.5331625875610975	5.080494	2.2539952
7.550727363734844	5.169488	2.273651
7.568292317573788	5.2222247	2.2852187
7.585857449496025	5.2398486	2.2890716
7.603422759919705	5.200118	2.2803767
7.620988249263007	5.17585	2.2750494
7.638553917944147	5.1644187	2.2725358
7.656119766381391	5.130698	2.2651045
7.673685794993023	5.122757	2.2633507
7.691252004197388	5.139638	2.267077
7.70881839441285	5.085626	2.2551334
7.726384966057826	5.0776105	2.2533555
7.743951719550762	5.0147953	2.239374
7.761518655310149	5.0383496	2.2446268
7.779085773754511	5.0691056	2.2514675
7.796653075302419	5.136505	2.266386
7.814220560372475	5.1522326	2.269853
7.831788229383323	5.183496	2.2767293
7.8493560827536495	5.175511	2.2749748
7.866924120902174	5.155246	2.2705166
7.884492344247663	5.1985884	2.2800412
7.9020607532089135	5.30556	2.3033803
7.919629348204771	5.3689647	2.3171027
7.937198129654115	5.3868356	2.3209558
7.954767097975865	5.343845	2.3116758
7.972336253588986	5.286592	2.299259
7.989905596912472	5.3086295	2.3040464
8.007475128365371	5.3302274	2.3087285
8.025044848366756	5.378948	2.319256
8.042614757335754	5.467217	2.338208
8.060184855691523	5.536591	2.352996
8.07775514385327	5.722839	2.3922455
8.095325622240228	5.8291535	2.414364
8.112896291271687	5.8479867	2.418261
8.130467151366968	5.851636	2.4190154
8.148038202945436	5.87322	2.4234726
8.165609446426497	5.902073	2.4294183
8.183180882229594	5.8970785	2.42839
8.200752510774217	5.8193693	2.4123368
8.218324332479893	5.8089886	2.4101844
8.235896347766193	5.809503	2.4102912
8.253468557052724	5.885672	2.4260404
8.27104096075914	5.9220767	2.4335318
8.288613559305137	5.971978	2.443763
8.306186353110448	6.0567565	2.461048
8.32375934259485	6.080868	2.4659417
8.341332528178162	6.0852075	2.4668214
8.358905910280246	6.118203	2.4735003
8.376479489321003	6.1586113	2.481655
8.394053265720377	6.20929	2.4918447
8.411627239898356	6.14519	2.4789493
8.42920141227497	6.10468	2.470765
8.44677578327029	6.125054	2.4748845
8.464350353304427	6.075562	2.4648654
8.48192512279754	6.0840936	2.4665956
8.499500092169827	6.031568	2.455925
8.51707526184153	6.0444555	2.4585474
8.534650632232934	6.07815	2.4653904
8.552226203764365	6.0863943	2.467062
8.569801976856192	6.1262403	2.4751244
8.587377951928834	6.1023583	2.4702952
8.60495412940274	6.102892	2.4704032
8.622530509698416	6.1240206	2.474676
8.6401070932364	6.2718773	2.5043716
8.657683880437283	6.3950047	2.5288346
8.675260871721695	6.562327	2.561704
8.692838067510303	6.770047	2.6019313
8.710415468223834	6.9441957	2.6351843
8.727993074283043	7.090913	2.6628768
8.745570886108737	7.0803714	2.6608968
8.763148904121765	7.085095	2.6617842
8.78072712874302	7.1134524	2.6671057
8.798305560393441	7.376642	2.7159975
8.815884199494006	7.562061	2.7499201
8.833463046465745	7.7359357	2.781355
8.851042101729728	7.8954253	2.80988
8.86862136570707	8.191144	2.8620174
8.886200838818924	8.304885	2.8818197
8.903780521486505	8.355269	2.8905482
8.921360414131055	8.512566	2.9176302
8.938940517173874	8.6359415	2.9386973
8.956520831036297	8.711499	2.951525
8.97410135613971	8.871998	2.97859
8.99168209290554	9.004215	3.0007024
9.009263041755265	9.27795	3.0459728
9.026844203110405	9.54301	3.0891762
9.044425577392525	9.682317	3.1116421
9.062007165023239	9.746158	3.1218836
9.079588966424197	10.009004	3.163701
9.097170982017108	10.206299	3.1947298
9.11475321222372	11.153914	3.3397477
9.132335657465825	12.025222	3.46774
9.149918318165264	12.123691	3.481909
9.167501194743924	12.745896	3.5701396
9.18508428762374	12.457113	3.5294635
9.202667597226693	12.456801	3.5294194
9.220251123974803	11.960505	3.4583962
9.237834868290143	11.668035	3.4158504
9.255418830594836	11.391445	3.3751216
9.273003011311046	10.940202	3.3075976
9.290587410860985	10.754311	3.2793765
9.308172029666911	10.135007	3.1835525
9.32575686815113	9.92519	3.1504269
9.343341926735997	8.691605	2.9481528
9.360927205843916	8.478695	2.91182
9.378512705897327	8.224919	2.867912
9.396098427318728	7.9688888	2.822922
9.413684370530664	7.938401	2.8175168
9.431270535955722	7.8397255	2.799951
9.448856924016539	7.7740684	2.7882016
9.466443535135806	7.615741	2.759663
9.484030369736251	7.6567516	2.7670836
9.501617428240658	7.6673856	2.7690043
9.519204711071852	7.5980096	2.7564487
9.536792218652714	7.528595	2.7438285
9.55437995140617	7.4957767	2.7378416
9.571967909755191	7.605865	2.7578733
9.589556094122802	7.6672597	2.7689817
9.60714450493207	7.748155	2.7835507
9.624733142606116	7.7699714	2.7874668
9.642322007568108	7.7926555	2.7915328
9.659911100241267	7.8523097	2.8021972
9.677500421048851	7.8615317	2.8038423
9.695089970414175	7.8891907	2.8087704
9.712679748760609	7.924272	2.8150084
9.730269756511557	7.9449472	2.8186784
9.747859994090492	7.9613056	2.8215785
9.765450461920915	8.018548	2.8317041
9.78304116042639	8.070128	2.8407972
9.800632090030527	8.161685	2.8568664
9.81822325115699	8.132594	2.8517704
9.835814644229481	8.087908	2.8439248
9.853406269671762	8.1009445	2.8462157
9.870998127907646	8.135007	2.8521934
9.888590219360985	8.16532	2.8575025
9.906182544455698	8.129987	2.851313
9.923775103615734	8.186932	2.8612814
9.941367897265108	8.245414	2.8714828
9.958960925827878	8.301447	2.8812232
9.97655418972816	8.3583	2.8910725
9.994147689390106	8.392524	2.8969853
10.011741425237934	8.281701	2.8777945
10.029335397695904	8.202947	2.8640788
10.04692960718833	8.083603	2.8431678
10.06452405413958	8.088588	2.8440442
10.082118738974064	8.11652	2.8489506
10.099713662116246	8.097395	2.8455923
10.117308823990651	8.152465	2.8552523
10.134904225021844	8.15722	2.8560848
10.152499865634445	8.138472	2.8528006
10.170095746253125	8.05585	2.8382828
10.18769186730261	7.967623	2.8226979
10.205288229207675	7.949341	2.8194575
10.222884832393145	7.9531145	2.8201268
10.2404816772839	7.9335856	2.816662
10.258078764304868	7.9474115	2.8191154
10.275676093881035	7.921089	2.8144429
10.293273666437438	7.955119	2.820482
10.310871482399158	8.029192	2.8335829
10.32846954219134	8.078676	2.8423011
10.346067846239173	8.090531	2.8443859
10.363666394967908	8.038632	2.8352482
10.38126518880283	8.034352	2.8344934
10.398864228169298	8.056053	2.8383188
10.416463513492713	8.070324	2.8408315
10.434063045198531	8.09641	2.8454192
10.451662823712262	8.163992	2.85727
10.469262849459467	8.166067	2.857633
10.486863122865758	8.055675	2.838252
10.504463644356806	7.9795904	2.824817
10.522064414358338	7.8707304	2.8054821
10.539665433296118	7.8647766	2.804421
10.557266701595987	7.8288207	2.798003
10.574868219683818	7.7685366	2.7872095
10.592469987985552	7.7340493	2.7810159
10.610072006927185	7.573963	2.7520835
10.627674276934751	7.4601445	2.7313266
10.64527679843435	7.3526974	2.7115858
10.662879571852143	7.2281647	2.6885247
10.680482597614331	7.101391	2.6648436
10.698085876147173	6.945741	2.6354773
10.715689407876988	6.9072666	2.6281679
10.733293193230146	6.9645753	2.639048
10.750897232633072	6.879475	2.6228755
10.76850152651225	6.7457256	2.5972536
10.786106075294207	6.5859513	2.566311
10.803710879405534	6.4670672	2.543043
10.821315939272877	6.3740907	2.524696
10.83892125532294	6.2775936	2.5055127
10.856526827982472	6.174717	2.4848979
10.874132657678285	6.153333	2.4805913
10.891738744837243	6.111464	2.4721375
10.909345089886271	6.0991073	2.4696372
10.926951693252343	6.0306106	2.4557302
10.944558555362494	5.9728074	2.4439328
10.96216567664381	5.8899274	2.4269173
10.979773057523436	5.874017	2.4236372
10.997380698428573	5.8024044	2.408818
11.014988599786477	5.7320285	2.3941655
11.032596762024461	5.6555977	2.37815
11.050205185569892	5.594991	2.3653734
11.067813870850198	5.538406	2.3533819
11.085422818292859	5.5031805	2.3458858
11.10303202832541	5.4190464	2.3278844
11.120641501375454	5.366944	2.3166666
11.138251237870636	5.2737937	2.2964742
11.155861238238671	5.2089295	2.2823079
11.173471502907317	5.1667047	2.2730386
11.191082032304402	5.1287217	2.2646682
11.208692826857805	5.0915313	2.256442
11.226303886995465	5.039857	2.2449625
11.243915213145371	4.9794044	2.231458
11.261526805735578	4.89388	2.2122116
11.279138665194196	4.828798	2.1974525
11.296750791949393	4.7391386	2.1769562
11.314363186429393	4.714731	2.171343
11.331975849062479	4.630289	2.1518106
11.34958878027699	4.608592	2.146763
11.36720198050133	4.6283045	2.1513495
11.384815450163948	4.5791035	2.139884
11.402429189693366	4.5132146	2.1244328
11.420043199518153	4.4335203	2.1055927
11.437657480066942	63.400505	7.9624434
11.455272031768422	85.15445	9.227917
11.472886855051353	107.52707	10.369526
11.490501950344528	99.1191	9.955857
11.508117318076819	84.41938	9.188002
11.52573295867715	45.789433	6.766789
11.543348872574514	4.0576153	2.0143523
11.560965060197946	4.0409036	2.0101998
11.57858152197655	4.04824	2.012024
11.59619825833949	3.9847534	1.9961847
11.613815269715985	3.9492047	1.9872606
11.631432556535323	38.424618	6.1987596
11.649050119226837	82.94433	9.107378
11.666667958219929	93.35263	9.661917
11.68428607394406	107.638565	10.374901
11.701904466828756	82.4989	9.0828905
11.719523137303586	65.33677	8.083117
11.737142085798196	4.617282	2.148786
11.754761312742286	3.714481	1.9272989
11.772380818565619	3.671815	1.916198
11.790000603698015	3.5595114	1.8866668
11.80762066856935	3.503582	1.8717858
11.825241013609572	3.4983575	1.8703897
11.842861639248683	3.4741604	1.86391
11.860482545916748	3.4440143	1.8558055
11.878103734043883	3.431682	1.8524799
11.895725204060282	3.4104624	1.8467437
11.91334695639619	3.3939602	1.8422704
11.930968991481919	3.3645132	1.834261
11.948591309747824	3.3741806	1.8368943
11.966213911624347	3.3605232	1.833173
11.98383679754198	3.311181	1.8196651
12.001459967931268	3.253137	1.8036455
12.019083423222835	3.2120047	1.7922066
12.036707163847352	3.162663	1.7783878
12.05433119023556	3.1370454	1.7711706
12.071955502818259	3.1155605	1.765095
12.089580102026313	3.132193	1.7698003
12.107204988290643	3.1118596	1.7640463
12.12483016204224	3.1253483	1.7678654
12.142455623712152	3.0716279	1.752606
12.16008137373149	3.0160046	1.7366648
12.177707412531431	2.9556932	1.719213
12.19533374054321	2.9780972	1.7257165
12.212960358198126	3.0058088	1.7337269
12.230587265927545	3.0147579	1.7363058
12.248214464162889	2.9604526	1.7205966
12.265841953335649	2.9001422	1.7029804
12.283469733877375	2.8697147	1.6940233
12.301097806219685	2.8645332	1.6924932
12.31872617079425	2.8686607	1.6937121
12.336354828032825	2.8653169	1.6927247
12.353983778367205	2.8606975	1.6913596
12.371613022229262	2.8835695	1.6981076
12.389242560050928	2.8965933	1.7019382
12.406872392264201	2.885271	1.6986085
12.424502519301143	2.8481658	1.6876509
12.442132941593874	2.8244572	1.6806121
12.459763659574586	2.8224492	1.6800146
12.477394673675532	2.7921932	1.6709857
12.49502598432903	2.7943468	1.67163
12.51265759196746	2.8095887	1.6761827
12.530289497023267	2.8273063	1.6814595
12.547921699928967	2.8376486	1.6845322
12.565554201117134	2.8198874	1.679252
12.583187001020404	2.7944176	1.6716511
12.600820100071486	2.7924669	1.6710676
12.618453498703152	2.7609982	1.6616251
12.636087197348235	2.7276108	1.651548
12.65372119643964	2.7357826	1.6540202
12.671355496410326	2.820864	1.6795428
12.68899009769333	2.8710852	1.6944277
12.706625000721749	2.8723118	1.6947896
12.724260205928752	2.869453	1.693946
12.741895713747551	2.879941	1.6970389
12.759531524611454	2.9310167	1.7120212
12.777167638953818	2.9731665	1.7242873
12.794804057208072	2.970438	1.7234958
12.812440779807702	2.9637628	1.7215582
12.830077807186271	3.108103	1.7629813
12.847715139777405	3.1960082	1.7877383
12.865352778014795	3.4124887	1.8472923
12.882990722332197	3.5521922	1.884726
12.90062897316344	3.6272902	1.9045446
12.918267530942412	3.687647	1.9203247
12.935906396103071	3.5529046	1.884915
12.953545569079449	3.6868117	1.9201072
12.971185050305628	3.5153584	1.874929
12.988824840215775	3.514043	1.8745781
13.006464939244115	3.485873	1.8670492
13.024105347824943	3.364504	1.8342584
13.041746066392617	3.4909663	1.8684127
13.05938709538157	3.336903	1.8267192
13.077028435226296	3.3697286	1.835682
13.094670086361363	3.25297	1.8035991
13.112312049221401	3.142007	1.7725707
13.129954324241112	3.0263975	1.7396544
13.147596911855258	2.8362281	1.6841105
13.165239812498685	2.815252	1.6778713
13.182883026606293	2.7403486	1.6553998
13.200526554613058	2.6868594	1.6391642
13.218170396954017	2.6259098	1.6204659
13.235814554064284	2.6247578	1.6201104
13.253459026379034	2.6647148	1.6323954
13.271103814333523	2.6577237	1.6302526
13.288748918363058	2.6632442	1.6319449
13.306394338903031	2.6504555	1.628022
13.32404007638889	2.6219103	1.6192313
13.341686131256164	2.638365	1.6243045
13.359332503940449	2.6317437	1.622265
13.376979194877402	2.6529517	1.6287885
13.394626204502751	2.6574693	1.6301746
13.412273533252307	2.6473675	1.6270733
13.429921181561937	2.6535285	1.6289655
13.447569149867581	2.6645489	1.6323446
13.465217438605247	2.6785102	1.6366155
13.482866048211022	2.665695	1.6326956
13.500514979121052	2.6835294	1.6381482
13.518164231771568	2.6693807	1.633824
13.535813806598844	2.6535695	1.628978
13.553463704039254	2.6248448	1.6201373
13.571113924529229	2.6082613	1.6150112
13.588764468505275	2.6538174	1.6290542
13.606415336403956	2.6520748	1.6285192
13.624066528661917	2.667494	1.6332464
13.641718045715882	2.7198992	1.6492116
13.659369888002635	2.8142176	1.677563
13.67702205595903	2.8959482	1.7017486
13.694674550021993	2.980674	1.7264628
13.712327370628532	3.0625625	1.7500179
13.729980518215713	3.1362305	1.7709405
13.747633993220681	3.1844733	1.7845093
13.765287796080647	3.1944468	1.7873015
13.7829419272329	3.2422695	1.8006303
13.800596387114801	3.2788584	1.8107618
13.818251176163775	3.286095	1.8127589
13.835906294817324	3.3110423	1.8196269
13.853561743513023	3.3388603	1.8272549
13.871217522688525	3.3725345	1.8364462
13.888873632781538	3.4381242	1.8542179
13.906530074229858	3.4738631	1.8638302
13.92418684747135	3.497441	1.8701446
13.941843952943948	3.4040167	1.8449978
13.959501391085665	3.3891988	1.8409777
13.977159162334578	3.349839	1.8302566
13.994817267128846	3.3300867	1.8248525
14.012475705906693	3.2111926	1.79198
14.030134479106424	3.1145313	1.7648034
14.047793587166414	3.0659347	1.7509811
14.065453030525108	3.0211482	1.738145
14.083112809621026	2.9570274	1.7196009
14.100772924892766	2.8898613	1.6999593
14.118433376778997	2.8719668	1.6946878
14.136094165718458	2.7977931	1.6726605
14.153755292149969	2.773378	1.6653461
14.171416756512416	2.713083	1.647144
14.189078559244768	2.6728864	1.6348964
14.20674070078606	2.6020358	1.6130826
14.224403181575408	2.572766	1.6039845
14.242066002051999	2.519656	1.5873424
14.259729162655093	2.4446397	1.5635344
14.277392663824022	2.401864	1.5497948
14.295056505998208	2.4053748	1.550927
14.312720689617128	2.3885136	1.5454817
14.330385215120348	2.393855	1.5472088
14.348050082947497	2.4040432	1.5504978
14.3657152935383	2.4139147	1.5536778
14.383380847332528	2.3952463	1.5476583
14.401046744770051	2.4029708	1.5501518
14.418712986290798	2.4297922	1.5587791
14.436379572334793	2.435804	1.5607063
14.454046503342123	2.4475286	1.5644579
14.471713779752946	2.4204276	1.5557723
14.489381402007504	2.4266627	1.5577749
14.507049370546113	2.378485	1.5422337
14.524717685809168	2.4015503	1.5496936
14.542386348237134	2.4090025	1.5520961
14.560055358270553	2.4343019	1.5602249
14.577724716350051	2.4603112	1.568538
14.595394422916325	2.4471562	1.5643389
14.61306447841015	2.4461627	1.5640213
14.63073488327237	2.428806	1.5584627
14.648405637943917	2.4553652	1.5669605
14.6660767428658	2.4841	1.5761029
14.683748198479094	2.5055492	1.5828927
14.701420005224954	2.5204856	1.5876037
14.719092163544628	2.5635223	1.6011003
14.73676467387942	2.6036565	1.613585
14.754437536670727	2.6448147	1.6262887
14.772110752360014	2.6492102	1.6276394
14.78978432138882	2.6428561	1.6256864
14.807458244198777	2.6360734	1.6235989
14.82513252123159	2.6512423	1.6282636
14.842807152929028	2.669909	1.6339856
14.860482139732962	2.6668882	1.633061
14.87815748208531	2.6717596	1.6345518
14.8958331804281	2.712968	1.647109
14.91350923520342	2.679825	1.6370171
14.931185646853438	2.694043	1.641354
14.948862415820408	2.7008336	1.6434213
14.966539542546656	2.7153273	1.647825
14.98421702747459	2.6547391	1.6293371
15.001894871046696	2.6492066	1.6276383
15.019573073705542	2.6386833	1.6244024
15.037251635893766	2.6572452	1.6301059
15.054930558054092	2.6748784	1.6355056
15.072609840629323	2.7003899	1.6432863
15.090289484062351	2.8195257	1.6791444
15.107969488796124	2.957524	1.7197454
15.125649855273691	3.1558776	1.776479
15.14333058393817	3.4968219	1.8699791
15.161011675232768	4.06989	2.017397
15.17869312960076	4.706924	2.1695447
15.196374947485506	5.37406	2.318202
15.214057129330447	6.708994	2.5901725
15.231739675579114	8.8208685	2.9699948
15.249422586675102	13.35355	3.6542509
15.267105863062092	17.848438	4.224741
15.284789505183847	25.058521	5.005849
15.302473513484218	29.855654	5.4640326
15.320157888407127	33.868877	5.8196974
15.337842630396578	32.668934	5.7156744
15.355527739896656	29.751268	5.4544725
15.37321321735153	23.06505	4.8026085
15.39089906320545	15.687807	3.9607837
15.408585277902748	9.991603	3.1609497
15.42627186188783	6.2273064	2.4954572
15.443958815605198	4.5497117	2.1330054
15.461646139499424	3.8384101	1.9591861
15.479333834015168	3.4144635	1.8478267
15.497021899597165	3.0831428	1.755888
15.514710336690234	2.8580112	1.6905653
15.53239914573928	2.7200906	1.6492697
15.550088327189297	2.6564667	1.6298671
15.567777881485336	2.6090524	1.6152562
15.58546780907256	2.5845702	1.6076598
15.6031581103962	2.5465927	1.5958047
15.620848785901568	2.5497608	1.5967971
15.638539836034063	2.5380986	1.5931411
15.656231261239173	2.4844363	1.5762094
15.673923061962451	2.4267268	1.5577955
15.691615238649552	2.4487884	1.5648605
15.709307791746202	2.4646473	1.5699195
15.727000721698221	2.46278	1.5693247
15.744694028951498	2.4101326	1.5524602
15.76238771395202	2.370951	1.5397892
15.780081777145844	2.394707	1.547484
15.797776218979125	2.4360116	1.5607728
15.815471039898094	2.4496882	1.565148
15.833166240349064	2.4403098	1.562149
15.850861820778437	2.4298275	1.5587903
15.868557781632699	2.4544425	1.566666
15.886254123358412	2.4649308	1.5700098
15.903950846402232	2.4648573	1.5699865
15.921647951210897	2.491645	1.5784945
15.939345438231225	2.489008	1.577659
15.957043307910133	2.508826	1.5839274
15.974741560694602	2.5123658	1.5850444
15.992440197031714	2.4651415	1.570077
16.01013921736862	2.4287071	1.558431
16.02783862215259	2.434092	1.5601577
16.045538411830933	2.4392202	1.5618004
16.06323858685107	2.4307787	1.5590955
16.080939147660512	2.4241242	1.55696
16.09864009470684	2.439642	1.5619353
16.11634142843774	2.4352353	1.560524
16.134043149300954	2.4229763	1.5565913
16.15174525774433	2.3739116	1.5407504
16.169447754215817	2.3891559	1.5456895
16.18715063916342	2.3739448	1.5407611
16.204853913035244	2.3831325	1.5437398
16.222557576279478	2.4139204	1.5536796
16.240261629344403	22.418594	4.734828
16.257966072678386	42.979774	6.5558963
16.275670906729868	38.084538	6.171267
16.293376131947387	2.4986408	1.580709
16.31108174877957	2.519438	1.5872737
16.328787757675133	2.569181	1.6028665
16.34649415908287	2.5930643	1.6102995
16.364200953451657	2.5914602	1.6098013
16.38190814123048	2.6024687	1.6132169
16.39961572286839	2.6235814	1.6197473
16.41732369881455	2.689646	1.640014
16.43503206951817	2.7452009	1.6568648
16.45274083542859	2.7878556	1.6696873
16.47044999699522	2.8047438	1.674737
16.488159554667558	2.8531291	1.6891208
16.505869508895184	2.8796396	1.6969501
16.523579860127786	2.9506083	1.7177335
16.541290608815117	2.993114	1.7300619
16.559001755407035	3.0698578	1.752101
16.57671330035348	3.1616793	1.7781111
16.59442524410448	3.2851908	1.8125095
16.61213758711015	3.4643447	1.8612751
16.629850329820705	3.526115	1.8777952
16.647563472686436	3.5447135	1.882741
16.665277016157724	3.4544718	1.858621
16.682990960685053	3.4821768	1.8660592
16.70070530671898	3.5113537	1.8738606
16.718420054710155	3.5802479	1.8921543
16.736135205109335	3.582343	1.8927078
16.753850758367335	3.6082797	1.8995472
16.771566714935087	3.6479654	1.9099648
16.789283075263597	3.6966574	1.9226693
16.80699983980398	3.746273	1.9355291
16.82471700900741	3.7982454	1.9489088
16.84243458332518	3.8754401	1.9686137
16.860152563208665	3.9525368	1.9880987
16.87787094910932	4.0133715	2.00334
16.89558974147871	4.0066175	2.0016537
16.913308940768466	4.0087814	2.0021942
16.931028547430333	4.081316	2.0202267
16.94874856191613	4.1814075	2.044849
16.966468984677785	4.282006	2.069301
16.98418981616729	4.387452	2.0946245
17.00191105683676	4.4353914	2.106037
17.019632707138374	4.474249	2.115242
17.03735476752442	4.48292	2.1172907
17.05507723844728	4.4858694	2.1179872
17.072800120359403	4.523946	2.126957
17.090523413713353	4.562727	2.136054
17.108247118961785	4.614944	2.148242
17.125971236557437	4.628201	2.1513255
17.143695766953133	4.6744037	2.162037
17.161420710601806	4.7266374	2.174083
17.179146067956477	4.72748	2.1742768
17.19687183947025	4.6650133	2.1598642
17.21459802559634	4.635426	2.153004
17.232324626788028	4.6417565	2.1544735
17.25005164349871	4.66254	2.1592915
17.267779076181863	4.665026	2.1598673
17.285506925291074	4.637799	2.153555
17.30323519127999	4.594645	2.1435122
17.320963874602384	4.572957	2.1384473
17.33869297571211	4.540195	2.1307733
17.356422495063114	4.5169535	2.1253126
17.37415243310944	4.4793086	2.1164377
17.391882790305218	4.452129	2.1100068
17.40961356710468	4.514202	2.1246653
17.42734476396215	4.535447	2.129659
17.445076381332044	4.6263223	2.1508887
17.462808419668868	4.6935987	2.1664715
17.48054087942723	4.753428	2.1802359
17.498273761061835	4.8277154	2.1972063
17.51600706502747	5.1262174	2.264115
17.533740791779024	5.800919	2.4085097
17.551474941771485	6.753627	2.5987742
17.56920951545993	8.731996	2.954995
17.586944513299528	9.9579115	3.1556158
17.60467993574556	12.837587	3.582958
17.622415783253373	15.415688	3.9262817
17.64015205627843	18.063187	4.2500806
17.657888755276293	20.328802	4.508747
17.675625880702604	21.874193	4.6769853
17.69336343301311	20.498463	4.5275226
17.71110141266366	18.340624	4.2825956
17.728839820110178	15.570231	3.9459133
17.746578655808705	12.35871	3.5154958
17.764317920215372	10.153883	3.1865158
17.7820576137864	8.486379	2.9131389
17.79979773697811	7.1759048	2.678788
17.81753829024692	5.978257	2.4450474
17.835279274049356	5.214066	2.283433
17.85302068884201	4.525885	2.1274128
17.870762535081607	4.1218443	2.0302327
17.888504813224934	3.8614247	1.9650508
17.90624752372891	3.695451	1.9223555
17.923990667050536	3.643218	1.9087216
17.941734243646895	3.6149588	1.9013045
17.959478253975185	3.5826647	1.8927928
17.9772226984927	3.5017033	1.8712839
17.994967577656833	3.4255795	1.8508321
18.01271289192506	3.3797114	1.8383992
18.030458641754965	3.3702571	1.835826
18.04820482760425	3.3641343	1.8341577
18.06595144993067	3.2976413	1.8159409
18.083698509192125	3.2392294	1.799786
18.101446005846576	3.2067642	1.7907441
18.119193940352105	3.1700459	1.7804623
18.136942313166887	3.099432	1.7605203
18.1546911247492	3.0734918	1.7531377
18.1724403755574	3.0721169	1.7527455
18.19019006604997	3.1175888	1.7656695
18.207940196685467	3.0847511	1.756346
18.225690767922575	3.0303407	1.7407874
18.243441780220046	3.0043406	1.7333034
18.261193234036764	3.0287902	1.740342
18.278945129831676	3.007922	1.7343361
18.29669746806386	3.0169227	1.736929
18.314450249192483	3.0122428	1.7355814
18.3322034736768	3.0051267	1.7335302
18.349957141976184	2.9954379	1.7307333
18.3677112545501	3.0473135	1.7456555
18.385465811858108	3.0816927	1.755475
18.403220814359884	3.0544674	1.7477034
18.420976262515172	3.0471544	1.74561
18.43873215678387	3.120914	1.7666109
18.456488497625923	3.194893	1.7874264
18.474245285501407	3.2556248	1.804335
18.492002520870486	3.2657857	1.8071485
18.50976020419343	3.3224826	1.8227679
18.527518335930615	3.600239	1.8974296
18.545276916542516	4.194548	2.0480597
18.563035946489688	4.3630457	2.0887904
18.580795426232832	4.850994	2.2024972
18.598555356232698	4.7364087	2.1763291
18.616315736950185	5.0406766	2.245145
18.63407656884626	4.755941	2.180812
18.65183785238201	4.969768	2.2292976
18.669599588018617	4.707197	2.1696076
18.68736177621737	4.6536593	2.1572342
18.705124417439652	4.624342	2.1504283
18.72288751214696	4.4144335	2.1010554
18.740651060800886	4.541177	2.1310036
18.758415063863115	4.2938128	2.0721517
18.77617952179546	4.467885	2.113737
18.793944435059814	4.210461	2.051941
18.811709804118184	4.2517586	2.0619793
18.829475629432675	4.2394333	2.0589883
18.8472419114655	4.0365534	2.0091176
18.86500865067897	4.098015	2.0243554
18.88277584753551	3.7959592	1.9483222
18.90054350249763	3.7764163	1.9433004
18.918311616027957	3.4140375	1.8477114
18.936080188589226	3.276125	1.8100069
18.953849220644265	2.9604807	1.7206048
18.971618712656007	2.8309188	1.6825335
18.9893886650875	2.819796	1.6792248
19.007159078401887	8.012227	2.8305879
19.024929953062408	32.866386	5.732921
19.042701289532435	32.822926	5.72913
19.060473088275405	25.387123	5.0385637
19.07824534975489	2.6514046	1.6283134
19.096018074434568	2.5801473	1.6062837
19.113791262778197	2.572311	1.6038425
19.13156491524966	2.5610766	1.6003364
19.149339032312945	2.546429	1.5957534
19.167113614432136	2.5330913	1.5915688
19.184888662071433	2.531726	1.5911398
19.202664175695123	2.5023086	1.5818686
19.220440155767623	2.5035653	1.5822659
19.238216602753447	2.5203197	1.5875515
19.2559935171172	2.5387933	1.5933591
19.27377089932361	2.5319662	1.5912154
19.291548749837514	2.4855673	1.5765682
19.309327069123835	2.4673753	1.5707881
19.32710585764763	2.463228	1.5694674
19.344885115874032	2.4946876	1.579458
19.362664844268313	2.5134926	1.5853999
19.380445043295822	2.5501754	1.5969269
19.39822571342203	2.5522828	1.5975865
19.41600685511252	2.534465	1.5920004
19.43378846883297	2.5245383	1.5888796
19.451570555049173	2.4976215	1.5803865
19.469353114227037	2.4627757	1.5693233
19.48713614683254	2.4296875	1.5587455
19.50491965333182	2.4507694	1.5654933
19.52270363419109	2.4408522	1.5623227
19.540488089876686	2.4848416	1.576338
19.55827302085503	2.4722757	1.5723472
19.576058427592674	2.4661553	1.5703998
19.593844310556282	2.4425623	1.5628699
19.611630670212598	2.4122005	1.553126
19.629417507028506	2.4206524	1.5558445
19.64720482147098	2.4493248	1.5650319
19.6649926140071	2.4658177	1.5702922
19.682780885104084	2.4838884	1.5760356
19.70056963522921	2.4872885	1.577114
19.718358864849908	2.4883683	1.5774562
19.7361485744337	2.4983563	1.580619
19.753938764448215	2.4819567	1.5754228
19.771729435361202	2.4895577	1.5778333
19.789520587640506	2.5309675	1.5909015
19.807312221754092	2.564577	1.6014297
19.825104338170043	2.557578	1.5992429
19.842896937356517	2.5060332	1.5830455
19.860690019781824	2.496794	1.5801246
19.87848358591436	2.4852576	1.57647
19.896277636222635	2.4943075	1.5793377
19.914072171175278	2.4851751	1.5764438
19.931867191241015	2.4753366	1.5733203
19.94966269688869	2.4778738	1.5741264
19.967458688587264	2.4591265	1.5681602
19.985255166805807	2.42827	1.5582907
20.00305213201348	2.4275982	1.5580752
20.020849584679578	2.432043	1.5595009
20.038647525273507	2.4726017	1.5724509
20.05644595426477	2.4540317	1.5665349
20.07424487212299	2.4456525	1.5638582
20.092044279317903	2.4449637	1.563638
20.109844176319353	2.4458818	1.5639316
20.127644563597304	2.413677	1.5536013
20.145445441621817	2.3938959	1.547222
20.16324681086307	2.3740325	1.5407896
20.181048671791373	2.3270292	1.5254604
20.198851024877122	2.3150148	1.5215173
20.216653870590836	2.3252785	1.5248864
20.234457209403146	2.357341	1.5353634
20.252261041784802	2.3912368	1.5463624
20.270065368206662	2.4144266	1.5538425
20.287870189139685	2.4042642	1.5505689
20.305675505054968	2.3930964	1.5469636
20.323481316423702	2.3667593	1.5384276
20.341287623717207	2.3643193	1.5376344
20.359094427406884	2.3456216	1.5315422
20.376901727964288	2.35262	1.5338253
20.39470952586107	2.3340862	1.5277716
20.41251782156899	2.306758	1.5188015
20.430326615559935	2.2818005	1.510563
20.448135908305886	2.2878792	1.5125737
20.465945700278965	2.2823439	1.5107428
20.483755991951384	2.3174007	1.5223011
20.50156678379548	2.360749	1.5364729
20.519378076283708	2.3834019	1.543827
20.537189869888635	2.377007	1.5417545
20.55500216508294	2.3451772	1.5313971
20.572814962339415	2.3264024	1.5252548
20.59062826213098	2.322617	1.5240135
20.60844206493066	2.3074977	1.519045
20.626256371211593	2.2836409	1.511172
20.644071181447032	2.270248	1.5067343
20.66188649611036	2.2888055	1.5128798
20.67970231567506	2.276904	1.5089414
20.697518640614742	2.2987456	1.5161614
20.715335471403122	2.2976131	1.515788
20.73315280851404	2.3058846	1.5185139
20.750970652421447	2.2744982	1.508144
20.768789003599412	2.2619672	1.5039837
20.786607862522136	2.2557054	1.5019006
20.8044272296639	2.2861965	1.5120174
20.82224710549913	2.287105	1.5123178
20.84006749050237	2.2989476	1.5162281
20.857888385148268	3.8092082	1.9517193
20.8757097899116	45.918335	6.776307
20.893531705267254	64.7937	8.049454
20.911354131690224	83.81521	9.155065
20.92917706965566	69.03575	8.308776
20.94700051963877	50.091526	7.0775366
20.96482448211493	29.39466	5.4216843
20.982648957559622	4.148215	2.0367167
21.00047394644843	2.2243223	1.4914162
21.01829944925707	2.219669	1.4898554
21.036125466461375	2.2547226	1.5015733
21.053951998537297	2.309834	1.5198138
21.071779045960906	2.2898233	1.5132163
21.089606609208378	2.2432845	1.4977598
21.10743468875603	2.2142994	1.4880522
21.12526328508028	2.2049818	1.4849181
21.143092398657675	2.210346	1.4867232
21.16092202996488	2.2077153	1.4858383
21.17875217947867	2.1656992	1.4716315
21.19658284767596	2.1337948	1.4607514
21.21441403503377	2.1286423	1.4589868
21.232245742029225	2.1702807	1.4731872
21.2500779691396	2.1671095	1.4721105
21.26791071684227	2.180111	1.4765198
21.28574398561475	2.1759276	1.4751025
21.30357777593465	2.177562	1.4756565
21.321412088279704	2.1469736	1.4652555
21.339246923127792	2.1278605	1.4587188
21.357082280956888	2.1180217	1.4553425
21.3749181622451	2.0902867	1.4457824
21.392754567470647	2.0818272	1.4428538
21.41059149711187	2.0637362	1.436571
21.42842895164726	2.0660455	1.4373745
21.446266931555378	2.05405	1.4331957
21.464105437314945	2.0909283	1.4460043
21.481944469404798	2.134046	1.4608375
21.49978402830388	2.1435611	1.4640906
21.51762411449127	2.0610049	1.4356201
21.53546472844617	2.040035	1.428298
21.553305870647876	2.0613894	1.435754
21.571147541575865	2.0946643	1.4472955
21.58898974170967	2.1059196	1.4511787
21.60683247152899	2.0830853	1.4432898
21.62467573151363	2.0507004	1.4320267
21.642519522143523	2.051196	1.4321997
21.660363843898722	2.066514	1.4375374
21.6782086972594	2.0580916	1.434605
21.696054082705864	2.0405903	1.4284923
21.713900000718535	2.0483322	1.4311996
21.73174645177795	2.0367894	1.4271613
21.749593436364794	2.0148878	1.4194674
21.767440954959845	1.9902962	1.4107786
21.785289008044032	1.9811213	1.4075232
21.803137596098388	1.988328	1.4100808
21.820986719604086	1.9931844	1.4118018
21.838836379042412	1.9931551	1.4117914
21.85668657489478	2.0142195	1.419232
21.87453730764273	2.0079057	1.4170059
21.892388577767914	2.0032575	1.4153647
21.91024038575213	2.0075412	1.4168773
21.928092732077285	2.0094774	1.4175603
21.945945617225426	2.0076716	1.4169233
21.963799041678694	2.013303	1.4189091
21.981653005919398	31.317987	5.5962477
21.999507510429943	78.11246	8.838125
22.01736255569286	73.0511	8.546993
22.035218142190818	4.1537805	2.0380826
22.05307427040661	1.9622587	1.4008064
22.07093094082315	1.97837	1.4065454
22.088788153923474	1.9852005	1.4089714
22.106645910190746	1.9904634	1.4108378
22.12450421010827	1.9966644	1.4130337
22.142363054159464	2.0046837	1.4158685
22.16022244282787	2.024851	1.4229727
22.178082376597164	1.9824928	1.4080102
22.195942855951145	1.9683435	1.4029766
22.213803881373742	1.9721534	1.4043338
22.231665453349002	2.0032556	1.4153641
22.24952757236111	2.029555	1.4246246
22.26739023889438	2.0112143	1.4181728
22.28525345343323	1.9833076	1.4082996
22.30311721646225	1.956828	1.3988667
22.320981528466113	1.9828091	1.4081225
22.33884638992964	2.0061278	1.4163784
22.356711801337788	1.9871918	1.4096779
22.37457776317561	1.9538509	1.3978021
22.392444275928337	1.9398004	1.3927672
22.410311340081282	1.9428889	1.3938755
22.428178956119904	1.9302114	1.3893205
22.446047124529805	1.9100426	1.3820429
22.46391584579669	1.9181038	1.3849562
22.481785120406414	1.9158341	1.3841366
22.49965494884496	1.912628	1.382978
22.51752533159841	1.9359827	1.3913959
22.53539626915302	1.9395629	1.392682
22.553267761995137	1.9424858	1.3937309
22.571139810611264	1.957254	1.399019
22.589012415488025	1.9626873	1.4009594
22.60688557711216	1.9608797	1.4003141
22.624759295970566	1.9581956	1.3993554
22.642633572550263	1.9803742	1.4072577
22.660508407338362	1.9780115	1.406418
22.67838380082217	1.9538193	1.3977909
22.696259753489077	1.9513556	1.3969092
22.714136265826614	1.8941662	1.3762871
22.73201333832246	1.8845731	1.3727975
22.74989097146439	1.888332	1.3741659
22.76776916574035	1.9053853	1.3803569
22.785647921638393	1.9035779	1.3797021
22.803527239646712	1.9029169	1.3794626
22.82140712025363	1.9147604	1.3837487
22.839287563947593	1.9277881	1.3884481
22.85716857121719	1.8879881	1.3740408
22.875050142551135	1.8858001	1.3732444
22.892932278438277	1.892925	1.3758361
22.910814979367604	1.9354225	1.3911947
22.928698245828222	1.9481461	1.39576
22.946582078309387	1.9285542	1.388724
22.96446647730047	1.9408263	1.3931354
22.98235144329098	1.9434195	1.3940659
23.000236976770562	1.9186872	1.3851669
23.018123078229	1.8948472	1.3765345
23.03600974815619	1.8887466	1.3743168
23.053896987042194	1.899907	1.3783711
23.071784795377173	1.891802	1.375428
23.08967317365145	1.867773	1.3666649
23.10756212235546	1.9058594	1.3805287
23.125451641979787	1.9116684	1.382631
23.143341733015134	1.8867971	1.3736073
23.161232395952357	1.8871135	1.3737224
23.179123631282426	1.9127222	1.383012
23.197015439496468	1.9206357	1.38587
23.214907821085717	1.9384233	1.3922727
23.23280077654157	1.9765979	1.4059154
23.250694306355538	1.9914147	1.4111749
23.268588411019277	1.9678367	1.402796
23.28648309102458	1.9536835	1.3977423
23.304378346863356	1.9530835	1.3975277
23.322274179027676	1.9712082	1.4039972
23.340170588009723	1.9413182	1.393312
23.358067574301852	1.9464258	1.3951436
23.37596513839651	1.9059112	1.3805474
23.39386328078629	1.90301	1.3794963
23.411762001963947	1.9152328	1.3839194
23.429661302422353	1.9391301	1.3925265
23.4475611826545	1.9627979	1.4009988
23.46546164315356	1.9433055	1.394025
23.48336268441279	1.9415861	1.3934081
23.501264306925638	1.9094347	1.381823
23.51916651118564	1.8718154	1.3681431
23.537069297686497	1.8839278	1.3725625
23.554972666922037	1.912316	1.3828651
23.57287661938623	1.8938642	1.3761773
23.59078115557318	1.8711494	1.3678997
23.608686275977128	1.8609235	1.3641567
23.62659198109246	1.8845006	1.3727711
23.6444982714137	1.9305505	1.3894424
23.66240514743549	1.9834412	1.408347
23.68031260965263	1.9476664	1.3955882
23.698220658560068	1.8893071	1.3745207
23.716129294652845	1.8532017	1.3613235
23.7340385184262	1.8800995	1.3711672
23.75194833037546	1.8989486	1.3780234
23.769858730996123	1.8587229	1.3633499
23.78776972078382	1.8459262	1.3586487
23.80568130023431	1.8513576	1.360646
23.823593469843495	1.9206842	1.3858875
23.841506230107424	1.9441543	1.3943293
23.859419581522275	1.9579177	1.3992561
23.87733352458438	1.9030011	1.379493
23.89524805979019	1.889858	1.374721
23.913163187636318	1.8505539	1.3603506
23.931078908619508	1.8857582	1.3732291
23.948995223236633	1.9292219	1.3889643
23.966912131984735	1.978113	1.4064541
23.98482963536096	2.0199912	1.4212639
24.002747733862616	2.0572722	1.4343194
24.020666427987155	2.0455184	1.4302162
24.038585718232156	2.048247	1.4311699
24.056505605095353	2.0487835	1.4313573
24.074426089074617	2.0704646	1.438911
24.092347170667946	2.05518	1.4335899
24.110268850373515	2.048477	1.4312501
24.128191128689586	2.0210445	1.4216344
24.146114006114626	2.0069587	1.4166718
24.164037483147187	1.9876131	1.4098274
24.181961560286005	2.0133204	1.4189153
24.199886238029926	2.044934	1.4300119
24.21781151687797	2.072598	1.4396521
24.235737397329274	2.0639622	1.4366497
24.253663879883135	2.075131	1.4405315
24.271590965038975	2.0818396	1.4428581
24.289518653296376	2.0457182	1.430286
24.30744694515505	1.9947067	1.4123409
24.32537584111486	1.9973643	1.4132814
24.34330534167581	2.013761	1.4190705
24.361235447338046	2.0174887	1.4203833
24.379166158601876	1.9861223	1.4092985
24.39709747596772	1.9910692	1.4110525
24.41502939993615	1.9891182	1.410361
24.432961931007917	2.029891	1.4247425
24.450895069683856	2.0240884	1.4227046
24.468828816465	1.9635758	1.4012765
24.4867631718525	1.9413241	1.3933141
24.504698136347656	1.9687997	1.4031392
24.52263371045192	2.0213504	1.4217421
24.540569894666874	2.0186837	1.4208039
24.558506689494266	1.9711224	1.4039667
24.57644409543597	1.9667592	1.4024119
24.594382112994012	1.9661725	1.4022027
24.61232074267057	1.9522492	1.3972291
24.630259984967953	1.9722967	1.4043849
24.64819984038863	1.9984941	1.413681
24.66614030943522	2.0148985	1.4194713
24.684081392610462	1.9864049	1.4093988
24.702023090417274	1.9696549	1.4034439
24.7199654033587	1.9590495	1.3996605
24.737908331937927	1.9840662	1.4085689
24.755851876658305	2.0527513	1.4327426
24.773796038023324	2.1134026	1.4537547
24.79174081653661	2.103754	1.4504324
24.809686212701962	2.0695963	1.4386091
24.827632227023294	2.0351508	1.4265871
24.8455788600047	2.0405169	1.4284666
24.8635261121504	2.0655837	1.4372139
24.88147398396475	2.1072977	1.4516535
24.899422475952303	2.1299527	1.4594357
24.917371588617698	2.1718454	1.4737183
24.935321322465768	2.2094772	1.486431
24.953271678001478	2.3245773	1.5246564
24.97122265572994	2.5057676	1.5829617
24.989174256156414	2.8332095	1.6832141
25.00712647978632	3.399151	1.8436787
25.02507932712521	4.374954	2.091639
25.043032798678798	5.913174	2.431702
25.060986894952933	7.585451	2.7541697
25.078941616453637	9.082667	3.0137465
25.096896963687055	9.891358	3.145053
25.114852937159508	10.585918	3.2536008
25.132809537377444	10.465093	3.2349796
25.150766764847468	9.747708	3.122132
25.168724620076347	8.333758	2.8868248
25.186683103570985	7.068002	2.6585715
25.204642215838426	5.705864	2.388695
25.222601957385894	4.5975127	2.144181
25.24056232872074	3.6130261	1.9007962
25.25852333035048	2.936691	1.7136776
25.276484962782778	2.4648411	1.5699812
25.294447226525435	2.2356467	1.4952079
25.312410122086423	2.0928197	1.4466581
25.330373649973843	1.9508324	1.396722
25.348337810695988	1.9246795	1.3873281
25.366302604761245	1.9272281	1.3882464
25.384268032678207	1.9622549	1.4008051
25.40223409495558	1.97153	1.4041119
25.420200792102257	1.9468181	1.3952843
25.438168124627246	1.8880215	1.3740529
25.45613609303974	1.877158	1.3700942
25.474104697849057	1.8302954	1.3528842
25.492073939564698	1.8285351	1.3522334
25.510043818696285	1.8746483	1.3691779
25.528014335753614	1.9232322	1.3868065
25.54598549124664	1.8564728	1.3625244
25.56395728568544	1.8284062	1.3521857
25.58192971958028	1.8347954	1.3545462
25.59990279344156	1.8462082	1.3587525
25.617876507779833	1.8270625	1.3516887
25.635850863105826	1.8086902	1.3448756
25.653825859930386	1.8395425	1.3562974
25.671801498764548	1.9021479	1.3791838
25.68977778011949	1.880426	1.3712863
25.707754704506524	1.8857108	1.3732119
25.725732272437153	1.872426	1.3683662
25.743710484423012	1.8765599	1.3698759
25.761689340975888	1.8943192	1.3763427
25.77966884260774	1.8986077	1.3778998
25.797648989830662	1.9169551	1.3845415
25.815629783156922	1.9360154	1.3914077
25.83361122309895	1.9010148	1.378773
25.85159331016929	1.8936278	1.3760915
25.869576044880695	1.8698809	1.3674359
25.887559427746034	1.8650094	1.3656535
25.90554345927836	1.8684157	1.3669001
25.92352813999086	1.8832283	1.3723077
25.94151347039689	1.8736047	1.3687968
25.959499451009965	1.817998	1.3483316
25.97748608234374	1.7779809	1.3334095
25.995473364912062	1.7771013	1.3330796
26.013461299228904	1.776612	1.3328961
26.03144988580839	1.7464808	1.3215449
26.04943912516483	1.7791052	1.3338311
26.067429017812675	1.8255204	1.3511182
26.085419564266537	1.8183202	1.348451
26.103410765041186	1.7704521	1.3305833
26.12140262065155	1.7858287	1.336349
26.139395131612723	1.7365121	1.3177679
26.157388298439948	1.740519	1.3192873
26.17538212164861	1.7995878	1.3414872
26.193376601754295	1.8473924	1.3591882
26.211371739272714	1.8257567	1.3512056
26.229367534719746	1.7901313	1.3379579
26.247363988611433	1.8548907	1.3619437
26.26536110146397	1.8671309	1.3664299
26.283358873793727	1.8413166	1.3569512
26.301357306117204	1.8454366	1.3584684
26.319356398951104	1.844523	1.3581321
26.33735615281224	1.8467985	1.3589697
26.35535656821762	1.8241806	1.3506223
26.373357645684404	1.7813764	1.3346821
26.39135938572991	1.7627143	1.3276725
26.409361788871614	1.7900194	1.337916
26.427364855627165	1.8151498	1.3472749
26.445368586514352	1.8355308	1.3548176
26.46337298205115	1.8386256	1.3559593
26.48137804275568	1.7981387	1.3409469
26.499383769146217	1.8162059	1.3476669
26.517390161741215	1.8216089	1.3496699
26.53539722105928	1.7858617	1.3363614
26.553404947619182	1.8008031	1.34194
26.571413341939856	1.8360548	1.355011
26.589422404540397	1.8323516	1.3536438
26.60743213594006	1.8676548	1.3666217
26.62544253665827	1.841424	1.3569908
26.64345360721459	1.8283467	1.3521637
26.66146534812879	1.8194772	1.3488799
26.679477759920758	1.8091394	1.3450425
26.69749084311057	1.8456709	1.3585547
26.71550459821847	1.817996	1.3483309
26.733519025764842	1.7789989	1.3337911
26.751534126270258	1.7666447	1.3291519
26.769549900255434	1.7254285	1.3135556
26.787566348241267	1.7509134	1.3232208
26.80558347074881	1.7735292	1.3317392
26.823601268299267	1.8027338	1.3426592
26.841619741414036	1.7925779	1.3388718
26.85963889061465	1.82246	1.3499852
26.877658716422832	1.8086236	1.3448508
26.89567921936045	1.804764	1.343415
26.913700399949544	1.7837076	1.3355552
26.93172225871233	1.811765	1.3460182
26.949744796171174	1.7951084	1.3398166
26.967768012848605	1.8198941	1.3490345
26.98579190926733	1.8398138	1.3563974
27.003816485950225	1.8186951	1.34859
27.021841743420318	1.805767	1.3437883
27.039867682200814	1.8204548	1.3492423
27.057894302815072	1.843133	1.3576204
27.07592160578664	1.8417034	1.3570937
27.0939495916392	1.8230984	1.3502216
27.111978260896635	1.780214	1.3342466
27.13000761408296	1.7870059	1.3367894
27.148037651722397	1.8324423	1.3536773
27.166068374339304	1.8828743	1.3721787
27.184099782458215	1.8565532	1.362554
27.20213187660384	1.8413429	1.3569609
27.22016465730105	1.8570869	1.3627498
27.23819812507487	1.838002	1.3557293
27.256232280450533	1.8341101	1.3542932
27.274267123953383	1.7782515	1.333511
27.292302656108987	1.7794118	1.333946
27.31033887744306	1.8005872	1.3418596
27.32837578848146	1.8135124	1.3466672
27.34641338975026	1.8136104	1.3467035
27.364451681775673	1.7587595	1.3261822
27.382490665084074	1.745124	1.3210315
27.400530340202046	1.7603003	1.326763
27.41857070765629	1.7908151	1.3382134
27.436611767973726	1.8411567	1.3568923
27.454653521681404	1.8292176	1.3524857
27.472695969306564	1.8259876	1.3512911
27.490739111376627	1.7718596	1.3311121
27.508782948419153	1.7522862	1.3237395
27.526827480961902	1.7442158	1.3206877
27.54487270953279	1.7718303	1.3311012
27.562918634659898	1.8093683	1.3451276
27.580965256871508	1.8003857	1.3417845
27.599012576696026	1.787559	1.3369963
27.617060594662068	1.8230077	1.350188
27.63510931129842	1.8417681	1.3571175
27.65315872713401	1.8319069	1.3534795
27.67120884269797	1.8102404	1.3454517
27.68925965851958	1.863504	1.3651022
27.707311175128307	1.9043858	1.3799949
27.725363393053787	1.9075326	1.3811345
27.74341631282583	1.856631	1.3625824
27.7614699349744	1.844271	1.3580394
27.77952426002968	2.0557923	1.4338034
27.797579288521973	2.1382005	1.4622587
27.815635020981784	2.6210582	1.6189682
27.83369145793979	2.7748716	1.6657946
27.85174859992682	2.612191	1.6162274
27.869806447473923	2.4331334	1.5598505
27.887865001112267	2.0485747	1.4312843
27.905924261373233	1.8985479	1.3778781
27.92398422878836	1.9186916	1.3851684
27.94204490388936	1.9265991	1.3880199
27.96010628720813	1.9381415	1.3921715
27.978168379276728	1.8947579	1.376502
27.9962311806274	1.8989367	1.3780191
28.014294691792568	1.887151	1.3737361
28.0323589133048	1.8576659	1.3629621
28.050423845696887	1.861083	1.3642151
28.068489489501758	1.870246	1.3675694
28.086555845252523	1.8798196	1.3710651
28.104622913482487	1.8603214	1.363936
28.122690694725115	1.9192761	1.3853794
28.14075918951405	1.9094669	1.3818346
28.15882839838312	1.9412485	1.393287
28.176898321866304	1.941207	1.393272
28.1949689604978	1.9479907	1.3957044
28.213040314811945	1.9333001	1.3904316
28.23111238534327	1.9073387	1.3810643
28.249185172626493	1.9059186	1.3805501
28.267258677196473	1.9517932	1.3970659
28.285332899588294	1.9679146	1.4028238
28.303407840337172	1.9530153	1.3975033
28.321483499978545	1.9301592	1.3893017
28.33955987904799	1.870189	1.3675485
28.357636978081285	1.8962051	1.3770276
28.37571479761439	1.9844235	1.4086957
28.393793338183425	2.0029113	1.4152426
28.41187260032469	2.0195715	1.4211164
28.429952584574686	2.0376925	1.4274777
28.448033291470065	2.068128	1.4380988
28.46611472154769	2.002303	1.4150275
28.484196875344566	1.9792418	1.4068553
28.502279753397914	2.0075095	1.4168661
28.52036335624511	2.0378904	1.427547
28.538447684423716	2.0236259	1.4225421
28.556532738471482	2.034579	1.4263867
28.574618518926325	2.104094	1.4505496
28.59270502632635	2.084631	1.4438251
28.61079226120985	2.0081215	1.4170821
28.628880224115274	2.001974	1.4149114
28.646968915581287	2.0203161	1.4213783
28.66505833614671	2.0422807	1.4290838
28.68314848635055	1.9927877	1.4116614
28.701239366732004	2.0279067	1.4240459
28.71933097783044	2.11041	1.452725
28.737423320185403	2.10005	1.449155
28.75551639433665	2.0936248	1.4469364
28.773610200824074	2.1350822	1.461192
28.791704740187793	2.1648865	1.4713553
28.80980001296809	2.181386	1.4769516
28.827896019705413	2.2040553	1.4846061
28.845992760940433	2.2162907	1.4887211
28.86409023721397	2.174238	1.4745297
28.88218844906704	2.166816	1.4720109
28.900287397040845	2.2043955	1.4847207
28.918387081676755	2.3018212	1.5171754
28.936487503516343	2.3207278	1.5233935
28.954588663101365	2.3320773	1.527114
28.97269056097374	2.3407347	1.529946
28.990793197675597	2.3210967	1.5235146
29.00889657374923	2.3449607	1.5313264
29.027000689737125	2.3514714	1.5334508
29.04510554618196	2.3566902	1.5351515
29.06321114362659	2.369463	1.539306
29.08131748261405	2.4287608	1.5584482
29.099424563687567	2.4433286	1.563115
29.11753238739057	2.483042	1.5757672
29.13564095426663	2.5239959	1.5887089
29.15375026485954	2.5572855	1.5991515
29.171860319713275	2.5927699	1.610208
29.18997111937199	2.6061952	1.6143714
29.20808266438002	2.6544952	1.6292622
29.226194955281898	2.7111232	1.6465489
29.244307992622335	2.786837	1.6693822
29.26242177694624	2.8736532	1.6951853
29.2805363087987	2.9034164	1.7039415
29.29865158872498	2.9348564	1.7131423
29.316767617270557	3.0239158	1.738941
29.334884394981064	2.9957623	1.7308271
29.353001922402367	2.9806037	1.7264425
29.37112020008047	3.0329676	1.7415417
29.389239228561596	3.149654	1.7747264
29.407359008392152	3.3636446	1.8340242
29.42547954011872	3.718196	1.9282624
29.44360082428809	4.108029	2.0268273
29.46172286144722	4.8541455	2.2032125
29.479845652143283	6.3803678	2.525939
29.497969196923606	9.053708	3.008938
29.516093496335728	12.948166	3.598356
29.5342185509274	16.517221	4.0641384
29.55234436124651	19.526556	4.418886
29.570470927841175	20.89653	4.5712724
29.588598251259686	20.802696	4.5609975
29.60672633205055	19.058857	4.365645
29.624855170762405	16.021847	4.00273
29.642984767944146	12.580146	3.5468502
29.66111512414481	9.4523	3.0744593
29.67924623991366	7.0608215	2.6572206
29.697378115800138	5.2881007	2.299587
29.71551075235387	4.3096247	2.0759635
29.733644150124675	3.8594847	1.9645572
29.751778309662576	3.583281	1.8929557
29.769913231517766	3.510874	1.8737327
29.78804891624066	3.4775817	1.8648275
29.806185364381818	3.3594267	1.832874
29.82432257649206	3.3041956	1.8177446
29.842460553122333	3.2402341	1.800065
29.86059929482382	3.215975	1.793314
29.878738802147872	3.2235534	1.7954257
29.896879075646048	3.245764	1.8016005
29.915020115870114	3.2529216	1.8035858
29.933161923371976	3.254647	1.804064
29.951304498703777	3.2111828	1.7919774
29.969447842417857	3.1957245	1.7876589
29.987591955066733	3.2438235	1.8010617
30.005736837203123	3.3368118	1.8266943
30.023882489379943	3.2919757	1.8143803
30.04202891215028	3.1880324	1.7855062
30.060176106067455	3.1837144	1.7842966
30.078324071684946	3.1780324	1.7827036
30.09647280955646	3.1842437	1.7844449
30.114622320235863	3.1624768	1.7783355
30.132772604277257	3.1155336	1.7650874
30.1509236622349	3.104521	1.7619652
30.16907549466328	3.1216452	1.7668178
30.18722810211705	3.1435711	1.7730119
30.205381485151097	3.0799408	1.754976
30.22353564432045	3.0545256	1.7477201
30.241690580180403	3.0326846	1.7414604
30.25984629328638	2.9809077	1.7265306
30.278002784194037	2.925039	1.7102746
30.296160053459246	2.944486	1.7159505
30.314318101638033	2.943972	1.7158008
30.332476929286646	2.8543508	1.6894825
30.35063653696153	2.8185015	1.6788393
30.368796925219307	2.9212458	1.7091652
30.386958094616844	3.0196683	1.7377193
30.40512004571115	2.9483588	1.7170786
30.423282779059463	2.8814318	1.697478
30.441446295219233	2.832605	1.6830344
30.459610594748067	2.8136191	1.6773846
30.47777567820382	2.8108473	1.6765581
30.495941546144504	2.8363307	1.6841409
30.51410819912835	2.8485568	1.6877668
30.532275637713795	2.8083487	1.6758128
30.55044386245946	2.7929533	1.6712132
30.56861287392416	2.825045	1.6807871
30.586782672666956	2.8810625	1.6973693
30.604953259247047	2.874563	1.6954536
30.623124634223885	2.798236	1.6727928
30.641296798157075	2.7585359	1.660884
30.659469751606462	2.8273916	1.6814849
30.677643495132074	2.8894372	1.6998345
30.695818029294152	2.8381274	1.6846743
30.713993354653116	2.7335684	1.6533507
30.73216947176962	2.673549	1.635099
30.75034638120448	2.69257	1.6409053
30.768524083518756	2.7344196	1.6536081
30.786702579273673	2.7983425	1.6728247
30.80488186903069	2.9345307	1.7130473
30.82306195335144	3.0620835	1.749881
30.841242832797782	3.3004365	1.8167104
30.85942450793176	3.5742087	1.8905578
30.877606979315637	3.9465072	1.9865818
30.895790247511883	4.358111	2.0876088
30.913974313083134	4.863716	2.2053835
30.932159176592283	5.3009043	2.3023694
30.95034483860237	5.6183543	2.3703067
30.968531299676698	5.713817	2.3903592
30.98671856037873	5.4396944	2.3323152
31.00490662127215	5.048944	2.2469854
31.023095482920848	4.5136433	2.1245337
31.04128514588892	3.8332222	1.9578617
31.059475610740662	3.2440596	1.8011273
31.07766687804056	2.877102	1.6962022
31.09585894835335	2.7016306	1.6436638
31.11405182224393	2.5858343	1.608053
31.132245500277417	2.525118	1.589062
31.15043998301914	2.503926	1.5823798
31.168635271034628	2.4797478	1.5747215
31.18683136488964	2.4584966	1.5679593
31.20502826515008	2.396653	1.5481128
31.223225972382135	2.411909	1.5530323
31.241424487152155	2.4276772	1.5581005
31.259623810026692	2.390685	1.5461841
31.27782394157253	2.3896656	1.5458543
31.296024882356644	2.4023056	1.5499372
31.314226632946237	2.456348	1.5672741
31.332429193908684	2.4489946	1.5649264
31.350632565811598	2.4101405	1.5524627
31.368836749222787	2.4040744	1.5505078
31.387041744710295	2.4855716	1.5765696
31.40524755284232	2.5232472	1.5884732
31.423454174187317	2.5627592	1.600862
31.441661609313922	2.583612	1.6073618
31.459869858791002	2.5098739	1.5842582
31.478078923187628	2.4454741	1.5638012
31.496288803073064	2.410198	1.5524812
31.514499499016807	2.4488752	1.5648882
31.532711011588546	2.4619827	1.5690707
31.550923341358178	2.4386044	1.5616032
31.56913648889584	2.3815033	1.543212
31.587350454771844	2.3815622	1.5432311
31.605565239556732	2.3720539	1.5401473
31.62378084382127	2.2994752	1.516402
31.641997268136382	2.2465441	1.4988476
31.660214513073274	2.1885002	1.4793581
31.67843257920331	2.2107556	1.486861
31.6966514670981	2.2071004	1.4856313
31.71487117732944	2.22983	1.4932616
31.733091710469346	2.2491398	1.4997132
31.751313067090052	2.316875	1.5221285
31.769535247764008	2.3669014	1.5384737
31.787758253063878	2.3591166	1.5359416
31.805982083562526	2.3332784	1.5275073
31.824206739833024	2.3165586	1.5220245
31.84243222244869	2.251751	1.5005835
31.860658531983013	2.2227478	1.4908882
31.878885669009737	2.2451177	1.4983717
31.897113634102784	2.2306254	1.4935279
31.91534242783632	2.190438	1.4800129
31.933572050784694	2.1638525	1.4710039
31.951802503522508	2.1896472	1.4797456
31.970033786624548	2.2100732	1.4866315
31.988265900665834	2.2985938	1.5161114
32.006498846221575	2.2651274	1.505034
32.02473262386724	2.2170982	1.4889923
32.04296723417845	2.2358	1.4952592
32.0612026777311	2.242362	1.4974519
32.07943895510129	2.1747038	1.4746877
32.097676066865304	2.1501267	1.466331
32.115914013599685	2.158457	1.4691688
32.13415279588115	2.132106	1.4601732
32.152392414286666	2.146502	1.4650946
32.1706328693934	2.20307	1.4842741
32.18887416177875	2.119366	1.4558042
32.20711629202032	2.010332	1.4178618
32.225359260695924	2.0016289	1.4147893
32.243603068383614	2.0354035	1.4266757
32.26184771566166	2.0582006	1.434643
32.28009320310852	2.110028	1.4525936
32.2983395313029	2.1413908	1.4633492
32.31658670082372	2.1157591	1.4545649
32.33483471225012	2.1215756	1.456563
32.35308356616143	2.1426606	1.463783
32.371333263137245	2.232053	1.4940057
32.38958380375734	2.1535897	1.4675114
32.407835188601744	2.1535094	1.467484
32.42608741825067	2.1607893	1.4699624
32.444340493284585	2.1947453	1.4814672
32.46259441428416	2.126445	1.4582336
32.48084918183028	2.1478071	1.4655399
32.49910479650405	2.169127	1.4727956
32.51736125888683	2.1617959	1.4703047
32.53561856956014	2.05208	1.4325082
32.5538767291058	1.9959399	1.4127773
32.572135738105764	2.0174165	1.4203578
32.59039559714228	2.037054	1.4272541
32.608656306797776	2.0169415	1.4201907
32.62691786765491	1.9867573	1.4095237
32.645180280296586	1.9477499	1.3956181
32.663443545305896	1.9895266	1.4105058
32.68170766326619	2.0124557	1.4186105
32.69997263476099	1.9978259	1.4134446
32.7182384603741	1.9744827	1.4051628
32.7365051406895	1.9259814	1.3877974
32.75477267629144	1.937803	1.3920499
32.77304106776434	1.985949	1.409237
32.79131031569289	2.0354524	1.4266928
32.809580420661966	2.0301363	1.4248285
32.827851383256714	2.0592344	1.4350033
32.84612320406245	2.132294	1.4602376
32.86439588366476	2.1743813	1.4745784
32.88266942264945	2.1489236	1.4659208
32.9009438216025	2.0981102	1.4484855
32.9192190811102	2.074001	1.4401393
32.937495201758985	2.0742183	1.4402146
32.95577218413556	2.0786319	1.4417461
32.974050028826866	2.091633	1.4462479
32.992328736420035	2.0305116	1.4249603
33.010608307502444	1.9778298	1.4063534
33.02888874266169	2.022544	1.4221617
33.047170042485604	1.9858984	1.409219
33.06545220756225	1.9001511	1.3784597
33.083735238479896	1.9366865	1.3916489
33.10201913582707	1.9717691	1.404197
33.12030390019248	1.9280082	1.3885274
33.138589532165135	1.8839566	1.372573
33.15687603233419	1.8657936	1.3659406
33.17516340128909	1.8489918	1.3597764
33.19345163961947	1.9211522	1.3860563
33.211740747915215	1.9816177	1.4076995
33.23003072676643	2.030091	1.4248127
33.248321576763466	2.066554	1.4375514
33.266613298496885	2.0630047	1.4363164
33.28490589255747	2.008519	1.4172223
33.30319935953626	1.9517653	1.397056
33.32149370002451	1.8832514	1.3723161
33.339788914613706	1.9799843	1.4071192
33.358085003895575	2.043002	1.4293362
33.376381968462034	2.020425	1.4214165
33.39467980890529	2.0357087	1.4267826
33.41297852581774	2.1175828	1.4551916
33.43127811979204	2.1131601	1.4536712
33.44957859142105	2.0495384	1.4316208
33.467879941297866	2.081788	1.4428402
33.486182170015844	2.0474548	1.4308931
33.50448527816853	1.9918612	1.4113331
33.522789266349754	1.8718959	1.3681725
33.541094135153514	1.9279556	1.3885084
33.55939988517411	2.009507	1.4175708
33.57770651700602	2.138253	1.4622767
33.59601403124398	2.0351145	1.4265743
33.61432242848296	1.8576181	1.3629446
33.632631709318154	1.8173234	1.3480814
33.650941874344994	1.9255451	1.3876401
33.66925292415916	1.9788021	1.4066991
33.68756485935654	2.0316455	1.425358
33.70587768053328	2.0336707	1.4260683
33.724191388285746	1.9883498	1.4100885
33.74250598321054	2.0210345	1.421631
33.760821465904506	2.0367467	1.4271463
33.77913783696474	1.9744271	1.4051431
33.79745509698852	1.948548	1.395904
33.815773246573414	1.882847	1.3721687
33.8340922863172	1.9446981	1.3945243
33.852412216817896	1.9270142	1.3881694
33.87073303867377	1.9575886	1.3991385
33.889054752483304	1.9400581	1.3928597
33.907377358845245	1.9112858	1.3824925
33.92570085835853	1.9421674	1.3936167
33.94402525162239	1.9465457	1.3951867
33.96235053923627	1.8669323	1.3663573
33.980676721799824	1.9628838	1.4010296
33.999003799912984	2.054602	1.4333882
34.01733177417592	2.054834	1.4334692
34.03566064518901	1.9522353	1.3972242
34.0539904135529	1.8418252	1.3571386
34.07232107986846	1.8779141	1.37037
34.090652644736785	1.9198707	1.385594
34.108985108759235	1.9141802	1.383539
34.12731847253742	1.8813396	1.3716193
34.14565273667313	1.9973767	1.4132857
34.16398790176847	2.0542283	1.4332579
34.18232396842574	2.060087	1.4353004
34.20066093724749	2.0058465	1.4162791
34.21899880883651	1.9246937	1.3873333
34.23733758379583	1.9260898	1.3878363
34.25567726272874	1.8275894	1.3518836
34.27401784623872	1.7528527	1.3239534
34.29235933492957	1.8848599	1.372902
34.31070172940526	1.9230944	1.3867568
34.32904503027003	1.9290073	1.388887
34.347389238128386	2.0065072	1.4165124
34.36573435358502	2.0469096	1.4307024
34.38408037724492	2.1300542	1.4594705
34.402427309713296	2.174151	1.4745002
34.42077515159559	2.0545795	1.4333805
34.43912390349752	1.9773601	1.4061863
34.45747356602499	2.0260568	1.4233962
34.47582413978423	2.0214093	1.4217627
34.49417562538163	2.014703	1.4194024
34.51252802342388	2.0131893	1.418869
34.53088133451789	2.0465014	1.4305599
34.54923555927084	2.0188947	1.4208782
34.567590698290104	1.950857	1.3967309
34.58594675218336	1.9895732	1.4105223
34.6043037215585	1.9167366	1.3844626
34.62266160702365	1.7974644	1.3406955
34.641020409187234	1.8479024	1.3593757
34.65938012865785	1.8699913	1.3674762
34.677740766044394	1.8978167	1.3776127
34.69610232195598	1.944569	1.3944781
34.714464797002016	1.8394282	1.3562552
34.73282819179208	1.7938496	1.3393466
34.751192506936064	1.9662998	1.4022481
34.76955774304408	2.0059605	1.4163194
34.7879239007265	1.9444007	1.3944176
34.80629098059391	1.9415623	1.3933996
34.824658983257194	1.848877	1.3597342
34.843027909327446	1.7942826	1.3395083
34.86139775941603	1.8946811	1.3764741
34.879768534134534	2.043893	1.4296479
34.89814023409483	2.068929	1.4383771
34.91651285990901	2.0967462	1.4480146
34.93488641218944	1.9252508	1.387534
34.95326089154871	1.7501407	1.3229288
34.97163629859967	1.6799947	1.2961462
34.99001263395542	1.7808751	1.3344944
35.00838989822934	1.804605	1.3433559
35.02676809203499	1.8086768	1.3448706
35.04514721598624	1.8017552	1.3422947
35.063527270697215	1.797961	1.3408806
35.081908256782256	1.675986	1.2945988
35.10029017485597	1.8427173	1.3574672
35.11867302553321	1.9319857	1.3899589
35.137056809429104	1.930078	1.3892725
35.155441527159006	1.842271	1.3573028
35.173827179338524	1.7048552	1.305701
35.19221376658354	1.5721222	1.253843
35.21060128951017	1.8311657	1.3532057
35.2289897487348	1.9042798	1.3799565
35.24737914487405	2.0433843	1.42947
35.26576947854479	2.1378527	1.4621397
35.28416075036418	2.0124028	1.4185919
35.30255296094958	2.1196213	1.455892
35.32094611091867	2.200552	1.4834257
35.33934020088932	2.2974849	1.5157456
35.35773523147969	2.2335005	1.49449
35.3761312033082	2.3052554	1.5183067
35.394528116993506	2.2066567	1.485482
35.41292597315452	2.1382325	1.4622697
35.431324772410434	2.2045825	1.4847836
35.449724515380666	2.363222	1.5372775
35.46812520268491	2.3870175	1.5449976
35.486526834943106	2.189557	1.4797152
35.504929412775454	2.129611	1.4593186
35.52333293680242	2.2608488	1.5036119
35.54173740764471	2.1396391	1.4627506
35.560142825923286	1.6864921	1.2986501
35.5785491922594	1.8129141	1.346445
35.59695650727454	2.2103922	1.4867388
35.61536477159042	2.5998158	1.6123945
