0.008763373481513119	0.051685803	0.22734512
0.026290120649546365	0.18429624	0.4292974
0.043816868432600686	0.12367553	0.35167533
0.06134361724069026	0.18266626	0.42739472
0.07887036748382949	0.16264683	0.40329498
0.0963971195720331	0.11795294	0.34344277
0.11392387391531617	0.100132	0.3164364
0.1314506309236943	0.121713564	0.34887472
0.1489773910071836	0.18412429	0.42909706
0.16650415457580078	0.17922415	0.42334872
0.18403092203956356	0.13418084	0.36630702
0.20155769380849	0.10300204	0.3209393
0.2190844702925996	0.1491253	0.38616744
0.2366112519019124	0.19877468	0.44584155
0.2541380390464497	0.19816674	0.44515923
0.27166483213623416	0.1929225	0.43922943
0.28919163158128947	0.10876316	0.3297926
0.3067184377916406	0.12495264	0.3534864
0.324245251177314	0.13098502	0.36191854
0.34177207214833777	0.13895449	0.372766
0.3592989011147415	0.1427627	0.37783954
0.37682573848655654	0.090433754	0.30072206
0.39435258467381573	0.112713836	0.33572882
0.41187944008655414	0.12832817	0.35822922
0.42940630513480854	0.14717637	0.38363573
0.446933180228618	0.13414209	0.36625412
0.4644600657780234	0.09633835	0.31038418
0.48198696219306775	0.10937833	0.33072394
0.49951386988379676	0.12738581	0.35691148
0.5170407892602581	0.13834746	0.3719509
0.5345677207325025	0.1304812	0.36122182
0.5520946647105822	0.16287823	0.40358174
0.5696216216045534	0.16959515	0.4118193
0.5871485918244737	0.18541373	0.43059695
0.6046755757804043	0.16781145	0.40964797
0.6222025738824094	0.15971412	0.3996425
0.6397295865405557	0.18406601	0.42902914
0.6572566141649129	0.1959149	0.44262275
0.6747836571655547	0.19638772	0.44315654
0.6923107159525568	0.17770763	0.42155382
0.7098377909359992	0.17031167	0.41268834
0.7273648825259653	0.15083887	0.38837978
0.7448919911325411	0.14105147	0.3755682
0.762419117165817	0.1574679	0.39682224
0.7799462610358868	0.16807123	0.40996492
0.7974734231528482	0.19170517	0.43784148
0.8150006039268024	0.17803502	0.42194197
0.8325278037678551	0.166984	0.40863678
0.8500550230861152	0.20485048	0.45260412
0.8675822622916969	0.22889908	0.478434
0.8851095217947171	0.26287958	0.51271784
0.9026368020052984	0.22329715	0.47254327
0.9201641033335665	0.17845072	0.42243427
0.9376914261896523	0.15961954	0.39952415
0.9552187709836915	0.16112867	0.40140834
0.9727461381258234	0.22520693	0.47455972
0.990273528026193	0.23979382	0.48968747
1.0078009410949496	0.25757477	0.50751823
1.0253283777422473	0.26041397	0.5103077
1.0428558383782454	0.26989612	0.5195153
1.0603833234131086	0.2804942	0.5296171
1.0779108332570058	0.3095614	0.5563824
1.0954383683201119	0.38745025	0.622455
1.112965929012607	0.44124267	0.664261
1.1304935157446763	0.5206288	0.7215461
1.1480211289265108	0.49156687	0.7011183
1.1655487689683062	1.2422099	1.1145447
1.1830764362802655	1.4904397	1.2208357
1.200604131272596	1.8818365	1.3718004
1.2181318543555117	2.3538895	1.534239
1.235659605939232	2.3718085	1.5400677
1.253187386433982	3.8620553	1.9652113
1.270715196249994	6.158756	2.481684
1.2882430357975057	11.389613	3.37485
1.3057709054867608	16.206099	4.02568
1.3232988057280106	21.989443	4.68929
1.3408267369315112	26.589113	5.156463
1.358354699507526	29.740675	5.453501
1.3758826938663256	33.89432	5.821883
1.3934107204181858	35.945705	5.995474
1.410938779573391	36.44866	6.037273
1.4284668717422309	36.6271	6.052033
1.4459949973350033	35.992493	5.9993744
1.4635231567620117	36.48829	6.0405536
1.4810513504335687	35.866013	5.988824
1.4985795787599925	35.818863	5.984886
1.5161078421516088	35.65791	5.9714246
1.5336361410187505	34.80447	5.8995314
1.5511644757717598	35.06006	5.9211535
1.5686928468209842	35.167755	5.9302406
1.58622125457678	35.630314	5.9691133
1.6037496994495108	36.55067	6.045715
1.621278181849548	36.065514	6.005457
1.6388067021872719	36.824127	6.068289
1.6563352608730693	36.551693	6.0457997
1.673863858317336	36.02151	6.0017924
1.6913924949304753	35.35045	5.9456244
1.7089211711228998	33.84762	5.8178706
1.7264498873050296	32.910595	5.736776
1.7439786438872935	32.246468	5.6785975
1.7615074412801288	31.26897	5.5918665
1.779036279893981	30.413609	5.5148535
1.796565160139305	29.339413	5.416587
1.814094082426564	28.697138	5.356971
1.8316230471662298	28.033463	5.2946634
1.849152054768784	27.309391	5.2258387
1.8666811056447168	26.955574	5.191876
1.8842102002045273	26.315495	5.129863
1.901739338858724	25.646288	5.0642166
1.9192685220178245	25.379356	5.0377927
1.9367977500923557	24.857075	4.985687
1.9543270234928547	24.439886	4.943671
1.971856342629867	23.700804	4.868347
1.9893857079139496	22.999353	4.795764
2.006915119755667	22.604553	4.7544246
2.0244445785655945	22.132654	4.7045355
2.0419740847543175	21.857725	4.675225
2.0595036387324317	21.439266	4.6302557
2.0770332409105414	20.982021	4.5806136
2.094562891699263	20.585075	4.537078
2.1120925915092217	20.006363	4.4728475
2.129622340751053	19.789173	4.4485025
2.1471521398354043	187.75871	13.702508
2.1646819891729323	444.13635	21.074543
2.182211889174303	440.03018	20.976896
2.1997418402501974	452.33838	21.268248
2.2172718428113023	432.22327	20.78998
2.234801897268317	320.26968	17.89608
2.2523320040319548	16.517	4.064111
2.269862163512935	16.10045	4.0125365
2.287392376121992	15.870657	3.9837992
2.304922642269869	15.705116	3.962968
2.322452962367322	15.70989	3.9635704
2.3399833368251164	15.401377	3.9244587
2.357513766054032	15.248193	3.9048934
2.3750442504648586	14.783768	3.8449667
2.3925747904683963	14.490293	3.8066118
2.410105386475459	14.28098	3.7790184
2.4276360388968707	14.042833	3.747377
2.445166748143469	13.812499	3.716517
2.4626975146261025	13.535655	3.6790833
2.4802283387556323	13.195679	3.6325858
2.4977592209429305	12.994432	3.604779
2.5152901615988825	12.771298	3.5736954
2.5328211611343865	12.7226095	3.5668766
2.5503522199603523	12.636896	3.5548413
2.5678833384877024	12.469781	3.5312576
2.5854145171273712	12.2213125	3.4958994
2.6029457562903064	12.044732	3.4705522
2.620477056387469	11.872568	3.4456594
2.6380084178298326	11.812088	3.4368718
2.655539841028383	11.6566305	3.4141808
2.673071326394119	11.436659	3.381813
2.6906028743380523	11.152742	3.3395722
2.708134485271211	10.845527	3.2932546
2.7256661596046325	10.728405	3.2754245
2.743197897749369	10.415744	3.227343
2.760729700116486	10.279536	3.2061715
2.778261567117063	10.12498	3.1819773
2.795793499162193	9.976333	3.1585333
2.8133254966629817	9.799706	3.1304483
2.830857560030551	9.589668	3.096719
2.8483896896760337	9.534439	3.0877888
2.865921886010578	9.417946	3.0688672
2.883454149445347	9.34114	3.0563278
2.9009864803915177	9.297393	3.0491626
2.91851887926028	9.213131	3.035314
2.9360513464628384	8.969718	2.9949486
2.953583882410413	8.810891	2.9683146
2.9711164875142373	8.726552	2.954074
2.9886491621855606	8.544649	2.9231231
3.0061819068356455	8.434786	2.9042702
3.023714721875769	8.294273	2.879978
3.041247607717225	8.265268	2.874938
3.0587805647713213	8.249065	2.8721187
3.0763135934493806	8.199426	2.8634639
3.0938466941627407	8.115707	2.848808
3.1113798673227544	7.8755937	2.8063488
3.1289131133407904	7.7535443	2.7845187
3.1464464326282315	7.6810837	2.7714767
3.1639798255964786	7.6346283	2.7630832
3.1815132926569443	7.5381303	2.7455657
3.1990468342210603	7.4522924	2.7298887
3.216580450700272	7.2451353	2.691679
3.2341141425060416	7.1479225	2.67356
3.251647910049847	7.1034226	2.6652248
3.2691817537431813	7.0842814	2.6616313
3.286715673997555	7.080491	2.6609192
3.3042496712244938	6.9939175	2.6446016
3.32178374583554	6.9649696	2.639123
3.339317898242251	6.8438673	2.6160786
3.3568521288562034	6.746143	2.597334
3.3743864380889876	6.7100906	2.5903842
3.3919208263522127	6.7245064	2.5931654
3.4094552940575023	6.6577344	2.5802586
3.4269898416164972	6.606641	2.5703387
3.444524469440858	6.5111756	2.5517006
3.4620591779422587	6.4291153	2.53557
3.479593967532391	6.365082	2.5229113
3.4971288386229658	6.232485	2.4964945
3.5146637916257086	6.095608	2.4689286
3.5321988269523628	6.0462923	2.458921
3.5497339450146903	5.9978204	2.4490447
3.5672691462244708	5.9265738	2.4344556
3.5848044309934988	5.957287	2.4407554
3.60233979973359	6.1179414	2.4734473
3.619875252856575	6.1964674	2.4892704
3.6374107907743034	6.147914	2.4794986
3.6549464138986427	6.1461225	2.4791374
3.6724821226414788	6.1480284	2.4795218
3.690017917414714	6.144256	2.478761
3.7075537986302702	6.2554326	2.5010862
3.7250897667000857	6.2876787	2.5075245
3.7426258220361235	6.4314547	2.5360312
3.7601619650503553	6.7068477	2.5897582
3.777698196154779	7.184919	2.68047
3.7952345157614067	8.211877	2.8656373
3.8127709242822716	9.145743	3.024193
3.830307422129425	11.178313	3.3433986
3.847844009714936	30.018188	5.4788857
3.8653806874508954	97.48941	9.8736725
3.882917455749409	96.78252	9.8378105
3.900454315022606	96.64746	9.830944
3.917991265682631	41.192066	6.4181046
3.9355283081416506	10.724859	3.274883
3.9530654428118495	8.635702	2.9386566
3.970602670105433	7.4179106	2.7235842
3.9881399904346244	6.5269065	2.5547812
4.005677404211669	6.423205	2.5344043
4.023214911848827	6.3726187	2.5244045
4.0407525137583855	6.4273787	2.5352275
4.058290210352644	6.50167	2.549837
4.075828002043927	6.3549232	2.5208974
4.0933658892445814	6.2141724	2.492824
4.110903872366966	6.063941	2.462507
4.128441951823468	5.9138474	2.4318404
4.145980128026488	5.951346	2.439538
4.163518401388452	5.928761	2.4349048
4.181056772321807	6.0460377	2.4588692
4.1985952412390155	6.1106467	2.4719722
4.216133808552567	6.106362	2.4711053
4.233672474674966	6.143501	2.4786086
4.251211240018741	6.279848	2.5059626
4.268750104996445	6.4637575	2.542392
4.286289070020643	7.4019685	2.720656
4.303828135503928	9.034871	3.0058062
4.3213673018589125	29.41744	5.4237847
4.3389065694982305	90.59779	9.518288
4.356445938834537	165.6771	12.871561
4.3739854102805085	171.12456	13.081458
4.391524984248844	172.0159	13.115483
4.409064661152262	136.26382	11.67321
4.426604441403504	96.63251	9.830183
4.444144325415337	76.09112	8.723022
4.461684313600543	21.968042	4.687008
4.47922440637193	22.307253	4.7230554
4.496764604142329	20.45009	4.5221777
4.5143049073245916	18.42481	4.292413
4.531845316331589	16.252928	4.031492
4.5493858315762195	13.215976	3.6353784
4.566926453471405	10.972715	3.3125088
4.584467182430081	9.01742	3.0029018
4.602008018865218	7.978054	2.824545
4.619548963189798	7.280838	2.6983027
4.637090015816834	6.7801695	2.6038759
4.654631177159353	6.5612955	2.5615027
4.672172447630417	6.341943	2.5183215
4.689713827643102	6.1747527	2.484905
4.7072553176105085	5.9491315	2.439084
4.724796917945764	5.79407	2.4070873
4.742338629062015	5.712255	2.3900325
4.759880451372434	5.6172686	2.3700778
4.777422385290215	5.567799	2.3596184
4.794964431228581	5.5493965	2.3557158
4.812506589600768	5.55791	2.357522
4.830048860820047	5.616138	2.3698392
4.847591245299709	5.6093836	2.3684137
4.8651337434530655	5.601969	2.3668478
4.882676355693457	5.5948853	2.365351
4.900219082434242	5.5512576	2.3561108
4.917761924088813	5.4795904	2.3408525
4.935304881070575	5.403269	2.3244932
4.952847953792969	5.3180823	2.3060968
4.970391142669449	5.3400803	2.3108613
4.9879344481135055	5.3139095	2.3051918
5.005477870538642	5.3559985	2.314303
5.023021410358394	5.398114	2.3233843
5.040565067986324	5.4093986	2.3258114
5.05810884383601	5.4114323	2.3262486
5.075652738321066	5.416225	2.3272784
5.09319675185512	5.4146934	2.3269494
5.110740884851836	5.353844	2.3138375
5.128285137724894	5.33912	2.3106537
5.145829510888007	5.2370524	2.2884607
5.163374004754908	5.29437	2.3009498
5.1809186197393595	5.2749243	2.2967203
5.198463356255145	5.315887	2.3056207
5.216008214716077	5.322502	2.3070548
5.233553195535998	5.3124194	2.3048687
5.251098299128764	5.230937	2.2871242
5.268643525908272	5.20102	2.2805743
5.286188876288432	5.1686068	2.273457
5.3037343506831895	5.1663322	2.2729566
5.32127994950651	5.1803966	2.2760484
5.3388256731723915	5.1896772	2.2780864
5.356371522094851	5.210839	2.2827263
5.373917496687938	5.1692514	2.2735987
5.391463597365729	5.1236925	2.2635574
5.40900982454232	5.0426893	2.2455933
5.426556178631843	5.05355	2.2480102
5.444102660048449	5.0359893	2.244101
5.4616492692063225	5.1648417	2.2726288
5.479196006519669	5.2378283	2.2886302
5.496742872402727	5.2660084	2.2947786
5.514289867269756	5.1907234	2.278316
5.531836991535049	5.083669	2.2546995
5.549384245612924	5.0103626	2.238384
5.566931629917724	4.950022	2.2248645
5.584479144863822	4.938395	2.22225
5.6020267908656205	4.931641	2.2207298
5.619574568337545	4.920422	2.2182024
5.637122477694054	4.9470363	2.2241933
5.654670519349629	5.005839	2.237373
5.672218693718784	5.0088797	2.2380526
5.689767001216059	4.9756303	2.230612
5.707315442256021	4.957456	2.2265346
5.724864017253266	4.990586	2.2339618
5.7424127266224225	5.036464	2.244207
5.75996157077814	5.05958	2.249351
5.777510550135105	5.048663	2.246923
5.795059665108022	5.072891	2.252308
5.812608916111639	5.1358128	2.2662332
5.830158303560715	5.3374457	2.3102913
5.847707827870055	5.2929235	2.3006353
5.86525748945448	5.31056	2.3044653
5.8828072887288485	5.3536596	2.3137977
5.900357226108044	5.4133115	2.3266525
5.917907302006979	5.4705706	2.3389251
5.9354575168406	6.1071324	2.4712613
5.9530078710238765	6.6884336	2.5862007
5.970558364971812	7.2425647	2.6912014
5.988108999099438	7.5366707	2.7452998
6.005659773821818	8.038423	2.8352113
6.023210689554039	7.8635015	2.8041935
6.040761746711227	8.30757	2.8822856
6.058312945708531	7.7245126	2.7793007
6.075864286961132	7.3064466	2.703044
6.093415770884244	6.555598	2.5603902
6.1109673978931065	5.9888673	2.4472163
6.128519168402993	5.3887444	2.321367
6.146071082829204	5.3030634	2.302838
6.163623141587075	5.1437135	2.2679756
6.181175345091969	5.1010265	2.2585452
6.198727693759281	5.1075644	2.2599921
6.216280188004435	5.167787	2.2732768
6.233832828242885	5.1737304	2.2745836
6.251385614890126	5.1471624	2.268736
6.268938548361669	5.144279	2.2681003
6.286491629073067	5.07151	2.2520013
6.304044857439898	5.064159	2.2503686
6.321598233877777	4.9653587	2.2283084
6.339151758802344	4.9038563	2.2144651
6.356705432629277	4.9024706	2.2141523
6.37425925577428	4.8606586	2.2046902
6.391813228653095	4.880582	2.209204
6.409367351681486	4.872345	2.2073388
6.426921625275259	4.9073663	2.2152576
6.44447604985025	4.9526815	2.2254622
6.46203062582232	4.9908357	2.2340178
6.47958535360737	4.963034	2.2277868
6.497140233621328	4.992568	2.2344055
6.514695266280161	4.9414234	2.2229314
6.532250451999859	4.9835715	2.2323914
6.549805791196454	5.008605	2.2379913
6.567361284286002	4.968625	2.2290413
6.584916931684597	4.917463	2.2175353
6.602472733808367	4.917917	2.2176375
6.6200286910734665	4.933447	2.2211363
6.637584803896092	4.9018393	2.2140098
6.655141072692462	4.866912	2.2061079
6.672697497878842	4.8596115	2.2044528
6.690254079871514	4.856522	2.2037518
6.707810819086808	4.9364567	2.221814
6.725367715941078	4.906238	2.215003
6.742924770850719	4.8867435	2.210598
6.760481984232151	4.8800454	2.2090824
6.778039356501836	4.880533	2.209193
6.795596888076266	4.9462748	2.2240222
6.813154579371963	4.939426	2.222482
6.830712430805492	4.9495487	2.2247581
6.84827044279344	4.9392295	2.2224376
6.865828615752445	4.9057794	2.2148993
6.883386950099159	4.959129	2.22691
6.900945446250287	4.9595256	2.2269993
6.918504104622553	4.9525375	2.2254298
6.936062925632727	4.9581985	2.2267013
6.953621909697607	4.9661975	2.2284968
6.971181057234028	5.0362616	2.2441616
6.988740368658859	5.0676785	2.2511504
7.006299844389007	5.0670633	2.2510138
7.023859484841407	5.130723	2.26511
7.041419290433036	5.2228694	2.2853599
7.058979261580902	5.4295015	2.3301291
7.0765393987020495	5.5625052	2.3584964
7.094099702213559	5.9262276	2.4343843
7.111660172532549	6.18275	2.4865136
7.129220810076164	6.527329	2.5548637
7.146781615261595	7.142901	2.6726205
7.16434258850606	7.3552017	2.7120476
7.181903730226821	7.841035	2.8001847
7.1994650408411704	7.9017177	2.8109994
7.217026520766437	8.054251	2.8380013
7.234588170419983	8.326914	2.8856392
7.252149990219215	8.468079	2.9099963
7.269711980581568	8.398813	2.8980706
7.2872741419245175	8.152772	2.855306
7.304836474665574	7.697246	2.7743912
7.322398979222286	7.3655624	2.713957
7.339961656012233	7.1273127	2.6697028
7.357524505453039	6.785359	2.6048722
7.375087527962357	6.492764	2.5480902
7.392650723957886	6.1760373	2.4851635
7.410214093857353	5.8602705	2.4207995
7.427777638078528	5.647179	2.3763795
7.445341357039213	5.4703984	2.3388884
7.4629052511572525	5.3118563	2.3047464
7.480469320850524	5.217972	2.284288
7.498033566536948	5.21771	2.2842307
7.5155979886344735	5.155395	2.2705495
7.5331625875610975	5.1420937	2.2676184
7.550727363734844	5.079398	2.253752
7.568292317573788	5.029852	2.2427332
7.585857449496025	5.0682025	2.251267
7.603422759919705	5.0732737	2.2523928
7.620988249263007	5.1164904	2.261966
7.638553917944147	5.103166	2.259019
7.656119766381391	5.1078506	2.2600555
7.673685794993023	5.0955753	2.257338
7.691252004197388	5.0296044	2.242678
7.70881839441285	5.0373564	2.2444055
7.726384966057826	5.0666957	2.2509322
7.743951719550762	5.136743	2.2664385
7.761518655310149	5.18149	2.2762887
7.779085773754511	5.185098	2.277081
7.796653075302419	5.1650486	2.2726743
7.814220560372475	5.1268177	2.2642477
7.831788229383323	5.1133366	2.2612689
7.8493560827536495	5.1776714	2.2754498
7.866924120902174	5.226346	2.2861204
7.884492344247663	5.2501817	2.2913275
7.9020607532089135	5.2615438	2.2938056
7.919629348204771	5.258386	2.293117
7.937198129654115	5.271839	2.2960486
7.954767097975865	5.2697077	2.2955844
7.972336253588986	5.3110175	2.3045645
7.989905596912472	5.3481936	2.312616
8.007475128365371	5.386447	2.320872
8.025044848366756	5.4408255	2.3325577
8.042614757335754	5.5852227	2.3633075
8.060184855691523	5.622384	2.3711567
8.07775514385327	5.7329345	2.3943548
8.095325622240228	5.7779675	2.4037404
8.112896291271687	5.8056307	2.4094877
8.130467151366968	5.8551354	2.4197388
8.148038202945436	5.805172	2.4093924
8.165609446426497	5.8199816	2.412464
8.183180882229594	5.858062	2.4203434
8.200752510774217	5.858851	2.4205062
8.218324332479893	5.8355584	2.41569
8.235896347766193	5.8184104	2.4121382
8.253468557052724	5.8606052	2.4208686
8.27104096075914	5.8720737	2.4232361
8.288613559305137	5.934053	2.435991
8.306186353110448	5.948681	2.4389918
8.32375934259485	6.0690866	2.4635515
8.341332528178162	6.071705	2.464083
8.358905910280246	6.0478296	2.4592335
8.376479489321003	6.022551	2.4540887
8.394053265720377	6.1061378	2.47106
8.411627239898356	6.2249403	2.494983
8.42920141227497	6.3344264	2.5168285
8.44677578327029	6.2639813	2.5027947
8.464350353304427	6.1856456	2.4870958
8.48192512279754	6.0987315	2.469561
8.499500092169827	6.055804	2.4608543
8.51707526184153	6.132445	2.4763772
8.534650632232934	6.0870357	2.467192
8.552226203764365	6.0500045	2.4596758
8.569801976856192	6.0305023	2.455708
8.587377951928834	6.023692	2.4543211
8.60495412940274	6.0439954	2.458454
8.622530509698416	6.031253	2.4558609
8.6401070932364	6.176153	2.4851868
8.657683880437283	6.3136926	2.5127063
8.675260871721695	6.5062575	2.5507367
8.692838067510303	6.6549	2.5797093
8.710415468223834	6.830522	2.6135268
8.727993074283043	7.0078435	2.6472332
8.745570886108737	7.015476	2.6486745
8.763148904121765	7.0913644	2.6629615
8.78072712874302	7.1410227	2.672269
8.798305560393441	7.3179517	2.7051713
8.815884199494006	7.389213	2.7183106
8.833463046465745	7.5258164	2.7433221
8.851042101729728	7.736251	2.7814116
8.86862136570707	8.103134	2.8466005
8.886200838818924	8.266156	2.8750923
8.903780521486505	8.307795	2.8823245
8.921360414131055	8.351602	2.8899138
8.938940517173874	8.486139	2.9130979
8.956520831036297	8.668634	2.9442544
8.97410135613971	8.96404	2.9940007
8.99168209290554	9.022536	3.0037537
9.009263041755265	9.258678	3.0428076
9.026844203110405	9.567511	3.0931392
9.044425577392525	9.735204	3.1201289
9.062007165023239	9.83698	3.136396
9.079588966424197	9.989213	3.1605716
9.097170982017108	10.083061	3.1753836
9.11475321222372	11.082463	3.3290334
9.132335657465825	12.053474	3.4718113
9.149918318165264	12.206414	3.493768
9.167501194743924	12.664264	3.5586884
9.18508428762374	12.210331	3.4943285
9.202667597226693	12.197493	3.4924908
9.220251123974803	11.877579	3.4463863
9.237834868290143	11.609553	3.4072795
9.255418830594836	11.52283	3.3945293
9.273003011311046	11.043574	3.3231874
9.290587410860985	10.842645	3.292817
9.308172029666911	10.130589	3.1828585
9.32575686815113	9.880324	3.1432984
9.343341926735997	8.667628	2.9440837
9.360927205843916	8.5022955	2.9158697
9.378512705897327	8.322905	2.8849444
9.396098427318728	8.110735	2.8479352
9.413684370530664	7.9595246	2.8212628
9.431270535955722	7.724701	2.7793345
9.448856924016539	7.58716	2.7544801
9.466443535135806	7.4729996	2.7336788
9.484030369736251	7.4957824	2.7378426
9.501617428240658	7.5258694	2.743332
9.519204711071852	7.54953	2.7476408
9.536792218652714	7.564552	2.7503731
9.55437995140617	7.6606216	2.7677827
9.571967909755191	7.792266	2.7914631
9.589556094122802	7.8573008	2.8030877
9.60714450493207	7.8049893	2.793741
9.624733142606116	7.7362456	2.7814107
9.642322007568108	7.7560544	2.7849693
9.659911100241267	7.8367853	2.7994258
9.677500421048851	7.9294734	2.815932
9.695089970414175	8.00166	2.8287206
9.712679748760609	8.068664	2.8405392
9.730269756511557	8.072763	2.841261
9.747859994090492	8.089644	2.84423
9.765450461920915	8.02162	2.8322463
9.78304116042639	8.089569	2.8442168
9.800632090030527	8.136432	2.8524432
9.81822325115699	8.184057	2.860779
9.835814644229481	8.168035	2.8579774
9.853406269671762	8.187012	2.8612955
9.870998127907646	8.205396	2.8645062
9.888590219360985	8.243306	2.871116
9.906182544455698	8.178854	2.8598695
9.923775103615734	8.1335335	2.8519351
9.941367897265108	8.116665	2.8489761
9.958960925827878	8.103069	2.846589
9.97655418972816	8.133934	2.8520052
9.994147689390106	8.154363	2.8555844
10.011741425237934	8.167385	2.8578637
10.029335397695904	8.153821	2.8554897
10.04692960718833	8.147547	2.8543909
10.06452405413958	8.135459	2.8522725
10.082118738974064	8.150476	2.854904
10.099713662116246	8.135852	2.8523414
10.117308823990651	8.130371	2.8513806
10.134904225021844	8.121347	2.8497977
10.152499865634445	8.0927515	2.8447762
10.170095746253125	8.097783	2.8456604
10.18769186730261	8.074112	2.8414981
10.205288229207675	8.107532	2.8473728
10.222884832393145	8.009426	2.830093
10.2404816772839	7.9588623	2.8211455
10.258078764304868	7.8154507	2.7956128
10.275676093881035	7.8133492	2.7952368
10.293273666437438	7.863191	2.8041382
10.310871482399158	7.998757	2.8282073
10.32846954219134	8.054691	2.8380787
10.346067846239173	8.068604	2.840529
10.363666394967908	8.01387	2.830878
10.38126518880283	7.9009976	2.8108714
10.398864228169298	7.9176674	2.813835
10.416463513492713	7.9640284	2.822061
10.434063045198531	7.992103	2.827031
10.451662823712262	8.006097	2.8295047
10.469262849459467	8.036163	2.8348126
10.486863122865758	8.077604	2.8421125
10.504463644356806	8.079264	2.8424046
10.522064414358338	8.036666	2.8349013
10.539665433296118	7.9305577	2.8161247
10.557266701595987	7.888948	2.808727
10.574868219683818	7.8315983	2.7984993
10.592469987985552	7.712109	2.7770684
10.610072006927185	7.5864024	2.7543426
10.627674276934751	7.392158	2.7188523
10.64527679843435	7.172002	2.6780593
10.662879571852143	7.0696597	2.658883
10.680482597614331	6.965712	2.6392636
10.698085876147173	6.8671713	2.620529
10.715689407876988	6.7571106	2.5994444
10.733293193230146	6.6577163	2.580255
10.750897232633072	6.582766	2.5656903
10.76850152651225	6.551161	2.5595236
10.786106075294207	6.5008674	2.5496798
10.803710879405534	6.4184723	2.5334704
10.821315939272877	6.342369	2.5184062
10.83892125532294	6.281908	2.5063734
10.856526827982472	6.210132	2.4920137
10.874132657678285	6.171379	2.484226
10.891738744837243	6.131413	2.476169
10.909345089886271	6.1244235	2.4747572
10.926951693252343	6.062212	2.462156
10.944558555362494	6.048476	2.459365
10.96216567664381	5.9615874	2.4416363
10.979773057523436	5.834871	2.4155476
10.997380698428573	5.7638025	2.4007921
11.014988599786477	5.666327	2.3804047
11.032596762024461	5.6228495	2.371255
11.050205185569892	5.585053	2.3632717
11.067813870850198	5.5703745	2.3601642
11.085422818292859	5.5486045	2.3555477
11.10303202832541	5.4549212	2.3355772
11.120641501375454	5.3752	2.3184478
11.138251237870636	5.264245	2.2943943
11.155861238238671	5.200149	2.2803836
11.173471502907317	5.1235886	2.2635345
11.191082032304402	5.0693426	2.2515202
11.208692826857805	5.0574446	2.2488763
11.226303886995465	4.967418	2.2287705
11.243915213145371	4.8496623	2.202195
11.261526805735578	4.7373495	2.1765454
11.279138665194196	4.7320824	2.175335
11.296750791949393	4.728278	2.1744604
11.314363186429393	4.724516	2.1735952
11.331975849062479	4.691524	2.1659927
11.34958878027699	4.6419744	2.154524
11.36720198050133	4.566644	2.1369708
11.384815450163948	4.535069	2.1295702
11.402429189693366	4.4709473	2.1144614
11.420043199518153	4.4148006	2.1011426
11.437657480066942	63.358772	7.959822
11.455272031768422	85.09686	9.224796
11.472886855051353	107.49028	10.367752
11.490501950344528	99.03345	9.951555
11.508117318076819	84.34128	9.183751
11.52573295867715	45.74439	6.7634597
11.543348872574514	4.072502	2.0180442
11.560965060197946	4.081313	2.020226
11.57858152197655	4.0377007	2.009403
11.59619825833949	3.962025	1.9904836
11.613815269715985	3.9221778	1.9804488
11.631432556535323	38.421932	6.1985426
11.649050119226837	83.01172	9.111076
11.666667958219929	93.412125	9.664995
11.68428607394406	107.63561	10.374759
11.701904466828756	82.46339	9.0809355
11.719523137303586	65.26704	8.078802
11.737142085798196	4.489767	2.118907
11.754761312742286	3.5707526	1.8896435
11.772380818565619	3.5727172	1.8901633
11.790000603698015	3.5723894	1.8900765
11.80762066856935	3.5929801	1.8955158
11.825241013609572	3.568453	1.889035
11.842861639248683	3.5362852	1.8805013
11.860482545916748	3.4790246	1.8652143
11.878103734043883	3.4263284	1.8510344
11.895725204060282	3.3987033	1.8435572
11.91334695639619	3.359074	1.8327777
11.930968991481919	3.3357313	1.8263985
11.948591309747824	3.3536346	1.8312931
11.966213911624347	3.3389363	1.8272756
11.98383679754198	3.3479974	1.8297534
12.001459967931268	3.3149452	1.8206991
12.019083423222835	3.2534504	1.8037324
12.036707163847352	3.201272	1.7892098
12.05433119023556	3.194855	1.7874157
12.071955502818259	3.2059386	1.7905135
12.089580102026313	3.191442	1.7864608
12.107204988290643	3.1664193	1.7794435
12.12483016204224	3.1313317	1.7695569
12.142455623712152	3.1175933	1.7656708
12.16008137373149	3.130488	1.7693185
12.177707412531431	3.1276853	1.7685263
12.19533374054321	3.1050959	1.7621282
12.212960358198126	3.0688782	1.7518214
12.230587265927545	2.9970317	1.7311937
12.248214464162889	2.965768	1.7221406
12.265841953335649	2.953208	1.71849
12.283469733877375	2.967175	1.722549
12.301097806219685	2.9348886	1.7131517
12.31872617079425	2.8920887	1.7006142
12.336354828032825	2.8913891	1.7004086
12.353983778367205	2.9156911	1.7075394
12.371613022229262	2.9075613	1.7051573
12.389242560050928	2.8776205	1.6963551
12.406872392264201	2.8388755	1.6848963
12.424502519301143	2.8171523	1.6784375
12.442132941593874	2.806305	1.675203
12.459763659574586	2.756022	1.660127
12.477394673675532	2.6980906	1.6425866
12.49502598432903	2.6718817	1.6345892
12.51265759196746	2.6948779	1.6416084
12.530289497023267	2.7382984	1.6547805
12.547921699928967	2.7377024	1.6546004
12.565554201117134	2.7454567	1.656942
12.583187001020404	2.747733	1.6576288
12.600820100071486	2.7700229	1.6643386
12.618453498703152	2.7691686	1.6640819
12.636087197348235	2.759061	1.6610422
12.65372119643964	2.757526	1.66058
12.671355496410326	2.766941	1.6634125
12.68899009769333	2.793473	1.6713686
12.706625000721749	2.8113713	1.6767144
12.724260205928752	2.8780165	1.6964718
12.741895713747551	2.914185	1.7070985
12.759531524611454	2.9675283	1.7226516
12.777167638953818	2.958131	1.7199218
12.794804057208072	2.9307382	1.7119399
12.812440779807702	2.9853773	1.7278244
12.830077807186271	3.15126	1.7751788
12.847715139777405	3.2131515	1.7925266
12.865352778014795	3.402912	1.8446983
12.882990722332197	3.5172489	1.875433
12.90062897316344	3.588985	1.8944616
12.918267530942412	3.6978288	1.922974
12.935906396103071	3.583992	1.8931434
12.953545569079449	3.7555077	1.9379132
12.971185050305628	3.5338027	1.8798412
12.988824840215775	3.495708	1.8696812
13.006464939244115	3.521852	1.8766598
13.024105347824943	3.4022446	1.8445175
13.041746066392617	3.499375	1.8706616
13.05938709538157	3.2668803	1.8074514
13.077028435226296	3.295856	1.8154492
13.094670086361363	3.1893673	1.78588
13.112312049221401	3.066248	1.7510705
13.129954324241112	2.9430141	1.7155216
13.147596911855258	2.7754228	1.6659601
13.165239812498685	2.7864702	1.6692723
13.182883026606293	2.7706876	1.6645383
13.200526554613058	2.7087228	1.6458198
13.218170396954017	2.689319	1.6399143
13.235814554064284	2.6752694	1.6356251
13.253459026379034	2.698552	1.642727
13.271103814333523	2.6960452	1.6419638
13.288748918363058	2.6834083	1.6381112
13.306394338903031	2.6499047	1.6278528
13.32404007638889	2.609396	1.6153625
13.341686131256164	2.6107326	1.6157762
13.359332503940449	2.6049922	1.6139988
13.376979194877402	2.6465232	1.6268139
13.394626204502751	2.705274	1.6447717
13.412273533252307	2.7406976	1.6555053
13.429921181561937	2.7341387	1.6535231
13.447569149867581	2.7387068	1.6549039
13.465217438605247	2.7471278	1.6574461
13.482866048211022	2.70259	1.6439556
13.500514979121052	2.7057223	1.644908
13.518164231771568	2.6273477	1.6209096
13.535813806598844	2.615369	1.6172103
13.553463704039254	2.5923026	1.610063
13.571113924529229	2.6027021	1.6132892
13.588764468505275	2.6324186	1.622473
13.606415336403956	2.6665916	1.6329702
13.624066528661917	2.7079175	1.6455752
13.641718045715882	2.7699099	1.6643046
13.659369888002635	2.8518517	1.6887426
13.67702205595903	2.921195	1.7091504
13.694674550021993	2.9487355	1.7171882
13.712327370628532	2.9702203	1.7234327
13.729980518215713	3.01772	1.7371585
13.747633993220681	3.1032205	1.761596
13.765287796080647	3.2035558	1.789848
13.7829419272329	3.2457657	1.8016008
13.800596387114801	3.2610278	1.8058317
13.818251176163775	3.2648118	1.806879
13.835906294817324	3.2985163	1.8161818
13.853561743513023	3.3285205	1.8244233
13.871217522688525	3.3834195	1.8394073
13.888873632781538	3.4134939	1.8475643
13.906530074229858	3.4013238	1.8442678
13.92418684747135	3.3877285	1.8405783
13.941843952943948	3.3748531	1.8370774
13.959501391085665	3.403609	1.8448873
13.977159162334578	3.3865757	1.8402652
13.994817267128846	3.3392675	1.8273662
14.012475705906693	3.2137067	1.7926815
14.030134479106424	3.1639755	1.7787567
14.047793587166414	3.1125	1.7642279
14.065453030525108	3.0748866	1.7535354
14.083112809621026	2.997303	1.7312721
14.100772924892766	2.920058	1.7088177
14.118433376778997	2.8657134	1.6928418
14.136094165718458	2.8150406	1.6778083
14.153755292149969	2.7461307	1.6571454
14.171416756512416	2.7024653	1.6439177
14.189078559244768	2.637041	1.6238968
14.20674070078606	2.590208	1.6094123
14.224403181575408	2.5146325	1.5857593
14.242066002051999	2.4629283	1.5693719
14.259729162655093	2.4344482	1.5602719
14.277392663824022	2.4099154	1.5523902
14.295056505998208	2.3992941	1.5489655
14.312720689617128	2.3973331	1.5483323
14.330385215120348	2.4110084	1.5527422
14.348050082947497	2.3906057	1.5461583
14.3657152935383	2.3540769	1.5343001
14.383380847332528	2.3395977	1.5295744
14.401046744770051	2.3521843	1.5336833
14.418712986290798	2.3361304	1.5284405
14.436379572334793	2.3339808	1.5277371
14.454046503342123	2.3226745	1.5240324
14.471713779752946	2.3246617	1.5246842
14.489381402007504	2.3457422	1.5315816
14.507049370546113	2.3710368	1.5398171
14.524717685809168	2.3723307	1.5402372
14.542386348237134	2.3530223	1.5339564
14.560055358270553	2.362467	1.5370319
14.577724716350051	2.4263017	1.557659
14.595394422916325	2.467538	1.5708399
14.61306447841015	2.5194855	1.5872887
14.63073488327237	2.496191	1.5799339
14.648405637943917	2.489242	1.5777332
14.6660767428658	2.450606	1.5654411
14.683748198479094	2.4671264	1.5707089
14.701420005224954	2.4996572	1.5810304
14.719092163544628	2.563756	1.6011733
14.73676467387942	2.6038702	1.6136512
14.754437536670727	2.6537097	1.629021
14.772110752360014	2.6507962	1.6281266
14.78978432138882	2.653685	1.6290135
14.807458244198777	2.6612744	1.6313413
14.82513252123159	2.6256895	1.6203979
14.842807152929028	2.6627662	1.6317985
14.860482139732962	2.6507027	1.6280979
14.87815748208531	2.6515658	1.6283629
14.8958331804281	2.6543398	1.6292145
14.91350923520342	2.6235921	1.6197506
14.931185646853438	2.642387	1.625542
14.948862415820408	2.6316173	1.622226
14.966539542546656	2.6718333	1.6345743
14.98421702747459	2.652288	1.6285846
15.001894871046696	2.6564615	1.6298655
15.019573073705542	2.6312065	1.6220994
15.037251635893766	2.6190515	1.6183484
15.054930558054092	2.6198988	1.6186101
15.072609840629323	2.65178	1.6284287
15.090289484062351	2.7512443	1.6586875
15.107969488796124	2.8983994	1.7024686
15.125649855273691	3.071854	1.7526705
15.14333058393817	3.4438612	1.8557643
15.161011675232768	4.040745	2.0101604
15.17869312960076	4.7146907	2.1713338
15.196374947485506	5.3995304	2.323689
15.214057129330447	6.689827	2.58647
15.231739675579114	8.8710165	2.9784253
15.249422586675102	13.491406	3.673065
15.267105863062092	17.99427	4.2419653
15.284789505183847	25.062408	5.006237
15.302473513484218	29.983997	5.4757648
15.320157888407127	34.218674	5.849673
15.337842630396578	33.144066	5.757088
15.355527739896656	30.246078	5.4996433
15.37321321735153	23.608624	4.8588705
15.39089906320545	16.110434	4.0137806
15.408585277902748	10.358544	3.2184691
15.42627186188783	6.357923	2.5214922
15.443958815605198	4.5533	2.1338463
15.461646139499424	3.7597775	1.9390146
15.479333834015168	3.3557355	1.8318667
15.497021899597165	3.0648158	1.7506615
15.514710336690234	2.8265254	1.6812273
15.53239914573928	2.6692302	1.6337779
15.550088327189297	2.5878277	1.6086726
15.567777881485336	2.544203	1.5950558
15.58546780907256	2.513941	1.5855412
15.6031581103962	2.4774811	1.5740017
15.620848785901568	2.466564	1.5705298
15.638539836034063	2.4554396	1.5669842
15.656231261239173	2.445984	1.5639641
15.673923061962451	2.4239764	1.5569124
15.691615238649552	2.4216416	1.5561625
15.709307791746202	2.3969421	1.5482061
15.727000721698221	2.3716152	1.540005
15.744694028951498	2.3814564	1.5431968
15.76238771395202	2.3826911	1.5435969
15.780081777145844	2.4031665	1.550215
15.797776218979125	2.4003885	1.5493187
15.815471039898094	2.4122467	1.5531409
15.833166240349064	2.3996902	1.5490934
15.850861820778437	2.413041	1.5533966
15.868557781632699	2.393249	1.5470129
15.886254123358412	2.4274082	1.5580142
15.903950846402232	2.4350708	1.5604713
15.921647951210897	2.4225497	1.5564542
15.939345438231225	2.4685273	1.5711547
15.957043307910133	2.5160043	1.5861918
15.974741560694602	2.547189	1.5959915
15.992440197031714	2.5087156	1.5838926
16.01013921736862	2.4674585	1.5708146
16.02783862215259	2.4595225	1.5682865
16.045538411830933	2.4766912	1.5737507
16.06323858685107	2.4785905	1.5743539
16.080939147660512	2.4222546	1.5563594
16.09864009470684	2.4206283	1.5558368
16.11634142843774	2.411503	1.5529015
16.134043149300954	2.4404297	1.5621874
16.15174525774433	2.4318013	1.5594234
16.169447754215817	2.410736	1.5526545
16.18715063916342	2.4239132	1.5568922
16.204853913035244	2.4326057	1.5596813
16.222557576279478	2.4340425	1.5601418
16.240261629344403	22.39919	4.7327785
16.257966072678386	42.943283	6.5531125
16.275670906729868	38.06176	6.169421
16.293376131947387	2.497322	1.5802917
16.31108174877957	2.497583	1.5803742
16.328787757675133	2.5331445	1.5915855
16.34649415908287	2.530877	1.5908731
16.364200953451657	2.569471	1.6029569
16.38190814123048	2.6263127	1.6205902
16.39961572286839	2.6487613	1.6275015
16.41732369881455	2.653604	1.6289886
16.43503206951817	2.6779382	1.6364408
16.45274083542859	2.7505412	1.6584755
16.47044999699522	2.8030298	1.6742251
16.488159554667558	2.8584776	1.6907033
16.505869508895184	2.877322	1.696267
16.523579860127786	2.918298	1.7083026
16.541290608815117	2.9805129	1.7264162
16.559001755407035	3.0550013	1.7478561
16.57671330035348	3.1199331	1.7663332
16.59442524410448	3.2211306	1.7947508
16.61213758711015	3.3739343	1.8368273
16.629850329820705	3.4614744	1.8605038
16.647563472686436	3.4909441	1.8684069
16.665277016157724	3.4383793	1.8542868
16.682990960685053	3.4393668	1.854553
16.70070530671898	3.413425	1.8475456
16.718420054710155	3.4678254	1.8622098
16.736135205109335	3.57238	1.8900741
16.753850758367335	3.644964	1.9091789
16.771566714935087	3.7203753	1.9288274
16.789283075263597	3.754526	1.9376599
16.80699983980398	3.8114464	1.9522926
16.82471700900741	3.7947338	1.9480076
16.84243458332518	3.8134272	1.9527998
16.860152563208665	3.866206	1.966267
16.87787094910932	3.9597409	1.9899098
16.89558974147871	4.0348854	2.0087025
16.913308940768466	4.091577	2.0227647
16.931028547430333	4.144468	2.0357966
16.94874856191613	4.2103634	2.051917
16.966468984677785	4.2513204	2.061873
16.98418981616729	4.358288	2.0876513
17.00191105683676	4.393002	2.095949
17.019632707138374	4.4352045	2.1059926
17.03735476752442	4.4313674	2.1050813
17.05507723844728	4.4671984	2.1135747
17.072800120359403	4.5424557	2.1313038
17.090523413713353	4.6143966	2.1481147
17.108247118961785	4.657786	2.1581905
17.125971236557437	4.643023	2.1547675
17.143695766953133	4.5848937	2.1412365
17.161420710601806	4.5763745	2.1392462
17.179146067956477	4.577998	2.1396258
17.19687183947025	4.585327	2.1413376
17.21459802559634	4.620583	2.1495543
17.232324626788028	4.636302	2.1532073
17.25005164349871	4.5744147	2.1387882
17.267779076181863	4.569626	2.1376684
17.285506925291074	4.578737	2.1397984
17.30323519127999	4.5964956	2.143944
17.320963874602384	4.5236096	2.126878
17.33869297571211	4.4962583	2.1204383
17.356422495063114	4.510034	2.1236842
17.37415243310944	4.4660773	2.1133096
17.391882790305218	4.4130974	2.1007373
17.40961356710468	4.391258	2.095533
17.42734476396215	4.448335	2.1091077
17.445076381332044	4.595074	2.1436124
17.462808419668868	4.6496863	2.1563132
17.48054087942723	4.7238655	2.1734455
17.498273761061835	4.788589	2.1882844
17.51600706502747	5.102399	2.258849
17.533740791779024	5.732777	2.394322
17.551474941771485	6.6994	2.58832
17.56920951545993	8.6507015	2.9412074
17.586944513299528	9.86878	3.1414614
17.60467993574556	12.748402	3.5704904
17.622415783253373	15.497855	3.9367316
17.64015205627843	18.281206	4.275653
17.657888755276293	20.627642	4.541766
17.675625880702604	22.171192	4.7086296
17.69336343301311	20.676952	4.5471916
17.71110141266366	18.474318	4.2981763
17.728839820110178	15.723001	3.9652238
17.746578655808705	12.589871	3.5482209
17.764317920215372	10.430558	3.2296374
17.7820576137864	8.723654	2.9535832
17.79979773697811	7.3257885	2.7066195
17.81753829024692	5.9832215	2.4460626
17.835279274049356	5.155021	2.2704673
17.85302068884201	4.414292	2.1010215
17.870762535081607	3.9829285	1.9957275
17.888504813224934	3.812309	1.9525135
17.90624752372891	3.7356882	1.9327929
17.923990667050536	3.6755433	1.9171706
17.941734243646895	3.5540926	1.8852302
17.959478253975185	3.4843223	1.8666339
17.9772226984927	3.468494	1.8623893
17.994967577656833	3.4777443	1.8648711
18.01271289192506	3.4404938	1.8548568
18.030458641754965	3.329341	1.8246481
18.04820482760425	3.2813773	1.8114573
18.06595144993067	3.2894127	1.8136739
18.083698509192125	3.3015568	1.8170186
18.101446005846576	3.2567651	1.804651
18.119193940352105	3.2020566	1.7894292
18.136942313166887	3.153966	1.7759409
18.1546911247492	3.1089966	1.7632347
18.1724403755574	3.055624	1.7480344
18.19019006604997	3.0428772	1.7443845
18.207940196685467	3.0617511	1.749786
18.225690767922575	3.0520003	1.7469975
18.243441780220046	3.0187798	1.7374636
18.261193234036764	2.9937677	1.7302507
18.278945129831676	3.0236676	1.7388697
18.29669746806386	3.0706592	1.7523296
18.314450249192483	3.0742757	1.7533612
18.3322034736768	3.0519667	1.7469879
18.349957141976184	3.0191205	1.7375616
18.3677112545501	3.0196753	1.7377213
18.385465811858108	3.0229173	1.7386539
18.403220814359884	3.0388963	1.7432431
18.420976262515172	3.0696135	1.7520312
18.43873215678387	3.1120043	1.7640873
18.456488497625923	3.1290467	1.7689111
18.474245285501407	3.1994367	1.7886969
18.492002520870486	3.2405348	1.8001485
18.50976020419343	3.3169217	1.8212419
18.527518335930615	3.5639272	1.8878367
18.545276916542516	4.066554	2.0165699
18.563035946489688	4.209958	2.0518181
18.580795426232832	4.742731	2.1777813
18.598555356232698	4.6997943	2.1679008
18.616315736950185	4.971881	2.2297714
18.63407656884626	4.603311	2.1455328
18.65183785238201	4.800796	2.191072
18.669599588018617	4.630692	2.1519043
18.68736177621737	4.548936	2.1328235
18.705124417439652	4.496554	2.120508
18.72288751214696	4.3293147	2.0807006
18.740651060800886	4.530318	2.1284542
18.758415063863115	4.2729015	2.0670998
18.77617952179546	4.415357	2.1012752
18.793944435059814	4.134517	2.0333512
18.811709804118184	4.1194725	2.0296483
18.829475629432675	4.116662	2.028956
18.8472419114655	4.0056486	2.0014117
18.86500865067897	4.118035	2.0292943
18.88277584753551	3.7543294	1.9376092
18.90054350249763	3.719751	1.9286655
18.918311616027957	3.4125292	1.8473033
18.936080188589226	3.3179543	1.8215252
18.953849220644265	3.014428	1.7362108
18.971618712656007	2.8638518	1.6922919
18.9893886650875	2.7951543	1.6718715
19.007159078401887	7.9961934	2.827754
19.024929953062408	32.839542	5.7305794
19.042701289532435	32.76255	5.723858
19.060473088275405	25.304031	5.030311
19.07824534975489	2.6041696	1.613744
19.096018074434568	2.621987	1.6192551
19.113791262778197	2.623121	1.6196052
19.13156491524966	2.5981696	1.6118839
19.149339032312945	2.577765	1.605542
19.167113614432136	2.569961	1.6031098
19.184888662071433	2.5651557	1.6016103
19.202664175695123	2.556179	1.5988055
19.220440155767623	2.5266442	1.5895422
19.238216602753447	2.5222936	1.588173
19.2559935171172	2.5068026	1.5832886
19.27377089932361	2.5333922	1.5916634
19.291548749837514	2.552872	1.5977709
19.309327069123835	2.5614965	1.6004676
19.32710585764763	2.5247412	1.5889434
19.344885115874032	2.5180485	1.586836
19.362664844268313	2.5023007	1.5818663
19.380445043295822	2.5029447	1.5820698
19.39822571342203	2.4876034	1.5772138
19.41600685511252	2.4747531	1.5731348
19.43378846883297	2.4654183	1.570165
19.451570555049173	2.4607754	1.5686859
19.469353114227037	2.463967	1.5697029
19.48713614683254	2.45998	1.5684323
19.50491965333182	2.4701045	1.5716566
19.52270363419109	2.4879482	1.5773231
19.540488089876686	2.461365	1.5688738
19.55827302085503	2.4486692	1.5648224
19.576058427592674	2.4483285	1.5647136
19.593844310556282	2.4409657	1.562359
19.611630670212598	2.4137423	1.5536224
19.629417507028506	2.4249582	1.5572277
19.64720482147098	2.4481714	1.5646633
19.6649926140071	2.5154436	1.586015
19.682780885104084	2.5488343	1.596507
19.70056963522921	2.5520055	1.5974997
19.718358864849908	2.522346	1.5881895
19.7361485744337	2.4931765	1.5789796
19.753938764448215	2.4891186	1.577694
19.771729435361202	2.4988024	1.5807601
19.789520587640506	2.4981441	1.5805519
19.807312221754092	2.4869437	1.5770047
19.825104338170043	2.4378588	1.5613644
19.842896937356517	2.4381988	1.5614733
19.860690019781824	2.401441	1.5496584
19.87848358591436	2.4511938	1.5656289
19.896277636222635	2.4519198	1.5658607
19.914072171175278	2.479682	1.5747006
19.931867191241015	2.4657118	1.5702585
19.94966269688869	2.4846873	1.576289
19.967458688587264	2.5019448	1.5817537
19.985255166805807	2.4612753	1.5688453
20.00305213201348	2.4024982	1.5499995
20.020849584679578	2.412129	1.553103
20.038647525273507	2.4517112	1.5657941
20.05644595426477	2.4368348	1.5610365
20.07424487212299	2.4419405	1.562671
20.092044279317903	2.4353664	1.5605661
20.109844176319353	2.402495	1.5499984
20.127644563597304	2.3593335	1.5360122
20.145445441621817	2.362277	1.5369701
20.16324681086307	2.3871408	1.5450375
20.181048671791373	2.401722	1.549749
20.198851024877122	2.3982053	1.548614
20.216653870590836	2.4098957	1.5523839
20.234457209403146	2.3851004	1.544377
20.252261041784802	2.356794	1.5351853
20.270065368206662	2.340235	1.5297827
20.287870189139685	2.3506043	1.5331681
20.305675505054968	2.3521168	1.5336612
20.323481316423702	2.3386643	1.5292692
20.341287623717207	2.3056831	1.5184476
20.359094427406884	2.2856407	1.5118335
20.376901727964288	2.307055	1.5188993
20.39470952586107	2.3383427	1.5291641
20.41251782156899	2.319372	1.5229484
20.430326615559935	2.2828686	1.5109165
20.448135908305886	2.2777863	1.5092337
20.465945700278965	2.3061972	1.5186169
20.483755991951384	2.3005903	1.5167696
20.50156678379548	2.336593	1.5285918
20.519378076283708	2.3521569	1.5336744
20.537189869888635	2.3518524	1.533575
20.55500216508294	2.312939	1.5208349
20.572814962339415	2.3061306	1.518595
20.59062826213098	2.3030112	1.5175675
20.60844206493066	2.3382826	1.5291444
20.626256371211593	2.350906	1.5332664
20.644071181447032	2.3519423	1.5336044
20.66188649611036	2.3289182	1.5260794
20.67970231567506	2.3399978	1.5297052
20.697518640614742	2.3101263	1.51991
20.715335471403122	2.2772944	1.5090708
20.73315280851404	2.2672663	1.5057445
20.750970652421447	2.2625704	1.5041842
20.768789003599412	2.273933	1.5079565
20.786607862522136	2.2791862	1.5096974
20.8044272296639	2.2620971	1.504027
20.82224710549913	2.2430809	1.4976919
20.84006749050237	2.2384953	1.4961601
20.857888385148268	3.7990277	1.9491094
20.8757097899116	45.922558	6.7766185
20.893531705267254	64.78465	8.048891
20.911354131690224	83.80211	9.154349
20.92917706965566	69.04447	8.3093
20.94700051963877	50.118336	7.0794306
20.96482448211493	29.377724	5.420122
20.982648957559622	4.1280017	2.0317485
21.00047394644843	2.2286942	1.4928812
21.01829944925707	2.25157	1.5005232
21.036125466461375	2.2569587	1.5023178
21.053951998537297	2.2300503	1.4933352
21.071779045960906	2.2073252	1.4857069
21.089606609208378	2.1875658	1.4790422
21.10743468875603	2.1936998	1.4811144
21.12526328508028	2.1951218	1.4815943
21.143092398657675	2.2173119	1.4890641
21.16092202996488	2.2028224	1.4841908
21.17875217947867	2.1850345	1.4781862
21.19658284767596	2.1576345	1.4688889
21.21441403503377	2.1588058	1.4692875
21.232245742029225	2.1363559	1.4616278
21.2500779691396	2.1473823	1.465395
21.26791071684227	2.1597657	1.4696141
21.28574398561475	2.1640022	1.4710548
21.30357777593465	2.1202674	1.4561138
21.321412088279704	2.1095212	1.452419
21.339246923127792	2.1382306	1.462269
21.357082280956888	2.1500862	1.4663172
21.3749181622451	2.1437187	1.4641443
21.392754567470647	2.0817726	1.4428349
21.41059149711187	2.0935607	1.4469142
21.42842895164726	2.111114	1.4529673
21.446266931555378	2.1099286	1.4525594
21.464105437314945	2.0805593	1.4424144
21.481944469404798	2.0633497	1.4364364
21.49978402830388	2.0618808	1.4359251
21.51762411449127	2.0524528	1.4326384
21.53546472844617	2.0420518	1.4290038
21.553305870647876	2.0284505	1.4242368
21.571147541575865	2.0009325	1.4145432
21.58898974170967	1.993383	1.4118721
21.60683247152899	2.0032341	1.4153565
21.62467573151363	2.0432749	1.4294317
21.642519522143523	2.062212	1.4360404
21.660363843898722	2.0605261	1.4354533
21.6782086972594	2.0377033	1.4274814
21.696054082705864	2.0566843	1.4341145
21.713900000718535	2.0641246	1.4367062
21.73174645177795	2.0332694	1.4259275
21.749593436364794	1.9952952	1.4125491
21.767440954959845	1.9988282	1.4137992
21.785289008044032	2.0070772	1.4167135
21.803137596098388	1.9958557	1.4127476
21.820986719604086	1.9887955	1.4102466
21.838836379042412	1.9731159	1.4046764
21.85668657489478	1.9912603	1.4111202
21.87453730764273	1.9658461	1.4020864
21.892388577767914	2.0013149	1.4146783
21.91024038575213	1.9988977	1.4138237
21.928092732077285	1.9997449	1.4141234
21.945945617225426	1.9981356	1.4135542
21.963799041678694	2.015627	1.4197278
21.981653005919398	31.330273	5.5973454
21.999507510429943	78.10815	8.837881
22.01736255569286	73.01709	8.545004
22.035218142190818	4.1312356	2.0325441
22.05307427040661	1.9534527	1.3976598
22.07093094082315	1.9922521	1.4114716
22.088788153923474	1.9846835	1.408788
22.106645910190746	2.0116086	1.4183118
22.12450421010827	1.9986659	1.4137418
22.142363054159464	1.9822941	1.4079397
22.16022244282787	1.9600108	1.4000038
22.178082376597164	1.9492631	1.3961601
22.195942855951145	1.9461261	1.3950362
22.213803881373742	1.9356422	1.3912736
22.231665453349002	1.969925	1.4035401
22.24952757236111	2.0229394	1.4223008
22.26739023889438	2.0244038	1.4228154
22.28525345343323	1.9829527	1.4081736
22.30311721646225	1.9468514	1.3952962
22.320981528466113	1.948599	1.3959223
22.33884638992964	1.9487803	1.3959873
22.356711801337788	1.9482841	1.3958095
22.37457776317561	1.9162192	1.3842757
22.392444275928337	1.9577868	1.3992094
22.410311340081282	1.9831126	1.4082303
22.428178956119904	1.9719752	1.4042703
22.446047124529805	1.9046303	1.3800834
22.46391584579669	1.8764248	1.3698266
22.481785120406414	1.8724546	1.3683766
22.49965494884496	1.8793339	1.370888
22.51752533159841	1.867426	1.3665379
22.53539626915302	1.9278976	1.3884875
22.553267761995137	1.9373144	1.3918744
22.571139810611264	1.932011	1.389968
22.589012415488025	1.9089178	1.3816359
22.60688557711216	1.9093038	1.3817756
22.624759295970566	1.9291614	1.3889426
22.642633572550263	1.9469637	1.3953364
22.660508407338362	1.9586684	1.3995243
22.67838380082217	1.9296452	1.3891166
22.696259753489077	1.9071083	1.380981
22.714136265826614	1.9023614	1.3792611
22.73201333832246	1.8948824	1.3765473
22.74989097146439	1.9032483	1.3795826
22.76776916574035	1.908317	1.3814185
22.785647921638393	1.9415636	1.3934001
22.803527239646712	1.9474831	1.3955225
22.82140712025363	1.9434322	1.3940704
22.839287563947593	1.9199473	1.3856217
22.85716857121719	1.89659	1.3771673
22.875050142551135	1.8827147	1.3721205
22.892932278438277	1.8602922	1.3639253
22.910814979367604	1.8762655	1.3697684
22.928698245828222	1.912387	1.3828908
22.946582078309387	1.898874	1.3779964
22.96446647730047	1.8568035	1.3626457
22.98235144329098	1.8410834	1.3568653
23.000236976770562	1.862466	1.3647219
23.018123078229	1.89258	1.3757107
23.03600974815619	1.9093096	1.3817778
23.053896987042194	1.9152368	1.3839208
23.071784795377173	1.9160662	1.3842204
23.08967317365145	1.9286087	1.3887435
23.10756212235546	1.9497297	1.3963273
23.125451641979787	1.921343	1.3861252
23.143341733015134	1.9146056	1.3836927
23.161232395952357	1.9259605	1.3877898
23.179123631282426	1.9374285	1.3919154
23.197015439496468	1.9510962	1.3968165
23.214907821085717	1.9457573	1.394904
23.23280077654157	1.9542516	1.3979455
23.250694306355538	1.9345322	1.3908746
23.268588411019277	1.9055973	1.3804338
23.28648309102458	1.8935115	1.3760493
23.304378346863356	1.9098488	1.3819728
23.322274179027676	1.9072491	1.3810319
23.340170588009723	1.9142156	1.3835518
23.358067574301852	1.9039094	1.3798223
23.37596513839651	1.9459361	1.3949682
23.39386328078629	1.9393762	1.3926148
23.411762001963947	1.922865	1.386674
23.429661302422353	1.9227815	1.386644
23.4475611826545	1.9115245	1.382579
23.46546164315356	1.8572947	1.362826
23.48336268441279	1.8839037	1.3725537
23.501264306925638	1.9236393	1.3869532
23.51916651118564	1.9609505	1.4003394
23.537069297686497	1.9472848	1.3954514
23.554972666922037	1.9599957	1.3999984
23.57287661938623	1.9133264	1.3832304
23.59078115557318	1.9523779	1.3972752
23.608686275977128	1.9110528	1.3824084
23.62659198109246	1.9087396	1.3815714
23.6444982714137	1.8906937	1.3750249
23.66240514743549	1.9283727	1.3886586
23.68031260965263	1.888459	1.3742121
23.698220658560068	1.8561267	1.3623974
23.716129294652845	1.8137593	1.3467588
23.7340385184262	1.8578237	1.3630201
23.75194833037546	1.8832821	1.3723272
23.769858730996123	1.9189602	1.3852654
23.78776972078382	1.8975608	1.3775198
23.80568130023431	1.9434664	1.3940827
23.823593469843495	1.9372448	1.3918494
23.841506230107424	1.9332836	1.3904257
23.859419581522275	1.9142022	1.383547
23.87733352458438	1.9143264	1.3835919
23.89524805979019	1.9067866	1.3808644
23.913163187636318	1.9258335	1.3877441
23.931078908619508	1.96	1.4
23.948995223236633	1.957599	1.3991423
23.966912131984735	1.9772068	1.4061319
23.98482963536096	1.9698929	1.4035287
24.002747733862616	1.9870704	1.4096348
24.020666427987155	2.0095289	1.4175786
24.038585718232156	2.0091374	1.4174404
24.056505605095353	2.0005171	1.4143964
24.074426089074617	2.0332763	1.42593
24.092347170667946	2.0664022	1.4374986
24.110268850373515	2.0736878	1.4400305
24.128191128689586	2.0732307	1.4398718
24.146114006114626	2.032729	1.425738
24.164037483147187	2.0616841	1.4358566
24.181961560286005	2.055367	1.4336551
24.199886238029926	2.0411644	1.4286933
24.21781151687797	2.0571313	1.4342703
24.235737397329274	2.0643325	1.4367785
24.253663879883135	2.0945725	1.4472638
24.271590965038975	2.0904403	1.4458355
24.289518653296376	2.0817735	1.4428352
24.30744694515505	2.032048	1.4254992
24.32537584111486	2.0151346	1.4195544
24.34330534167581	2.032652	1.425711
24.361235447338046	2.034677	1.426421
24.379166158601876	2.0122006	1.4185206
24.39709747596772	1.9658504	1.4020878
24.41502939993615	2.002647	1.4151491
24.432961931007917	2.018069	1.4205875
24.450895069683856	2.0157921	1.419786
24.468828816465	1.9436303	1.3941414
24.4867631718525	1.9383416	1.3922434
24.504698136347656	1.9493456	1.3961897
24.52263371045192	1.9568946	1.3988905
24.540569894666874	1.9487698	1.3959835
24.558506689494266	1.9192418	1.385367
24.57644409543597	1.8979398	1.3776574
24.594382112994012	1.9035285	1.3796842
24.61232074267057	1.910956	1.3823733
24.630259984967953	1.928789	1.3888085
24.64819984038863	1.9078194	1.3812383
24.66614030943522	1.9225739	1.3865691
24.684081392610462	1.9603236	1.4001156
24.702023090417274	1.988801	1.4102485
24.7199654033587	1.9508128	1.396715
24.737908331937927	1.9438597	1.3942237
24.755851876658305	1.9766619	1.4059381
24.773796038023324	2.0103743	1.4178767
24.79174081653661	2.01401	1.4191582
24.809686212701962	2.006071	1.4163584
24.827632227023294	2.0386915	1.4278276
24.8455788600047	2.094339	1.4471831
24.8635261121504	2.1157699	1.4545686
24.88147398396475	2.1157794	1.4545718
24.899422475952303	2.1041946	1.4505843
24.917371588617698	2.1040459	1.4505329
24.935321322465768	2.1263413	1.458198
24.953271678001478	2.2520435	1.500681
24.97122265572994	2.4556587	1.5670542
24.989174256156414	2.8135533	1.677365
25.00712647978632	3.3353646	1.826298
25.02507932712521	4.321367	2.0787897
25.043032798678798	5.850482	2.418777
25.060986894952933	7.5777564	2.7527726
25.078941616453637	9.08141	3.013538
25.096896963687055	9.995447	3.1615577
25.114852937159508	10.619093	3.258695
25.132809537377444	10.390804	3.2234771
25.150766764847468	9.652541	3.106854
25.168724620076347	8.293821	2.8798995
25.186683103570985	7.050359	2.6552513
25.204642215838426	5.765054	2.4010527
25.222601957385894	4.6828294	2.1639845
25.24056232872074	3.680702	1.9185156
25.25852333035048	2.9363236	1.7135705
25.276484962782778	2.4849868	1.5763841
25.294447226525435	2.2744026	1.5081123
25.312410122086423	2.1138408	1.4539053
25.330373649973843	2.032677	1.4257197
25.348337810695988	1.9981942	1.4135749
25.366302604761245	1.9696563	1.4034444
25.384268032678207	1.9031456	1.3795455
25.40223409495558	1.8814132	1.3716462
25.420200792102257	1.9171677	1.3846183
25.438168124627246	1.9167902	1.3844819
25.45613609303974	1.8756204	1.369533
25.474104697849057	1.8719466	1.368191
25.492073939564698	1.8582312	1.3631696
25.510043818696285	1.8628887	1.3648767
25.528014335753614	1.8524365	1.3610425
25.54598549124664	1.8859888	1.3733131
25.56395728568544	1.8758032	1.3695997
25.58192971958028	1.8513553	1.3606452
25.59990279344156	1.841458	1.3570033
25.617876507779833	1.8581622	1.3631443
25.635850863105826	1.8358102	1.3549207
25.653825859930386	1.8197769	1.348991
25.671801498764548	1.8340932	1.354287
25.68977778011949	1.8330553	1.3539037
25.707754704506524	1.8472629	1.3591405
25.725732272437153	1.9010215	1.3787754
25.743710484423012	1.8485534	1.3596152
25.761689340975888	1.830617	1.3530029
25.77966884260774	1.8035961	1.3429803
25.797648989830662	1.8275908	1.3518841
25.815629783156922	1.863569	1.365126
25.83361122309895	1.8939488	1.3762081
25.85159331016929	1.8754696	1.3694779
25.869576044880695	1.8829601	1.3722099
25.887559427746034	1.835494	1.354804
25.90554345927836	1.8106037	1.3455868
25.92352813999086	1.8360089	1.354994
25.94151347039689	1.8168045	1.347889
25.959499451009965	1.7997549	1.3415494
25.97748608234374	1.8389021	1.3560612
25.995473364912062	1.8770943	1.3700709
26.013461299228904	1.8420019	1.3572037
26.03144988580839	1.7942555	1.3394983
26.04943912516483	1.7910241	1.3382915
26.067429017812675	1.8137486	1.3467548
26.085419564266537	1.8471593	1.3591024
26.103410765041186	1.8358294	1.3549278
26.12140262065155	1.8377441	1.3556342
26.139395131612723	1.8274326	1.3518257
26.157388298439948	1.8343525	1.3543828
26.17538212164861	1.8221365	1.3498653
26.193376601754295	1.798303	1.3410082
26.211371739272714	1.796349	1.3402795
26.229367534719746	1.8109274	1.345707
26.247363988611433	1.8413625	1.3569682
26.26536110146397	1.839715	1.3563609
26.283358873793727	1.8118732	1.3460584
26.301357306117204	1.7663928	1.3290571
26.319356398951104	1.7800881	1.3341994
26.33735615281224	1.7832111	1.3353692
26.35535656821762	1.787377	1.3369282
26.373357645684404	1.7803054	1.3342808
26.39135938572991	1.7714192	1.3309467
26.409361788871614	1.786584	1.3366315
26.427364855627165	1.8126855	1.3463601
26.445368586514352	1.8219314	1.3497894
26.46337298205115	1.8140574	1.3468695
26.48137804275568	1.826626	1.3515272
26.499383769146217	1.8536338	1.3614821
26.517390161741215	1.8472425	1.359133
26.53539722105928	1.8719103	1.3681778
26.553404947619182	1.8216307	1.349678
26.571413341939856	1.7856455	1.3362805
26.589422404540397	1.7947062	1.3396665
26.60743213594006	1.7868953	1.336748
26.62544253665827	1.7849706	1.336028
26.64345360721459	1.7962983	1.3402605
26.66146534812879	1.7802463	1.3342587
26.679477759920758	1.8570908	1.3627512
26.69749084311057	1.8720949	1.3682451
26.71550459821847	1.8539722	1.3616065
26.733519025764842	1.8137895	1.34677
26.751534126270258	1.8139514	1.3468301
26.769549900255434	1.8264499	1.3514621
26.787566348241267	1.7852504	1.3361326
26.80558347074881	1.7705668	1.3306265
26.823601268299267	1.7671666	1.3293482
26.841619741414036	1.7524877	1.3238156
26.85963889061465	1.7426239	1.3200848
26.877658716422832	1.7806687	1.334417
26.89567921936045	1.8049079	1.3434687
26.913700399949544	1.8132226	1.3465595
26.93172225871233	1.8195881	1.3489211
26.949744796171174	1.8683642	1.3668813
26.967768012848605	1.8961264	1.376999
26.98579190926733	1.8258526	1.3512411
27.003816485950225	1.7796154	1.3340223
27.021841743420318	1.7913922	1.338429
27.039867682200814	1.8229308	1.3501595
27.057894302815072	1.816314	1.3477069
27.07592160578664	1.8113148	1.345851
27.0939495916392	1.8396127	1.3563232
27.111978260896635	1.8115121	1.3459243
27.13000761408296	1.7693292	1.3301613
27.148037651722397	1.7429132	1.3201944
27.166068374339304	1.7698255	1.3303479
27.184099782458215	1.7986124	1.3411236
27.20213187660384	1.8246222	1.3507857
27.22016465730105	1.8492523	1.3598722
27.23819812507487	1.8386036	1.3559512
27.256232280450533	1.8100784	1.3453915
27.274267123953383	1.7573781	1.3256614
27.292302656108987	1.7476758	1.3219969
27.31033887744306	1.7818421	1.3348566
27.32837578848146	1.8322659	1.3536122
27.34641338975026	1.877694	1.3702898
27.364451681775673	1.8704357	1.3676387
27.382490665084074	1.8630313	1.3649291
27.400530340202046	1.8925488	1.3756994
27.41857070765629	1.850824	1.3604499
27.436611767973726	1.7480446	1.3221364
27.454653521681404	1.7394503	1.3188822
27.472695969306564	1.8062271	1.3439595
27.490739111376627	1.8324983	1.353698
27.508782948419153	1.8274993	1.3518503
27.526827480961902	1.818688	1.3485874
27.54487270953279	1.7998075	1.3415691
27.562918634659898	1.7919312	1.3386303
27.580965256871508	1.7814757	1.3347193
27.599012576696026	1.7583282	1.3260196
27.617060594662068	1.7433006	1.3203411
27.63510931129842	1.7767254	1.3329387
27.65315872713401	1.8317087	1.3534063
27.67120884269797	1.8570828	1.3627483
27.68925965851958	1.8130147	1.3464824
27.707311175128307	1.8160113	1.3475946
27.725363393053787	1.8275532	1.3518703
27.74341631282583	1.8465796	1.3588891
27.7614699349744	1.8687307	1.3670152
27.77952426002968	2.0340083	1.4261866
27.797579288521973	2.1125832	1.4534729
27.815635020981784	2.6158397	1.6173558
27.83369145793979	2.719868	1.6492022
27.85174859992682	2.5391846	1.5934819
27.869806447473923	2.3949134	1.5475508
27.887865001112267	2.089092	1.4453691
27.905924261373233	1.9628332	1.4010115
27.92398422878836	1.8495601	1.3599854
27.94204490388936	1.8286552	1.3522778
27.96010628720813	1.8653353	1.3657728
27.978168379276728	1.8684981	1.3669301
27.9962311806274	1.8569231	1.3626896
28.014294691792568	1.8630491	1.3649356
28.0323589133048	1.8654635	1.3658197
28.050423845696887	1.8489046	1.3597443
28.068489489501758	1.8666377	1.3662496
28.086555845252523	1.8774927	1.3702163
28.104622913482487	1.8516375	1.3607489
28.122690694725115	1.8342326	1.3543384
28.14075918951405	1.8610955	1.3642198
28.15882839838312	1.8783965	1.3705461
28.176898321866304	1.9040838	1.3798854
28.1949689604978	1.8977617	1.3775927
28.213040314811945	1.8811821	1.3715619
28.23111238534327	1.919233	1.3853638
28.249185172626493	1.9485675	1.395911
28.267258677196473	1.9270132	1.388169
28.285332899588294	1.8817378	1.3717645
28.303407840337172	1.8655089	1.3658364
28.321483499978545	1.8710169	1.3678511
28.33955987904799	1.9193397	1.3854023
28.357636978081285	1.9689138	1.4031799
28.37571479761439	1.9846066	1.4087607
28.393793338183425	2.0155468	1.4196995
28.41187260032469	2.0674593	1.4378662
28.429952584574686	2.0454652	1.4301976
28.448033291470065	2.017258	1.420302
28.46611472154769	1.9689279	1.4031849
28.484196875344566	2.0005794	1.4144183
28.502279753397914	2.0215669	1.4218181
28.52036335624511	2.0594218	1.4350686
28.538447684423716	2.0255039	1.423202
28.556532738471482	1.9717656	1.4041958
28.574618518926325	1.9420695	1.3935815
28.59270502632635	1.9400902	1.3928711
28.61079226120985	1.9866339	1.40948
28.628880224115274	2.062196	1.4360348
28.646968915581287	2.0777419	1.4414375
28.66505833614671	2.0779831	1.4415212
28.68314848635055	2.1314127	1.4599359
28.701239366732004	2.1374583	1.4620049
28.71933097783044	2.0664165	1.4375036
28.737423320185403	2.0719469	1.4394258
28.75551639433665	2.0859995	1.444299
28.773610200824074	2.1514928	1.4667968
28.791704740187793	2.1959512	1.4818742
28.80980001296809	2.139407	1.4626712
28.827896019705413	2.0936527	1.446946
28.845992760940433	2.078442	1.4416803
28.86409023721397	2.0896425	1.4455596
28.88218844906704	2.1465743	1.4651192
28.900287397040845	2.2839267	1.5112666
28.918387081676755	2.279869	1.5099236
28.936487503516343	2.1949756	1.481545
28.954588663101365	2.1876473	1.4790697
28.97269056097374	2.2142124	1.488023
28.990793197675597	2.2319045	1.493956
29.00889657374923	2.269386	1.5064481
29.027000689737125	2.3111625	1.5202508
29.04510554618196	2.370774	1.5397319
29.06321114362659	2.4233685	1.5567172
29.08131748261405	2.4342587	1.5602111
29.099424563687567	2.4396813	1.561948
29.11753238739057	2.4426599	1.5629011
29.13564095426663	2.484704	1.5762944
29.15375026485954	2.5642993	1.601343
29.171860319713275	2.6209104	1.6189226
29.18997111937199	2.683544	1.6381526
29.20808266438002	2.7457695	1.6570363
29.226194955281898	2.7537582	1.6594452
29.244307992622335	2.7726269	1.6651207
29.26242177694624	2.8683434	1.6936184
29.2805363087987	2.8966954	1.7019681
29.29865158872498	2.909076	1.7056013
29.316767617270557	2.9410737	1.7149559
29.334884394981064	2.9404736	1.7147809
29.353001922402367	2.946536	1.7165477
29.37112020008047	3.0135493	1.7359577
29.389239228561596	3.1493418	1.7746385
29.407359008392152	3.2697878	1.8082554
29.42547954011872	3.5476637	1.8835243
29.44360082428809	4.0830913	2.0206661
29.46172286144722	5.0186954	2.2402444
29.479845652143283	6.785579	2.6049144
29.497969196923606	9.504988	3.083016
29.516093496335728	13.290683	3.645639
29.5342185509274	16.806496	4.0995727
29.55234436124651	19.89583	4.460474
29.570470927841175	21.236765	4.6083364
29.588598251259686	21.163681	4.6004
29.60672633205055	19.547018	4.4212008
29.624855170762405	16.46932	4.058241
29.642984767944146	12.93153	3.5960436
29.66111512414481	9.618625	3.1013908
29.67924623991366	7.118756	2.6680996
29.697378115800138	5.250707	2.2914422
29.71551075235387	4.2936316	2.072108
29.733644150124675	3.8365707	1.9587166
29.751778309662576	3.6044776	1.8985462
29.769913231517766	3.5251043	1.8775262
29.78804891624066	3.472828	1.8635525
29.806185364381818	3.4059482	1.8455211
29.82432257649206	3.3214922	1.8224962
29.842460553122333	3.2768903	1.8102183
29.86059929482382	3.3068538	1.8184757
29.878738802147872	3.358336	1.8325763
29.896879075646048	3.3119369	1.8198727
29.915020115870114	3.2947483	1.8151442
29.933161923371976	3.277562	1.8104038
29.951304498703777	3.28976	1.8137696
29.969447842417857	3.2761984	1.8100271
29.987591955066733	3.2356753	1.7987983
30.005736837203123	3.21517	1.7930895
30.023882489379943	3.1893322	1.7858702
30.04202891215028	3.1867955	1.7851598
30.060176106067455	3.2401028	1.8000286
30.078324071684946	3.205628	1.7904267
30.09647280955646	3.173812	1.7815195
30.114622320235863	3.1384363	1.7715633
30.132772604277257	3.1489377	1.7745247
30.1509236622349	3.1528058	1.7756143
30.16907549466328	3.1784558	1.7828225
30.18722810211705	3.1470816	1.7740016
30.205381485151097	3.1086826	1.7631457
30.22353564432045	3.1130488	1.7643834
30.241690580180403	3.1243134	1.7675728
30.25984629328638	3.0876982	1.7571847
30.278002784194037	3.0350335	1.7421347
30.296160053459246	3.03991	1.7435338
30.314318101638033	3.0281298	1.7401522
30.332476929286646	2.9679337	1.7227691
30.35063653696153	2.9771976	1.7254558
30.368796925219307	2.9729805	1.7242333
30.386958094616844	2.8924298	1.7007145
30.40512004571115	2.8329592	1.6831397
30.423282779059463	2.8786533	1.6966594
30.441446295219233	2.8912253	1.7003603
30.459610594748067	2.85305	1.6890974
30.47777567820382	2.8156788	1.6779984
30.495941546144504	2.8339071	1.6834213
30.51410819912835	2.8671236	1.6932583
30.532275637713795	2.805659	1.6750102
30.55044386245946	2.7770715	1.6664548
30.56861287392416	2.7590308	1.661033
30.586782672666956	2.7340062	1.653483
30.604953259247047	2.752025	1.6589228
30.623124634223885	2.7666507	1.6633252
30.641296798157075	2.7850025	1.6688327
30.659469751606462	2.789036	1.6700407
30.677643495132074	2.8145342	1.6776574
30.695818029294152	2.8613439	1.6915507
30.713993354653116	2.878091	1.6964937
30.73216947176962	2.80032	1.6734157
30.75034638120448	2.7400012	1.6552949
30.768524083518756	2.8121881	1.676958
30.786702579273673	2.925148	1.7103064
30.80488186903069	2.9726496	1.7241373
30.82306195335144	3.1178799	1.765752
30.841242832797782	3.379086	1.8382291
30.85942450793176	3.6866019	1.9200525
30.877606979315637	4.0511994	2.0127592
30.895790247511883	4.3451266	2.0844967
30.913974313083134	4.774195	2.1849933
30.932159176592283	5.2700253	2.2956536
30.95034483860237	5.6152782	2.3696578
30.968531299676698	5.547508	2.3553147
30.98671856037873	5.2424	2.2896287
31.00490662127215	4.837361	2.1994002
31.023095482920848	4.389537	2.095122
31.04128514588892	3.909878	1.9773412
31.059475610740662	3.379843	1.8384349
31.07766687804056	2.8604572	1.6912886
31.09585894835335	2.5543861	1.5982447
31.11405182224393	2.4833074	1.5758513
31.132245500277417	2.4323242	1.559591
31.15043998301914	2.3951685	1.5476332
31.168635271034628	2.4085946	1.5519648
31.18683136488964	2.434043	1.5601419
31.20502826515008	2.4513125	1.5656668
31.223225972382135	2.4579675	1.5677906
31.241424487152155	2.4877765	1.5772687
31.259623810026692	2.4762952	1.5736248
31.27782394157253	2.4377604	1.5613328
31.296024882356644	2.4546752	1.5667403
31.314226632946237	2.4741127	1.5729313
31.332429193908684	2.5021625	1.5818225
31.350632565811598	2.4586747	1.5680162
31.368836749222787	2.4187717	1.55524
31.387041744710295	2.4475229	1.5644561
31.40524755284232	2.541963	1.5943536
31.423454174187317	2.6439235	1.6260146
31.441661609313922	2.584837	1.6077428
31.459869858791002	2.4327207	1.5597181
31.478078923187628	2.3684309	1.5389707
31.496288803073064	2.3995554	1.5490499
31.514499499016807	2.391976	1.5466014
31.532711011588546	2.3891752	1.5456957
31.550923341358178	2.387893	1.5452808
31.56913648889584	2.3403006	1.5298041
31.587350454771844	2.33261	1.5272884
31.605565239556732	2.4041848	1.5505434
31.62378084382127	2.4491036	1.5649612
31.641997268136382	2.3713603	1.5399221
31.660214513073274	2.3162527	1.521924
31.67843257920331	2.3441074	1.5310478
31.6966514670981	2.4199274	1.5556116
31.71487117732944	2.3875425	1.5451674
31.733091710469346	2.355274	1.5346901
31.751313067090052	2.3159626	1.5218287
31.769535247764008	2.3033118	1.5176666
31.787758253063878	2.3144636	1.5213361
31.805982083562526	2.268575	1.506179
31.824206739833024	2.248246	1.4994152
31.84243222244869	2.3838465	1.5439711
31.860658531983013	2.4227946	1.5565329
31.878885669009737	2.3528233	1.5338916
31.897113634102784	2.2725651	1.5075029
31.91534242783632	2.192223	1.4806157
31.933572050784694	2.125492	1.4579067
31.951802503522508	2.1372929	1.4619483
31.970033786624548	2.1027875	1.4500991
31.988265900665834	2.1256661	1.4579664
32.006498846221575	2.2325716	1.4941792
32.02473262386724	2.3054945	1.5183855
32.04296723417845	2.2961836	1.5153164
32.0612026777311	2.209958	1.4865928
32.07943895510129	2.1005046	1.4493117
32.097676066865304	2.0576725	1.434459
32.115914013599685	2.0651042	1.437047
32.13415279588115	2.119818	1.4559594
32.152392414286666	2.1507936	1.4665585
32.1706328693934	2.1029954	1.4501709
32.18887416177875	2.0659547	1.4373429
32.20711629202032	2.0593188	1.4350327
32.225359260695924	2.1084821	1.4520613
32.243603068383614	2.13149	1.4599624
32.26184771566166	2.0907843	1.4459544
32.28009320310852	2.1072881	1.4516501
32.2983395313029	2.1522868	1.4670674
32.31658670082372	2.19904	1.482916
32.33483471225012	2.1581085	1.4690502
32.35308356616143	2.0841205	1.4436483
32.371333263137245	2.0757833	1.4407579
32.38958380375734	2.1212933	1.4564661
32.407835188601744	2.0499475	1.4317638
32.42608741825067	2.0762687	1.4409263
32.444340493284585	2.0946453	1.447289
32.46259441428416	2.085499	1.4441257
32.48084918183028	2.1216455	1.456587
32.49910479650405	2.1718345	1.4737145
32.51736125888683	2.1186225	1.4555489
32.53561856956014	1.9974514	1.4133122
32.5538767291058	1.9249057	1.3874097
32.572135738105764	1.915855	1.3841442
32.59039559714228	1.9441807	1.3943388
32.608656306797776	1.9805173	1.4073086
32.62691786765491	2.0930407	1.4467345
32.645180280296586	2.059989	1.4352661
32.663443545305896	2.0370212	1.4272425
32.68170766326619	2.103692	1.450411
32.69997263476099	2.079003	1.4418749
32.7182384603741	1.9906151	1.4108917
32.7365051406895	1.9228607	1.3866725
32.75477267629144	1.9621037	1.4007511
32.77304106776434	1.975153	1.4054013
32.79131031569289	1.8787826	1.3706869
32.809580420661966	1.8550507	1.3620025
32.827851383256714	1.8992239	1.3781233
32.84612320406245	1.9317816	1.3898854
32.86439588366476	2.0184636	1.4207264
32.88266942264945	2.1158707	1.4546033
32.9009438216025	2.1610997	1.4700679
32.9192190811102	2.1009393	1.4494617
32.937495201758985	2.0224152	1.4221164
32.95577218413556	1.9804994	1.4073021
32.974050028826866	1.9584543	1.3994478
32.992328736420035	1.8912127	1.3752137
33.010608307502444	1.8155489	1.3474231
33.02888874266169	1.8273574	1.3517978
33.047170042485604	1.8691952	1.3671851
33.06545220756225	1.8904134	1.3749231
33.083735238479896	2.0013323	1.4146845
33.10201913582707	2.021829	1.4219103
33.12030390019248	1.8760619	1.3696941
33.138589532165135	1.902479	1.3793038
33.15687603233419	1.9877304	1.409869
33.17516340128909	1.9201771	1.3857045
33.19345163961947	1.9090943	1.3816998
33.211740747915215	2.0288339	1.4243714
33.23003072676643	2.024307	1.4227815
33.248321576763466	1.9638926	1.4013895
33.266613298496885	1.88166	1.3717362
33.28490589255747	1.9302734	1.3893428
33.30319935953626	1.9590225	1.3996508
33.32149370002451	1.9528302	1.397437
33.339788914613706	1.9058157	1.3805128
33.358085003895575	1.9610977	1.4003919
33.376381968462034	2.0231621	1.422379
33.39467980890529	2.051578	1.4323331
33.41297852581774	2.0105362	1.4179338
33.43127811979204	1.9248617	1.3873938
33.44957859142105	1.8415443	1.3570352
33.467879941297866	1.9584231	1.3994367
33.486182170015844	1.9977335	1.413412
33.50448527816853	1.9659439	1.4021212
33.522789266349754	1.9866436	1.4094834
33.541094135153514	1.9900254	1.4106826
33.55939988517411	1.9093044	1.3817759
33.57770651700602	1.9363747	1.3915368
33.59601403124398	1.9656394	1.4020126
33.61432242848296	1.95725	1.3990175
33.632631709318154	1.9210659	1.3860252
33.650941874344994	1.8418105	1.3571332
33.66925292415916	1.9085128	1.3814894
33.68756485935654	2.0053656	1.4161093
33.70587768053328	1.9438337	1.3942144
33.724191388285746	1.9259442	1.3877839
33.74250598321054	1.91636	1.3843266
33.760821465904506	1.9677645	1.4027703
33.77913783696474	2.0579147	1.4345434
33.79745509698852	2.0736842	1.4400293
33.815773246573414	2.0046444	1.4158547
33.8340922863172	1.9261252	1.3878491
33.852412216817896	1.9399682	1.3928274
33.87073303867377	1.9160835	1.3842267
33.889054752483304	1.8452557	1.3584019
33.907377358845245	1.7950184	1.339783
33.92570085835853	1.8427687	1.3574861
33.94402525162239	1.9510065	1.3967843
33.96235053923627	2.0048995	1.4159447
33.980676721799824	1.9422641	1.3936514
33.999003799912984	1.9158343	1.3841367
34.01733177417592	1.9650581	1.4018053
34.03566064518901	1.930638	1.389474
34.0539904135529	1.8263614	1.3514293
34.07232107986846	1.8448484	1.3582519
34.090652644736785	2.0287595	1.4243453
34.108985108759235	2.1279337	1.4587439
34.12731847253742	2.0369961	1.4272337
34.14565273667313	1.8820634	1.3718832
34.16398790176847	1.9782985	1.40652
34.18232396842574	2.0198758	1.4212233
34.20066093724749	1.9914469	1.4111863
34.21899880883651	1.9474543	1.3955122
34.23733758379583	1.8604002	1.3639649
34.25567726272874	1.7970572	1.3405436
34.27401784623872	1.9124088	1.3828987
34.29235933492957	1.9469169	1.3953197
34.31070172940526	1.8625797	1.3647636
34.32904503027003	1.8336985	1.3541412
34.347389238128386	1.8413471	1.3569624
34.36573435358502	1.8066474	1.3441159
34.38408037724492	1.9781017	1.40645
34.402427309713296	2.1017923	1.4497559
34.42077515159559	2.175098	1.4748213
34.43912390349752	2.1144671	1.4541208
34.45747356602499	1.9475724	1.3955545
34.47582413978423	1.8146739	1.3470984
34.49417562538163	1.8835828	1.3724369
34.51252802342388	1.9925592	1.4115804
34.53088133451789	2.040783	1.4285598
34.54923555927084	1.9440824	1.3943036
34.567590698290104	1.8488861	1.3597375
34.58594675218336	1.8585874	1.3633002
34.6043037215585	1.8904959	1.374953
34.62266160702365	1.9325707	1.3901693
34.641020409187234	1.8234466	1.3503505
34.65938012865785	1.7854917	1.3362229
34.677740766044394	1.9145526	1.3836735
34.69610232195598	2.0816288	1.4427851
34.714464797002016	2.1735156	1.4742848
34.73282819179208	2.0778408	1.4414717
34.751192506936064	2.162324	1.4704843
34.76955774304408	2.112646	1.4534944
34.7879239007265	1.9957502	1.4127102
34.80629098059391	1.8867174	1.3735783
34.824658983257194	2.0868237	1.4445843
34.843027909327446	2.1206114	1.456232
34.86139775941603	2.0250442	1.4230405
34.879768534134534	2.131118	1.4598349
34.89814023409483	2.119042	1.4556929
34.91651285990901	1.9863075	1.4093642
34.93488641218944	1.9799627	1.4071115
34.95326089154871	1.941761	1.3934709
34.97163629859967	1.8868939	1.3736426
34.99001263395542	1.9102792	1.3821285
35.00838989822934	1.9292463	1.3889731
35.02676809203499	2.004638	1.4158524
35.04514721598624	2.080399	1.4423589
35.063527270697215	1.9718835	1.4042377
35.081908256782256	1.8973981	1.3774607
35.10029017485597	1.9227113	1.3866186
35.11867302553321	1.8836466	1.37246
35.137056809429104	1.9899678	1.4106622
35.155441527159006	2.317043	1.5221837
35.173827179338524	2.3454514	1.5314866
35.19221376658354	2.3398902	1.52967
35.21060128951017	2.0888994	1.4453025
35.2289897487348	1.8698741	1.3674334
35.24737914487405	1.9865633	1.409455
35.26576947854479	1.9676853	1.402742
35.28416075036418	1.8999801	1.3783977
35.30255296094958	1.8588464	1.3633952
35.32094611091867	2.1315303	1.4599761
35.33934020088932	2.1147377	1.4542137
35.35773523147969	2.0002933	1.4143173
35.3761312033082	2.1767957	1.4753968
35.394528116993506	2.072899	1.4397566
35.41292597315452	1.764903	1.3284965
35.431324772410434	2.3561401	1.5349723
35.449724515380666	2.5192504	1.5872147
35.46812520268491	1.9802945	1.4072293
35.486526834943106	1.7586248	1.3261315
35.504929412775454	2.04634	1.4305034
35.52333293680242	2.000239	1.414298
35.54173740764471	1.5039864	1.2263712
35.560142825923286	1.3410203	1.1580243
35.5785491922594	1.3610083	1.1666226
35.59695650727454	1.0892887	1.04369
35.61536477159042	0.8177855	0.90431494
