0.008763373481513119	0.0	0.0
0.026290120649546365	0.0	0.0
0.043816868432600686	0.0046239095	0.06799933
0.06134361724069026	0.1811243	0.425587
0.07887036748382949	0.23935068	0.48923478
0.0963971195720331	0.29250562	0.5408379
0.11392387391531617	0.20757873	0.4556081
0.1314506309236943	0.10574425	0.32518342
0.1489773910071836	0.06322592	0.25144765
0.16650415457580078	0.10187793	0.31918323
0.18403092203956356	0.18030548	0.42462394
0.20155769380849	0.22263376	0.47184083
0.2190844702925996	0.19288807	0.43919024
0.2366112519019124	0.1658905	0.40729657
0.2541380390464497	0.11683061	0.34180492
0.27166483213623416	0.1337124	0.36566705
0.28919163158128947	0.101152	0.31804404
0.3067184377916406	0.094027884	0.30663967
0.324245251177314	0.08036009	0.28347856
0.34177207214833777	0.05877308	0.2424316
0.3592989011147415	0.09890153	0.31448615
0.37682573848655654	0.13443202	0.36664972
0.39435258467381573	0.17206015	0.41480133
0.41187944008655414	0.14176111	0.37651175
0.42940630513480854	0.11524152	0.3394724
0.446933180228618	0.1105257	0.33245406
0.4644600657780234	0.14432725	0.37990427
0.48198696219306775	0.17193522	0.4146507
0.49951386988379676	0.20558117	0.4534106
0.5170407892602581	0.18617018	0.43147442
0.5345677207325025	0.18303356	0.4278242
0.5520946647105822	0.16817856	0.41009578
0.5696216216045534	0.16095641	0.40119374
0.5871485918244737	0.13044043	0.36116537
0.6046755757804043	0.12856402	0.35855824
0.6222025738824094	0.10939025	0.33074197
0.6397295865405557	0.111357845	0.33370322
0.6572566141649129	0.09876943	0.31427604
0.6747836571655547	0.11215738	0.33489907
0.6923107159525568	0.12538937	0.35410362
0.7098377909359992	0.13192318	0.36321232
0.7273648825259653	0.12786457	0.35758156
0.7448919911325411	0.13905206	0.37289685
0.762419117165817	0.17242563	0.41524166
0.7799462610358868	0.20757374	0.45560262
0.7974734231528482	0.22238554	0.4715777
0.8150006039268024	0.20705555	0.45503357
0.8325278037678551	0.21090935	0.4592487
0.8500550230861152	0.18233067	0.42700195
0.8675822622916969	0.17898096	0.42306143
0.8851095217947171	0.1823539	0.42702916
0.9026368020052984	0.17020734	0.41256192
0.9201641033335665	0.19951102	0.44666657
0.9376914261896523	0.21499576	0.46367636
0.9552187709836915	0.22905219	0.47859398
0.9727461381258234	0.24123727	0.4911591
0.990273528026193	0.22726594	0.47672418
1.0078009410949496	0.26509216	0.514871
1.0253283777422473	0.27621353	0.5255602
1.0428558383782454	0.2890755	0.53765744
1.0603833234131086	0.2803684	0.5294982
1.0779108332570058	0.34613743	0.58833444
1.0954383683201119	0.38358423	0.6193418
1.112965929012607	0.4063945	0.6374908
1.1304935157446763	0.5002259	0.7072665
1.1480211289265108	0.5520384	0.7429928
1.1655487689683062	1.3880125	1.1781394
1.1830764362802655	1.7298652	1.3152434
1.200604131272596	2.156787	1.4686003
1.2181318543555117	2.5004954	1.5812955
1.235659605939232	2.478651	1.5743732
1.253187386433982	4.01661	2.0041482
1.270715196249994	6.480617	2.5457056
1.2882430357975057	12.171987	3.4888375
1.3057709054867608	16.952673	4.1173625
1.3232988057280106	22.686104	4.7629933
1.3408267369315112	27.55317	5.249111
1.358354699507526	31.31797	5.5962462
1.3758826938663256	35.658115	5.9714417
1.3934107204181858	37.744583	6.143662
1.410938779573391	38.04357	6.1679473
1.4284668717422309	38.18841	6.1796775
1.4459949973350033	37.58091	6.130327
1.4635231567620117	37.451572	6.119769
1.4810513504335687	37.056522	6.0874066
1.4985795787599925	36.417984	6.0347314
1.5161078421516088	36.20607	6.017148
1.5336361410187505	35.211452	5.9339237
1.5511644757717598	35.232895	5.9357305
1.5686928468209842	35.74968	5.9791036
1.58622125457678	36.02664	6.0022197
1.6037496994495108	37.57025	6.1294575
1.621278181849548	37.342003	6.1108103
1.6388067021872719	38.12847	6.1748257
1.6563352608730693	37.68048	6.138443
1.673863858317336	36.640816	6.053166
1.6913924949304753	36.04789	6.0039897
1.7089211711228998	34.875076	5.9055123
1.7264498873050296	34.149487	5.843756
1.7439786438872935	33.48479	5.7866044
1.7615074412801288	32.8638	5.7326956
1.779036279893981	32.00167	5.657002
1.796565160139305	30.784819	5.548407
1.814094082426564	29.88669	5.466872
1.8316230471662298	29.009983	5.3860917
1.849152054768784	27.988594	5.290425
1.8666811056447168	27.155178	5.211063
1.8842102002045273	26.381783	5.13632
1.901739338858724	25.995193	5.098548
1.9192685220178245	25.74825	5.074273
1.9367977500923557	25.262062	5.026138
1.9543270234928547	25.04944	5.0049415
1.971856342629867	24.335625	4.933115
1.9893857079139496	23.676462	4.8658466
2.006915119755667	22.887531	4.7840915
2.0244445785655945	22.199839	4.7116704
2.0419740847543175	21.567518	4.6440845
2.0595036387324317	21.132261	4.596984
2.0770332409105414	20.727467	4.552743
2.094562891699263	20.430893	4.5200543
2.1120925915092217	19.691244	4.437482
2.129622340751053	19.279922	4.390891
2.1471521398354043	187.59132	13.696398
2.1646819891729323	443.91382	21.069262
2.182211889174303	440.11945	20.979025
2.1997418402501974	452.73935	21.277672
2.2172718428113023	432.7994	20.803831
2.234801897268317	320.77185	17.910105
2.2523320040319548	17.093746	4.1344585
2.269862163512935	16.915203	4.1128097
2.287392376121992	16.535769	4.0664196
2.304922642269869	16.350773	4.0436087
2.322452962367322	16.130947	4.016335
2.3399833368251164	15.758225	3.9696631
2.357513766054032	15.516395	3.9390855
2.3750442504648586	15.134472	3.8903048
2.3925747904683963	14.745015	3.8399239
2.410105386475459	14.598744	3.8208303
2.4276360388968707	14.393447	3.7938697
2.445166748143469	14.260316	3.7762833
2.4626975146261025	13.926766	3.7318583
2.4802283387556323	13.718067	3.703791
2.4977592209429305	13.440001	3.6660607
2.5152901615988825	13.170272	3.629087
2.5328211611343865	12.835724	3.5826979
2.5503522199603523	12.575411	3.5461826
2.5678833384877024	12.324436	3.5106177
2.5854145171273712	12.219288	3.4956098
2.6029457562903064	11.931956	3.4542663
2.620477056387469	11.767574	3.43039
2.6380084178298326	11.597636	3.4055302
2.655539841028383	11.367759	3.3716106
2.673071326394119	11.466982	3.3862932
2.6906028743380523	11.285654	3.3594127
2.708134485271211	11.009503	3.318057
2.7256661596046325	10.721047	3.274301
2.743197897749369	10.5711	3.2513227
2.760729700116486	10.545632	3.2474039
2.778261567117063	10.492414	3.2391996
2.795793499162193	10.273808	3.2052782
2.8133254966629817	10.167902	3.1887147
2.830857560030551	9.990345	3.1607506
2.8483896896760337	9.890732	3.1449535
2.865921886010578	9.731878	3.1195958
2.883454149445347	9.553669	3.090901
2.9009864803915177	9.303205	3.0501156
2.91851887926028	9.170929	3.0283542
2.9360513464628384	9.032299	3.0053782
2.953583882410413	8.977027	2.9961686
2.9711164875142373	8.898442	2.9830258
2.9886491621855606	8.799261	2.9663548
3.0061819068356455	8.695807	2.9488654
3.023714721875769	8.543485	2.922924
3.041247607717225	8.403876	2.898944
3.0587805647713213	8.426092	2.9027731
3.0763135934493806	8.414313	2.9007435
3.0938466941627407	8.346331	2.8890016
3.1113798673227544	8.190695	2.861939
3.1289131133407904	8.053691	2.8379025
3.1464464326282315	7.8914886	2.8091793
3.1639798255964786	7.7849774	2.7901573
3.1815132926569443	7.741056	2.7822754
3.1990468342210603	7.678427	2.7709975
3.216580450700272	7.696029	2.7741718
3.2341141425060416	7.557079	2.7490141
3.251647910049847	7.4535894	2.7301264
3.2691817537431813	7.3305883	2.707506
3.286715673997555	7.2601233	2.6944616
3.3042496712244938	7.1677313	2.6772618
3.32178374583554	7.108868	2.6662462
3.339317898242251	7.091224	2.6629353
3.3568521288562034	7.017936	2.6491387
3.3743864380889876	6.8846903	2.6238694
3.3919208263522127	6.7492843	2.5979385
3.4094552940575023	6.7603903	2.600075
3.4269898416164972	6.711738	2.5907023
3.444524469440858	6.6256447	2.5740328
3.4620591779422587	6.532014	2.5557804
3.479593967532391	6.4400735	2.53773
3.4971288386229658	6.4081116	2.5314248
3.5146637916257086	6.3927608	2.528391
3.5321988269523628	6.297617	2.5095053
3.5497339450146903	6.243574	2.4987144
3.5672691462244708	6.282638	2.506519
3.5848044309934988	6.3044844	2.5108733
3.60233979973359	6.261597	2.5023184
3.619875252856575	6.2438745	2.4987745
3.6374107907743034	6.219996	2.493992
3.6549464138986427	6.2456584	2.4991314
3.6724821226414788	6.2811623	2.5062246
3.690017917414714	6.3196216	2.5138857
3.7075537986302702	6.354225	2.5207589
3.7250897667000857	6.522261	2.5538719
3.7426258220361235	6.664563	2.5815816
3.7601619650503553	6.978374	2.6416612
3.777698196154779	7.4666643	2.7325199
3.7952345157614067	8.519352	2.918793
3.8127709242822716	9.379218	3.062551
3.830307422129425	11.735586	3.4257243
3.847844009714936	30.50287	5.52294
3.8653806874508954	97.88557	9.893714
3.882917455749409	97.0147	9.849605
3.900454315022606	96.73465	9.835378
3.917991265682631	41.39644	6.434006
3.9355283081416506	11.040733	3.3227599
3.9530654428118495	8.807513	2.9677455
3.970602670105433	7.5585256	2.7492774
3.9881399904346244	6.685518	2.5856369
4.005677404211669	6.4628997	2.5422235
4.023214911848827	6.3763394	2.5251415
4.0407525137583855	6.366715	2.523235
4.058290210352644	6.4806423	2.5457106
4.075828002043927	6.4675436	2.5431366
4.0933658892445814	6.361644	2.52223
4.110903872366966	6.195358	2.4890475
4.128441951823468	6.057012	2.4610999
4.145980128026488	6.113176	2.4724836
4.163518401388452	6.1919317	2.4883592
4.181056772321807	6.270571	2.5041108
4.1985952412390155	6.289572	2.507902
4.216133808552567	6.343919	2.5187137
4.233672474674966	6.328165	2.5155845
4.251211240018741	6.4447293	2.5386472
4.268750104996445	6.6481695	2.5784044
4.286289070020643	7.5259743	2.743351
4.303828135503928	9.149782	3.0248606
4.3213673018589125	29.442806	5.4261227
4.3389065694982305	90.7247	9.524952
4.356445938834537	166.0837	12.887346
4.3739854102805085	171.74445	13.10513
4.391524984248844	172.56386	13.136356
4.409064661152262	136.52899	11.684562
4.426604441403504	96.733665	9.835327
4.444144325415337	75.6822	8.699552
4.461684313600543	21.83473	4.672765
4.47922440637193	22.13715	4.7050133
4.496764604142329	20.549114	4.533113
4.5143049073245916	18.721344	4.326817
4.531845316331589	16.64271	4.079548
4.5493858315762195	13.792986	3.713891
4.566926453471405	11.419744	3.379311
4.584467182430081	9.422125	3.069548
4.602008018865218	8.252657	2.8727438
4.619548963189798	7.537911	2.7455256
4.637090015816834	7.0178776	2.6491277
4.654631177159353	6.753253	2.5987022
4.672172447630417	6.4621806	2.5420818
4.689713827643102	6.3160834	2.513182
4.7072553176105085	6.055397	2.4607716
4.724796917945764	5.8472157	2.4181015
4.742338629062015	5.745165	2.3969073
4.759880451372434	5.7254424	2.3927896
4.777422385290215	5.7307687	2.3939023
4.794964431228581	5.679297	2.3831275
4.812506589600768	5.6393065	2.3747225
4.830048860820047	5.5540185	2.3566966
4.847591245299709	5.5370975	2.3531039
4.8651337434530655	5.5461326	2.355023
4.882676355693457	5.4707694	2.3389676
4.900219082434242	5.511943	2.3477528
4.917761924088813	5.5930853	2.3649704
4.935304881070575	5.663848	2.379884
4.952847953792969	5.6333876	2.3734758
4.970391142669449	5.5258803	2.3507192
4.9879344481135055	5.482694	2.3415153
5.005477870538642	5.4392233	2.3322144
5.023021410358394	5.4751654	2.3399072
5.040565067986324	5.409753	2.3258874
5.05810884383601	5.432044	2.3306746
5.075652738321066	5.4574547	2.3361197
5.09319675185512	5.3941064	2.3225214
5.110740884851836	5.34333	2.3115644
5.128285137724894	5.347602	2.3124883
5.145829510888007	5.361543	2.3155007
5.163374004754908	5.4153395	2.327088
5.1809186197393595	5.397087	2.3231633
5.198463356255145	5.3761277	2.3186479
5.216008214716077	5.3604126	2.3152566
5.233553195535998	5.352454	2.3135371
5.251098299128764	5.278984	2.297604
5.268643525908272	5.3100376	2.3043518
5.286188876288432	5.315593	2.305557
5.3037343506831895	5.3706975	2.3174765
5.32127994950651	5.4052687	2.3249233
5.3388256731723915	5.3482223	2.3126223
5.356371522094851	5.2573814	2.292898
5.373917496687938	5.220327	2.2848034
5.391463597365729	5.1433654	2.2678988
5.40900982454232	5.134832	2.2660167
5.426556178631843	5.125158	2.2638812
5.444102660048449	5.128191	2.264551
5.4616492692063225	5.1104474	2.26063
5.479196006519669	5.1528616	2.2699916
5.496742872402727	5.167445	2.2732015
5.514289867269756	5.137186	2.2665362
5.531836991535049	5.1224794	2.2632895
5.549384245612924	5.1164813	2.261964
5.566931629917724	5.1966815	2.279623
5.584479144863822	5.236511	2.2883425
5.6020267908656205	5.2371345	2.2884786
5.619574568337545	5.2450914	2.2902164
5.637122477694054	5.1549606	2.270454
5.654670519349629	5.049679	2.247149
5.672218693718784	4.977672	2.2310698
5.689767001216059	4.995452	2.2350507
5.707315442256021	5.0757313	2.2529383
5.724864017253266	5.089435	2.2559776
5.7424127266224225	5.1916313	2.278515
5.75996157077814	5.18725	2.2775536
5.777510550135105	5.174689	2.2747943
5.795059665108022	5.164998	2.272663
5.812608916111639	5.253763	2.292109
5.830158303560715	5.4164367	2.327324
5.847707827870055	5.385362	2.3206384
5.86525748945448	5.3873816	2.3210733
5.8828072887288485	5.478412	2.3406007
5.900357226108044	5.5441103	2.3545935
5.917907302006979	5.649664	2.376902
5.9354575168406	6.262095	2.5024178
5.9530078710238765	6.8559256	2.6183822
5.970558364971812	7.387257	2.7179508
5.988108999099438	7.710395	2.7767599
6.005659773821818	8.20796	2.8649538
6.023210689554039	7.8720994	2.8057263
6.040761746711227	8.220006	2.8670552
6.058312945708531	7.615159	2.7595577
6.075864286961132	7.2295904	2.6887898
6.093415770884244	6.650095	2.5787778
6.1109673978931065	6.1192803	2.473718
6.128519168402993	5.5632186	2.3586476
6.146071082829204	5.3277936	2.3082013
6.163623141587075	5.2027245	2.2809482
6.181175345091969	5.1563034	2.2707496
6.198727693759281	5.1682277	2.2733736
6.216280188004435	5.1773763	2.275385
6.233832828242885	5.162834	2.272187
6.251385614890126	5.1675773	2.2732306
6.268938548361669	5.174544	2.2747624
6.286491629073067	5.128639	2.2646499
6.304044857439898	5.0833297	2.2546241
6.321598233877777	5.055018	2.2483368
6.339151758802344	5.026887	2.242072
6.356705432629277	5.0289426	2.2425303
6.37425925577428	4.972729	2.2299616
6.391813228653095	4.979434	2.2314646
6.409367351681486	4.9804416	2.2316904
6.426921625275259	4.993178	2.234542
6.44447604985025	4.9549146	2.2259638
6.46203062582232	4.9818945	2.2320158
6.47958535360737	4.9939446	2.2347136
6.497140233621328	5.036438	2.244201
6.514695266280161	5.0636516	2.2502558
6.532250451999859	5.0732045	2.2523775
6.549805791196454	5.076122	2.253025
6.567361284286002	5.0863085	2.2552845
6.584916931684597	5.073733	2.2524948
6.602472733808367	5.030883	2.242963
6.6200286910734665	5.067001	2.251
6.637584803896092	5.0442014	2.24593
6.655141072692462	4.963139	2.2278104
6.672697497878842	4.8947325	2.2124043
6.690254079871514	4.89442	2.2123337
6.707810819086808	4.995046	2.23496
6.725367715941078	5.0731306	2.252361
6.742924770850719	5.099141	2.2581277
6.760481984232151	5.126972	2.2642817
6.778039356501836	5.093368	2.256849
6.795596888076266	5.0846825	2.254924
6.813154579371963	5.1162157	2.2619054
6.830712430805492	5.1013713	2.2586215
6.84827044279344	5.0247145	2.2415874
6.865828615752445	5.0211296	2.2407877
6.883386950099159	5.0436263	2.245802
6.900945446250287	5.0730724	2.2523482
6.918504104622553	5.085488	2.2551026
6.936062925632727	5.08163	2.2542472
6.953621909697607	5.0806003	2.2540188
6.971181057234028	5.153835	2.270206
6.988740368658859	5.199232	2.2801824
7.006299844389007	5.2611275	2.2937148
7.023859484841407	5.3125763	2.3049026
7.041419290433036	5.339654	2.310769
7.058979261580902	5.4304867	2.3303404
7.0765393987020495	5.5680466	2.3596709
7.094099702213559	5.9889255	2.4472282
7.111660172532549	6.427192	2.5351908
7.129220810076164	6.8966293	2.6261435
7.146781615261595	7.495885	2.7378614
7.16434258850606	7.664673	2.7685146
7.181903730226821	8.079046	2.8423662
7.1994650408411704	8.106899	2.8472617
7.217026520766437	8.283358	2.8780823
7.234588170419983	8.557773	2.925367
7.252149990219215	8.617555	2.9355671
7.269711980581568	8.533647	2.9212406
7.2872741419245175	8.200713	2.8636887
7.304836474665574	7.7070208	2.7761521
7.322398979222286	7.3932266	2.7190487
7.339961656012233	7.1845465	2.6804004
7.357524505453039	6.8414354	2.6156137
7.375087527962357	6.539769	2.5572972
7.392650723957886	6.2392006	2.4978392
7.410214093857353	5.982301	2.4458742
7.427777638078528	5.7648997	2.4010205
7.445341357039213	5.5438213	2.354532
7.4629052511572525	5.370278	2.317386
7.480469320850524	5.2451634	2.2902322
7.498033566536948	5.1985245	2.2800274
7.5155979886344735	5.1746817	2.2747927
7.5331625875610975	5.1740537	2.2746546
7.550727363734844	5.1338854	2.2658079
7.568292317573788	5.160149	2.2715962
7.585857449496025	5.2098722	2.2825146
7.603422759919705	5.245445	2.2902937
7.620988249263007	5.197296	2.279758
7.638553917944147	5.184979	2.2770548
7.656119766381391	5.1432514	2.2678738
7.673685794993023	5.199748	2.2802956
7.691252004197388	5.2079206	2.2820868
7.70881839441285	5.2039304	2.2812126
7.726384966057826	5.1683207	2.273394
7.743951719550762	5.15951	2.2714555
7.761518655310149	5.2487645	2.2910182
7.779085773754511	5.275631	2.2968743
7.796653075302419	5.3393846	2.310711
7.814220560372475	5.371477	2.3176448
7.831788229383323	5.40373	2.3245924
7.8493560827536495	5.3849926	2.3205588
7.866924120902174	5.374743	2.3183491
7.884492344247663	5.3855796	2.3206851
7.9020607532089135	5.401876	2.3241937
7.919629348204771	5.435349	2.3313835
7.937198129654115	5.402215	2.3242664
7.954767097975865	5.408651	2.3256507
7.972336253588986	5.3560734	2.3143191
7.989905596912472	5.4044504	2.3247473
8.007475128365371	5.431703	2.3306015
8.025044848366756	5.478536	2.3406272
8.042614757335754	5.655387	2.3781056
8.060184855691523	5.709364	2.3894274
8.07775514385327	5.8441668	2.4174712
8.095325622240228	5.8742957	2.4236946
8.112896291271687	5.956648	2.4406245
8.130467151366968	6.002353	2.44997
8.148038202945436	6.0173135	2.4530213
8.165609446426497	6.008716	2.4512682
8.183180882229594	6.0068765	2.450893
8.200752510774217	5.95553	2.4403956
8.218324332479893	5.9436374	2.4379575
8.235896347766193	5.923118	2.4337456
8.253468557052724	5.919512	2.4330046
8.27104096075914	5.9752216	2.4444265
8.288613559305137	6.1136327	2.4725761
8.306186353110448	6.160341	2.4820035
8.32375934259485	6.2353454	2.4970675
8.341332528178162	6.187636	2.487496
8.358905910280246	6.2195	2.4938927
8.376479489321003	6.213784	2.4927464
8.394053265720377	6.2679033	2.5035782
8.411627239898356	6.3448443	2.5188975
8.42920141227497	6.4004264	2.5299065
8.44677578327029	6.3740635	2.5246909
8.464350353304427	6.2830243	2.506596
8.48192512279754	6.2412415	2.4982476
8.499500092169827	6.1534576	2.4806163
8.51707526184153	6.1673665	2.4834182
8.534650632232934	6.204055	2.490794
8.552226203764365	6.2563605	2.5012717
8.569801976856192	6.298304	2.5096421
8.587377951928834	6.270144	2.5040255
8.60495412940274	6.255223	2.5010443
8.622530509698416	6.2575774	2.501515
8.6401070932364	6.3875775	2.5273657
8.657683880437283	6.5329976	2.5559728
8.675260871721695	6.641624	2.5771348
8.692838067510303	6.75652	2.5993307
8.710415468223834	6.9090014	2.6284978
8.727993074283043	7.1133013	2.6670773
8.745570886108737	7.1746306	2.67855
8.763148904121765	7.2074075	2.6846616
8.78072712874302	7.1932397	2.6820216
8.798305560393441	7.423804	2.7246659
8.815884199494006	7.530637	2.7442005
8.833463046465745	7.708208	2.776366
8.851042101729728	7.823562	2.797063
8.86862136570707	8.086415	2.8436623
8.886200838818924	8.317189	2.8839538
8.903780521486505	8.411956	2.9003372
8.921360414131055	8.592265	2.9312565
8.938940517173874	8.701447	2.9498215
8.956520831036297	8.864623	2.9773517
8.97410135613971	9.1148	3.0190728
8.99168209290554	9.296064	3.0489447
9.009263041755265	9.521504	3.0856936
9.026844203110405	9.7234535	3.1182454
9.044425577392525	9.875349	3.1425068
9.062007165023239	9.94304	3.1532586
9.079588966424197	10.170267	3.1890857
9.097170982017108	10.264476	3.2038221
9.11475321222372	11.246554	3.3535883
9.132335657465825	12.1255865	3.4821813
9.149918318165264	12.2689905	3.5027118
9.167501194743924	12.945582	3.597997
9.18508428762374	12.652662	3.557058
9.202667597226693	12.579136	3.5467079
9.220251123974803	12.209493	3.4942083
9.237834868290143	11.918104	3.4522607
9.255418830594836	11.71867	3.4232543
9.273003011311046	11.148593	3.3389509
9.290587410860985	10.928449	3.3058205
9.308172029666911	10.321067	3.2126417
9.32575686815113	10.12563	3.1820796
9.343341926735997	8.8896265	2.9815476
9.360927205843916	8.674469	2.9452453
9.378512705897327	8.355192	2.8905349
9.396098427318728	8.025667	2.8329608
9.413684370530664	7.8948717	2.8097816
9.431270535955722	7.802379	2.793274
9.448856924016539	7.785431	2.7902386
9.466443535135806	7.7271047	2.779767
9.484030369736251	7.7694993	2.7873821
9.501617428240658	7.8617935	2.803889
9.519204711071852	7.9022884	2.811101
9.536792218652714	7.944046	2.8185184
9.55437995140617	7.946518	2.8189569
9.571967909755191	7.939455	2.817704
9.589556094122802	7.9567204	2.820766
9.60714450493207	7.864591	2.8043878
9.624733142606116	7.916021	2.8135424
9.642322007568108	7.9290195	2.8158514
9.659911100241267	8.10256	2.8464997
9.677500421048851	8.128515	2.8510551
9.695089970414175	8.175458	2.8592758
9.712679748760609	8.106066	2.8471153
9.730269756511557	8.183998	2.8607688
9.747859994090492	8.221309	2.8672824
9.765450461920915	8.24521	2.8714473
9.78304116042639	8.239659	2.8704808
9.800632090030527	8.225967	2.8680947
9.81822325115699	8.250294	2.8723326
9.835814644229481	8.255964	2.8733194
9.853406269671762	8.283749	2.8781502
9.870998127907646	8.342725	2.8883774
9.888590219360985	8.341192	2.8881123
9.906182544455698	8.323794	2.8850987
9.923775103615734	8.273226	2.8763216
9.941367897265108	8.3052845	2.881889
9.958960925827878	8.370906	2.893252
9.97655418972816	8.372647	2.8935528
9.994147689390106	8.30648	2.8820965
10.011741425237934	8.238932	2.870354
10.029335397695904	8.285198	2.878402
10.04692960718833	8.310292	2.8827577
10.06452405413958	8.312434	2.8831291
10.082118738974064	8.309827	2.882677
10.099713662116246	8.2941265	2.8799524
10.117308823990651	8.308143	2.8823848
10.134904225021844	8.335269	2.8870866
10.152499865634445	8.281167	2.8777018
10.170095746253125	8.296559	2.880375
10.18769186730261	8.223826	2.8677216
10.205288229207675	8.174247	2.8590639
10.222884832393145	8.126308	2.850668
10.2404816772839	8.159922	2.8565576
10.258078764304868	8.205155	2.8644643
10.275676093881035	8.20435	2.8643239
10.293273666437438	8.177011	2.8595474
10.310871482399158	8.16142	2.8568199
10.32846954219134	8.142467	2.8535008
10.346067846239173	8.121497	2.849824
10.363666394967908	8.074356	2.841541
10.38126518880283	8.105038	2.8469348
10.398864228169298	8.173873	2.8589985
10.416463513492713	8.235921	2.8698294
10.434063045198531	8.259554	2.873944
10.451662823712262	8.220725	2.8671806
10.469262849459467	8.17939	2.8599632
10.486863122865758	8.034406	2.8345027
10.504463644356806	8.020089	2.8319762
10.522064414358338	7.9780264	2.8245401
10.539665433296118	7.9529495	2.8200974
10.557266701595987	7.899002	2.8105164
10.574868219683818	7.86156	2.8038473
10.592469987985552	7.7954464	2.7920327
10.610072006927185	7.6952314	2.774028
10.627674276934751	7.5352316	2.7450376
10.64527679843435	7.365702	2.7139828
10.662879571852143	7.263029	2.6950006
10.680482597614331	7.1989346	2.683083
10.698085876147173	7.105501	2.6656146
10.715689407876988	7.071733	2.659273
10.733293193230146	6.9805923	2.642081
10.750897232633072	6.851065	2.617454
10.76850152651225	6.679468	2.5844667
10.786106075294207	6.6198635	2.5729096
10.803710879405534	6.567229	2.5626605
10.821315939272877	6.505288	2.5505466
10.83892125532294	6.441387	2.537989
10.856526827982472	6.3158174	2.513129
10.874132657678285	6.2376356	2.497526
10.891738744837243	6.1561766	2.4811645
10.909345089886271	6.0994925	2.469715
10.926951693252343	6.0699897	2.4637349
10.944558555362494	6.0342717	2.4564755
10.96216567664381	5.9217215	2.4334588
10.979773057523436	5.906588	2.4303472
10.997380698428573	5.8665104	2.422088
11.014988599786477	5.7973824	2.4077754
11.032596762024461	5.7134576	2.390284
11.050205185569892	5.656875	2.3784187
11.067813870850198	5.649277	2.3768208
11.085422818292859	5.5654383	2.3591182
11.10303202832541	5.471637	2.339153
11.120641501375454	5.39119	2.3218937
11.138251237870636	5.3307576	2.3088434
11.155861238238671	5.2193303	2.2845855
11.173471502907317	5.144479	2.2681444
11.191082032304402	5.0959787	2.2574275
11.208692826857805	5.1069694	2.2598605
11.226303886995465	5.1030293	2.2589886
11.243915213145371	5.0521374	2.247696
11.261526805735578	5.003144	2.2367709
11.279138665194196	4.9493136	2.2247052
11.296750791949393	4.9118395	2.216267
11.314363186429393	4.8813252	2.209372
11.331975849062479	4.809239	2.1929977
11.34958878027699	4.700866	2.168148
11.36720198050133	4.670824	2.1612089
11.384815450163948	4.612995	2.1477885
11.402429189693366	4.5782695	2.1396892
11.420043199518153	4.4934783	2.1197827
11.437657480066942	63.469997	7.966806
11.455272031768422	85.19569	9.230151
11.472886855051353	107.619194	10.373967
11.490501950344528	99.18655	9.959245
11.508117318076819	84.534805	9.194282
11.52573295867715	45.922176	6.7765903
11.543348872574514	4.218142	2.0538116
11.560965060197946	4.16375	2.0405269
11.57858152197655	4.083379	2.0207372
11.59619825833949	4.0405145	2.010103
11.613815269715985	3.9838753	1.9959648
11.631432556535323	38.501736	6.2049766
11.649050119226837	83.023796	9.111739
11.666667958219929	93.462746	9.667613
11.68428607394406	107.719345	10.378793
11.701904466828756	82.52753	9.084466
11.719523137303586	65.38275	8.08596
11.737142085798196	4.60012	2.144789
11.754761312742286	3.759743	1.9390056
11.772380818565619	3.7016563	1.9239689
11.790000603698015	3.6616302	1.9135387
11.80762066856935	3.5905828	1.8948833
11.825241013609572	3.570787	1.8896526
11.842861639248683	3.5302289	1.8788903
11.860482545916748	3.4943433	1.8693162
11.878103734043883	3.4747393	1.8640653
11.895725204060282	3.426669	1.8511264
11.91334695639619	3.4075785	1.8459628
11.930968991481919	3.405903	1.8455089
11.948591309747824	3.3700228	1.8357621
11.966213911624347	3.352139	1.8308848
11.98383679754198	3.3479688	1.8297455
12.001459967931268	3.3515832	1.830733
12.019083423222835	3.3268871	1.8239757
12.036707163847352	3.2665558	1.8073616
12.05433119023556	3.2456253	1.801562
12.071955502818259	3.2133574	1.7925841
12.089580102026313	3.189665	1.7859633
12.107204988290643	3.1638176	1.7787124
12.12483016204224	3.166839	1.7795614
12.142455623712152	3.1476848	1.7741716
12.16008137373149	3.1471548	1.7740222
12.177707412531431	3.1201544	1.7663959
12.19533374054321	3.0935273	1.7588426
12.212960358198126	3.068553	1.7517285
12.230587265927545	3.0230808	1.7387009
12.248214464162889	3.0160484	1.7366774
12.265841953335649	3.0256515	1.73944
12.283469733877375	3.0351775	1.742176
12.301097806219685	3.0671773	1.7513359
12.31872617079425	3.043299	1.7445054
12.336354828032825	2.9763775	1.725218
12.353983778367205	2.9313304	1.7121129
12.371613022229262	2.9193046	1.7085973
12.389242560050928	2.9472902	1.7167673
12.406872392264201	2.9277484	1.7110665
12.424502519301143	2.9080758	1.7053081
12.442132941593874	2.9085903	1.705459
12.459763659574586	2.9136739	1.7069488
12.477394673675532	2.9225771	1.7095547
12.49502598432903	2.8969522	1.7020435
12.51265759196746	2.8722565	1.6947733
12.530289497023267	2.8516693	1.6886886
12.547921699928967	2.8416393	1.6857163
12.565554201117134	2.8073392	1.6755116
12.583187001020404	2.755906	1.6600922
12.600820100071486	2.7439125	1.6564759
12.618453498703152	2.762351	1.6620322
12.636087197348235	2.7666636	1.663329
12.65372119643964	2.7646315	1.662718
12.671355496410326	2.7462316	1.6571758
12.68899009769333	2.7902465	1.6704031
12.706625000721749	2.830868	1.6825184
12.724260205928752	2.8826728	1.6978436
12.741895713747551	2.9310265	1.7120241
12.759531524611454	3.0149336	1.7363564
12.777167638953818	3.0405464	1.7437162
12.794804057208072	3.0368779	1.742664
12.812440779807702	3.047029	1.7455741
12.830077807186271	3.1928217	1.7868469
12.847715139777405	3.2725923	1.8090308
12.865352778014795	3.4571426	1.8593392
12.882990722332197	3.5415957	1.8819128
12.90062897316344	3.584088	1.8931688
12.918267530942412	3.6558018	1.9120151
12.935906396103071	3.569261	1.8892488
12.953545569079449	3.745876	1.9354266
12.971185050305628	3.6215954	1.903049
12.988824840215775	3.6515436	1.9109013
13.006464939244115	3.7102773	1.926208
13.024105347824943	3.5678444	1.8888738
13.041746066392617	3.6143968	1.9011567
13.05938709538157	3.389696	1.8411127
13.077028435226296	3.3875427	1.8405279
13.094670086361363	3.2830608	1.8119218
13.112312049221401	3.1407974	1.7722296
13.129954324241112	3.014889	1.7363436
13.147596911855258	2.836797	1.6842793
13.165239812498685	2.859637	1.6910461
13.182883026606293	2.814548	1.6776614
13.200526554613058	2.744013	1.6565063
13.218170396954017	2.6927493	1.6409599
13.235814554064284	2.6888442	1.6397696
13.253459026379034	2.7174656	1.6484737
13.271103814333523	2.6851134	1.6386316
13.288748918363058	2.702138	1.6438181
13.306394338903031	2.7135825	1.6472955
13.32404007638889	2.756132	1.6601602
13.341686131256164	2.7409093	1.6555692
13.359332503940449	2.7071345	1.6453372
13.376979194877402	2.6899087	1.6400942
13.394626204502751	2.6907327	1.6403453
13.412273533252307	2.7142475	1.6474973
13.429921181561937	2.7110548	1.6465281
13.447569149867581	2.712547	1.6469812
13.465217438605247	2.7260022	1.6510609
13.482866048211022	2.7255287	1.6509175
13.500514979121052	2.7466946	1.6573155
13.518164231771568	2.7117023	1.6467247
13.535813806598844	2.7063735	1.645106
13.553463704039254	2.7121146	1.6468499
13.571113924529229	2.705057	1.6447058
13.588764468505275	2.7124279	1.646945
13.606415336403956	2.6890473	1.6398315
13.624066528661917	2.6780834	1.6364851
13.641718045715882	2.7444406	1.6566353
13.659369888002635	2.8021593	1.6739651
13.67702205595903	2.878266	1.6965454
13.694674550021993	2.9516459	1.7180355
13.712327370628532	3.0152907	1.7364593
13.729980518215713	3.118385	1.765895
13.747633993220681	3.196163	1.7877816
13.765287796080647	3.2663822	1.8073136
13.7829419272329	3.2896364	1.8137355
13.800596387114801	3.2718194	1.8088171
13.818251176163775	3.2703898	1.8084219
13.835906294817324	3.2754347	1.8098162
13.853561743513023	3.317949	1.8215238
13.871217522688525	3.3829355	1.8392758
13.888873632781538	3.4969413	1.8700111
13.906530074229858	3.5821352	1.892653
13.92418684747135	3.5573015	1.886081
13.941843952943948	3.512804	1.8742476
13.959501391085665	3.4557512	1.858965
13.977159162334578	3.398832	1.8435922
13.994817267128846	3.3530002	1.8311199
14.012475705906693	3.2962134	1.8155477
14.030134479106424	3.220939	1.7946974
14.047793587166414	3.1484513	1.7743876
14.065453030525108	3.1034017	1.7616475
14.083112809621026	3.0576386	1.7486105
14.100772924892766	3.0158906	1.736632
14.118433376778997	2.9568675	1.7195544
14.136094165718458	2.857727	1.6904813
14.153755292149969	2.7619033	1.6618975
14.171416756512416	2.680362	1.6371812
14.189078559244768	2.6720884	1.6346524
14.20674070078606	2.6100304	1.6155589
14.224403181575408	2.5639672	1.6012393
14.242066002051999	2.5025835	1.5819556
14.259729162655093	2.4601073	1.568473
14.277392663824022	2.4546793	1.5667416
14.295056505998208	2.4796915	1.5747036
14.312720689617128	2.4791076	1.5745182
14.330385215120348	2.4229023	1.5565674
14.348050082947497	2.3999891	1.5491898
14.3657152935383	2.3966346	1.5481068
14.383380847332528	2.4218607	1.5562328
14.401046744770051	2.4062965	1.5512242
14.418712986290798	2.434965	1.5604374
14.436379572334793	2.4031706	1.5502163
14.454046503342123	2.3922997	1.5467061
14.471713779752946	2.3923635	1.5467267
14.489381402007504	2.4153562	1.5541416
14.507049370546113	2.4062557	1.551211
14.524717685809168	2.383151	1.5437458
14.542386348237134	2.3791287	1.5424424
14.560055358270553	2.3910565	1.5463041
14.577724716350051	2.4228988	1.5565664
14.595394422916325	2.4335902	1.5599968
14.61306447841015	2.4492962	1.5650227
14.63073488327237	2.4583907	1.5679256
14.648405637943917	2.4857545	1.5766276
14.6660767428658	2.5114772	1.5847641
14.683748198479094	2.5370028	1.5927972
14.701420005224954	2.578286	1.6057042
14.719092163544628	2.6673162	1.6331921
14.73676467387942	2.6893308	1.639918
14.754437536670727	2.687814	1.6394554
14.772110752360014	2.6858306	1.6388503
14.78978432138882	2.690547	1.6402887
14.807458244198777	2.683444	1.6381221
14.82513252123159	2.667156	1.633143
14.842807152929028	2.682472	1.6378254
14.860482139732962	2.6652062	1.632546
14.87815748208531	2.678489	1.636609
14.8958331804281	2.7031462	1.6441247
14.91350923520342	2.6788065	1.636706
14.931185646853438	2.6980586	1.6425768
14.948862415820408	2.6479385	1.6272488
14.966539542546656	2.6513362	1.6282924
14.98421702747459	2.6556938	1.62963
15.001894871046696	2.696178	1.6420043
15.019573073705542	2.7214694	1.6496876
15.037251635893766	2.7129636	1.6471076
15.054930558054092	2.7331686	1.6532297
15.072609840629323	2.7294035	1.6520907
15.090289484062351	2.8403854	1.6853443
15.107969488796124	3.1035585	1.7616919
15.125649855273691	3.5199654	1.876157
15.14333058393817	4.0125585	2.003137
15.161011675232768	4.9853454	2.2327888
15.17869312960076	6.334516	2.5168464
15.196374947485506	8.268763	2.8755455
15.214057129330447	11.429386	3.3807375
15.231739675579114	16.294935	4.0366983
15.249422586675102	21.24515	4.6092463
15.267105863062092	24.35968	4.9355526
15.284789505183847	24.523968	4.952168
15.302473513484218	22.359554	4.728589
15.320157888407127	18.704016	4.324814
15.337842630396578	14.484315	3.8058264
15.355527739896656	11.262886	3.3560224
15.37321321735153	8.82421	2.9705572
15.39089906320545	6.492339	2.548007
15.408585277902748	4.873515	2.207604
15.42627186188783	3.736275	1.9329447
15.443958815605198	3.2333567	1.7981536
15.461646139499424	2.998591	1.731644
15.479333834015168	2.8353453	1.6838484
15.497021899597165	2.7424366	1.6560304
15.514710336690234	2.6704168	1.634141
15.53239914573928	2.6039662	1.613681
15.550088327189297	2.5570607	1.5990812
15.567777881485336	2.5253553	1.5891367
15.58546780907256	2.5125718	1.5851094
15.6031581103962	2.5156553	1.5860817
15.620848785901568	2.50382	1.5823463
15.638539836034063	2.5039623	1.5823913
15.656231261239173	2.4565074	1.5673249
15.673923061962451	2.4163148	1.55445
15.691615238649552	2.4103212	1.5525209
15.709307791746202	2.4332912	1.559901
15.727000721698221	2.4397476	1.5619692
15.744694028951498	2.4202693	1.5557214
15.76238771395202	2.3911889	1.5463469
15.780081777145844	2.3586006	1.5357736
15.797776218979125	2.3664682	1.5383329
15.815471039898094	2.3772063	1.5418192
15.833166240349064	2.3867095	1.5448979
15.850861820778437	2.3988593	1.5488251
15.868557781632699	2.3881862	1.5453757
15.886254123358412	2.3534338	1.5340905
15.903950846402232	2.3474767	1.5321478
15.921647951210897	2.3568287	1.5351967
15.939345438231225	2.384711	1.544251
15.957043307910133	2.3866236	1.5448701
15.974741560694602	2.3776124	1.5419508
15.992440197031714	2.3714652	1.5399562
16.01013921736862	2.3746343	1.5409849
16.02783862215259	2.4122076	1.5531284
16.045538411830933	2.4486349	1.5648115
16.06323858685107	2.4604812	1.5685921
16.080939147660512	2.4734273	1.5727134
16.09864009470684	2.471942	1.5722411
16.11634142843774	2.4787974	1.5744197
16.134043149300954	2.4577222	1.5677124
16.15174525774433	2.4421184	1.5627279
16.169447754215817	2.4231753	1.5566552
16.18715063916342	2.3852088	1.5444121
16.204853913035244	2.380743	1.5429657
16.222557576279478	2.3865051	1.5448318
16.240261629344403	22.410322	4.733954
16.257966072678386	42.957516	6.5541983
16.275670906729868	38.07443	6.170448
16.293376131947387	2.5221972	1.5881428
16.31108174877957	2.5245864	1.5888947
16.328787757675133	2.5415266	1.5942166
16.34649415908287	2.5746653	1.6045763
16.364200953451657	2.6312041	1.6220987
16.38190814123048	2.646237	1.6267258
16.39961572286839	2.6658716	1.6327497
16.41732369881455	2.6853566	1.6387057
16.43503206951817	2.7229488	1.650136
16.45274083542859	2.759028	1.6610322
16.47044999699522	2.8153749	1.6779078
16.488159554667558	2.844975	1.6867054
16.505869508895184	2.854233	1.6894475
16.523579860127786	2.8768435	1.696126
16.541290608815117	2.933998	1.7128917
16.559001755407035	2.9937189	1.7302366
16.57671330035348	3.0539038	1.7475423
16.59442524410448	3.13289	1.7699971
16.61213758711015	3.2065537	1.7906853
16.629850329820705	3.2423325	1.8006477
16.647563472686436	3.2843223	1.8122699
16.665277016157724	3.3484685	1.8298821
16.682990960685053	3.422346	1.8499584
16.70070530671898	3.507491	1.8728297
16.718420054710155	3.526846	1.8779899
16.736135205109335	3.5542924	1.8852831
16.753850758367335	3.6059256	1.8989275
16.771566714935087	3.6533544	1.911375
16.789283075263597	3.7011914	1.923848
16.80699983980398	3.7629359	1.9398289
16.82471700900741	3.874069	1.9682654
16.84243458332518	3.9072635	1.9766799
16.860152563208665	3.9727376	1.9931728
16.87787094910932	4.0161376	2.0040302
16.89558974147871	4.129616	2.0321455
16.913308940768466	4.2361784	2.0581977
16.931028547430333	4.2782383	2.0683904
16.94874856191613	4.317982	2.0779755
16.966468984677785	4.3738947	2.0913858
16.98418981616729	4.416746	2.1016057
17.00191105683676	4.4463964	2.108648
17.019632707138374	4.455478	2.1108003
17.03735476752442	4.485084	2.1178017
17.05507723844728	4.5562835	2.1345453
17.072800120359403	4.6140714	2.1480389
17.090523413713353	4.682553	2.1639206
17.108247118961785	4.672071	2.1614974
17.125971236557437	4.697715	2.1674213
17.143695766953133	4.720831	2.1727474
17.161420710601806	4.7405195	2.1772735
17.179146067956477	4.7422395	2.1776683
17.19687183947025	4.7121563	2.1707501
17.21459802559634	4.664184	2.1596723
17.232324626788028	4.6250863	2.1506014
17.25005164349871	4.6641498	2.1596642
17.267779076181863	4.6392837	2.1538997
17.285506925291074	4.6494656	2.156262
17.30323519127999	4.6025133	2.1453469
17.320963874602384	4.6246495	2.1504998
17.33869297571211	4.6125364	2.1476817
17.356422495063114	4.6016135	2.145137
17.37415243310944	4.5342093	2.1293683
17.391882790305218	4.4760165	2.1156597
17.40961356710468	4.433934	2.105691
17.42734476396215	4.459474	2.1117468
17.445076381332044	4.499084	2.1211045
17.462808419668868	4.5582747	2.1350117
17.48054087942723	4.680643	2.1634793
17.498273761061835	4.9859853	2.232932
17.51600706502747	5.4778643	2.3404837
17.533740791779024	6.186932	2.4873545
17.551474941771485	7.604068	2.7575474
17.56920951545993	8.692999	2.9483893
17.586944513299528	10.982383	3.313968
17.60467993574556	12.652546	3.5570416
17.622415783253373	14.322578	3.7845182
17.64015205627843	15.686693	3.960643
17.657888755276293	16.732742	4.0905676
17.675625880702604	17.290785	4.158219
17.69336343301311	17.195951	4.1468
17.71110141266366	16.36582	4.0454693
17.728839820110178	15.430137	3.9281213
17.746578655808705	14.578161	3.8181357
17.764317920215372	13.159552	3.6276097
17.7820576137864	11.620259	3.4088502
17.79979773697811	9.555332	3.09117
17.81753829024692	7.6118045	2.75895
17.835279274049356	5.9958525	2.448643
17.85302068884201	4.939003	2.2223868
17.870762535081607	4.289399	2.0710864
17.888504813224934	3.965613	1.9913846
17.90624752372891	3.7764885	1.943319
17.923990667050536	3.669032	1.9154718
17.941734243646895	3.5109565	1.8737546
17.959478253975185	3.447503	1.8567452
17.9772226984927	3.3978388	1.8433228
17.994967577656833	3.4577398	1.8594999
18.01271289192506	3.4499176	1.8573954
18.030458641754965	3.391469	1.8415941
18.04820482760425	3.30523	1.8180292
18.06595144993067	3.283359	1.8120042
18.083698509192125	3.2597222	1.8054701
18.101446005846576	3.2466276	1.8018401
18.119193940352105	3.1940608	1.7871935
18.136942313166887	3.172297	1.7810943
18.1546911247492	3.1661103	1.7793567
18.1724403755574	3.2087014	1.7912848
18.19019006604997	3.2053528	1.79035
18.207940196685467	3.1614006	1.7780328
18.225690767922575	3.1837206	1.7842983
18.243441780220046	3.1519449	1.7753718
18.261193234036764	3.0883539	1.7573713
18.278945129831676	3.028595	1.7402859
18.29669746806386	3.021819	1.738338
18.314450249192483	3.051463	1.7468437
18.3322034736768	3.0594373	1.7491248
18.349957141976184	3.0948815	1.7592275
18.3677112545501	3.0945191	1.7591245
18.385465811858108	3.0965064	1.7596893
18.403220814359884	3.1007595	1.7608974
18.420976262515172	3.107096	1.7626957
18.43873215678387	3.1058836	1.7623518
18.456488497625923	3.1543434	1.7760471
18.474245285501407	3.2414029	1.8003896
18.492002520870486	3.3606179	1.8331988
18.50976020419343	3.4369185	1.8538928
18.527518335930615	3.734148	1.9323944
18.545276916542516	4.2438784	2.0600677
18.563035946489688	4.3762436	2.0919473
18.580795426232832	4.8213377	2.1957545
18.598555356232698	4.738213	2.1767437
18.616315736950185	5.068253	2.2512782
18.63407656884626	4.7062187	2.169382
18.65183785238201	4.8795323	2.2089663
18.669599588018617	4.6417994	2.1544836
18.68736177621737	4.6546497	2.1574638
18.705124417439652	4.6641293	2.1596596
18.72288751214696	4.4948373	2.1201031
18.740651060800886	4.651458	2.1567237
18.758415063863115	4.3462796	2.0847733
18.77617952179546	4.457152	2.1111968
18.793944435059814	4.1263285	2.0313365
18.811709804118184	4.1291413	2.032029
18.829475629432675	4.1482983	2.0367372
18.8472419114655	3.9884884	1.99712
18.86500865067897	4.0597453	2.014881
18.88277584753551	3.7391222	1.933681
18.90054350249763	3.7357821	1.9328171
18.918311616027957	3.4241152	1.8504364
18.936080188589226	3.3467174	1.8294035
18.953849220644265	3.0543313	1.7476646
18.971618712656007	2.9072788	1.7050744
18.9893886650875	2.8416817	1.6857288
19.007159078401887	7.9808173	2.8250341
19.024929953062408	32.883	5.73437
19.042701289532435	32.84211	5.7308035
19.060473088275405	25.388525	5.0387025
19.07824534975489	2.6659606	1.632777
19.096018074434568	2.6517124	1.628408
19.113791262778197	2.6315231	1.622197
19.13156491524966	2.5957055	1.6111194
19.149339032312945	2.5895102	1.6091955
19.167113614432136	2.5747871	1.6046144
19.184888662071433	2.5445006	1.595149
19.202664175695123	2.5551534	1.5984848
19.220440155767623	2.5564377	1.5988864
19.238216602753447	2.544334	1.5950968
19.2559935171172	2.5078032	1.5836045
19.27377089932361	2.5220463	1.5880952
19.291548749837514	2.5977886	1.6117656
19.309327069123835	2.6215317	1.6191145
19.32710585764763	2.6258233	1.6204392
19.344885115874032	2.5953982	1.6110239
19.362664844268313	2.5739343	1.6043485
19.380445043295822	2.5562563	1.5988296
19.39822571342203	2.5635684	1.6011147
19.41600685511252	2.525117	1.5890616
19.43378846883297	2.497109	1.5802243
19.451570555049173	2.4850779	1.5764129
19.469353114227037	2.486488	1.5768602
19.48713614683254	2.4780426	1.57418
19.50491965333182	2.460776	1.5686861
19.52270363419109	2.4698029	1.5715606
19.540488089876686	2.4417756	1.5626181
19.55827302085503	2.4204412	1.5557767
19.576058427592674	2.420879	1.5559174
19.593844310556282	2.465118	1.5700694
19.611630670212598	2.5009012	1.5814238
19.629417507028506	2.5253558	1.5891368
19.64720482147098	2.520185	1.587509
19.6649926140071	2.5102963	1.5843915
19.682780885104084	2.4998386	1.5810878
19.70056963522921	2.5218544	1.5880347
19.718358864849908	2.5561292	1.5987899
19.7361485744337	2.5507262	1.5970993
19.753938764448215	2.522721	1.5883076
19.771729435361202	2.5059853	1.5830305
19.789520587640506	2.5020244	1.5817789
19.807312221754092	2.504367	1.5825192
19.825104338170043	2.4802577	1.5748835
19.842896937356517	2.4794943	1.574641
19.860690019781824	2.4841366	1.5761144
19.87848358591436	2.5431762	1.5947338
19.896277636222635	2.5374408	1.5929346
19.914072171175278	2.5597916	1.5999348
19.931867191241015	2.5163555	1.5863025
19.94966269688869	2.4987211	1.5807344
19.967458688587264	2.484082	1.5760971
19.985255166805807	2.5002332	1.5812125
20.00305213201348	2.4913201	1.5783917
20.020849584679578	2.4942777	1.5793283
20.038647525273507	2.454577	1.5667089
20.05644595426477	2.4843216	1.5761731
20.07424487212299	2.5122678	1.5850135
20.092044279317903	2.4811106	1.5751542
20.109844176319353	2.4513829	1.5656892
20.127644563597304	2.4480205	1.5646151
20.145445441621817	2.458164	1.5678533
20.16324681086307	2.4421449	1.5627364
20.181048671791373	2.4438186	1.5632718
20.198851024877122	2.453832	1.5664712
20.216653870590836	2.473882	1.5728579
20.234457209403146	2.4508557	1.5655209
20.252261041784802	2.3992434	1.5489491
20.270065368206662	2.357598	1.5354472
20.287870189139685	2.3621438	1.5369267
20.305675505054968	2.351117	1.5333352
20.323481316423702	2.3518846	1.5335855
20.341287623717207	2.3548353	1.5345472
20.359094427406884	2.3562667	1.5350136
20.376901727964288	2.3686802	1.5390518
20.39470952586107	2.3919141	1.5465814
20.41251782156899	2.3955402	1.5477533
20.430326615559935	2.3641193	1.5375693
20.448135908305886	2.341942	1.5303406
20.465945700278965	2.3677459	1.5387481
20.483755991951384	2.3803675	1.5428439
20.50156678379548	2.3710203	1.5398117
20.519378076283708	2.3441	1.5310454
20.537189869888635	2.343283	1.5307785
20.55500216508294	2.3574977	1.5354145
20.572814962339415	2.3748698	1.5410613
20.59062826213098	2.3534386	1.5340921
20.60844206493066	2.3295944	1.5263009
20.626256371211593	2.3207436	1.5233986
20.644071181447032	2.3445592	1.5311954
20.66188649611036	2.3426957	1.5305867
20.67970231567506	2.3198953	1.5231203
20.697518640614742	2.3084664	1.5193639
20.715335471403122	2.29152	1.5137768
20.73315280851404	2.2969863	1.5155811
20.750970652421447	2.2854288	1.5117635
20.768789003599412	2.303454	1.5177134
20.786607862522136	2.2828374	1.5109061
20.8044272296639	2.2965333	1.5154318
20.82224710549913	2.288301	1.5127131
20.84006749050237	2.320387	1.5232816
20.857888385148268	3.8498049	1.9620919
20.8757097899116	45.96725	6.7799153
20.893531705267254	64.80555	8.050189
20.911354131690224	83.807526	9.154645
20.92917706965566	69.077545	8.31129
20.94700051963877	50.14767	7.081502
20.96482448211493	29.388273	5.4210954
20.982648957559622	4.1041107	2.0258605
21.00047394644843	2.2232292	1.4910496
21.01829944925707	2.2797499	1.509884
21.036125466461375	2.2692497	1.5064029
21.053951998537297	2.2427552	1.4975832
21.071779045960906	2.2228706	1.4909295
21.089606609208378	2.2514813	1.5004936
21.10743468875603	2.2708824	1.5069447
21.12526328508028	2.2692385	1.5063992
21.143092398657675	2.2469156	1.4989715
21.16092202996488	2.2440693	1.4980218
21.17875217947867	2.243256	1.4977504
21.19658284767596	2.2055502	1.4851094
21.21441403503377	2.1734512	1.474263
21.232245742029225	2.1465237	1.465102
21.2500779691396	2.1516526	1.4668512
21.26791071684227	2.1279628	1.4587538
21.28574398561475	2.109151	1.4522916
21.30357777593465	2.1236088	1.4572607
21.321412088279704	2.1309392	1.4597737
21.339246923127792	2.1249723	1.4577285
21.357082280956888	2.1294267	1.4592556
21.3749181622451	2.1529534	1.4672946
21.392754567470647	2.1739218	1.4744226
21.41059149711187	2.1886208	1.4793988
21.42842895164726	2.1925988	1.4807427
21.446266931555378	2.1744773	1.4746109
21.464105437314945	2.1578624	1.4689665
21.481944469404798	2.1240551	1.4574139
21.49978402830388	2.1003351	1.4492533
21.51762411449127	2.1170301	1.4550017
21.53546472844617	2.1380994	1.4622241
21.553305870647876	2.1447074	1.464482
21.571147541575865	2.109378	1.4523698
21.58898974170967	2.0982063	1.4485186
21.60683247152899	2.1037042	1.4504151
21.62467573151363	2.1028576	1.4501233
21.642519522143523	2.0753276	1.4405998
21.660363843898722	2.0409992	1.4286355
21.6782086972594	2.0117614	1.4183657
21.696054082705864	2.002987	1.4152693
21.713900000718535	1.9861552	1.4093102
21.73174645177795	1.9883606	1.4100925
21.749593436364794	2.0183969	1.4207029
21.767440954959845	2.0237463	1.4225844
21.785289008044032	2.0068808	1.4166442
21.803137596098388	2.0031512	1.4153272
21.820986719604086	2.0349722	1.4265245
21.838836379042412	2.0610113	1.4356222
21.85668657489478	2.039753	1.4281992
21.87453730764273	2.0232236	1.4224007
21.892388577767914	2.0389876	1.4279312
21.91024038575213	2.0565813	1.4340786
21.928092732077285	2.0284448	1.4242347
21.945945617225426	2.0147383	1.4194148
21.963799041678694	1.9904926	1.4108481
21.981653005919398	31.30914	5.595457
21.999507510429943	78.11151	8.838072
22.01736255569286	73.06503	8.547809
22.035218142190818	4.2001534	2.0494275
22.05307427040661	2.0609956	1.4356169
22.07093094082315	2.0479681	1.4310724
22.088788153923474	2.0042179	1.415704
22.106645910190746	1.9891586	1.4103754
22.12450421010827	2.0220304	1.4219811
22.142363054159464	1.9990072	1.4138625
22.16022244282787	1.9596828	1.3998867
22.178082376597164	1.9318236	1.3899006
22.195942855951145	1.9398336	1.3927791
22.213803881373742	1.9413108	1.3933092
22.231665453349002	1.9419279	1.3935307
22.24952757236111	1.9357824	1.391324
22.26739023889438	1.973428	1.4047875
22.28525345343323	2.0114083	1.4182413
22.30311721646225	2.055658	1.4337566
22.320981528466113	2.0150802	1.4195352
22.33884638992964	1.9948657	1.4123971
22.356711801337788	2.002004	1.4149219
22.37457776317561	1.988944	1.4102993
22.392444275928337	1.9700426	1.4035821
22.410311340081282	1.9485197	1.3958939
22.428178956119904	1.9588356	1.399584
22.446047124529805	1.9226475	1.3865956
22.46391584579669	1.922604	1.38658
22.481785120406414	1.9016097	1.3789886
22.49965494884496	1.9187657	1.3851951
22.51752533159841	1.9461641	1.3950498
22.53539626915302	1.9511237	1.3968263
22.553267761995137	1.9544963	1.398033
22.571139810611264	1.9396119	1.3926995
22.589012415488025	1.9700564	1.403587
22.60688557711216	1.9644792	1.4015988
22.624759295970566	1.9457164	1.3948894
22.642633572550263	1.9840881	1.4085766
22.660508407338362	1.9704278	1.4037193
22.67838380082217	1.9349351	1.3910195
22.696259753489077	1.9193195	1.385395
22.714136265826614	1.928275	1.3886234
22.73201333832246	1.9300338	1.3892566
22.74989097146439	1.9082886	1.3814082
22.76776916574035	1.9040269	1.3798648
22.785647921638393	1.9133642	1.383244
22.803527239646712	1.9258362	1.387745
22.82140712025363	1.9195516	1.3854789
22.839287563947593	1.9040551	1.3798751
22.85716857121719	1.9183053	1.385029
22.875050142551135	1.9335685	1.3905281
22.892932278438277	1.9318572	1.3899127
22.910814979367604	1.9150187	1.383842
22.928698245828222	1.8986546	1.3779168
22.946582078309387	1.8916143	1.3753597
22.96446647730047	1.9017416	1.3790364
22.98235144329098	1.9178029	1.3848476
23.000236976770562	1.91607	1.3842218
23.018123078229	1.9047554	1.3801287
23.03600974815619	1.893074	1.3758903
23.053896987042194	1.9025639	1.3793346
23.071784795377173	1.9070371	1.3809551
23.08967317365145	1.8789148	1.3707352
23.10756212235546	1.8910236	1.375145
23.125451641979787	1.8841829	1.3726554
23.143341733015134	1.9181346	1.3849673
23.161232395952357	1.9189873	1.3852751
23.179123631282426	1.9191293	1.3853264
23.197015439496468	1.9217243	1.3862628
23.214907821085717	1.9264368	1.3879614
23.23280077654157	1.9115267	1.3825797
23.250694306355538	1.9089698	1.3816547
23.268588411019277	1.9379759	1.392112
23.28648309102458	1.9699062	1.4035335
23.304378346863356	1.9494612	1.396231
23.322274179027676	1.9447324	1.3945366
23.340170588009723	1.9495577	1.3962656
23.358067574301852	1.9639298	1.4014028
23.37596513839651	1.9661247	1.4021857
23.39386328078629	1.9500127	1.3964286
23.411762001963947	1.9305582	1.3894453
23.429661302422353	1.9309615	1.3895904
23.4475611826545	1.9503013	1.3965318
23.46546164315356	1.9350032	1.3910439
23.48336268441279	1.9452499	1.3947222
23.501264306925638	1.9290217	1.3888923
23.51916651118564	1.9322158	1.3900417
23.537069297686497	1.9225503	1.3865606
23.554972666922037	1.930131	1.3892915
23.57287661938623	1.8994281	1.3781974
23.59078115557318	1.8927435	1.3757701
23.608686275977128	1.8683456	1.3668745
23.62659198109246	1.8766365	1.3699038
23.6444982714137	1.9086851	1.3815517
23.66240514743549	1.9550393	1.3982272
23.68031260965263	1.9632331	1.4011542
23.698220658560068	1.934955	1.3910266
23.716129294652845	1.9179484	1.3849001
23.7340385184262	1.9049324	1.3801929
23.75194833037546	1.9126594	1.3829893
23.769858730996123	1.9313546	1.3897319
23.78776972078382	1.9246652	1.387323
23.80568130023431	1.9282479	1.3886137
23.823593469843495	1.8818034	1.3717884
23.841506230107424	1.9007705	1.3786844
23.859419581522275	1.9480429	1.3957231
23.87733352458438	1.9822297	1.4079168
23.89524805979019	1.951051	1.3968003
23.913163187636318	1.9043913	1.3799969
23.931078908619508	1.9029148	1.3794618
23.948995223236633	1.9449407	1.3946114
23.966912131984735	2.0153062	1.4196148
23.98482963536096	2.0525362	1.4326675
24.002747733862616	2.0320187	1.425489
24.020666427987155	1.9944208	1.4122397
24.038585718232156	1.9785225	1.4065996
24.056505605095353	1.9922831	1.4114826
24.074426089074617	2.033377	1.4259653
24.092347170667946	2.0238895	1.4226347
24.110268850373515	2.0095656	1.4175915
24.128191128689586	2.0428085	1.4292685
24.146114006114626	2.079997	1.4422195
24.164037483147187	2.1184475	1.4554888
24.181961560286005	2.1229005	1.4570177
24.199886238029926	2.1136775	1.4538492
24.21781151687797	2.0918727	1.4463308
24.235737397329274	2.0720074	1.4394469
24.253663879883135	2.0858192	1.4442365
24.271590965038975	2.0853868	1.4440868
24.289518653296376	2.0884192	1.4451364
24.30744694515505	2.0461123	1.4304239
24.32537584111486	2.0364358	1.4270375
24.34330534167581	2.0257006	1.4232711
24.361235447338046	2.0085206	1.4172229
24.379166158601876	1.9871533	1.4096643
24.39709747596772	1.9974782	1.4133217
24.41502939993615	2.0251412	1.4230746
24.432961931007917	2.0294435	1.4245853
24.450895069683856	2.038187	1.4276509
24.468828816465	2.011826	1.4183885
24.4867631718525	1.9763424	1.4058244
24.504698136347656	1.9614059	1.400502
24.52263371045192	1.980366	1.4072548
24.540569894666874	1.9800828	1.4071541
24.558506689494266	1.9691663	1.4032699
24.57644409543597	1.9348238	1.3909794
24.594382112994012	1.9239675	1.3870715
24.61232074267057	1.9107544	1.3823004
24.630259984967953	1.9048337	1.3801571
24.64819984038863	1.9052386	1.3803039
24.66614030943522	1.95429	1.3979592
24.684081392610462	1.9641352	1.401476
24.702023090417274	1.9618709	1.400668
24.7199654033587	1.9880421	1.4099795
24.737908331937927	2.0088904	1.4173533
24.755851876658305	2.0244079	1.4228169
24.773796038023324	2.0120494	1.4184673
24.79174081653661	2.003612	1.41549
24.809686212701962	2.0779889	1.4415231
24.827632227023294	2.127685	1.4586587
24.8455788600047	2.1303337	1.4595662
24.8635261121504	2.0956457	1.4476345
24.88147398396475	2.0652778	1.4371074
24.899422475952303	2.0744972	1.4403116
24.917371588617698	2.1149392	1.454283
24.935321322465768	2.1861224	1.4785541
24.953271678001478	2.2633803	1.5044535
24.97122265572994	2.446887	1.5642529
24.989174256156414	2.7724848	1.665078
25.00712647978632	3.2207375	1.7946414
25.02507932712521	3.8231704	1.9552929
25.043032798678798	4.4192977	2.1022127
25.060986894952933	5.0916696	2.2564728
25.078941616453637	5.8032703	2.4089978
25.096896963687055	6.682052	2.5849667
25.114852937159508	7.82693	2.797665
25.132809537377444	8.20011	2.8635836
25.150766764847468	8.247038	2.8717656
25.168724620076347	7.589355	2.7548783
25.186683103570985	6.6180334	2.5725539
25.204642215838426	5.479826	2.3409028
25.222601957385894	4.207367	2.0511868
25.24056232872074	3.2268133	1.7963333
25.25852333035048	2.6291823	1.6214753
25.276484962782778	2.2673478	1.5057715
25.294447226525435	2.0748897	1.4404477
25.312410122086423	2.0079417	1.4170187
25.330373649973843	1.9678152	1.4027884
25.348337810695988	1.923385	1.3868616
25.366302604761245	1.8576379	1.3629519
25.384268032678207	1.8177865	1.3482531
25.40223409495558	1.8294946	1.352588
25.420200792102257	1.8863448	1.3734426
25.438168124627246	1.9326121	1.3901842
25.45613609303974	1.9550023	1.398214
25.474104697849057	1.962245	1.4008015
25.492073939564698	1.9348545	1.3909905
25.510043818696285	1.8856721	1.3731978
25.528014335753614	1.8748676	1.369258
25.54598549124664	1.9161029	1.3842337
25.56395728568544	1.9625533	1.4009116
25.58192971958028	1.9417924	1.3934821
25.59990279344156	1.9232724	1.3868209
25.617876507779833	1.8934182	1.3760153
25.635850863105826	1.8494428	1.3599422
25.653825859930386	1.8292305	1.3524905
25.671801498764548	1.8078063	1.3445469
25.68977778011949	1.8207297	1.3493441
25.707754704506524	1.8649757	1.3656411
25.725732272437153	1.8864355	1.3734757
25.743710484423012	1.9211395	1.3860518
25.761689340975888	1.9090909	1.3816985
25.77966884260774	1.8533171	1.3613659
25.797648989830662	1.8104256	1.3455206
25.815629783156922	1.7865491	1.3366185
25.83361122309895	1.840769	1.3567494
25.85159331016929	1.8425865	1.357419
25.869576044880695	1.8519418	1.3608607
25.887559427746034	1.8142105	1.3469263
25.90554345927836	1.8059939	1.3438728
25.92352813999086	1.8333806	1.3540238
25.94151347039689	1.8509743	1.3605052
25.959499451009965	1.851544	1.3607146
25.97748608234374	1.8417311	1.357104
25.995473364912062	1.784722	1.3359349
26.013461299228904	1.772616	1.3313962
26.03144988580839	1.7969682	1.3405105
26.04943912516483	1.8417892	1.3571254
26.067429017812675	1.8587773	1.3633698
26.085419564266537	1.8729095	1.3685429
26.103410765041186	1.8614136	1.3643364
26.12140262065155	1.8168875	1.3479197
26.139395131612723	1.785319	1.3361583
26.157388298439948	1.7746552	1.3321619
26.17538212164861	1.7986288	1.3411297
26.193376601754295	1.814439	1.3470112
26.211371739272714	1.8263966	1.3514425
26.229367534719746	1.8134567	1.3466464
26.247363988611433	1.8060998	1.3439121
26.26536110146397	1.7952545	1.339871
26.283358873793727	1.7998177	1.3415729
26.301357306117204	1.8206753	1.349324
26.319356398951104	1.8286822	1.3522878
26.33735615281224	1.81342	1.3466328
26.35535656821762	1.8056428	1.3437421
26.373357645684404	1.8168192	1.3478943
26.39135938572991	1.8409302	1.3568088
26.409361788871614	1.8385923	1.355947
26.427364855627165	1.7910165	1.3382887
26.445368586514352	1.7719835	1.3311588
26.46337298205115	1.7665801	1.3291276
26.48137804275568	1.7556363	1.3250042
26.499383769146217	1.7776659	1.3332914
26.517390161741215	1.760844	1.326968
26.53539722105928	1.8037893	1.3430523
26.553404947619182	1.8067067	1.3441379
26.571413341939856	1.7817446	1.33482
26.589422404540397	1.7882755	1.3372642
26.60743213594006	1.8139151	1.3468167
26.62544253665827	1.8057712	1.3437899
26.64345360721459	1.8195313	1.3489001
26.66146534812879	1.8603452	1.3639448
26.679477759920758	1.902795	1.3794184
26.69749084311057	1.8752489	1.3693973
26.71550459821847	1.8316517	1.3533852
26.733519025764842	1.8203632	1.3492084
26.751534126270258	1.8151082	1.3472595
26.769549900255434	1.830965	1.3531315
26.787566348241267	1.8094157	1.3451452
26.80558347074881	1.782504	1.3351045
26.823601268299267	1.7914302	1.3384432
26.841619741414036	1.799182	1.3413359
26.85963889061465	1.8109928	1.3457314
26.877658716422832	1.8270108	1.3516697
26.89567921936045	1.8098748	1.3453158
26.913700399949544	1.7872778	1.336891
26.93172225871233	1.7776335	1.3332793
26.949744796171174	1.771933	1.3311397
26.967768012848605	1.7925838	1.3388741
26.98579190926733	1.8512433	1.360604
27.003816485950225	1.8518206	1.3608161
27.021841743420318	1.8162467	1.347682
27.039867682200814	1.7624043	1.3275558
27.057894302815072	1.8110825	1.3457646
27.07592160578664	1.8476019	1.3592652
27.0939495916392	1.8718284	1.3681479
27.111978260896635	1.8461642	1.3587363
27.13000761408296	1.833383	1.3540248
27.148037651722397	1.8472095	1.3591208
27.166068374339304	1.8656235	1.3658782
27.184099782458215	1.8664132	1.3661673
27.20213187660384	1.7853653	1.3361757
27.22016465730105	1.7804548	1.3343369
27.23819812507487	1.8250085	1.3509288
27.256232280450533	1.8471303	1.3590918
27.274267123953383	1.7798148	1.334097
27.292302656108987	1.7411138	1.3195127
27.31033887744306	1.7822214	1.3349986
27.32837578848146	1.8265336	1.3514931
27.34641338975026	1.8104693	1.3455368
27.364451681775673	1.7972974	1.3406332
27.382490665084074	1.8169678	1.3479495
27.400530340202046	1.8406022	1.3566879
27.41857070765629	1.8725389	1.3684075
27.436611767973726	1.898425	1.3778335
27.454653521681404	1.8964734	1.377125
27.472695969306564	1.9045508	1.3800546
27.490739111376627	1.8348427	1.3545636
27.508782948419153	1.7957147	1.3400428
27.526827480961902	1.7900097	1.3379124
27.54487270953279	1.7774135	1.3331968
27.562918634659898	1.7556462	1.325008
27.580965256871508	1.7853463	1.3361685
27.599012576696026	1.8027579	1.3426682
27.617060594662068	1.8199372	1.3490505
27.63510931129842	1.8292054	1.3524812
27.65315872713401	1.8409053	1.3567996
27.67120884269797	1.8617915	1.3644748
27.68925965851958	1.8286651	1.3522815
27.707311175128307	1.8270422	1.3516812
27.725363393053787	1.827541	1.3518658
27.74341631282583	1.8511573	1.3605725
27.7614699349744	1.8668221	1.366317
27.77952426002968	2.1137042	1.4538584
27.797579288521973	2.1768482	1.4754146
27.815635020981784	2.5577793	1.5993059
27.83369145793979	2.5529199	1.597786
27.85174859992682	2.4374926	1.5612471
27.869806447473923	2.3093817	1.519665
27.887865001112267	1.9820925	1.407868
27.905924261373233	1.8511292	1.3605621
27.92398422878836	1.9141375	1.3835236
27.94204490388936	1.9553258	1.3983296
27.96010628720813	1.9809674	1.4074684
27.978168379276728	1.9544007	1.3979988
27.9962311806274	1.93007	1.3892696
28.014294691792568	1.8716038	1.3680657
28.0323589133048	1.8253518	1.3510559
28.050423845696887	1.8503734	1.3602843
28.068489489501758	1.8483471	1.3595393
28.086555845252523	1.8838336	1.3725282
28.104622913482487	1.8962238	1.3770344
28.122690694725115	1.8788173	1.3706995
28.14075918951405	1.8600923	1.363852
28.15882839838312	1.8113002	1.3458455
28.176898321866304	1.7881315	1.3372103
28.1949689604978	1.845811	1.3586062
28.213040314811945	1.9150717	1.3838612
28.23111238534327	1.9394518	1.392642
28.249185172626493	1.9414605	1.393363
28.267258677196473	1.9310751	1.3896313
28.285332899588294	1.8288295	1.3523422
28.303407840337172	1.8472748	1.3591449
28.321483499978545	1.9131366	1.3831618
28.33955987904799	1.9600351	1.4000125
28.357636978081285	1.9306331	1.3894722
28.37571479761439	1.9282892	1.3886285
28.393793338183425	1.9741602	1.4050481
28.41187260032469	1.9885579	1.4101623
28.429952584574686	1.960889	1.4003174
28.448033291470065	1.9777472	1.406324
28.46611472154769	2.0089993	1.4173918
28.484196875344566	1.9963475	1.4129217
28.502279753397914	1.9920174	1.4113885
28.52036335624511	1.9713691	1.4040545
28.538447684423716	2.0114858	1.4182686
28.556532738471482	2.0148335	1.4194483
28.574618518926325	2.0466263	1.4306035
28.59270502632635	2.0418265	1.4289249
28.61079226120985	2.0140617	1.4191765
28.628880224115274	2.0070465	1.4167026
28.646968915581287	2.044758	1.4299504
28.66505833614671	2.0421462	1.4290369
28.68314848635055	2.051641	1.432355
28.701239366732004	2.1066825	1.4514415
28.71933097783044	2.1016934	1.4497218
28.737423320185403	2.1056492	1.4510856
28.75551639433665	2.122523	1.4568882
28.773610200824074	2.1539545	1.4676356
28.791704740187793	2.1552033	1.4680611
28.80980001296809	2.1213667	1.4564912
28.827896019705413	2.107758	1.451812
28.845992760940433	2.171978	1.4737632
28.86409023721397	2.2015903	1.4837757
28.88218844906704	2.2229605	1.4909595
28.900287397040845	2.2150195	1.4882941
28.918387081676755	2.1675777	1.4722695
28.936487503516343	2.1634853	1.4708791
28.954588663101365	2.2192223	1.4897054
28.97269056097374	2.2753134	1.5084141
28.990793197675597	2.347216	1.5320626
29.00889657374923	2.4073586	1.5515665
29.027000689737125	2.350129	1.533013
29.04510554618196	2.2792764	1.5097272
29.06321114362659	2.3429804	1.5306797
29.08131748261405	2.4333456	1.5599184
29.099424563687567	2.5001009	1.5811707
29.11753238739057	2.5467658	1.5958589
29.13564095426663	2.5904884	1.6094995
29.15375026485954	2.6238203	1.6198211
29.171860319713275	2.6699545	1.6339996
29.18997111937199	2.6476934	1.6271734
29.20808266438002	2.7099597	1.6461955
29.226194955281898	2.7475142	1.6575627
29.244307992622335	2.8060226	1.6751187
29.26242177694624	2.867603	1.6933999
29.2805363087987	2.8144212	1.6776236
29.29865158872498	2.8428705	1.6860814
29.316767617270557	2.8628585	1.6919984
29.334884394981064	2.917403	1.7080407
29.353001922402367	2.9098935	1.705841
29.37112020008047	2.9534044	1.7185472
29.389239228561596	3.061161	1.7496175
29.407359008392152	3.2256272	1.7960031
29.42547954011872	3.6567452	1.9122618
29.44360082428809	4.3234844	2.079299
29.46172286144722	5.377223	2.318884
29.479845652143283	6.8980074	2.6264057
29.497969196923606	9.019398	3.0032313
29.516093496335728	11.680836	3.4177237
29.5342185509274	14.5110445	3.8093364
29.55234436124651	16.720432	4.0890627
29.570470927841175	17.950447	4.236797
29.588598251259686	17.59725	4.1949077
29.60672633205055	16.278158	4.03462
29.624855170762405	14.352101	3.7884166
29.642984767944146	11.6237	3.4093547
29.66111512414481	8.875133	2.979116
29.67924623991366	6.584706	2.5660682
29.697378115800138	5.0489187	2.24698
29.71551075235387	4.1551685	2.038423
29.733644150124675	3.6881273	1.9204497
29.751778309662576	3.4369278	1.8538953
29.769913231517766	3.3804045	1.8385876
29.78804891624066	3.3543215	1.8314806
29.806185364381818	3.356794	1.8321556
29.82432257649206	3.2796137	1.8109704
29.842460553122333	3.2846556	1.8123618
29.86059929482382	3.2662265	1.8072704
29.878738802147872	3.273544	1.8092937
29.896879075646048	3.3159058	1.8209629
29.915020115870114	3.2971349	1.8158015
29.933161923371976	3.2604878	1.8056821
29.951304498703777	3.2615628	1.8059797
29.969447842417857	3.2719278	1.8088471
29.987591955066733	3.2657337	1.8071342
30.005736837203123	3.227955	1.7966511
30.023882489379943	3.2311406	1.7975373
30.04202891215028	3.1932235	1.7869593
30.060176106067455	3.172893	1.7812617
30.078324071684946	3.1001506	1.7607244
30.09647280955646	3.0724304	1.7528349
30.114622320235863	3.1257553	1.7679806
30.132772604277257	3.1768014	1.7823584
30.1509236622349	3.137078	1.7711798
30.16907549466328	3.0873077	1.7570736
30.18722810211705	3.0008254	1.7322891
30.205381485151097	2.9354079	1.7133032
30.22353564432045	3.0103097	1.7350245
30.241690580180403	3.0704691	1.7522755
30.25984629328638	3.0709684	1.7524179
30.278002784194037	3.0526586	1.747186
30.296160053459246	3.0343733	1.7419453
30.314318101638033	2.9932263	1.7300943
30.332476929286646	2.9708848	1.7236255
30.35063653696153	2.9872189	1.7283573
30.368796925219307	3.0013132	1.7324299
30.386958094616844	2.9761908	1.7251639
30.40512004571115	2.9070125	1.7049963
30.423282779059463	2.891098	1.7003229
30.441446295219233	2.847803	1.6875435
30.459610594748067	2.8261712	1.681122
30.47777567820382	2.8453515	1.6868169
30.495941546144504	2.8886719	1.6996093
30.51410819912835	2.8876503	1.6993088
30.532275637713795	2.8392777	1.6850157
30.55044386245946	2.7818484	1.6678874
30.56861287392416	2.785424	1.6689589
30.586782672666956	2.8421745	1.685875
30.604953259247047	2.8514602	1.6886268
30.623124634223885	2.8145323	1.6776568
30.641296798157075	2.8007755	1.6735518
30.659469751606462	2.7474556	1.6575451
30.677643495132074	2.700471	1.6433109
30.695818029294152	2.6756458	1.6357402
30.713993354653116	2.754494	1.6596668
30.73216947176962	2.8160164	1.678099
30.75034638120448	2.8002439	1.6733929
30.768524083518756	2.7985213	1.6728781
30.786702579273673	2.8612409	1.6915203
30.80488186903069	2.86202	1.6917505
30.82306195335144	2.9135492	1.7069122
30.841242832797782	3.1171517	1.7655457
30.85942450793176	3.4920046	1.8686906
30.877606979315637	3.8871784	1.9715929
30.895790247511883	4.1972427	2.0487173
30.913974313083134	4.5696683	2.1376781
30.932159176592283	4.8628883	2.2051957
30.95034483860237	4.944404	2.2236016
30.968531299676698	4.686494	2.1648312
30.98671856037873	4.2235265	2.055122
31.00490662127215	3.787216	1.9460771
31.023095482920848	3.4432805	1.8556079
31.04128514588892	3.066479	1.7511364
31.059475610740662	2.7519274	1.6588935
31.07766687804056	2.525767	1.5892662
31.09585894835335	2.4444559	1.5634756
31.11405182224393	2.394569	1.5474395
31.132245500277417	2.416712	1.5545778
31.15043998301914	2.4421291	1.5627313
31.168635271034628	2.4327307	1.5597214
31.18683136488964	2.4404042	1.5621793
31.20502826515008	2.4505262	1.5654156
31.223225972382135	2.429993	1.5588435
31.241424487152155	2.3469052	1.5319612
31.259623810026692	2.3222432	1.5238909
31.27782394157253	2.4193332	1.5554206
31.296024882356644	2.5295837	1.5904665
31.314226632946237	2.4492562	1.56501
31.332429193908684	2.4267929	1.5578167
31.350632565811598	2.4437518	1.5632504
31.368836749222787	2.4506536	1.5654564
31.387041744710295	2.5086026	1.5838569
31.40524755284232	2.5520627	1.5975177
31.423454174187317	2.5579185	1.5993494
31.441661609313922	2.5552664	1.59852
31.459869858791002	2.5164785	1.5863413
31.478078923187628	2.3930786	1.5469579
31.496288803073064	2.3443449	1.5311253
31.514499499016807	2.3564494	1.535073
31.532711011588546	2.3041334	1.5179372
31.550923341358178	2.3031726	1.5176207
31.56913648889584	2.3249974	1.5247942
31.587350454771844	2.3234441	1.5242848
31.605565239556732	2.2750282	1.5083196
31.62378084382127	2.2964032	1.5153887
31.641997268136382	2.3015666	1.5170915
31.660214513073274	2.317858	1.5224513
31.67843257920331	2.2844741	1.5114477
31.6966514670981	2.2279077	1.4926177
31.71487117732944	2.3203566	1.5232717
31.733091710469346	2.3748155	1.5410436
31.751313067090052	2.3081384	1.5192559
31.769535247764008	2.260175	1.5033878
31.787758253063878	2.2714765	1.5071418
31.805982083562526	2.2984736	1.5160718
31.824206739833024	2.3186162	1.5227003
31.84243222244869	2.264696	1.5048907
31.860658531983013	2.2478783	1.4992926
31.878885669009737	2.2657275	1.5052334
31.897113634102784	2.2538857	1.5012947
31.91534242783632	2.1876776	1.47908
31.933572050784694	2.202918	1.484223
31.951802503522508	2.1804664	1.4766402
31.970033786624548	2.1076438	1.4517727
31.988265900665834	2.1811094	1.4768579
32.006498846221575	2.2550516	1.5016829
32.02473262386724	2.2090676	1.4862932
32.04296723417845	2.1201904	1.4560874
32.0612026777311	2.1534326	1.4674579
32.07943895510129	2.243947	1.497981
32.097676066865304	2.2114184	1.4870839
32.115914013599685	2.1776555	1.4756881
32.13415279588115	2.1276877	1.4586595
32.152392414286666	2.1936352	1.4810926
32.1706328693934	2.2159123	1.488594
32.18887416177875	2.261656	1.5038804
32.20711629202032	2.1984768	1.4827261
32.225359260695924	2.1470556	1.4652835
32.243603068383614	2.1341429	1.4608706
32.26184771566166	2.1117737	1.4531943
32.28009320310852	2.1271956	1.4584908
32.2983395313029	2.157021	1.46868
32.31658670082372	2.1548748	1.4679492
32.33483471225012	2.1187446	1.4555908
32.35308356616143	2.123165	1.4571084
32.371333263137245	2.1144714	1.4541222
32.38958380375734	2.162084	1.4704027
32.407835188601744	2.111302	1.453032
32.42608741825067	2.1474385	1.4654142
32.444340493284585	2.1689818	1.4727464
32.46259441428416	2.0857024	1.4441961
32.48084918183028	2.0443966	1.429824
32.49910479650405	2.0762155	1.4409078
32.51736125888683	2.0914907	1.4461987
32.53561856956014	2.0460536	1.4304034
32.5538767291058	2.0598862	1.4352304
32.572135738105764	2.1334512	1.4606339
32.59039559714228	2.2077951	1.4858651
32.608656306797776	2.209058	1.48629
32.62691786765491	2.1197205	1.455926
32.645180280296586	2.052786	1.4327548
32.663443545305896	2.0252614	1.4231168
32.68170766326619	2.0352745	1.4266305
32.69997263476099	1.998551	1.4137012
32.7182384603741	1.9969875	1.413148
32.7365051406895	2.0591605	1.4349775
32.75477267629144	2.0704818	1.4389169
32.77304106776434	2.0736947	1.4400328
32.79131031569289	2.0629673	1.4363034
32.809580420661966	1.9879421	1.409944
32.827851383256714	1.8729756	1.368567
32.84612320406245	1.884057	1.3726096
32.86439588366476	1.8855112	1.3731391
32.88266942264945	1.8529334	1.361225
32.9009438216025	1.8880302	1.3740561
32.9192190811102	2.0129964	1.4188011
32.937495201758985	2.0394912	1.4281075
32.95577218413556	2.032849	1.4257802
32.974050028826866	1.9972236	1.4132316
32.992328736420035	1.9506631	1.3966614
33.010608307502444	1.9631454	1.4011229
33.02888874266169	2.018722	1.4208174
33.047170042485604	2.0141256	1.4191989
33.06545220756225	1.9841108	1.4085847
33.083735238479896	1.9376618	1.3919992
33.10201913582707	1.9322821	1.3900656
33.12030390019248	1.9774898	1.4062325
33.138589532165135	2.0473998	1.4308738
33.15687603233419	2.0764384	1.4409852
33.17516340128909	1.9717538	1.4041915
33.19345163961947	1.9039143	1.379824
33.211740747915215	1.941911	1.3935246
33.23003072676643	1.9146923	1.3837241
33.248321576763466	1.8253248	1.3510458
33.266613298496885	1.8551145	1.3620259
33.28490589255747	1.8727372	1.3684798
33.30319935953626	1.852308	1.3609953
33.32149370002451	1.88933	1.374529
33.339788914613706	1.9439951	1.3942722
33.358085003895575	1.9832308	1.4082723
33.376381968462034	2.0287676	1.4243481
33.39467980890529	2.1286168	1.458978
33.41297852581774	2.1201158	1.4560617
33.43127811979204	2.0163164	1.4199705
33.44957859142105	2.006502	1.4165105
33.467879941297866	2.0568354	1.4341671
33.486182170015844	2.0894928	1.4455078
33.50448527816853	2.039877	1.4282426
33.522789266349754	1.9769943	1.4060563
33.541094135153514	1.9811214	1.4075232
33.55939988517411	1.9739597	1.4049767
33.57770651700602	1.9750711	1.4053723
33.59601403124398	1.9277308	1.3884275
33.61432242848296	1.9398049	1.3927687
33.632631709318154	1.8966199	1.3771782
33.650941874344994	1.8777599	1.3703138
33.66925292415916	1.8858615	1.3732667
33.68756485935654	1.9521707	1.3972011
33.70587768053328	1.9784703	1.406581
33.724191388285746	2.0577188	1.4344751
33.74250598321054	2.0865989	1.4445064
33.760821465904506	2.0510256	1.4321402
33.77913783696474	1.9669206	1.4024695
33.79745509698852	1.8549317	1.3619587
33.815773246573414	1.8995129	1.3782282
33.8340922863172	2.0170765	1.4202381
33.852412216817896	2.0281494	1.424131
33.87073303867377	1.9188616	1.3852298
33.889054752483304	1.936875	1.3917166
33.907377358845245	1.9676783	1.4027395
33.92570085835853	2.0136652	1.4190367
33.94402525162239	1.9573092	1.3990387
33.96235053923627	1.8798022	1.3710588
33.980676721799824	1.8553102	1.3620977
33.999003799912984	1.8605078	1.3640044
34.01733177417592	1.9239203	1.3870546
34.03566064518901	1.9453908	1.3947726
34.0539904135529	1.9399083	1.3928059
34.07232107986846	1.9197484	1.3855499
34.090652644736785	2.0092225	1.4174705
34.108985108759235	2.079532	1.4420582
34.12731847253742	2.13553	1.4613453
34.14565273667313	2.0777156	1.4414283
34.16398790176847	2.0233138	1.4224323
34.18232396842574	1.9512838	1.3968836
34.20066093724749	2.0404105	1.4284294
34.21899880883651	2.1978128	1.4825022
34.23733758379583	2.29559	1.5151204
34.25567726272874	2.2777305	1.5092152
34.27401784623872	2.030595	1.4249895
34.29235933492957	1.7523296	1.3237559
34.31070172940526	1.8175995	1.3481838
34.32904503027003	2.0176468	1.4204389
34.347389238128386	1.9944755	1.412259
34.36573435358502	1.9406196	1.3930613
34.38408037724492	1.910206	1.382102
34.402427309713296	1.9186685	1.3851601
34.42077515159559	1.8768939	1.3699977
34.43912390349752	1.924414	1.3872325
34.45747356602499	1.900582	1.378616
34.47582413978423	1.8094914	1.3451734
34.49417562538163	1.7822125	1.3349953
34.51252802342388	1.7760507	1.3326855
34.53088133451789	1.840814	1.356766
34.54923555927084	1.9420797	1.3935852
34.567590698290104	1.9000149	1.3784102
34.58594675218336	1.81985	1.3490181
34.6043037215585	1.7979699	1.340884
34.62266160702365	1.9557507	1.3984816
34.641020409187234	2.0631585	1.4363699
34.65938012865785	2.107988	1.4518912
34.677740766044394	1.9336632	1.3905622
34.69610232195598	2.0159402	1.4198381
34.714464797002016	2.088958	1.4453228
34.73282819179208	2.0827186	1.4431627
34.751192506936064	1.8941565	1.3762835
34.76955774304408	1.7720969	1.3312013
34.7879239007265	1.8446023	1.3581613
34.80629098059391	1.9149694	1.3838242
34.824658983257194	2.0966363	1.4479766
34.843027909327446	2.1472738	1.4653579
34.86139775941603	1.9847732	1.4088198
34.879768534134534	1.7825884	1.335136
34.89814023409483	1.8324468	1.353679
34.91651285990901	1.858794	1.3633759
34.93488641218944	1.7727418	1.3314435
34.95326089154871	1.8556589	1.3622258
34.97163629859967	1.8507051	1.3604063
34.99001263395542	1.7894615	1.3377075
35.00838989822934	1.9281282	1.3885705
35.02676809203499	2.209122	1.4863116
35.04514721598624	2.3446953	1.5312397
35.063527270697215	2.3479865	1.5323141
35.081908256782256	2.1759014	1.4750937
35.10029017485597	1.9152921	1.3839408
35.11867302553321	1.7619568	1.3273872
35.137056809429104	1.9969685	1.4131414
35.155441527159006	2.1119552	1.4532567
35.173827179338524	2.1994665	1.4830599
35.19221376658354	2.2805834	1.5101601
35.21060128951017	2.0932183	1.446796
35.2289897487348	1.8857899	1.3732406
35.24737914487405	2.0258024	1.4233068
35.26576947854479	2.2122874	1.487376
35.28416075036418	2.0500636	1.4318043
35.30255296094958	2.0863175	1.444409
35.32094611091867	2.3556495	1.5348126
35.33934020088932	2.2417157	1.497236
35.35773523147969	2.129525	1.4592892
35.3761312033082	2.2527993	1.5009328
35.394528116993506	2.2498302	1.4999434
35.41292597315452	2.257644	1.5025458
35.431324772410434	2.0659363	1.4373366
35.449724515380666	1.9843836	1.4086815
35.46812520268491	2.1317627	1.4600557
35.486526834943106	2.3186748	1.5227195
35.504929412775454	2.1460505	1.4649404
35.52333293680242	2.2178328	1.489239
35.54173740764471	2.2028198	1.48419
35.560142825923286	1.8830085	1.3722275
35.5785491922594	1.3676609	1.1694703
35.59695650727454	1.1756297	1.0842646
35.61536477159042	1.0391313	1.019378
