0.008763373481513119	0.0	0.0
0.026290120649546365	0.11242709	0.3353015
0.043816868432600686	0.18071009	0.4251001
0.06134361724069026	0.28531864	0.53415227
0.07887036748382949	0.30940685	0.55624354
0.0963971195720331	0.2572294	0.5071779
0.11392387391531617	0.1556378	0.39450958
0.1314506309236943	0.08707289	0.29508114
0.1489773910071836	0.06736146	0.25954086
0.16650415457580078	0.042366724	0.20583178
0.18403092203956356	0.09804923	0.31312814
0.20155769380849	0.12229499	0.349707
0.2190844702925996	0.18308726	0.42788696
0.2366112519019124	0.15658921	0.39571354
0.2541380390464497	0.12128424	0.34825885
0.27166483213623416	0.08071007	0.28409517
0.28919163158128947	0.09746669	0.31219655
0.3067184377916406	0.13350455	0.36538276
0.324245251177314	0.18520586	0.43035552
0.34177207214833777	0.19479096	0.4413513
0.3592989011147415	0.19734675	0.44423726
0.37682573848655654	0.17273599	0.4156152
0.39435258467381573	0.23029259	0.4798881
0.41187944008655414	0.27336538	0.52284354
0.42940630513480854	0.24820255	0.4981993
0.446933180228618	0.19932911	0.4464629
0.4644600657780234	0.1566397	0.39577734
0.48198696219306775	0.13271861	0.36430565
0.49951386988379676	0.14329359	0.3785414
0.5170407892602581	0.15597995	0.39494297
0.5345677207325025	0.16045919	0.40057358
0.5520946647105822	0.16491386	0.4060959
0.5696216216045534	0.17716452	0.42090917
0.5871485918244737	0.20526445	0.4530612
0.6046755757804043	0.18968636	0.43552998
0.6222025738824094	0.16837457	0.4103347
0.6397295865405557	0.15202752	0.38990706
0.6572566141649129	0.16679111	0.40840068
0.6747836571655547	0.16638608	0.4079045
0.6923107159525568	0.17142807	0.41403872
0.7098377909359992	0.1566976	0.39585048
0.7273648825259653	0.16321927	0.40400404
0.7448919911325411	0.17071557	0.4131774
0.762419117165817	0.19048433	0.43644512
0.7799462610358868	0.20782053	0.45587337
0.7974734231528482	0.2289153	0.47845095
0.8150006039268024	0.20154206	0.44893438
0.8325278037678551	0.19011082	0.436017
0.8500550230861152	0.19983807	0.4470325
0.8675822622916969	0.21116847	0.4595307
0.8851095217947171	0.22411676	0.4734097
0.9026368020052984	0.22845864	0.47797346
0.9201641033335665	0.2340664	0.48380408
0.9376914261896523	0.24402195	0.49398577
0.9552187709836915	0.22227393	0.47145936
0.9727461381258234	0.1928191	0.4391117
0.990273528026193	0.19867311	0.44572762
1.0078009410949496	0.21296407	0.46148032
1.0253283777422473	0.22997215	0.47955412
1.0428558383782454	0.25563535	0.50560397
1.0603833234131086	0.24296384	0.49291363
1.0779108332570058	0.25481674	0.50479376
1.0954383683201119	0.30642888	0.5535602
1.112965929012607	0.39671126	0.6298502
1.1304935157446763	0.5145109	0.71729416
1.1480211289265108	0.49958977	0.7068167
1.1655487689683062	1.188652	1.0902532
1.1830764362802655	1.4874592	1.2196144
1.200604131272596	1.913025	1.3831215
1.2181318543555117	2.29715	1.5156351
1.235659605939232	2.3166845	1.5220659
1.253187386433982	3.792486	1.9474306
1.270715196249994	6.2703466	2.504066
1.2882430357975057	11.400609	3.3764787
1.3057709054867608	15.947167	3.9933906
1.3232988057280106	21.423481	4.6285505
1.3408267369315112	26.097763	5.108597
1.358354699507526	29.980604	5.475455
1.3758826938663256	33.869595	5.819759
1.3934107204181858	36.0012	6.0001
1.410938779573391	36.52922	6.043941
1.4284668717422309	37.10385	6.091293
1.4459949973350033	36.455555	6.0378437
1.4635231567620117	36.088497	6.0073705
1.4810513504335687	34.857544	5.904028
1.4985795787599925	34.219406	5.8497357
1.5161078421516088	34.132793	5.8423276
1.5336361410187505	33.390278	5.778432
1.5511644757717598	33.604893	5.7969728
1.5686928468209842	34.044872	5.8347983
1.58622125457678	34.86724	5.904849
1.6037496994495108	36.288364	6.0239825
1.621278181849548	36.201305	6.0167522
1.6388067021872719	36.626087	6.051949
1.6563352608730693	35.678135	5.973118
1.673863858317336	34.984993	5.914811
1.6913924949304753	34.31241	5.8576794
1.7089211711228998	33.267	5.767755
1.7264498873050296	32.50126	5.7009873
1.7439786438872935	31.359825	5.599984
1.7615074412801288	30.518427	5.5243487
1.779036279893981	29.81071	5.4599185
1.796565160139305	29.187706	5.4025645
1.814094082426564	28.694422	5.3567176
1.8316230471662298	28.162073	5.306795
1.849152054768784	27.363255	5.23099
1.8666811056447168	26.697283	5.166941
1.8842102002045273	25.87081	5.0863357
1.901739338858724	25.52418	5.052146
1.9192685220178245	24.950249	4.9950223
1.9367977500923557	24.174314	4.916738
1.9543270234928547	23.891903	4.887934
1.971856342629867	23.384605	4.835763
1.9893857079139496	22.87905	4.783205
2.006915119755667	22.221073	4.7139235
2.0244445785655945	21.651443	4.653111
2.0419740847543175	21.449152	4.631323
2.0595036387324317	21.12603	4.5963063
2.0770332409105414	20.74361	4.5545154
2.094562891699263	20.202002	4.4946637
2.1120925915092217	19.57176	4.4239984
2.129622340751053	18.977032	4.3562636
2.1471521398354043	187.02707	13.675784
2.1646819891729323	443.49942	21.059425
2.182211889174303	440.00317	20.976254
2.1997418402501974	452.6758	21.27618
2.2172718428113023	432.9225	20.80679
2.234801897268317	320.8142	17.911287
2.2523320040319548	16.99188	4.122121
2.269862163512935	16.260618	4.032446
2.287392376121992	15.792982	3.9740386
2.304922642269869	15.587963	3.9481595
2.322452962367322	15.28839	3.910037
2.3399833368251164	14.905716	3.8607922
2.357513766054032	14.740177	3.8392937
2.3750442504648586	14.664362	3.8294075
2.3925747904683963	14.544503	3.8137257
2.410105386475459	14.07615	3.7518196
2.4276360388968707	13.58752	3.6861253
2.445166748143469	13.296455	3.6464305
2.4626975146261025	13.226101	3.6367707
2.4802283387556323	13.245466	3.6394322
2.4977592209429305	12.990842	3.604281
2.5152901615988825	12.629588	3.5538132
2.5328211611343865	12.400756	3.5214708
2.5503522199603523	12.360246	3.5157142
2.5678833384877024	12.178842	3.4898198
2.5854145171273712	11.765013	3.4300165
2.6029457562903064	11.541707	3.3973088
2.620477056387469	11.381988	3.3737202
2.6380084178298326	11.187816	3.3448193
2.655539841028383	10.906567	3.302509
2.673071326394119	10.868584	3.2967534
2.6906028743380523	10.62684	3.2598834
2.708134485271211	10.371419	3.2204688
2.7256661596046325	10.199477	3.193662
2.743197897749369	10.0337	3.1676016
2.760729700116486	10.010673	3.1639647
2.778261567117063	9.944999	3.1535692
2.795793499162193	9.974902	3.1583068
2.8133254966629817	10.049674	3.1701221
2.830857560030551	10.052292	3.1705348
2.8483896896760337	9.874837	3.1424253
2.865921886010578	9.546909	3.0898073
2.883454149445347	9.344752	3.0569189
2.9009864803915177	9.016533	3.0027542
2.91851887926028	8.852761	2.975359
2.9360513464628384	8.739242	2.9562209
2.953583882410413	8.7356825	2.9556189
2.9711164875142373	8.734559	2.9554288
2.9886491621855606	8.617592	2.9355736
3.0061819068356455	8.438318	2.9048784
3.023714721875769	8.315733	2.8837013
3.041247607717225	8.174081	2.859035
3.0587805647713213	8.096427	2.845422
3.0763135934493806	8.00099	2.828602
3.0938466941627407	7.929117	2.8158689
3.1113798673227544	7.905263	2.81163
3.1289131133407904	7.9060755	2.8117745
3.1464464326282315	7.847634	2.8013628
3.1639798255964786	7.631245	2.7624707
3.1815132926569443	7.5373707	2.7454271
3.1990468342210603	7.3666058	2.7141492
3.216580450700272	7.18181	2.67989
3.2341141425060416	6.957124	2.6376362
3.251647910049847	6.8955007	2.6259286
3.2691817537431813	6.845409	2.6163733
3.286715673997555	6.8338413	2.6141617
3.3042496712244938	6.7914276	2.6060367
3.32178374583554	6.7559137	2.599214
3.339317898242251	6.641702	2.57715
3.3568521288562034	6.619225	2.5727854
3.3743864380889876	6.571934	2.5635784
3.3919208263522127	6.6013412	2.5693076
3.4094552940575023	6.5086474	2.5512052
3.4269898416164972	6.34955	2.5198312
3.444524469440858	6.2352777	2.4970539
3.4620591779422587	6.2515073	2.5003014
3.479593967532391	6.289889	2.507965
3.4971288386229658	6.361785	2.5222578
3.5146637916257086	6.2946243	2.508909
3.5321988269523628	6.0969634	2.469203
3.5497339450146903	5.9185147	2.4327998
3.5672691462244708	5.948376	2.4389293
3.5848044309934988	6.076987	2.4651544
3.60233979973359	6.0858307	2.4669476
3.619875252856575	6.102466	2.470317
3.6374107907743034	6.0816345	2.466097
3.6549464138986427	6.1377625	2.4774508
3.6724821226414788	6.119502	2.4737628
3.690017917414714	6.079523	2.465669
3.7075537986302702	6.072649	2.4642746
3.7250897667000857	6.053277	2.4603407
3.7426258220361235	6.136742	2.4772449
3.7601619650503553	6.4913235	2.5478077
3.777698196154779	7.021487	2.649809
3.7952345157614067	8.213108	2.865852
3.8127709242822716	9.023076	3.0038435
3.830307422129425	11.155004	3.3399107
3.847844009714936	29.969957	5.4744825
3.8653806874508954	97.30676	9.864419
3.882917455749409	96.51859	9.824388
3.900454315022606	96.31641	9.814093
3.917991265682631	41.031414	6.4055767
3.9355283081416506	10.681222	3.268214
3.9530654428118495	8.505668	2.9164479
3.970602670105433	7.2780743	2.6977906
3.9881399904346244	6.4019485	2.5302072
4.005677404211669	6.3715787	2.5241985
4.023214911848827	6.2915473	2.5082958
4.0407525137583855	6.1886206	2.4876938
4.058290210352644	6.101594	2.4701405
4.075828002043927	6.01311	2.4521644
4.0933658892445814	6.078253	2.4654112
4.110903872366966	6.113973	2.472645
4.128441951823468	6.0488925	2.4594495
4.145980128026488	6.0070095	2.45092
4.163518401388452	5.9476504	2.4387805
4.181056772321807	5.9559846	2.4404886
4.1985952412390155	5.934865	2.436158
4.216133808552567	6.0023704	2.4499736
4.233672474674966	6.09381	2.4685643
4.251211240018741	6.309924	2.5119562
4.268750104996445	6.4968843	2.5488987
4.286289070020643	7.445139	2.728578
4.303828135503928	9.074418	3.0123775
4.3213673018589125	29.247025	5.408052
4.3389065694982305	90.266365	9.500861
4.356445938834537	165.46147	12.863183
4.3739854102805085	171.19083	13.083991
4.391524984248844	172.10925	13.119041
4.409064661152262	136.32547	11.67585
4.426604441403504	96.67194	9.83219
4.444144325415337	75.66988	8.698844
4.461684313600543	21.468401	4.6334004
4.47922440637193	21.51293	4.638203
4.496764604142329	19.804691	4.4502463
4.5143049073245916	18.068695	4.2507286
4.531845316331589	16.062595	4.007817
4.5493858315762195	13.223116	3.6363602
4.566926453471405	11.001338	3.3168266
4.584467182430081	9.067331	3.011201
4.602008018865218	7.9659057	2.8223937
4.619548963189798	7.3932037	2.7190447
4.637090015816834	6.834968	2.6143773
4.654631177159353	6.5642304	2.5620754
4.672172447630417	6.2322984	2.496457
4.689713827643102	6.178828	2.4857247
4.7072553176105085	5.971951	2.4437575
4.724796917945764	5.802968	2.408935
4.742338629062015	5.6608477	2.3792536
4.759880451372434	5.5971932	2.3658388
4.777422385290215	5.5834255	2.3629274
4.794964431228581	5.6207824	2.3708189
4.812506589600768	5.676411	2.382522
4.830048860820047	5.601301	2.3667068
4.847591245299709	5.5269284	2.3509421
4.8651337434530655	5.3837075	2.3202817
4.882676355693457	5.2987394	2.3018992
4.900219082434242	5.3228974	2.3071406
4.917761924088813	5.363237	2.3158662
4.935304881070575	5.3426633	2.3114202
4.952847953792969	5.3584633	2.3148355
4.970391142669449	5.368932	2.3170955
4.9879344481135055	5.405894	2.3250577
5.005477870538642	5.31389	2.3051877
5.023021410358394	5.3082256	2.3039587
5.040565067986324	5.2955146	2.3011985
5.05810884383601	5.2757816	2.296907
5.075652738321066	5.1380916	2.2667358
5.09319675185512	5.0818734	2.254301
5.110740884851836	5.0287943	2.2424974
5.128285137724894	5.060189	2.2494864
5.145829510888007	5.123527	2.263521
5.163374004754908	5.1951313	2.279283
5.1809186197393595	5.214452	2.2835174
5.198463356255145	5.1740794	2.2746603
5.216008214716077	5.1378446	2.2666814
5.233553195535998	5.0841765	2.2548118
5.251098299128764	5.063377	2.2501948
5.268643525908272	5.0567393	2.2487195
5.286188876288432	5.1252785	2.2639077
5.3037343506831895	5.136937	2.2664812
5.32127994950651	5.149742	2.2693043
5.3388256731723915	5.0949035	2.2571893
5.356371522094851	5.046811	2.246511
5.373917496687938	5.0428667	2.245633
5.391463597365729	5.0162416	2.2396967
5.40900982454232	4.99966	2.235992
5.426556178631843	4.9696536	2.229272
5.444102660048449	4.967334	2.2287517
5.4616492692063225	5.022864	2.2411747
5.479196006519669	5.1244674	2.2637286
5.496742872402727	5.0433865	2.2457485
5.514289867269756	4.923281	2.2188468
5.531836991535049	4.848173	2.2018569
5.549384245612924	4.819463	2.1953275
5.566931629917724	4.866835	2.2060905
5.584479144863822	4.8935575	2.2121387
5.6020267908656205	4.9178114	2.217614
5.619574568337545	4.924412	2.2191017
5.637122477694054	4.96881	2.2290828
5.654670519349629	5.0043426	2.2370389
5.672218693718784	5.032885	2.2434092
5.689767001216059	5.048163	2.2468116
5.707315442256021	5.02499	2.241649
5.724864017253266	5.053631	2.2480283
5.7424127266224225	5.019625	2.240452
5.75996157077814	5.035143	2.2439125
5.777510550135105	5.023461	2.2413077
5.795059665108022	5.043796	2.2458398
5.812608916111639	5.031424	2.2430837
5.830158303560715	5.141054	2.2673893
5.847707827870055	5.1141787	2.261455
5.86525748945448	5.1944165	2.2791262
5.8828072887288485	5.2812138	2.2980893
5.900357226108044	5.317183	2.3059018
5.917907302006979	5.3639617	2.3160229
5.9354575168406	5.909161	2.4308765
5.9530078710238765	6.403662	2.530546
5.970558364971812	6.882161	2.6233873
5.988108999099438	7.2624593	2.694895
6.005659773821818	7.835518	2.7991996
6.023210689554039	7.728068	2.7799404
6.040761746711227	8.169441	2.8582234
6.058312945708531	7.6180887	2.7600884
6.075864286961132	7.1123943	2.6669073
6.093415770884244	6.413192	2.532428
6.1109673978931065	5.8964	2.4282503
6.128519168402993	5.343278	2.3115532
6.146071082829204	5.2931004	2.300674
6.163623141587075	5.142604	2.267731
6.181175345091969	5.078198	2.2534857
6.198727693759281	5.0054326	2.2372825
6.216280188004435	4.9459763	2.2239552
6.233832828242885	4.9993997	2.2359338
6.251385614890126	5.006476	2.2375157
6.268938548361669	5.0191927	2.2403555
6.286491629073067	5.0121565	2.2387846
6.304044857439898	4.9857993	2.2328904
6.321598233877777	4.944075	2.2235277
6.339151758802344	4.9166574	2.2173538
6.356705432629277	4.886572	2.2105591
6.37425925577428	4.835437	2.1989627
6.391813228653095	4.8849106	2.2101834
6.409367351681486	4.9086266	2.215542
6.426921625275259	4.836319	2.1991632
6.44447604985025	4.7958245	2.189937
6.46203062582232	4.76349	2.182542
6.47958535360737	4.8288703	2.197469
6.497140233621328	4.880764	2.2092452
6.514695266280161	4.8992414	2.213423
6.532250451999859	4.918766	2.2178292
6.549805791196454	4.8616467	2.204914
6.567361284286002	4.8595634	2.2044418
6.584916931684597	4.9057045	2.2148826
6.602472733808367	4.910962	2.216069
6.6200286910734665	4.9234443	2.2188835
6.637584803896092	4.9534006	2.2256236
6.655141072692462	4.917495	2.2175424
6.672697497878842	4.878465	2.2087247
6.690254079871514	4.799254	2.1907198
6.707810819086808	4.7541275	2.180396
6.725367715941078	4.795242	2.189804
6.742924770850719	4.853375	2.2030377
6.760481984232151	4.8861213	2.2104573
6.778039356501836	4.8626513	2.205142
6.795596888076266	4.877908	2.2085986
6.813154579371963	4.8941493	2.2122724
6.830712430805492	4.8790913	2.2088666
6.84827044279344	4.918629	2.2177982
6.865828615752445	4.9497914	2.2248127
6.883386950099159	4.9662733	2.2285137
6.900945446250287	4.908403	2.2154915
6.918504104622553	4.8704395	2.2069073
6.936062925632727	4.882501	2.209638
6.953621909697607	4.8848686	2.2101738
6.971181057234028	4.9207125	2.218268
6.988740368658859	4.968634	2.2290432
7.006299844389007	5.0161133	2.2396681
7.023859484841407	5.0966783	2.2575824
7.041419290433036	5.197992	2.2799106
7.058979261580902	5.324681	2.307527
7.0765393987020495	5.5176606	2.3489702
7.094099702213559	5.8992696	2.428841
7.111660172532549	6.233488	2.4966955
7.129220810076164	6.6323347	2.575332
7.146781615261595	7.2368226	2.6901343
7.16434258850606	7.44483	2.7285216
7.181903730226821	7.8181796	2.7961009
7.1994650408411704	7.8648386	2.804432
7.217026520766437	8.039374	2.8353791
7.234588170419983	8.307914	2.8823452
7.252149990219215	8.242342	2.8709478
7.269711980581568	8.101702	2.8463488
7.2872741419245175	7.9318085	2.8163466
7.304836474665574	7.5761075	2.7524729
7.322398979222286	7.3195195	2.705461
7.339961656012233	6.968499	2.6397915
7.357524505453039	6.659241	2.5805507
7.375087527962357	6.3850646	2.5268686
7.392650723957886	6.1495185	2.4798222
7.410214093857353	5.8076663	2.40991
7.427777638078528	5.5435634	2.3544774
7.445341357039213	5.387781	2.3211594
7.4629052511572525	5.206396	2.2817528
7.480469320850524	5.207067	2.2819
7.498033566536948	5.159694	2.271496
7.5155979886344735	5.1101484	2.2605639
7.5331625875610975	5.022357	2.2410617
7.550727363734844	5.019143	2.2403445
7.568292317573788	5.0160737	2.2396593
7.585857449496025	5.026687	2.2420275
7.603422759919705	5.041231	2.2452686
7.620988249263007	5.0841627	2.254809
7.638553917944147	5.123756	2.2635715
7.656119766381391	5.122945	2.2633922
7.673685794993023	5.0828266	2.2545125
7.691252004197388	5.061362	2.249747
7.70881839441285	5.039646	2.2449157
7.726384966057826	5.027629	2.2422376
7.743951719550762	5.0410514	2.2452285
7.761518655310149	5.042849	2.2456288
7.779085773754511	5.028077	2.2423375
7.796653075302419	5.094462	2.2570915
7.814220560372475	5.174343	2.2747183
7.831788229383323	5.2112293	2.2828116
7.8493560827536495	5.194292	2.279099
7.866924120902174	5.1281877	2.2645502
7.884492344247663	5.15134	2.2696564
7.9020607532089135	5.19268	2.2787452
7.919629348204771	5.2103853	2.2826269
7.937198129654115	5.183734	2.2767816
7.954767097975865	5.1802535	2.276017
7.972336253588986	5.2216477	2.2850926
7.989905596912472	5.225894	2.2860215
8.007475128365371	5.2225385	2.2852874
8.025044848366756	5.2717485	2.2960289
8.042614757335754	5.4084053	2.3255978
8.060184855691523	5.542264	2.3542013
8.07775514385327	5.6938963	2.3861887
8.095325622240228	5.681894	2.3836722
8.112896291271687	5.7240105	2.3924904
8.130467151366968	5.803336	2.4090114
8.148038202945436	5.8381763	2.4162319
8.165609446426497	5.829417	2.4144187
8.183180882229594	5.7935934	2.4069884
8.200752510774217	5.7708254	2.4022543
8.218324332479893	5.759404	2.3998759
8.235896347766193	5.798268	2.4079592
8.253468557052724	5.771993	2.4024973
8.27104096075914	5.7558265	2.3991303
8.288613559305137	5.8017144	2.4086747
8.306186353110448	5.952868	2.43985
8.32375934259485	6.1177816	2.473415
8.341332528178162	6.159557	2.4818454
8.358905910280246	6.138712	2.4776423
8.376479489321003	6.1110296	2.4720497
8.394053265720377	6.069818	2.4637
8.411627239898356	6.1031485	2.4704552
8.42920141227497	6.110177	2.4718773
8.44677578327029	6.0964475	2.4690986
8.464350353304427	6.048321	2.4593334
8.48192512279754	5.9780593	2.445007
8.499500092169827	5.9682407	2.4429984
8.51707526184153	5.946128	2.4384685
8.534650632232934	5.9519243	2.4396565
8.552226203764365	5.9359555	2.4363816
8.569801976856192	5.909454	2.4309368
8.587377951928834	5.9489336	2.4390435
8.60495412940274	6.0432553	2.4583035
8.622530509698416	6.1631474	2.4825687
8.6401070932364	6.300489	2.5100775
8.657683880437283	6.3731294	2.5245059
8.675260871721695	6.4832067	2.546214
8.692838067510303	6.614149	2.5717988
8.710415468223834	6.801058	2.6078837
8.727993074283043	6.9416447	2.6347
8.745570886108737	6.915545	2.6297424
8.763148904121765	6.9423757	2.6348388
8.78072712874302	6.9415956	2.6346908
8.798305560393441	7.1935577	2.6820807
8.815884199494006	7.3687634	2.7145467
8.833463046465745	7.4861994	2.736092
8.851042101729728	7.5499544	2.747718
8.86862136570707	7.86309	2.8041203
8.886200838818924	8.105083	2.846943
8.903780521486505	8.216773	2.8664913
8.921360414131055	8.2914915	2.879495
8.938940517173874	8.433207	2.9039984
8.956520831036297	8.51562	2.9181535
8.97410135613971	8.756564	2.9591491
8.99168209290554	8.939306	2.9898672
9.009263041755265	9.283643	3.0469072
9.026844203110405	9.547991	3.0899823
9.044425577392525	9.718465	3.1174452
9.062007165023239	9.754262	3.1231813
9.079588966424197	9.972655	3.157951
9.097170982017108	10.086385	3.175907
9.11475321222372	10.956009	3.3099864
9.132335657465825	11.769338	3.430647
9.149918318165264	11.8617525	3.4440894
9.167501194743924	12.388847	3.5197794
9.18508428762374	12.143488	3.4847507
9.202667597226693	12.106853	3.4794903
9.220251123974803	11.797138	3.4346962
9.237834868290143	11.522479	3.3944778
9.255418830594836	11.245105	3.353372
9.273003011311046	10.792373	3.2851746
9.290587410860985	10.541819	3.2468166
9.308172029666911	9.898129	3.1461294
9.32575686815113	9.618697	3.1014025
9.343341926735997	8.468033	2.9099884
9.360927205843916	8.27513	2.8766527
9.378512705897327	8.176212	2.8594077
9.396098427318728	7.9000115	2.810696
9.413684370530664	7.819454	2.7963288
9.431270535955722	7.6961727	2.7741976
9.448856924016539	7.6145577	2.7594488
9.466443535135806	7.5181828	2.7419305
9.484030369736251	7.536382	2.7452471
9.501617428240658	7.6033163	2.7574112
9.519204711071852	7.604629	2.7576492
9.536792218652714	7.5903025	2.7550504
9.55437995140617	7.605401	2.7577891
9.571967909755191	7.6147833	2.7594898
9.589556094122802	7.6548405	2.7667382
9.60714450493207	7.6462927	2.765193
9.624733142606116	7.637543	2.7636106
9.642322007568108	7.68693	2.7725313
9.659911100241267	7.7390537	2.7819154
9.677500421048851	7.7713923	2.7877216
9.695089970414175	7.7546573	2.7847185
9.712679748760609	7.765619	2.786686
9.730269756511557	7.838108	2.799662
9.747859994090492	7.9293003	2.8159013
9.765450461920915	7.969054	2.8229513
9.78304116042639	7.991845	2.8269851
9.800632090030527	7.972569	2.8235738
9.81822325115699	8.005922	2.829474
9.835814644229481	8.099607	2.845981
9.853406269671762	8.141638	2.8533556
9.870998127907646	8.166042	2.8576288
9.888590219360985	8.192451	2.8622458
9.906182544455698	8.211559	2.8655818
9.923775103615734	8.188152	2.8614948
9.941367897265108	8.054942	2.838123
9.958960925827878	7.976974	2.8243537
9.97655418972816	7.945327	2.8187456
9.994147689390106	7.9733963	2.8237202
10.011741425237934	7.997564	2.8279965
10.029335397695904	8.003243	2.8290005
10.04692960718833	7.9890594	2.8264923
10.06452405413958	7.9255476	2.815235
10.082118738974064	7.9145293	2.8132772
10.099713662116246	7.9011054	2.8108904
10.117308823990651	7.891954	2.8092623
10.134904225021844	7.859354	2.803454
10.152499865634445	7.8138824	2.7953322
10.170095746253125	7.8411083	2.8001978
10.18769186730261	7.8719416	2.8056982
10.205288229207675	7.8831835	2.8077006
10.222884832393145	7.844044	2.8007221
10.2404816772839	7.875447	2.8063226
10.258078764304868	7.8723006	2.805762
10.275676093881035	7.9011607	2.8109004
10.293273666437438	7.8258076	2.7974644
10.310871482399158	7.8540573	2.802509
10.32846954219134	7.9190116	2.8140738
10.346067846239173	7.930016	2.8160284
10.363666394967908	7.8947005	2.809751
10.38126518880283	7.8320575	2.7985814
10.398864228169298	7.8900185	2.8089178
10.416463513492713	7.9410377	2.8179846
10.434063045198531	7.98249	2.82533
10.451662823712262	7.96638	2.8224776
10.469262849459467	7.9516153	2.819861
10.486863122865758	7.8783565	2.806841
10.504463644356806	7.836874	2.7994418
10.522064414358338	7.820114	2.7964468
10.539665433296118	7.744463	2.7828875
10.557266701595987	7.588981	2.7548106
10.574868219683818	7.466899	2.7325628
10.592469987985552	7.332447	2.7078493
10.610072006927185	7.2613487	2.694689
10.627674276934751	7.245582	2.691762
10.64527679843435	7.165047	2.6767607
10.662879571852143	7.020866	2.6496916
10.680482597614331	6.9556184	2.6373506
10.698085876147173	6.79319	2.606375
10.715689407876988	6.770127	2.6019468
10.733293193230146	6.7272687	2.5936978
10.750897232633072	6.6469126	2.5781608
10.76850152651225	6.6082993	2.5706613
10.786106075294207	6.5143857	2.5523295
10.803710879405534	6.444808	2.5386627
10.821315939272877	6.303219	2.5106213
10.83892125532294	6.199478	2.489875
10.856526827982472	6.1435585	2.4786203
10.874132657678285	6.1509852	2.480118
10.891738744837243	6.0933995	2.4684813
10.909345089886271	6.0563693	2.4609692
10.926951693252343	6.018419	2.4532466
10.944558555362494	5.967405	2.4428272
10.96216567664381	5.8811045	2.425099
10.979773057523436	5.7563996	2.3992498
10.997380698428573	5.7166643	2.3909547
11.014988599786477	5.615609	2.3697276
11.032596762024461	5.5202646	2.3495243
11.050205185569892	5.4527874	2.3351204
11.067813870850198	5.429803	2.3301938
11.085422818292859	5.367852	2.3168626
11.10303202832541	5.3692865	2.317172
11.120641501375454	5.254488	2.292267
11.138251237870636	5.191253	2.2784321
11.155861238238671	5.131715	2.265329
11.173471502907317	5.0540533	2.2481222
11.191082032304402	5.0242953	2.241494
11.208692826857805	4.9793205	2.231439
11.226303886995465	4.9381647	2.2221982
11.243915213145371	4.8512864	2.2025635
11.261526805735578	4.7744827	2.185059
11.279138665194196	4.703958	2.168861
11.296750791949393	4.64422	2.1550453
11.314363186429393	4.552031	2.133549
11.331975849062479	4.492494	2.1195505
11.34958878027699	4.5045853	2.1224008
11.36720198050133	4.5262704	2.1275034
11.384815450163948	4.5015783	2.1216924
11.402429189693366	4.4346404	2.1058586
11.420043199518153	4.325658	2.0798216
11.437657480066942	63.283386	7.9550858
11.455272031768422	85.02574	9.220941
11.472886855051353	107.46823	10.366689
11.490501950344528	99.03448	9.951607
11.508117318076819	84.35659	9.184585
11.52573295867715	45.740078	6.763141
11.543348872574514	4.081876	2.0203652
11.560965060197946	4.072118	2.0179489
11.57858152197655	4.054461	2.013569
11.59619825833949	3.9981866	1.9995466
11.613815269715985	3.9797428	1.9949293
11.631432556535323	38.43173	6.1993327
11.649050119226837	82.8986	9.104867
11.666667958219929	93.27185	9.657735
11.68428607394406	107.56055	10.3711405
11.701904466828756	82.43403	9.079319
11.719523137303586	65.257195	8.078193
11.737142085798196	4.4547033	2.110617
11.754761312742286	3.587239	1.8940008
11.772380818565619	3.557395	1.8861058
11.790000603698015	3.5239232	1.8772116
11.80762066856935	3.4790208	1.8652134
11.825241013609572	3.4528968	1.8581972
11.842861639248683	3.424912	1.8506517
11.860482545916748	3.3909519	1.8414538
11.878103734043883	3.352804	1.8310664
11.895725204060282	3.3242178	1.8232437
11.91334695639619	3.2785795	1.8106848
11.930968991481919	3.27151	1.8087316
11.948591309747824	3.269646	1.8082162
11.966213911624347	3.2146335	1.7929399
11.98383679754198	3.1767	1.7823299
12.001459967931268	3.1767836	1.7823534
12.019083423222835	3.2180502	1.7938925
12.036707163847352	3.2314138	1.7976134
12.05433119023556	3.1963928	1.7878458
12.071955502818259	3.1533074	1.7757554
12.089580102026313	3.1099212	1.7634969
12.107204988290643	3.1189413	1.7660525
12.12483016204224	3.0802348	1.7550597
12.142455623712152	3.0727837	1.7529358
12.16008137373149	3.0411222	1.7438813
12.177707412531431	3.0020347	1.7326381
12.19533374054321	2.961972	1.7210381
12.212960358198126	2.941431	1.7150601
12.230587265927545	2.934857	1.7131424
12.248214464162889	2.9344006	1.7130092
12.265841953335649	2.9393935	1.714466
12.283469733877375	2.9228852	1.7096448
12.301097806219685	2.9483385	1.7170726
12.31872617079425	2.948252	1.7170475
12.336354828032825	2.967058	1.722515
12.353983778367205	2.9163225	1.7077243
12.371613022229262	2.853605	1.6892617
12.389242560050928	2.829287	1.6820484
12.406872392264201	2.8545556	1.689543
12.424502519301143	2.8176782	1.6785941
12.442132941593874	2.7882762	1.6698133
12.459763659574586	2.7618177	1.6618718
12.477394673675532	2.776808	1.6663758
12.49502598432903	2.7717037	1.6648434
12.51265759196746	2.7675338	1.6635907
12.530289497023267	2.7219634	1.6498374
12.547921699928967	2.7085671	1.6457725
12.565554201117134	2.701348	1.6435778
12.583187001020404	2.6826758	1.6378876
12.600820100071486	2.6927183	1.6409504
12.618453498703152	2.6759377	1.6358293
12.636087197348235	2.6825519	1.6378498
12.65372119643964	2.6732862	1.6350187
12.671355496410326	2.7057467	1.6449153
12.68899009769333	2.7300472	1.6522855
12.706625000721749	2.7420545	1.655915
12.724260205928752	2.8331387	1.683193
12.741895713747551	2.8626065	1.6919239
12.759531524611454	2.9549673	1.7190018
12.777167638953818	2.953147	1.7184722
12.794804057208072	2.9770353	1.7254087
12.812440779807702	2.9686513	1.7229774
12.830077807186271	3.0736728	1.7531893
12.847715139777405	3.1097825	1.7634575
12.865352778014795	3.3100197	1.819346
12.882990722332197	3.450462	1.8575419
12.90062897316344	3.553712	1.8851291
12.918267530942412	3.6131992	1.9008417
12.935906396103071	3.4631882	1.8609643
12.953545569079449	3.5929284	1.8955022
12.971185050305628	3.4171233	1.8485463
12.988824840215775	3.414828	1.8479253
13.006464939244115	3.433617	1.8530022
13.024105347824943	3.3274934	1.8241419
13.041746066392617	3.4562051	1.8590872
13.05938709538157	3.2886755	1.8134706
13.077028435226296	3.257957	1.8049811
13.094670086361363	3.1734538	1.781419
13.112312049221401	3.059553	1.7491578
13.129954324241112	3.0295832	1.7405698
13.147596911855258	2.8021843	1.6739726
13.165239812498685	2.7833643	1.6683418
13.182883026606293	2.71777	1.6485661
13.200526554613058	2.6889498	1.6398017
13.218170396954017	2.6463473	1.6267598
13.235814554064284	2.6162376	1.6174788
13.253459026379034	2.624078	1.6199006
13.271103814333523	2.6334608	1.6227942
13.288748918363058	2.655461	1.6295586
13.306394338903031	2.620036	1.6186525
13.32404007638889	2.6310287	1.6220446
13.341686131256164	2.6402164	1.6248742
13.359332503940449	2.6169155	1.6176883
13.376979194877402	2.5927517	1.6102024
13.394626204502751	2.6375458	1.6240523
13.412273533252307	2.671564	1.634492
13.429921181561937	2.6682336	1.6334729
13.447569149867581	2.6367528	1.6238081
13.465217438605247	2.6482217	1.6273358
13.482866048211022	2.6769662	1.6361437
13.500514979121052	2.7235973	1.6503325
13.518164231771568	2.7113602	1.6466209
13.535813806598844	2.6445038	1.626193
13.553463704039254	2.5978255	1.6117772
13.571113924529229	2.558305	1.5994703
13.588764468505275	2.5765321	1.605158
13.606415336403956	2.6313946	1.6221575
13.624066528661917	2.6484246	1.6273981
13.641718045715882	2.6887524	1.6397415
13.659369888002635	2.717643	1.6485275
13.67702205595903	2.7907293	1.6705476
13.694674550021993	2.8606527	1.6913464
13.712327370628532	2.9551802	1.7190638
13.729980518215713	3.020685	1.7380118
13.747633993220681	3.0837104	1.7560496
13.765287796080647	3.1410742	1.7723076
13.7829419272329	3.2145832	1.7929258
13.800596387114801	3.2346914	1.7985247
13.818251176163775	3.2154489	1.7931672
13.835906294817324	3.219369	1.79426
13.853561743513023	3.2516658	1.8032376
13.871217522688525	3.3245766	1.8233422
13.888873632781538	3.3356693	1.8263814
13.906530074229858	3.33207	1.8253958
13.92418684747135	3.3441591	1.8287042
13.941843952943948	3.3446457	1.8288373
13.959501391085665	3.3390384	1.8273035
13.977159162334578	3.2874675	1.8131374
13.994817267128846	3.2653944	1.8070402
14.012475705906693	3.1958504	1.7876941
14.030134479106424	3.1229622	1.7671905
14.047793587166414	3.0391407	1.7433132
14.065453030525108	2.9808264	1.726507
14.083112809621026	2.9125488	1.7066191
14.100772924892766	2.8393085	1.6850247
14.118433376778997	2.8060834	1.6751368
14.136094165718458	2.7742424	1.6656057
14.153755292149969	2.7386808	1.654896
14.171416756512416	2.6673985	1.6332172
14.189078559244768	2.6066012	1.6144972
14.20674070078606	2.5566533	1.5989538
14.224403181575408	2.4780147	1.5741711
14.242066002051999	2.4128604	1.5533384
14.259729162655093	2.3542047	1.5343418
14.277392663824022	2.3687315	1.5390683
14.295056505998208	2.3460767	1.5316908
14.312720689617128	2.31746	1.5223206
14.330385215120348	2.2808943	1.510263
14.348050082947497	2.3184915	1.5226593
14.3657152935383	2.3216345	1.523691
14.383380847332528	2.3281083	1.5258139
14.401046744770051	2.3215823	1.523674
14.418712986290798	2.3358836	1.5283598
14.436379572334793	2.3641357	1.5375746
14.454046503342123	2.4298398	1.5587944
14.471713779752946	2.445327	1.5637542
14.489381402007504	2.392665	1.5468241
14.507049370546113	2.349922	1.5329455
14.524717685809168	2.337883	1.5290138
14.542386348237134	2.3504202	1.533108
14.560055358270553	2.3566778	1.5351474
14.577724716350051	2.3817797	1.5433016
14.595394422916325	2.3823695	1.5434927
14.61306447841015	2.416151	1.5543973
14.63073488327237	2.4105048	1.55258
14.648405637943917	2.4366791	1.5609866
14.6660767428658	2.4096184	1.5522946
14.683748198479094	2.4566112	1.567358
14.701420005224954	2.478218	1.5742357
14.719092163544628	2.528223	1.5900387
14.73676467387942	2.5471628	1.5959833
14.754437536670727	2.5672486	1.6022636
14.772110752360014	2.5939713	1.610581
14.78978432138882	2.5839028	1.6074523
14.807458244198777	2.5891514	1.609084
14.82513252123159	2.6146808	1.6169975
14.842807152929028	2.6404073	1.624933
14.860482139732962	2.6135054	1.616634
14.87815748208531	2.6075044	1.6147768
14.8958331804281	2.6379106	1.6241646
14.91350923520342	2.6454175	1.6264739
14.931185646853438	2.6362123	1.6236417
14.948862415820408	2.6027317	1.6132984
14.966539542546656	2.5880673	1.6087471
14.98421702747459	2.5549138	1.5984098
15.001894871046696	2.5725296	1.6039107
15.019573073705542	2.5769176	1.605278
15.037251635893766	2.59689	1.6114869
15.054930558054092	2.6295905	1.6216012
15.072609840629323	2.6498928	1.6278491
15.090289484062351	2.732188	1.6529331
15.107969488796124	2.8776767	1.6963717
15.125649855273691	3.1048138	1.7620482
15.14333058393817	3.4913826	1.8685242
15.161011675232768	4.0862503	2.0214477
15.17869312960076	4.7213	2.1728554
15.196374947485506	5.3736334	2.31811
15.214057129330447	6.682565	2.5850658
15.231739675579114	8.782253	2.9634867
15.249422586675102	13.165372	3.6284118
15.267105863062092	17.414486	4.1730666
15.284789505183847	24.195251	4.918867
15.302473513484218	28.806963	5.367212
15.320157888407127	32.874092	5.7335935
15.337842630396578	32.026386	5.659186
15.355527739896656	29.495792	5.431003
15.37321321735153	23.123217	4.8086605
15.39089906320545	15.854855	3.9818156
15.408585277902748	10.148999	3.1857493
15.42627186188783	6.2910013	2.5081868
15.443958815605198	4.5531917	2.133821
15.461646139499424	3.752041	1.9370186
15.479333834015168	3.2601397	1.8055857
15.497021899597165	2.9683206	1.7228814
15.514710336690234	2.7973642	1.6725323
15.53239914573928	2.6765082	1.6360037
15.550088327189297	2.5498114	1.5968128
15.567777881485336	2.4911897	1.5783503
15.58546780907256	2.4981556	1.5805554
15.6031581103962	2.474812	1.5731535
15.620848785901568	2.4264517	1.5577072
15.638539836034063	2.3806043	1.5429207
15.656231261239173	2.3839085	1.5439911
15.673923061962451	2.4011288	1.5495576
15.691615238649552	2.4227068	1.5565047
15.709307791746202	2.4215357	1.5561285
15.727000721698221	2.3783147	1.5421785
15.744694028951498	2.3440406	1.531026
15.76238771395202	2.305457	1.5183731
15.780081777145844	2.296586	1.5154492
15.797776218979125	2.2925544	1.5141183
15.815471039898094	2.330324	1.5265398
15.833166240349064	2.3524141	1.5337582
15.850861820778437	2.386936	1.5449712
15.868557781632699	2.4042222	1.5505555
15.886254123358412	2.4051628	1.5508587
15.903950846402232	2.4271567	1.5579334
15.921647951210897	2.4433575	1.5631243
15.939345438231225	2.489461	1.5778025
15.957043307910133	2.50001	1.581142
15.974741560694602	2.4975557	1.5803657
15.992440197031714	2.4754574	1.5733587
16.01013921736862	2.4560237	1.5671706
16.02783862215259	2.439011	1.5617334
16.045538411830933	2.4240475	1.5569353
16.06323858685107	2.4011066	1.5495504
16.080939147660512	2.3884997	1.5454772
16.09864009470684	2.3939826	1.54725
16.11634142843774	2.40815	1.5518215
16.134043149300954	2.4232254	1.5566713
16.15174525774433	2.3749745	1.5410953
16.169447754215817	2.3102987	1.5199667
16.18715063916342	2.310599	1.5200655
16.204853913035244	2.3463259	1.5317721
16.222557576279478	2.3775997	1.5419468
16.240261629344403	22.358223	4.7284484
16.257966072678386	42.911182	6.5506625
16.275670906729868	38.029495	6.1668057
16.293376131947387	2.4645326	1.569883
16.31108174877957	2.4749355	1.5731928
16.328787757675133	2.4546597	1.5667354
16.34649415908287	2.455925	1.5671391
16.364200953451657	2.48585	1.5766579
16.38190814123048	2.5431695	1.5947318
16.39961572286839	2.571618	1.6036265
16.41732369881455	2.6333165	1.6227497
16.43503206951817	2.69757	1.6424282
16.45274083542859	2.701748	1.6436994
16.47044999699522	2.738586	1.6548673
16.488159554667558	2.7807336	1.6675532
16.505869508895184	2.8698175	1.6940535
16.523579860127786	2.9187262	1.708428
16.541290608815117	2.978606	1.7258638
16.559001755407035	3.017825	1.7371888
16.57671330035348	3.1256711	1.7679567
16.59442524410448	3.2326896	1.7979681
16.61213758711015	3.3412623	1.827912
16.629850329820705	3.3800833	1.8385003
16.647563472686436	3.4280868	1.8515093
16.665277016157724	3.4387445	1.8543853
16.682990960685053	3.436062	1.8536618
16.70070530671898	3.4209173	1.8495722
16.718420054710155	3.4653752	1.8615519
16.736135205109335	3.538898	1.8811959
16.753850758367335	3.56269	1.887509
16.771566714935087	3.586572	1.8938247
16.789283075263597	3.641945	1.908388
16.80699983980398	3.7299063	1.9312966
16.82471700900741	3.7797887	1.9441679
16.84243458332518	3.8183935	1.954071
16.860152563208665	3.8781338	1.9692978
16.87787094910932	3.9238195	1.9808633
16.89558974147871	3.973842	1.9934498
16.913308940768466	4.050128	2.012493
16.931028547430333	4.114665	2.0284636
16.94874856191613	4.138853	2.0344172
16.966468984677785	4.1695943	2.0419583
16.98418981616729	4.2410874	2.05939
17.00191105683676	4.324013	2.0794263
17.019632707138374	4.3829536	2.0935504
17.03735476752442	4.390717	2.0954037
17.05507723844728	4.422879	2.1030643
17.072800120359403	4.503162	2.1220655
17.090523413713353	4.5604935	2.1355312
17.108247118961785	4.5909224	2.1426437
17.125971236557437	4.577973	2.1396198
17.143695766953133	4.636247	2.1531947
17.161420710601806	4.640578	2.1542
17.179146067956477	4.6132126	2.147839
17.19687183947025	4.559326	2.135258
17.21459802559634	4.5849276	2.1412444
17.232324626788028	4.5662217	2.136872
17.25005164349871	4.536821	2.1299815
17.267779076181863	4.499047	2.1210957
17.285506925291074	4.5088677	2.1234095
17.30323519127999	4.484424	2.117646
17.320963874602384	4.4582324	2.1114526
17.33869297571211	4.443432	2.107945
17.356422495063114	4.4387813	2.1068416
17.37415243310944	4.426209	2.1038558
17.391882790305218	4.373907	2.0913887
17.40961356710468	4.359322	2.087899
17.42734476396215	4.406622	2.0991955
17.445076381332044	4.4743743	2.1152716
17.462808419668868	4.536347	2.1298702
17.48054087942723	4.6143656	2.1481075
17.498273761061835	4.7375946	2.1766016
17.51600706502747	5.063673	2.2502606
17.533740791779024	5.663149	2.3797371
17.551474941771485	6.5810213	2.56535
17.56920951545993	8.408882	2.8998072
17.586944513299528	9.663597	3.1086326
17.60467993574556	12.388551	3.5197372
17.622415783253373	14.988269	3.8714685
17.64015205627843	17.667439	4.203265
17.657888755276293	19.916498	4.4627905
17.675625880702604	21.318033	4.6171455
17.69336343301311	19.947184	4.466227
17.71110141266366	17.8304	4.2226057
17.728839820110178	15.159792	3.8935578
17.746578655808705	12.170119	3.4885697
17.764317920215372	10.081899	3.1752005
17.7820576137864	8.444736	2.9059827
17.79979773697811	7.06563	2.6581252
17.81753829024692	5.850189	2.4187164
17.835279274049356	5.069341	2.2515197
17.85302068884201	4.4026575	2.098251
17.870762535081607	4.010282	2.002569
17.888504813224934	3.8062468	1.9509605
17.90624752372891	3.682998	1.9191139
17.923990667050536	3.5820603	1.8926332
17.941734243646895	3.4833581	1.8663757
17.959478253975185	3.400628	1.8440793
17.9772226984927	3.375862	1.8373519
17.994967577656833	3.38306	1.8393097
18.01271289192506	3.3223848	1.822741
18.030458641754965	3.3030746	1.8174362
18.04820482760425	3.2652261	1.8069937
18.06595144993067	3.2563205	1.8045278
18.083698509192125	3.268746	1.8079673
18.101446005846576	3.2750678	1.8097148
18.119193940352105	3.2169824	1.7935948
18.136942313166887	3.1787024	1.7828915
18.1546911247492	3.1383715	1.7715449
18.1724403755574	3.105673	1.762292
18.19019006604997	3.0634866	1.7502818
18.207940196685467	3.0574222	1.7485486
18.225690767922575	3.0034938	1.733059
18.243441780220046	2.9873745	1.7284023
18.261193234036764	2.9520426	1.718151
18.278945129831676	2.9602726	1.7205442
18.29669746806386	2.9957254	1.7308164
18.314450249192483	3.040106	1.74359
18.3322034736768	3.04379	1.7446461
18.349957141976184	2.97226	1.7240244
18.3677112545501	2.9638536	1.7215847
18.385465811858108	2.95453	1.7188746
18.403220814359884	2.979252	1.726051
18.420976262515172	2.9874043	1.728411
18.43873215678387	3.0427167	1.7443385
18.456488497625923	3.065919	1.7509766
18.474245285501407	3.1321874	1.7697986
18.492002520870486	3.1792006	1.7830313
18.50976020419343	3.2665226	1.8073524
18.527518335930615	3.545657	1.8829914
18.545276916542516	4.07014	2.0174587
18.563035946489688	4.2128425	2.052521
18.580795426232832	4.6249104	2.1505604
18.598555356232698	4.553626	2.1339226
18.616315736950185	4.8987284	2.2133071
18.63407656884626	4.655878	2.1577485
18.65183785238201	4.8058105	2.192216
18.669599588018617	4.5291686	2.1281843
18.68736177621737	4.4451404	2.10835
18.705124417439652	4.4121923	2.1005218
18.72288751214696	4.26849	2.0660324
18.740651060800886	4.379927	2.0928276
18.758415063863115	4.1148334	2.028505
18.77617952179546	4.2874193	2.0706084
18.793944435059814	4.0759287	2.018893
18.811709804118184	4.110658	2.0274758
18.829475629432675	4.0461164	2.011496
18.8472419114655	3.8879797	1.971796
18.86500865067897	3.9751735	1.9937837
18.88277584753551	3.7002916	1.9236143
18.90054350249763	3.7086163	1.9257768
18.918311616027957	3.3962739	1.8428982
18.936080188589226	3.2829714	1.8118972
18.953849220644265	2.9862401	1.7280741
18.971618712656007	2.828238	1.6817366
18.9893886650875	2.783041	1.6682448
19.007159078401887	7.9499736	2.8195698
19.024929953062408	32.814564	5.7283998
19.042701289532435	32.768917	5.7244143
19.060473088275405	25.334002	5.0332894
19.07824534975489	2.5957615	1.6111367
19.096018074434568	2.5790486	1.6059417
19.113791262778197	2.5991323	1.6121825
19.13156491524966	2.5591915	1.5997473
19.149339032312945	2.512251	1.5850081
19.167113614432136	2.4838812	1.5760334
19.184888662071433	2.4997501	1.5810598
19.202664175695123	2.4976463	1.5803944
19.220440155767623	2.50548	1.5828708
19.238216602753447	2.4835296	1.5759218
19.2559935171172	2.498522	1.5806714
19.27377089932361	2.4890244	1.5776643
19.291548749837514	2.4661767	1.5704066
19.309327069123835	2.43954	1.5619026
19.32710585764763	2.4173684	1.5547888
19.344885115874032	2.4503675	1.565365
19.362664844268313	2.4818048	1.5753745
19.380445043295822	2.4919538	1.5785924
19.39822571342203	2.475675	1.5734278
19.41600685511252	2.482194	1.575498
19.43378846883297	2.4702108	1.5716904
19.451570555049173	2.4468164	1.5642303
19.469353114227037	2.4540553	1.5665425
19.48713614683254	2.4625041	1.5692368
19.50491965333182	2.4800956	1.574832
19.52270363419109	2.464943	1.5700136
19.540488089876686	2.4407225	1.5622811
19.55827302085503	2.453745	1.5664434
19.576058427592674	2.4776163	1.5740446
19.593844310556282	2.4532967	1.5663003
19.611630670212598	2.4112968	1.5528351
19.629417507028506	2.383699	1.5439233
19.64720482147098	2.3839998	1.5440207
19.6649926140071	2.4492722	1.5650151
19.682780885104084	2.4749117	1.5731852
19.70056963522921	2.4769275	1.5738257
19.718358864849908	2.4496312	1.5651298
19.7361485744337	2.4130352	1.5533947
19.753938764448215	2.4455025	1.5638102
19.771729435361202	2.4688604	1.5712608
19.789520587640506	2.4709067	1.5719118
19.807312221754092	2.489479	1.5778083
19.825104338170043	2.5019715	1.5817622
19.842896937356517	2.5181549	1.5868695
19.860690019781824	2.478893	1.5744501
19.87848358591436	2.4559412	1.5671443
19.896277636222635	2.4057245	1.5510398
19.914072171175278	2.3957772	1.5478299
19.931867191241015	2.3913884	1.5464115
19.94966269688869	2.4137933	1.5536387
19.967458688587264	2.44911	1.5649632
19.985255166805807	2.4514966	1.5657256
20.00305213201348	2.4496026	1.5651206
20.020849584679578	2.4362721	1.5608562
20.038647525273507	2.4520512	1.5659027
20.05644595426477	2.4536285	1.5664062
20.07424487212299	2.4297223	1.5587567
20.092044279317903	2.3890073	1.5456414
20.109844176319353	2.3600116	1.536233
20.127644563597304	2.3157828	1.5217696
20.145445441621817	2.3140986	1.5212162
20.16324681086307	2.3597465	1.5361466
20.181048671791373	2.385472	1.5444974
20.198851024877122	2.3772306	1.5418271
20.216653870590836	2.364597	1.5377246
20.234457209403146	2.3507075	1.5332017
20.252261041784802	2.3481596	1.5323706
20.270065368206662	2.3294804	1.5262636
20.287870189139685	2.2859285	1.5119287
20.305675505054968	2.308409	1.5193449
20.323481316423702	2.3014612	1.5170567
20.341287623717207	2.2981853	1.5159767
20.359094427406884	2.2663217	1.5054307
20.376901727964288	2.2863572	1.5120705
20.39470952586107	2.2919123	1.5139064
20.41251782156899	2.2885973	1.5128111
20.430326615559935	2.288579	1.512805
20.448135908305886	2.270439	1.5067976
20.465945700278965	2.2582111	1.5027345
20.483755991951384	2.2609532	1.5036466
20.50156678379548	2.2784379	1.5094495
20.519378076283708	2.284273	1.5113811
20.537189869888635	2.2840023	1.5112916
20.55500216508294	2.297109	1.5156217
20.572814962339415	2.2994492	1.5163935
20.59062826213098	2.3084736	1.5193661
20.60844206493066	2.2875173	1.512454
20.626256371211593	2.2769415	1.5089538
20.644071181447032	2.2782238	1.5093786
20.66188649611036	2.2733645	1.507768
20.67970231567506	2.2728543	1.5075989
20.697518640614742	2.2509854	1.5003284
20.715335471403122	2.230884	1.4936144
20.73315280851404	2.2376454	1.4958761
20.750970652421447	2.2262526	1.4920632
20.768789003599412	2.2225296	1.490815
20.786607862522136	2.2162523	1.4887083
20.8044272296639	2.23407	1.4946806
20.82224710549913	2.2197287	1.4898754
20.84006749050237	2.2364569	1.4954789
20.857888385148268	3.7722592	1.9422305
20.8757097899116	45.857365	6.7718067
20.893531705267254	64.72291	8.045054
20.911354131690224	83.7697	9.152578
20.92917706965566	69.059265	8.31019
20.94700051963877	50.113575	7.0790944
20.96482448211493	29.397915	5.421984
20.982648957559622	4.1114545	2.0276723
21.00047394644843	2.2000024	1.4832405
21.01829944925707	2.189089	1.479557
21.036125466461375	2.190385	1.479995
21.053951998537297	2.1937158	1.4811198
21.071779045960906	2.189707	1.4797659
21.089606609208378	2.1980042	1.4825668
21.10743468875603	2.1860104	1.4785162
21.12526328508028	2.169921	1.4730651
21.143092398657675	2.1883752	1.4793158
21.16092202996488	2.211474	1.4871025
21.17875217947867	2.2058244	1.4852018
21.19658284767596	2.1620593	1.4703943
21.21441403503377	2.1379836	1.4621845
21.232245742029225	2.1124096	1.4534131
21.2500779691396	2.0739853	1.4401338
21.26791071684227	2.051349	1.4322531
21.28574398561475	2.0997074	1.4490367
21.30357777593465	2.161075	1.4700595
21.321412088279704	2.143201	1.4639676
21.339246923127792	2.130446	1.4596047
21.357082280956888	2.1295788	1.4593077
21.3749181622451	2.0865169	1.444478
21.392754567470647	2.0854094	1.4440947
21.41059149711187	2.0793555	1.441997
21.42842895164726	2.087052	1.4446633
21.446266931555378	2.0726385	1.4396662
21.464105437314945	2.08264	1.4431355
21.481944469404798	2.0997422	1.4490488
21.49978402830388	2.068877	1.4383591
21.51762411449127	2.0472198	1.4308109
21.53546472844617	2.0409808	1.428629
21.553305870647876	2.0669808	1.4376998
21.571147541575865	2.0817323	1.4428209
21.58898974170967	2.0682487	1.4381407
21.60683247152899	2.0140882	1.4191858
21.62467573151363	1.994847	1.4123906
21.642519522143523	1.994011	1.4120946
21.660363843898722	1.9889051	1.4102855
21.6782086972594	1.9971275	1.4131976
21.696054082705864	2.0159886	1.4198551
21.713900000718535	2.0509408	1.4321105
21.73174645177795	2.0482135	1.4311581
21.749593436364794	1.9969625	1.4131392
21.767440954959845	1.999635	1.4140846
21.785289008044032	2.0287867	1.4243548
21.803137596098388	2.0365102	1.4270635
21.820986719604086	2.047422	1.4308815
21.838836379042412	2.0385833	1.4277897
21.85668657489478	2.0186927	1.4208071
21.87453730764273	1.9784514	1.4065744
21.892388577767914	1.9632243	1.4011511
21.91024038575213	1.9574139	1.3990761
21.928092732077285	1.9626695	1.400953
21.945945617225426	1.9949164	1.4124151
21.963799041678694	2.006087	1.4163641
21.981653005919398	31.300455	5.594681
21.999507510429943	78.06064	8.835194
22.01736255569286	72.98398	8.543066
22.035218142190818	4.0969224	2.0240855
22.05307427040661	1.9620855	1.4007447
22.07093094082315	1.9850222	1.4089081
22.088788153923474	1.9526342	1.3973669
22.106645910190746	1.9310491	1.389622
22.12450421010827	1.9365244	1.3915906
22.142363054159464	1.9323454	1.3900883
22.16022244282787	1.9168231	1.3844938
22.178082376597164	1.8980058	1.3776814
22.195942855951145	1.8929801	1.3758562
22.213803881373742	1.9282492	1.3886142
22.231665453349002	1.9717408	1.4041868
22.24952757236111	1.9712721	1.40402
22.26739023889438	1.9568862	1.3988875
22.28525345343323	1.9274619	1.3883306
22.30311721646225	1.9126974	1.383003
22.320981528466113	1.8874247	1.3738358
22.33884638992964	1.8763559	1.3698014
22.356711801337788	1.9174734	1.3847287
22.37457776317561	1.9338688	1.3906361
22.392444275928337	1.9529182	1.3974684
22.410311340081282	1.9388856	1.3924388
22.428178956119904	1.9460872	1.3950223
22.446047124529805	1.924876	1.387399
22.46391584579669	1.9010911	1.3788006
22.481785120406414	1.8936925	1.376115
22.49965494884496	1.9039345	1.3798313
22.51752533159841	1.9033089	1.3796046
22.53539626915302	1.9130307	1.3831235
22.553267761995137	1.9207541	1.3859128
22.571139810611264	1.9006819	1.3786522
22.589012415488025	1.9093242	1.381783
22.60688557711216	1.9488585	1.3960152
22.624759295970566	1.9895122	1.4105006
22.642633572550263	1.9766797	1.4059445
22.660508407338362	1.9361136	1.391443
22.67838380082217	1.9067138	1.380838
22.696259753489077	1.9148875	1.3837947
22.714136265826614	1.9214246	1.3861547
22.73201333832246	1.929244	1.3889723
22.74989097146439	1.920577	1.3858489
22.76776916574035	1.8991827	1.3781084
22.785647921638393	1.8821907	1.3719295
22.803527239646712	1.8640773	1.3653122
22.82140712025363	1.882723	1.3721235
22.839287563947593	1.8830914	1.3722578
22.85716857121719	1.8756306	1.3695366
22.875050142551135	1.8513442	1.3606411
22.892932278438277	1.8678321	1.3666866
22.910814979367604	1.8914078	1.3752847
22.928698245828222	1.9062711	1.3806778
22.946582078309387	1.913852	1.3834203
22.96446647730047	1.8736416	1.3688103
22.98235144329098	1.8518013	1.3608091
23.000236976770562	1.84525	1.3583997
23.018123078229	1.8383414	1.3558545
23.03600974815619	1.8516021	1.3607359
23.053896987042194	1.880271	1.3712298
23.071784795377173	1.8925543	1.3757014
23.08967317365145	1.9081261	1.3813493
23.10756212235546	1.9046041	1.3800739
23.125451641979787	1.8959051	1.3769187
23.143341733015134	1.9241112	1.3871233
23.161232395952357	1.9518176	1.3970747
23.179123631282426	1.94698	1.3953422
23.197015439496468	1.9474703	1.395518
23.214907821085717	1.9372914	1.3918662
23.23280077654157	1.9154068	1.3839822
23.250694306355538	1.9499563	1.3964083
23.268588411019277	1.9977925	1.4134328
23.28648309102458	1.9906497	1.4109038
23.304378346863356	1.9361658	1.3914617
23.322274179027676	1.9060632	1.3806025
23.340170588009723	1.9419763	1.3935481
23.358067574301852	1.9391936	1.3925493
23.37596513839651	1.9184011	1.3850635
23.39386328078629	1.8924747	1.3756725
23.411762001963947	1.8844572	1.3727553
23.429661302422353	1.8676848	1.3666327
23.4475611826545	1.8588512	1.3633969
23.46546164315356	1.838277	1.3558308
23.48336268441279	1.8646109	1.3655076
23.501264306925638	1.8522066	1.360958
23.51916651118564	1.8537279	1.3615168
23.537069297686497	1.8547549	1.3618939
23.554972666922037	1.8977745	1.3775973
23.57287661938623	1.8633171	1.3650337
23.59078115557318	1.8349038	1.3545862
23.608686275977128	1.8166186	1.3478199
23.62659198109246	1.8864654	1.3734866
23.6444982714137	1.8709748	1.3678358
23.66240514743549	1.860699	1.3640745
23.68031260965263	1.8483512	1.3595408
23.698220658560068	1.912002	1.3827516
23.716129294652845	1.9108828	1.3823469
23.7340385184262	1.8666029	1.3662368
23.75194833037546	1.8303338	1.3528984
23.769858730996123	1.8348173	1.3545543
23.78776972078382	1.867686	1.366633
23.80568130023431	1.8848312	1.3728915
23.823593469843495	1.8809367	1.3714725
23.841506230107424	1.8474756	1.3592187
23.859419581522275	1.8355767	1.3548346
23.87733352458438	1.8604896	1.3639977
23.89524805979019	1.9016238	1.3789937
23.913163187636318	1.8873757	1.3738179
23.931078908619508	1.8974588	1.3774828
23.948995223236633	1.9099663	1.3820153
23.966912131984735	1.9232119	1.3867992
23.98482963536096	1.9782627	1.4065073
24.002747733862616	2.0423372	1.4291036
24.020666427987155	2.0735235	1.4399735
24.038585718232156	2.0520499	1.4324977
24.056505605095353	2.0522335	1.4325619
24.074426089074617	2.0616746	1.4358532
24.092347170667946	2.071257	1.4391862
24.110268850373515	2.0588093	1.4348551
24.128191128689586	2.0105517	1.4179392
24.146114006114626	1.9587818	1.3995649
24.164037483147187	1.9750438	1.4053625
24.181961560286005	1.9770371	1.4060715
24.199886238029926	1.9617152	1.4006125
24.21781151687797	1.974653	1.4052235
24.235737397329274	1.9791917	1.4068375
24.253663879883135	1.9735523	1.4048318
24.271590965038975	1.9783965	1.4065548
24.289518653296376	1.9916327	1.4112521
24.30744694515505	1.998763	1.4137762
24.32537584111486	1.9803225	1.4072393
24.34330534167581	1.9496226	1.3962889
24.361235447338046	1.9591805	1.3997073
24.379166158601876	1.9734814	1.4048065
24.39709747596772	1.967456	1.4026604
24.41502939993615	1.9508401	1.3967248
24.432961931007917	1.9591283	1.3996886
24.450895069683856	1.9791968	1.4068393
24.468828816465	1.9563884	1.3987095
24.4867631718525	1.9250841	1.3874741
24.504698136347656	1.9564843	1.3987439
24.52263371045192	1.9305966	1.3894591
24.540569894666874	1.9214461	1.3861624
24.558506689494266	1.8798622	1.3710806
24.57644409543597	1.8864995	1.373499
24.594382112994012	1.9041	1.3798913
24.61232074267057	1.9498558	1.3963723
24.630259984967953	1.9457142	1.3948886
24.64819984038863	1.9377779	1.3920408
24.66614030943522	1.9684982	1.4030318
24.684081392610462	1.9579223	1.3992578
24.702023090417274	1.956682	1.3988144
24.7199654033587	1.9773856	1.4061954
24.737908331937927	1.9643052	1.4015367
24.755851876658305	1.9548006	1.3981419
24.773796038023324	1.9550121	1.3982174
24.79174081653661	2.027527	1.4239126
24.809686212701962	2.0850587	1.4439732
24.827632227023294	2.0883377	1.4451082
24.8455788600047	2.0767589	1.4410964
24.8635261121504	2.11645	1.4548024
24.88147398396475	2.1330073	1.4604819
24.899422475952303	2.117182	1.4550539
24.917371588617698	2.1150844	1.454333
24.935321322465768	2.146163	1.4649788
24.953271678001478	2.2219982	1.4906368
24.97122265572994	2.437041	1.5611025
24.989174256156414	2.7971609	1.6724715
25.00712647978632	3.4000847	1.8439319
25.02507932712521	4.424314	2.1034052
25.043032798678798	5.894609	2.4278815
25.060986894952933	7.4515924	2.7297604
25.078941616453637	8.916272	2.9860127
25.096896963687055	9.775299	3.1265476
25.114852937159508	10.413209	3.2269504
25.132809537377444	10.1974945	3.1933515
25.150766764847468	9.600536	3.0984733
25.168724620076347	8.374392	2.8938541
25.186683103570985	7.186783	2.6808176
25.204642215838426	5.811691	2.410745
25.222601957385894	4.736038	2.176244
25.24056232872074	3.6763391	1.9173782
25.25852333035048	2.8838453	1.6981888
25.276484962782778	2.382986	1.5436924
25.294447226525435	2.1715248	1.4736094
25.312410122086423	2.0591555	1.4349757
25.330373649973843	1.9576485	1.3991599
25.348337810695988	1.9312693	1.3897011
25.366302604761245	1.9275517	1.388363
25.384268032678207	1.8980638	1.3777024
25.40223409495558	1.876392	1.3698146
25.420200792102257	1.8248003	1.3508517
25.438168124627246	1.8137982	1.3467733
25.45613609303974	1.830983	1.3531382
25.474104697849057	1.8339096	1.3542192
25.492073939564698	1.8303316	1.3528975
25.510043818696285	1.8187795	1.3486214
25.528014335753614	1.810265	1.3454609
25.54598549124664	1.8369272	1.3553329
25.56395728568544	1.8602228	1.3638998
25.58192971958028	1.8710415	1.3678602
25.59990279344156	1.8472332	1.3591295
25.617876507779833	1.8198122	1.3490041
25.635850863105826	1.74901	1.3225014
25.653825859930386	1.7942593	1.3394996
25.671801498764548	1.8217051	1.3497056
25.68977778011949	1.8616008	1.3644049
25.707754704506524	1.8403056	1.3565786
25.725732272437153	1.847688	1.3592969
25.743710484423012	1.8781422	1.3704532
25.761689340975888	1.9513683	1.3969139
25.77966884260774	1.9506038	1.3966402
25.797648989830662	1.8738682	1.368893
25.815629783156922	1.8206613	1.3493189
25.83361122309895	1.7936821	1.3392842
25.85159331016929	1.83915	1.3561527
25.869576044880695	1.8662376	1.366103
25.887559427746034	1.8210623	1.3494674
25.90554345927836	1.7840024	1.3356656
25.92352813999086	1.8181657	1.3483937
25.94151347039689	1.8663076	1.3661287
25.959499451009965	1.8530071	1.3612521
25.97748608234374	1.8336492	1.354123
25.995473364912062	1.8342156	1.3543322
26.013461299228904	1.8143989	1.3469962
26.03144988580839	1.803534	1.3429571
26.04943912516483	1.7966038	1.3403745
26.067429017812675	1.8194847	1.3488828
26.085419564266537	1.8099608	1.3453479
26.103410765041186	1.7889001	1.3374977
26.12140262065155	1.7838292	1.3356007
26.139395131612723	1.7807384	1.3344431
26.157388298439948	1.7744545	1.3320866
26.17538212164861	1.7755046	1.3324807
26.193376601754295	1.8103658	1.3454983
26.211371739272714	1.8048431	1.3434445
26.229367534719746	1.8059907	1.3438715
26.247363988611433	1.8171821	1.3480289
26.26536110146397	1.7727016	1.3314284
26.283358873793727	1.7690587	1.3300596
26.301357306117204	1.7770971	1.333078
26.319356398951104	1.7944392	1.3395668
26.33735615281224	1.7781839	1.3334856
26.35535656821762	1.7690294	1.3300487
26.373357645684404	1.8000166	1.341647
26.39135938572991	1.8035802	1.3429744
26.409361788871614	1.7703876	1.3305591
26.427364855627165	1.7380362	1.318346
26.445368586514352	1.7484581	1.3222928
26.46337298205115	1.7633506	1.3279121
26.48137804275568	1.7648548	1.3284783
26.499383769146217	1.7314504	1.3158458
26.517390161741215	1.7961997	1.3402238
26.53539722105928	1.8682418	1.3668364
26.553404947619182	1.8613478	1.3643122
26.571413341939856	1.8164314	1.3477505
26.589422404540397	1.779012	1.333796
26.60743213594006	1.7729305	1.3315144
26.62544253665827	1.73588	1.317528
26.64345360721459	1.7815771	1.3347573
26.66146534812879	1.8149822	1.3472128
26.679477759920758	1.8129641	1.3464636
26.69749084311057	1.7635809	1.3279989
26.71550459821847	1.7667601	1.3291953
26.733519025764842	1.8096676	1.3452388
26.751534126270258	1.8291357	1.3524554
26.769549900255434	1.800311	1.3417567
26.787566348241267	1.7600075	1.3266528
26.80558347074881	1.7479639	1.3221059
26.823601268299267	1.7537459	1.3242908
26.841619741414036	1.7393641	1.3188496
26.85963889061465	1.7367121	1.3178437
26.877658716422832	1.7335021	1.3166252
26.89567921936045	1.7286955	1.3147987
26.913700399949544	1.7053769	1.3059008
26.93172225871233	1.7111875	1.3081237
26.949744796171174	1.7155538	1.3097914
26.967768012848605	1.778993	1.333789
26.98579190926733	1.8199283	1.3490472
27.003816485950225	1.7981807	1.3409626
27.021841743420318	1.7430769	1.3202564
27.039867682200814	1.7428596	1.3201741
27.057894302815072	1.8570735	1.3627448
27.07592160578664	1.9014782	1.3789409
27.0939495916392	1.8075094	1.3444365
27.111978260896635	1.7674003	1.3294361
27.13000761408296	1.7138735	1.3091499
27.148037651722397	1.6658218	1.2906672
27.166068374339304	1.6911889	1.3004572
27.184099782458215	1.7861266	1.3364605
27.20213187660384	1.7727841	1.3314594
27.22016465730105	1.7427057	1.3201158
27.23819812507487	1.7634367	1.3279445
27.256232280450533	1.780525	1.3343631
27.274267123953383	1.7700324	1.3304256
27.292302656108987	1.7865037	1.3366015
27.31033887744306	1.7744709	1.3320926
27.32837578848146	1.7699953	1.3304117
27.34641338975026	1.8096497	1.3452322
27.364451681775673	1.8128736	1.34643
27.382490665084074	1.811368	1.3458707
27.400530340202046	1.7982824	1.3410006
27.41857070765629	1.7607551	1.3269345
27.436611767973726	1.7732494	1.3316342
27.454653521681404	1.7739003	1.3318784
27.472695969306564	1.7776551	1.3332874
27.490739111376627	1.7641243	1.3282034
27.508782948419153	1.7656583	1.3287808
27.526827480961902	1.760428	1.3268112
27.54487270953279	1.7207328	1.3117671
27.562918634659898	1.7559762	1.3251325
27.580965256871508	1.7836902	1.3355486
27.599012576696026	1.794843	1.3397175
27.617060594662068	1.8162559	1.3476853
27.63510931129842	1.7770096	1.3330452
27.65315872713401	1.7725998	1.3313901
27.67120884269797	1.8052284	1.3435879
27.68925965851958	1.8361166	1.3550338
27.707311175128307	1.8468161	1.3589761
27.725363393053787	1.8698928	1.3674402
27.74341631282583	1.8685613	1.3669533
27.7614699349744	1.8556006	1.3622043
27.77952426002968	2.0604768	1.4354361
27.797579288521973	2.1731594	1.474164
27.815635020981784	2.6312	1.6220974
27.83369145793979	2.6830802	1.6380111
27.85174859992682	2.5045986	1.5825924
27.869806447473923	2.3454542	1.5314876
27.887865001112267	2.0562599	1.4339665
27.905924261373233	1.9233071	1.3868334
27.92398422878836	1.8917893	1.3754233
27.94204490388936	1.8554106	1.3621346
27.96010628720813	1.8227949	1.3501092
27.978168379276728	1.7621579	1.3274629
27.9962311806274	1.8407449	1.3567405
28.014294691792568	1.8539593	1.3616017
28.0323589133048	1.8411367	1.356885
28.050423845696887	1.8204515	1.3492411
28.068489489501758	1.8227739	1.3501015
28.086555845252523	1.7929319	1.339004
28.104622913482487	1.7676535	1.3295313
28.122690694725115	1.8484571	1.3595798
28.14075918951405	1.9112335	1.3824737
28.15882839838312	1.9405607	1.3930401
28.176898321866304	1.8909938	1.3751341
28.1949689604978	1.8788657	1.3707173
28.213040314811945	1.9492848	1.3961679
28.23111238534327	1.9506004	1.396639
28.249185172626493	1.877174	1.3701
28.267258677196473	1.8385563	1.3559338
28.285332899588294	1.825421	1.3510814
28.303407840337172	1.8283259	1.352156
28.321483499978545	1.8160669	1.3476152
28.33955987904799	1.8890163	1.3744149
28.357636978081285	1.972102	1.4043155
28.37571479761439	2.0024087	1.4150649
28.393793338183425	2.0131762	1.4188644
28.41187260032469	2.006962	1.4166728
28.429952584574686	1.9631175	1.4011129
28.448033291470065	1.9608458	1.400302
28.46611472154769	2.0149949	1.4195051
28.484196875344566	2.0419462	1.4289668
28.502279753397914	1.995039	1.4124585
28.52036335624511	1.9541832	1.3979211
28.538447684423716	1.9224229	1.3865147
28.556532738471482	1.9626287	1.4009385
28.574618518926325	1.9697763	1.4034872
28.59270502632635	1.997605	1.4133666
28.61079226120985	1.9873751	1.409743
28.628880224115274	1.9270622	1.3881867
28.646968915581287	1.941842	1.3934999
28.66505833614671	1.978105	1.4064512
28.68314848635055	1.9491067	1.3961041
28.701239366732004	1.9224122	1.3865107
28.71933097783044	2.037611	1.4274491
28.737423320185403	2.1383576	1.4623125
28.75551639433665	2.130567	1.4596462
28.773610200824074	2.1218185	1.4566463
28.791704740187793	2.093003	1.4467214
28.80980001296809	2.1208177	1.4563028
28.827896019705413	2.1455662	1.4647751
28.845992760940433	2.1632671	1.4708049
28.86409023721397	2.1180031	1.4553361
28.88218844906704	2.189267	1.4796171
28.900287397040845	2.245156	1.4983845
28.918387081676755	2.2571802	1.5023915
28.936487503516343	2.220886	1.4902637
28.954588663101365	2.216704	1.4888599
28.97269056097374	2.246104	1.4987007
28.990793197675597	2.310757	1.5201174
29.00889657374923	2.2969956	1.5155842
29.027000689737125	2.239468	1.4964852
29.04510554618196	2.2774615	1.5091261
29.06321114362659	2.3682184	1.5389017
29.08131748261405	2.3869903	1.5449888
29.099424563687567	2.4112985	1.5528356
29.11753238739057	2.488276	1.577427
29.13564095426663	2.509103	1.5840149
29.15375026485954	2.5226898	1.5882977
29.171860319713275	2.6396313	1.6246942
29.18997111937199	2.723631	1.6503427
29.20808266438002	2.7508101	1.6585567
29.226194955281898	2.7236736	1.6503556
29.244307992622335	2.72687	1.6513237
29.26242177694624	2.8368604	1.6842982
29.2805363087987	2.905145	1.7044486
29.29865158872498	2.9194393	1.7086366
29.316767617270557	2.896275	1.7018446
29.334884394981064	2.90425	1.704186
29.353001922402367	2.886839	1.69907
29.37112020008047	2.9099448	1.705856
29.389239228561596	3.047217	1.7456279
29.407359008392152	3.2764168	1.8100876
29.42547954011872	3.5279179	1.8782753
29.44360082428809	3.9652119	1.991284
29.46172286144722	4.788148	2.1881838
29.479845652143283	6.483276	2.5462277
29.497969196923606	9.265475	3.0439243
29.516093496335728	13.231873	3.6375642
29.5342185509274	17.021355	4.1256943
29.55234436124651	20.103796	4.4837255
29.570470927841175	21.389425	4.6248703
29.588598251259686	21.183521	4.6025558
29.60672633205055	19.342562	4.398018
29.624855170762405	16.230955	4.028766
29.642984767944146	12.737441	3.5689552
29.66111512414481	9.376198	3.0620577
29.67924623991366	6.84824	2.6169143
29.697378115800138	5.168411	2.273414
29.71551075235387	4.3193173	2.0782967
29.733644150124675	3.83656	1.9587139
29.751778309662576	3.5652013	1.888174
29.769913231517766	3.4113703	1.8469895
29.78804891624066	3.3228316	1.8228636
29.806185364381818	3.2514553	1.8031793
29.82432257649206	3.2207189	1.7946361
29.842460553122333	3.286553	1.8128853
29.86059929482382	3.3775728	1.8378174
29.878738802147872	3.366589	1.8348267
29.896879075646048	3.2301672	1.7972666
29.915020115870114	3.1886249	1.7856721
29.933161923371976	3.1896517	1.7859596
29.951304498703777	3.208656	1.7912722
29.969447842417857	3.2400017	1.8000004
29.987591955066733	3.229662	1.797126
30.005736837203123	3.1961515	1.7877784
30.023882489379943	3.1760402	1.7821448
30.04202891215028	3.188273	1.7855736
30.060176106067455	3.1818073	1.7837621
30.078324071684946	3.1199622	1.7663414
30.09647280955646	3.0800078	1.7549951
30.114622320235863	3.0959284	1.7595251
30.132772604277257	3.1174743	1.765637
30.1509236622349	3.0945628	1.7591369
30.16907549466328	3.0557818	1.7480794
30.18722810211705	3.0792425	1.7547771
30.205381485151097	3.100064	1.7606999
30.22353564432045	3.0294013	1.7405175
30.241690580180403	3.0049229	1.7334714
30.25984629328638	3.0203626	1.7379191
30.278002784194037	3.031342	1.7410749
30.296160053459246	2.9129636	1.7067406
30.314318101638033	2.8421094	1.6858557
30.332476929286646	2.8490088	1.6879007
30.35063653696153	2.8063893	1.6752281
30.368796925219307	2.9006488	1.7031292
30.386958094616844	2.9887962	1.7288135
30.40512004571115	2.984746	1.7276417
30.423282779059463	2.9156513	1.7075279
30.441446295219233	2.8352313	1.6838145
30.459610594748067	2.8331919	1.6832088
30.47777567820382	2.90641	1.7048197
30.495941546144504	2.9324386	1.7124364
30.51410819912835	2.8414156	1.6856499
30.532275637713795	2.787938	1.669712
30.55044386245946	2.797951	1.6727077
30.56861287392416	2.8192623	1.679066
30.586782672666956	2.7802124	1.6673969
30.604953259247047	2.7542124	1.659582
30.623124634223885	2.7836866	1.6684384
30.641296798157075	2.7883937	1.6698484
30.659469751606462	2.767625	1.6636181
30.677643495132074	2.7379894	1.6546872
30.695818029294152	2.6965003	1.6421024
30.713993354653116	2.7178276	1.6485835
30.73216947176962	2.681789	1.6376169
30.75034638120448	2.6404603	1.6249493
30.768524083518756	2.7157116	1.6479416
30.786702579273673	2.7390609	1.6550108
30.80488186903069	2.7687824	1.6639658
30.82306195335144	2.92403	1.7099795
30.841242832797782	3.2211196	1.7947478
30.85942450793176	3.523198	1.8770183
30.877606979315637	3.8946214	1.9734795
30.895790247511883	4.335496	2.0821853
30.913974313083134	4.7451086	2.178327
30.932159176592283	5.1914873	2.2784836
30.95034483860237	5.4441686	2.3332741
30.968531299676698	5.368758	2.317058
30.98671856037873	5.0919695	2.2565393
31.00490662127215	4.7753797	2.185264
31.023095482920848	4.2599397	2.0639622
31.04128514588892	3.7153401	1.9275217
31.059475610740662	3.2134116	1.7925991
31.07766687804056	2.805288	1.6748995
31.09585894835335	2.5756552	1.6048847
31.11405182224393	2.5503938	1.5969952
31.132245500277417	2.5053976	1.5828447
31.15043998301914	2.3760324	1.5414385
31.168635271034628	2.3416705	1.5302517
31.18683136488964	2.4048183	1.5507476
31.20502826515008	2.4409585	1.5623567
31.223225972382135	2.4389935	1.5617278
31.241424487152155	2.3878489	1.5452666
31.259623810026692	2.4068575	1.551405
31.27782394157253	2.4482677	1.5646942
31.296024882356644	2.4383202	1.5615121
31.314226632946237	2.4017196	1.5497482
31.332429193908684	2.440331	1.5621558
31.350632565811598	2.4845667	1.5762508
31.368836749222787	2.4992166	1.580891
31.387041744710295	2.4468076	1.5642275
31.40524755284232	2.455056	1.5668619
31.423454174187317	2.5082054	1.5837315
31.441661609313922	2.5133014	1.5853395
31.459869858791002	2.4637067	1.5696199
31.478078923187628	2.4129508	1.5533675
31.496288803073064	2.296535	1.5154322
31.514499499016807	2.283193	1.5110239
31.532711011588546	2.3360012	1.5283983
31.550923341358178	2.3785694	1.5422611
31.56913648889584	2.4253325	1.5573479
31.587350454771844	2.452189	1.5659467
31.605565239556732	2.436272	1.5608561
31.62378084382127	2.3671684	1.5385605
31.641997268136382	2.3632057	1.5372721
31.660214513073274	2.2359998	1.495326
31.67843257920331	2.142378	1.4636865
31.6966514670981	2.1536238	1.467523
31.71487117732944	2.1576674	1.4689001
31.733091710469346	2.1669495	1.4720563
31.751313067090052	2.2573185	1.5024375
31.769535247764008	2.214597	1.4881521
31.787758253063878	2.1804695	1.4766413
31.805982083562526	2.222906	1.4909414
31.824206739833024	2.2461953	1.4987313
31.84243222244869	2.1683705	1.4725388
31.860658531983013	2.209023	1.4862783
31.878885669009737	2.2424047	1.4974661
31.897113634102784	2.2458618	1.4986199
31.91534242783632	2.2175229	1.4891349
31.933572050784694	2.1963363	1.4820042
31.951802503522508	2.1822982	1.4772604
31.970033786624548	2.2472746	1.4990913
31.988265900665834	2.2120717	1.4873035
32.006498846221575	2.1099222	1.4525571
32.02473262386724	2.0803146	1.4423296
32.04296723417845	2.0534334	1.4329807
32.0612026777311	2.1198275	1.4559628
32.07943895510129	2.2040987	1.4846207
32.097676066865304	2.2155886	1.4884853
32.115914013599685	2.1172757	1.4550861
32.13415279588115	2.0758653	1.4407864
32.152392414286666	2.1278608	1.4587189
32.1706328693934	2.1951654	1.4816091
32.18887416177875	2.2224305	1.4907818
32.20711629202032	2.2008586	1.4835291
32.225359260695924	2.1354854	1.46133
32.243603068383614	2.123909	1.4573637
32.26184771566166	2.1698766	1.4730501
32.28009320310852	2.155611	1.4682
32.2983395313029	2.1461487	1.4649739
32.31658670082372	2.118071	1.4553595
32.33483471225012	2.1077018	1.4517926
32.35308356616143	2.0676248	1.4379238
32.371333263137245	2.0905113	1.44586
32.38958380375734	2.1329534	1.4604634
32.407835188601744	2.1279852	1.4587616
32.42608741825067	2.0777042	1.4414244
32.444340493284585	2.0197964	1.4211954
32.46259441428416	2.0025148	1.4151024
32.48084918183028	2.0566607	1.4341062
32.49910479650405	2.0638728	1.4366186
32.51736125888683	2.0495253	1.4316163
32.53561856956014	2.0017781	1.4148421
32.5538767291058	2.108606	1.452104
32.572135738105764	2.1068509	1.4514996
32.59039559714228	2.0628085	1.4362481
32.608656306797776	1.9233924	1.3868642
32.62691786765491	1.9475431	1.395544
32.645180280296586	1.9719479	1.4042606
32.663443545305896	2.0245035	1.4228505
32.68170766326619	2.0456119	1.4302489
32.69997263476099	2.0810406	1.4425812
32.7182384603741	2.1226916	1.456946
32.7365051406895	2.0575018	1.4343995
32.75477267629144	1.9581063	1.3993235
32.77304106776434	1.8604307	1.3639761
32.79131031569289	1.8900524	1.3747917
32.809580420661966	1.9040046	1.3798567
32.827851383256714	1.9471416	1.3954002
32.84612320406245	2.0385423	1.4277753
32.86439588366476	2.098299	1.4485507
32.88266942264945	1.9506465	1.3966554
32.9009438216025	1.8970697	1.3773415
32.9192190811102	1.9396253	1.3927042
32.937495201758985	1.9565895	1.3987814
32.95577218413556	1.9146943	1.3837248
32.974050028826866	1.9113519	1.3825165
32.992328736420035	1.9479737	1.3956983
33.010608307502444	1.9567887	1.3988526
33.02888874266169	1.9453062	1.3947424
33.047170042485604	1.9235297	1.3869138
33.06545220756225	1.875914	1.3696401
33.083735238479896	1.9544699	1.3980236
33.10201913582707	2.0608034	1.4355499
33.12030390019248	2.015564	1.4197056
33.138589532165135	1.9941074	1.4121287
33.15687603233419	1.9751527	1.4054012
33.17516340128909	1.9954983	1.412621
33.19345163961947	2.0096686	1.4176278
33.211740747915215	2.0241513	1.4227268
33.23003072676643	2.0256717	1.4232609
33.248321576763466	1.9613166	1.4004701
33.266613298496885	1.9146469	1.3837076
33.28490589255747	1.9211371	1.3860509
33.30319935953626	2.0037012	1.4155215
33.32149370002451	1.9678911	1.4028155
33.339788914613706	1.9048764	1.3801726
33.358085003895575	1.8410667	1.3568591
33.376381968462034	1.8562965	1.3624598
33.39467980890529	1.8909119	1.3751043
33.41297852581774	1.8869381	1.3736587
33.43127811979204	1.9058381	1.3805209
33.44957859142105	1.8917453	1.3754073
33.467879941297866	1.8842757	1.3726892
33.486182170015844	1.9130037	1.3831137
33.50448527816853	1.9864651	1.4094201
33.522789266349754	2.038043	1.4276004
33.541094135153514	1.9307452	1.3895125
33.55939988517411	1.8261564	1.3513535
33.57770651700602	1.8437803	1.3578587
33.59601403124398	1.8404819	1.3566436
33.61432242848296	1.7898852	1.337866
33.632631709318154	1.8150905	1.347253
33.650941874344994	1.8201712	1.3491372
33.66925292415916	1.8705565	1.3676829
33.68756485935654	1.8637221	1.365182
33.70587768053328	1.9198301	1.3855793
33.724191388285746	2.0330825	1.4258621
33.74250598321054	2.0518613	1.4324319
33.760821465904506	1.9555242	1.3984005
33.77913783696474	1.9678197	1.40279
33.79745509698852	2.0888288	1.445278
33.815773246573414	1.9929315	1.4117123
33.8340922863172	1.8636204	1.3651448
33.852412216817896	1.8335441	1.3540843
33.87073303867377	1.8575497	1.3629196
33.889054752483304	1.8558898	1.3623104
33.907377358845245	1.9453046	1.3947418
33.92570085835853	1.9698894	1.4035275
33.94402525162239	1.9259504	1.3877861
33.96235053923627	1.8920869	1.3755314
33.980676721799824	1.9382342	1.3922048
33.999003799912984	1.9285145	1.3887097
34.01733177417592	1.9145488	1.3836722
34.03566064518901	1.9334747	1.3904943
34.0539904135529	1.9877181	1.4098645
34.07232107986846	1.9458474	1.3949363
34.090652644736785	1.9008131	1.3786998
34.108985108759235	1.912715	1.3830094
34.12731847253742	1.8115007	1.34592
34.14565273667313	1.7012868	1.3043338
34.16398790176847	1.7444303	1.3207688
34.18232396842574	1.8887495	1.3743178
34.20066093724749	1.9174333	1.3847141
34.21899880883651	1.895365	1.3767226
34.23733758379583	1.8608549	1.3641316
34.25567726272874	1.8192401	1.3487921
34.27401784623872	1.7754285	1.332452
34.29235933492957	1.7992297	1.3413537
34.31070172940526	1.7657397	1.3288114
34.32904503027003	1.7492656	1.322598
34.347389238128386	1.723335	1.3127586
34.36573435358502	1.7388332	1.3186482
34.38408037724492	1.7925087	1.3388461
34.402427309713296	1.8240515	1.3505745
34.42077515159559	1.8597645	1.3637319
34.43912390349752	1.844543	1.3581395
34.45747356602499	1.8434101	1.3577224
34.47582413978423	1.9505789	1.3966312
34.49417562538163	2.0543134	1.4332876
34.51252802342388	1.9606227	1.4002224
34.53088133451789	1.8141406	1.3469003
34.54923555927084	1.8075906	1.3444667
34.567590698290104	1.8813629	1.3716278
34.58594675218336	2.0275934	1.4239359
34.6043037215585	2.1433487	1.464018
34.62266160702365	2.1390579	1.4625518
34.641020409187234	2.0864942	1.4444702
34.65938012865785	2.1792324	1.4762223
34.677740766044394	2.144363	1.4643643
34.69610232195598	1.9609859	1.4003521
34.714464797002016	1.9349779	1.3910348
34.73282819179208	1.8906524	1.37501
34.751192506936064	1.905572	1.3804246
34.76955774304408	1.8931375	1.3759133
34.7879239007265	1.8779289	1.3703754
34.80629098059391	1.7656822	1.3287897
34.824658983257194	1.8634553	1.3650844
34.843027909327446	1.9887202	1.4102199
34.86139775941603	2.0416982	1.4288801
34.879768534134534	2.1210268	1.4563745
34.89814023409483	2.0782523	1.4416145
34.91651285990901	1.942892	1.3938766
34.93488641218944	1.844867	1.3582588
34.95326089154871	1.9125857	1.3829627
34.97163629859967	1.934066	1.390707
34.99001263395542	1.8303	1.3528858
35.00838989822934	1.9941154	1.4121315
35.02676809203499	2.0335565	1.4260283
35.04514721598624	1.8729068	1.3685418
35.063527270697215	1.9808668	1.4074327
35.081908256782256	2.0518007	1.4324108
35.10029017485597	1.9110888	1.3824214
35.11867302553321	1.883139	1.3722751
35.137056809429104	2.0530336	1.4328411
35.155441527159006	2.1273372	1.4585394
35.173827179338524	1.9786041	1.4066286
35.19221376658354	1.7007713	1.3041363
35.21060128951017	1.6484815	1.2839321
35.2289897487348	1.9775898	1.406268
35.24737914487405	1.9247427	1.3873509
35.26576947854479	1.7211846	1.3119392
35.28416075036418	1.757844	1.3258371
35.30255296094958	1.8109356	1.34571
35.32094611091867	1.9510853	1.3968126
35.33934020088932	2.2681155	1.5060264
35.35773523147969	2.4679046	1.5709566
35.3761312033082	2.2155309	1.4884659
35.394528116993506	1.7492312	1.3225851
35.41292597315452	1.665053	1.2903693
35.431324772410434	1.7886597	1.3374078
35.449724515380666	2.0012395	1.4146518
35.46812520268491	1.7627586	1.3276892
35.486526834943106	1.8585619	1.3632908
35.504929412775454	2.0779383	1.4415056
35.52333293680242	1.9020214	1.3791379
35.54173740764471	1.2793418	1.1310799
35.560142825923286	1.40256	1.1842972
35.5785491922594	1.5532601	1.2462986
35.59695650727454	1.6016678	1.2655702
35.61536477159042	1.3578206	1.1652557
