0.008763373481513119	0.3822274	0.6182454
0.026290120649546365	0.4805547	0.69322056
0.043816868432600686	0.50484675	0.7105257
0.06134361724069026	0.28113455	0.5302212
0.07887036748382949	0.1750467	0.41838583
0.0963971195720331	0.0036183195	0.060152467
0.11392387391531617	0.031012928	0.17610487
0.1314506309236943	0.038722407	0.1967801
0.1489773910071836	0.07128552	0.2669935
0.16650415457580078	0.23205426	0.48172012
0.18403092203956356	0.19128852	0.4373654
0.20155769380849	0.18109338	0.42555067
0.2190844702925996	0.076530635	0.2766417
0.2366112519019124	0.10405055	0.32256868
0.2541380390464497	0.19728564	0.44416848
0.27166483213623416	0.23551363	0.48529747
0.28919163158128947	0.25461447	0.5045934
0.3067184377916406	0.17427395	0.4174613
0.324245251177314	0.1334135	0.36525813
0.34177207214833777	0.11383235	0.33739048
0.3592989011147415	0.11958323	0.3458081
0.37682573848655654	0.13934071	0.37328368
0.39435258467381573	0.13059475	0.36137894
0.41187944008655414	0.13473125	0.36705756
0.42940630513480854	0.13034533	0.3610337
0.446933180228618	0.15122159	0.3888722
0.4644600657780234	0.1864149	0.43175793
0.48198696219306775	0.19722933	0.4441051
0.49951386988379676	0.16630079	0.40779993
0.5170407892602581	0.12365792	0.35165027
0.5345677207325025	0.12338998	0.3512691
0.5520946647105822	0.13188714	0.3631627
0.5696216216045534	0.13420448	0.3663393
0.5871485918244737	0.14202797	0.37686598
0.6046755757804043	0.1426433	0.3776815
0.6222025738824094	0.14610302	0.38223425
0.6397295865405557	0.13068978	0.36151043
0.6572566141649129	0.13696066	0.37008196
0.6747836571655547	0.15362887	0.3919552
0.6923107159525568	0.14160801	0.3763084
0.7098377909359992	0.12264423	0.350206
0.7273648825259653	0.12431274	0.35258013
0.7448919911325411	0.13410193	0.3661993
0.762419117165817	0.17480919	0.41810188
0.7799462610358868	0.1853981	0.4305788
0.7974734231528482	0.19356383	0.4399589
0.8150006039268024	0.19485173	0.44142014
0.8325278037678551	0.1677458	0.40956783
0.8500550230861152	0.17981909	0.4240508
0.8675822622916969	0.21647179	0.4652653
0.8851095217947171	0.22783135	0.47731683
0.9026368020052984	0.25595155	0.50591654
0.9201641033335665	0.24889931	0.4988981
0.9376914261896523	0.24269514	0.49264097
0.9552187709836915	0.23673795	0.48655725
0.9727461381258234	0.25597385	0.5059386
0.990273528026193	0.29306224	0.5413522
1.0078009410949496	0.30359352	0.5509932
1.0253283777422473	0.27783164	0.5270974
1.0428558383782454	0.26603013	0.5157811
1.0603833234131086	0.27890807	0.5281175
1.0779108332570058	0.3425316	0.585262
1.0954383683201119	0.34775475	0.5897073
1.112965929012607	0.4069147	0.6378987
1.1304935157446763	0.45730156	0.67624074
1.1480211289265108	0.52712595	0.7260344
1.1655487689683062	1.3285108	1.1526104
1.1830764362802655	1.6567367	1.2871429
1.200604131272596	2.0759773	1.4408252
1.2181318543555117	2.4832604	1.5758364
1.235659605939232	2.5347006	1.5920743
1.253187386433982	4.065996	2.0164316
1.270715196249994	6.469294	2.5434806
1.2882430357975057	11.760791	3.429401
1.3057709054867608	16.36998	4.0459833
1.3232988057280106	21.84517	4.6738815
1.3408267369315112	26.4162	5.1396694
1.358354699507526	30.115118	5.4877243
1.3758826938663256	34.311226	5.8575783
1.3934107204181858	36.259438	6.021581
1.410938779573391	36.878468	6.0727644
1.4284668717422309	37.568367	6.129304
1.4459949973350033	37.492672	6.123126
1.4635231567620117	37.511047	6.124626
1.4810513504335687	36.455193	6.0378137
1.4985795787599925	35.34321	5.9450154
1.5161078421516088	34.900005	5.907623
1.5336361410187505	34.095814	5.839162
1.5511644757717598	34.00451	5.8313384
1.5686928468209842	34.270325	5.854086
1.58622125457678	35.02297	5.9180207
1.6037496994495108	36.374565	6.031133
1.621278181849548	36.59666	6.049517
1.6388067021872719	37.098988	6.0908937
1.6563352608730693	36.646217	6.0536118
1.673863858317336	35.781113	5.9817314
1.6913924949304753	34.608185	5.882872
1.7089211711228998	33.456303	5.7841425
1.7264498873050296	32.656406	5.7145786
1.7439786438872935	31.993263	5.6562586
1.7615074412801288	31.123232	5.5788198
1.779036279893981	30.422455	5.5156555
1.796565160139305	29.614851	5.4419527
1.814094082426564	29.18138	5.401979
1.8316230471662298	28.557152	5.343889
1.849152054768784	27.865961	5.278822
1.8666811056447168	27.535978	5.2474737
1.8842102002045273	26.93956	5.1903334
1.901739338858724	26.263973	5.124839
1.9192685220178245	25.63087	5.062694
1.9367977500923557	24.849005	4.9848776
1.9543270234928547	24.55637	4.9554386
1.971856342629867	23.928377	4.891664
1.9893857079139496	23.390005	4.8363214
2.006915119755667	23.082893	4.804466
2.0244445785655945	22.272516	4.7193766
2.0419740847543175	21.556166	4.642862
2.0595036387324317	20.933832	4.5753503
2.0770332409105414	20.44416	4.521522
2.094562891699263	20.290886	4.5045404
2.1120925915092217	19.540535	4.420468
2.129622340751053	19.04245	4.3637657
2.1471521398354043	187.32675	13.686736
2.1646819891729323	443.83273	21.067339
2.182211889174303	440.32388	20.983896
2.1997418402501974	452.6533	21.27565
2.2172718428113023	432.66592	20.800623
2.234801897268317	320.57758	17.90468
2.2523320040319548	17.014338	4.124844
2.269862163512935	16.513786	4.063716
2.287392376121992	16.118135	4.01474
2.304922642269869	15.814928	3.9767988
2.322452962367322	15.589551	3.9483604
2.3399833368251164	15.371358	3.9206324
2.357513766054032	15.129278	3.8896372
2.3750442504648586	14.656146	3.8283346
2.3925747904683963	14.449958	3.80131
2.410105386475459	14.313085	3.7832637
2.4276360388968707	14.178554	3.7654421
2.445166748143469	13.996727	3.74122
2.4626975146261025	13.630972	3.6920147
2.4802283387556323	13.43548	3.6654441
2.4977592209429305	13.128407	3.6233144
2.5152901615988825	12.984982	3.603468
2.5328211611343865	12.807024	3.5786903
2.5503522199603523	12.475218	3.5320275
2.5678833384877024	12.073559	3.4747026
2.5854145171273712	11.790436	3.4337204
2.6029457562903064	11.66238	3.4150226
2.620477056387469	11.597501	3.4055104
2.6380084178298326	11.577338	3.4025488
2.655539841028383	11.365277	3.3712428
2.673071326394119	11.313822	3.3636024
2.6906028743380523	11.133253	3.336653
2.708134485271211	10.854466	3.2946117
2.7256661596046325	10.705086	3.2718627
2.743197897749369	10.392674	3.223767
2.760729700116486	10.285596	3.2071164
2.778261567117063	10.01342	3.164399
2.795793499162193	9.992576	3.1611035
2.8133254966629817	9.791595	3.1291525
2.830857560030551	9.637945	3.104504
2.8483896896760337	9.4683895	3.0770748
2.865921886010578	9.24129	3.039949
2.883454149445347	9.234517	3.0388348
2.9009864803915177	9.239305	3.0396225
2.91851887926028	9.190524	3.0315876
2.9360513464628384	9.038077	3.0063396
2.953583882410413	8.832928	2.9720242
2.9711164875142373	8.722081	2.953317
2.9886491621855606	8.7287035	2.954438
3.0061819068356455	8.530278	2.920664
3.023714721875769	8.408066	2.8996665
3.041247607717225	8.28684	2.8786874
3.0587805647713213	8.243756	2.8711941
3.0763135934493806	8.203143	2.8641129
3.0938466941627407	8.098857	2.845849
3.1113798673227544	7.9224396	2.814683
3.1289131133407904	7.775275	2.788418
3.1464464326282315	7.685195	2.7722185
3.1639798255964786	7.5693865	2.7512517
3.1815132926569443	7.4545555	2.7303033
3.1990468342210603	7.446062	2.7287474
3.216580450700272	7.397666	2.719865
3.2341141425060416	7.368307	2.7144625
3.251647910049847	7.2549806	2.6935072
3.2691817537431813	7.1007977	2.6647322
3.286715673997555	7.0135427	2.6483095
3.3042496712244938	6.9929967	2.6444275
3.32178374583554	6.8748507	2.6219935
3.339317898242251	6.9018164	2.6271307
3.3568521288562034	6.7188272	2.59207
3.3743864380889876	6.6923065	2.5869493
3.3919208263522127	6.7009187	2.5886133
3.4094552940575023	6.582569	2.565652
3.4269898416164972	6.448494	2.5393884
3.444524469440858	6.428072	2.5353642
3.4620591779422587	6.4098973	2.5317776
3.479593967532391	6.4383783	2.537396
3.4971288386229658	6.317139	2.513392
3.5146637916257086	6.2415714	2.4983137
3.5321988269523628	6.2250323	2.4950016
3.5497339450146903	6.286568	2.507303
3.5672691462244708	6.338483	2.5176344
3.5848044309934988	6.254039	2.5008075
3.60233979973359	6.226758	2.4953473
3.619875252856575	6.158108	2.4815536
3.6374107907743034	6.1454916	2.47901
3.6549464138986427	6.110212	2.4718843
3.6724821226414788	6.138008	2.4775004
3.690017917414714	6.1288786	2.4756572
3.7075537986302702	6.091551	2.4681067
3.7250897667000857	6.191283	2.488229
3.7426258220361235	6.3004265	2.510065
3.7601619650503553	6.5027294	2.550045
3.777698196154779	6.9743366	2.640897
3.7952345157614067	7.9655437	2.8223295
3.8127709242822716	8.779984	2.9631038
3.830307422129425	11.055407	3.3249671
3.847844009714936	29.905518	5.4685936
3.8653806874508954	97.506065	9.874516
3.882917455749409	96.74696	9.836003
3.900454315022606	96.486855	9.822772
3.917991265682631	41.01671	6.404429
3.9355283081416506	10.691786	3.2698295
3.9530654428118495	8.62038	2.9360485
3.970602670105433	7.4529033	2.7300005
3.9881399904346244	6.4963927	2.5488021
4.005677404211669	6.369922	2.5238705
4.023214911848827	6.340369	2.518009
4.0407525137583855	6.347075	2.5193403
4.058290210352644	6.401018	2.5300233
4.075828002043927	6.244048	2.4988093
4.0933658892445814	6.1353664	2.476967
4.110903872366966	6.087407	2.467267
4.128441951823468	6.033418	2.4563017
4.145980128026488	5.9439483	2.4380214
4.163518401388452	5.9484153	2.4389374
4.181056772321807	5.9418745	2.437596
4.1985952412390155	6.0156984	2.452692
4.216133808552567	6.111678	2.4721808
4.233672474674966	6.1910653	2.4881852
4.251211240018741	6.4550924	2.5406873
4.268750104996445	6.6703405	2.5827003
4.286289070020643	7.571966	2.7517207
4.303828135503928	9.220038	3.0364516
4.3213673018589125	29.435808	5.4254775
4.3389065694982305	90.64694	9.520868
4.356445938834537	165.7257	12.873449
4.3739854102805085	171.15744	13.082715
4.391524984248844	172.1565	13.120842
4.409064661152262	136.38812	11.678533
4.426604441403504	96.73099	9.835192
4.444144325415337	75.6909	8.700052
4.461684313600543	21.424328	4.628642
4.47922440637193	21.822428	4.671448
4.496764604142329	20.13667	4.48739
4.5143049073245916	18.298338	4.2776556
4.531845316331589	16.149052	4.018588
4.5493858315762195	13.138729	3.6247385
4.566926453471405	10.927092	3.3056152
4.584467182430081	8.909496	2.9848778
4.602008018865218	7.937692	2.817391
4.619548963189798	7.3169694	2.7049897
4.637090015816834	6.914308	2.6295073
4.654631177159353	6.726691	2.5935864
4.672172447630417	6.431638	2.5360675
4.689713827643102	6.213809	2.4927514
4.7072553176105085	5.9800854	2.4454212
4.724796917945764	5.8035293	2.4090514
4.742338629062015	5.6680584	2.3807685
4.759880451372434	5.5830607	2.3628502
4.777422385290215	5.5160794	2.3486335
4.794964431228581	5.4879556	2.3426385
4.812506589600768	5.4708166	2.3389776
4.830048860820047	5.4236526	2.3288736
4.847591245299709	5.439006	2.3321676
4.8651337434530655	5.473496	2.3395503
4.882676355693457	5.542861	2.3543282
4.900219082434242	5.5875773	2.3638058
4.917761924088813	5.5861073	2.3634946
4.935304881070575	5.5087943	2.3470821
4.952847953792969	5.4137354	2.3267436
4.970391142669449	5.3960266	2.3229349
4.9879344481135055	5.349157	2.3128245
5.005477870538642	5.3907647	2.3218021
5.023021410358394	5.3997436	2.3237348
5.040565067986324	5.4281015	2.3298287
5.05810884383601	5.5024443	2.3457289
5.075652738321066	5.433937	2.3310807
5.09319675185512	5.3411536	2.3110936
5.110740884851836	5.2029033	2.2809873
5.128285137724894	5.1315618	2.265295
5.145829510888007	5.1496716	2.2692888
5.163374004754908	5.18434	2.2769146
5.1809186197393595	5.203416	2.2810998
5.198463356255145	5.2717285	2.2960246
5.216008214716077	5.2296176	2.2868357
5.233553195535998	5.2533417	2.292017
5.251098299128764	5.2461147	2.2904398
5.268643525908272	5.1650505	2.2726748
5.286188876288432	5.146668	2.268627
5.3037343506831895	5.1118827	2.2609472
5.32127994950651	5.102453	2.258861
5.3388256731723915	5.1337757	2.2657838
5.356371522094851	5.093845	2.2569547
5.373917496687938	5.078159	2.253477
5.391463597365729	5.0653324	2.2506294
5.40900982454232	5.0226016	2.241116
5.426556178631843	5.0575757	2.2489054
5.444102660048449	5.0592446	2.2492764
5.4616492692063225	5.1362605	2.266332
5.479196006519669	5.157338	2.2709773
5.496742872402727	5.0829062	2.2545302
5.514289867269756	5.0090175	2.2380834
5.531836991535049	4.934498	2.2213728
5.549384245612924	4.917518	2.217548
5.566931629917724	4.897006	2.212918
5.584479144863822	4.9439335	2.2234957
5.6020267908656205	4.984156	2.2325225
5.619574568337545	5.071924	2.2520933
5.637122477694054	5.1122932	2.261038
5.654670519349629	5.13307	2.2656279
5.672218693718784	5.121193	2.2630053
5.689767001216059	5.1145325	2.2615333
5.707315442256021	5.030927	2.2429729
5.724864017253266	4.9851365	2.2327418
5.7424127266224225	4.9548154	2.2259414
5.75996157077814	4.995035	2.2349575
5.777510550135105	5.0633035	2.2501786
5.795059665108022	5.014301	2.2392635
5.812608916111639	5.076542	2.2531183
5.830158303560715	5.1760635	2.2750964
5.847707827870055	5.220852	2.2849183
5.86525748945448	5.241289	2.2893863
5.8828072887288485	5.3659286	2.3164475
5.900357226108044	5.456694	2.3359568
5.917907302006979	5.604544	2.3673918
5.9354575168406	6.1776567	2.4854891
5.9530078710238765	6.644135	2.577622
5.970558364971812	7.160462	2.675904
5.988108999099438	7.4782887	2.734646
6.005659773821818	8.045666	2.8364882
6.023210689554039	7.8386393	2.799757
6.040761746711227	8.202506	2.8640018
6.058312945708531	7.5641627	2.7503023
6.075864286961132	7.1248183	2.6692355
6.093415770884244	6.3922377	2.5282874
6.1109673978931065	5.915532	2.4321866
6.128519168402993	5.4267173	2.3295317
6.146071082829204	5.362483	2.3157036
6.163623141587075	5.2874517	2.2994459
6.181175345091969	5.2135506	2.2833202
6.198727693759281	5.1095905	2.2604403
6.216280188004435	5.0446706	2.2460344
6.233832828242885	5.012986	2.2389698
6.251385614890126	5.096508	2.2575448
6.268938548361669	5.166666	2.27303
6.286491629073067	5.093819	2.2569492
6.304044857439898	5.01231	2.238819
6.321598233877777	4.8421597	2.2004907
6.339151758802344	4.831352	2.1980338
6.356705432629277	4.834992	2.1988616
6.37425925577428	4.8298645	2.1976953
6.391813228653095	4.86327	2.2052822
6.409367351681486	4.861524	2.2048864
6.426921625275259	4.9438877	2.2234855
6.44447604985025	4.9400024	2.2226117
6.46203062582232	4.98549	2.232821
6.47958535360737	4.9956074	2.2350855
6.497140233621328	5.000315	2.2361383
6.514695266280161	4.9592547	2.2269385
6.532250451999859	4.9351573	2.2215214
6.549805791196454	4.9330974	2.2210577
6.567361284286002	4.975774	2.2306442
6.584916931684597	4.952589	2.2254412
6.602472733808367	4.879534	2.2089667
6.6200286910734665	4.862168	2.2050323
6.637584803896092	4.944106	2.2235346
6.655141072692462	4.953286	2.2255979
6.672697497878842	4.934851	2.2214525
6.690254079871514	4.9130716	2.2165449
6.707810819086808	4.8718586	2.2072287
6.725367715941078	4.858581	2.2042189
6.742924770850719	4.8277087	2.1972048
6.760481984232151	4.7810946	2.1865714
6.778039356501836	4.7802114	2.1863694
6.795596888076266	4.7702804	2.184097
6.813154579371963	4.7800827	2.18634
6.830712430805492	4.8368025	2.199273
6.84827044279344	4.8300667	2.1977413
6.865828615752445	4.8449845	2.2011325
6.883386950099159	4.841642	2.2003732
6.900945446250287	4.8882394	2.2109363
6.918504104622553	4.8837166	2.2099133
6.936062925632727	4.9028363	2.2142348
6.953621909697607	4.9882045	2.233429
6.971181057234028	5.0149765	2.2394142
6.988740368658859	5.1154866	2.2617443
7.006299844389007	5.156166	2.2707193
7.023859484841407	5.2143	2.2834842
7.041419290433036	5.3186517	2.3062203
7.058979261580902	5.4153976	2.3271008
7.0765393987020495	5.552838	2.356446
7.094099702213559	5.875668	2.4239779
7.111660172532549	6.234628	2.4969237
7.129220810076164	6.619079	2.572757
7.146781615261595	7.2387023	2.6904836
7.16434258850606	7.4294963	2.7257102
7.181903730226821	7.832174	2.798602
7.1994650408411704	7.858554	2.8033113
7.217026520766437	8.00451	2.8292243
7.234588170419983	8.23227	2.8691933
7.252149990219215	8.21093	2.865472
7.269711980581568	8.17398	2.8590174
7.2872741419245175	7.9812007	2.8251019
7.304836474665574	7.5821114	2.7535634
7.322398979222286	7.260755	2.694579
7.339961656012233	7.0519557	2.655552
7.357524505453039	6.7615523	2.6002984
7.375087527962357	6.4120765	2.5322077
7.392650723957886	6.0939517	2.4685931
7.410214093857353	5.7970986	2.4077165
7.427777638078528	5.6849475	2.3843129
7.445341357039213	5.5863547	2.363547
7.4629052511572525	5.452128	2.3349793
7.480469320850524	5.3342447	2.3095984
7.498033566536948	5.2280846	2.2865005
7.5155979886344735	5.0762324	2.2530496
7.5331625875610975	4.9580603	2.2266703
7.550727363734844	4.9569387	2.2264183
7.568292317573788	5.001944	2.2365026
7.585857449496025	5.07235	2.2521877
7.603422759919705	5.049059	2.2470112
7.620988249263007	5.021134	2.2407887
7.638553917944147	5.0660696	2.2507932
7.656119766381391	5.1131105	2.2612188
7.673685794993023	5.102165	2.2587974
7.691252004197388	5.1064744	2.2597508
7.70881839441285	5.1327295	2.2655528
7.726384966057826	5.1416755	2.2675264
7.743951719550762	5.1185875	2.2624295
7.761518655310149	5.1000576	2.2583308
7.779085773754511	5.1241198	2.2636518
7.796653075302419	5.1676874	2.2732549
7.814220560372475	5.1724854	2.2743099
7.831788229383323	5.167044	2.2731133
7.8493560827536495	5.192618	2.2787316
7.866924120902174	5.2260575	2.2860572
7.884492344247663	5.2525263	2.2918391
7.9020607532089135	5.283857	2.298664
7.919629348204771	5.2287903	2.2866547
7.937198129654115	5.150468	2.2694643
7.954767097975865	5.17543	2.2749572
7.972336253588986	5.237642	2.2885895
7.989905596912472	5.341801	2.3112338
8.007475128365371	5.359764	2.3151164
8.025044848366756	5.3617687	2.3155494
8.042614757335754	5.4598293	2.3366277
8.060184855691523	5.516744	2.348775
8.07775514385327	5.6737328	2.38196
8.095325622240228	5.6943855	2.3862913
8.112896291271687	5.7492046	2.39775
8.130467151366968	5.7401137	2.3958535
8.148038202945436	5.7617555	2.4003656
8.165609446426497	5.7695723	2.4019933
8.183180882229594	5.8750134	2.4238427
8.200752510774217	5.8553324	2.4197793
8.218324332479893	5.830462	2.414635
8.235896347766193	5.800139	2.4083478
8.253468557052724	5.857708	2.4202702
8.27104096075914	5.9305477	2.4352715
8.288613559305137	5.9917555	2.4478064
8.306186353110448	6.0811505	2.465999
8.32375934259485	6.1036534	2.4705572
8.341332528178162	6.172385	2.4844286
8.358905910280246	6.2235975	2.494714
8.376479489321003	6.228169	2.49563
8.394053265720377	6.242811	2.4985619
8.411627239898356	6.153452	2.4806151
8.42920141227497	6.1527686	2.4804776
8.44677578327029	6.1364484	2.4771855
8.464350353304427	6.1198816	2.4738395
8.48192512279754	6.0943055	2.4686646
8.499500092169827	6.0795846	2.4656813
8.51707526184153	6.046111	2.458884
8.534650632232934	6.089551	2.4677017
8.552226203764365	6.1380405	2.4775069
8.569801976856192	6.183517	2.4866679
8.587377951928834	6.195016	2.4889789
8.60495412940274	6.206838	2.4913526
8.622530509698416	6.2678604	2.5035696
8.6401070932364	6.4279933	2.5353487
8.657683880437283	6.5678067	2.5627732
8.675260871721695	6.667551	2.5821602
8.692838067510303	6.795669	2.6068504
8.710415468223834	6.92901	2.6323013
8.727993074283043	7.0680704	2.6585844
8.745570886108737	7.0839267	2.6615646
8.763148904121765	7.09655	2.663935
8.78072712874302	7.1152644	2.6674452
8.798305560393441	7.281136	2.698358
8.815884199494006	7.4145637	2.7229695
8.833463046465745	7.666486	2.768842
8.851042101729728	7.8328657	2.7987258
8.86862136570707	8.101249	2.8462694
8.886200838818924	8.187448	2.8613715
8.903780521486505	8.182738	2.8605485
8.921360414131055	8.320247	2.8844838
8.938940517173874	8.407265	2.8995283
8.956520831036297	8.602617	2.9330218
8.97410135613971	8.848086	2.9745734
8.99168209290554	9.036074	3.0060062
9.009263041755265	9.352577	3.0581985
9.026844203110405	9.647214	3.1059964
9.044425577392525	9.877674	3.1428766
9.062007165023239	9.934284	3.15187
9.079588966424197	10.091022	3.176637
9.097170982017108	10.09834	3.1777885
9.11475321222372	10.98227	3.3139508
9.132335657465825	11.907639	3.4507446
9.149918318165264	12.0415745	3.4700973
9.167501194743924	12.772403	3.57385
9.18508428762374	12.488152	3.5338578
9.202667597226693	12.406541	3.522292
9.220251123974803	11.989654	3.4626079
9.237834868290143	11.685474	3.4184024
9.255418830594836	11.461711	3.385515
9.273003011311046	10.886257	3.2994328
9.290587410860985	10.661704	3.2652266
9.308172029666911	10.088315	3.1762109
9.32575686815113	9.833233	3.1357987
9.343341926735997	8.598528	2.9323246
9.360927205843916	8.339231	2.8877726
9.378512705897327	8.23491	2.8696532
9.396098427318728	8.098144	2.8457236
9.413684370530664	8.024208	2.8327034
9.431270535955722	7.92945	2.815928
9.448856924016539	7.753688	2.7845445
9.466443535135806	7.5558386	2.7487886
9.484030369736251	7.462501	2.7317579
9.501617428240658	7.4349456	2.7267096
9.519204711071852	7.550248	2.7477715
9.536792218652714	7.621598	2.760724
9.55437995140617	7.6565914	2.7670546
9.571967909755191	7.656543	2.767046
9.589556094122802	7.636376	2.7633994
9.60714450493207	7.658094	2.767326
9.624733142606116	7.7280126	2.7799304
9.642322007568108	7.8316965	2.7985168
9.659911100241267	7.9041643	2.8114345
9.677500421048851	8.065603	2.8400006
9.695089970414175	8.116187	2.8488922
9.712679748760609	8.148547	2.854566
9.730269756511557	8.084283	2.8432872
9.747859994090492	8.047151	2.83675
9.765450461920915	8.002187	2.8288136
9.78304116042639	7.9942794	2.8274157
9.800632090030527	8.022978	2.8324862
9.81822325115699	8.02467	2.832785
9.835814644229481	8.123394	2.8501568
9.853406269671762	8.177955	2.8597124
9.870998127907646	8.251792	2.8725932
9.888590219360985	8.24751	2.8718479
9.906182544455698	8.266097	2.875082
9.923775103615734	8.269403	2.875657
9.941367897265108	8.291589	2.8795118
9.958960925827878	8.313724	2.8833528
9.97655418972816	8.334554	2.8869627
9.994147689390106	8.270393	2.8758292
10.011741425237934	8.175984	2.8593678
10.029335397695904	8.194419	2.8625896
10.04692960718833	8.21749	2.8666165
10.06452405413958	8.231223	2.869011
10.082118738974064	8.239212	2.8704028
10.099713662116246	8.160083	2.856586
10.117308823990651	8.172399	2.8587408
10.134904225021844	8.100043	2.8460574
10.152499865634445	8.088428	2.844016
10.170095746253125	8.09553	2.8452644
10.18769186730261	8.072642	2.8412397
10.205288229207675	8.041877	2.8358202
10.222884832393145	7.9857903	2.8259141
10.2404816772839	7.9045744	2.8115075
10.258078764304868	7.8324623	2.7986536
10.275676093881035	7.7736454	2.7881258
10.293273666437438	7.8081317	2.7943034
10.310871482399158	7.9407153	2.8179276
10.32846954219134	7.9419203	2.8181412
10.346067846239173	7.95346	2.820188
10.363666394967908	7.921485	2.8145132
10.38126518880283	7.9312325	2.8162444
10.398864228169298	7.983334	2.8254795
10.416463513492713	7.970246	2.8231623
10.434063045198531	7.989645	2.826596
10.451662823712262	7.961573	2.821626
10.469262849459467	8.00862	2.8299506
10.486863122865758	8.0397005	2.8354366
10.504463644356806	8.080496	2.8426213
10.522064414358338	7.9316134	2.816312
10.539665433296118	7.8606377	2.8036828
10.557266701595987	7.7920866	2.791431
10.574868219683818	7.7879076	2.7906823
10.592469987985552	7.7358913	2.781347
10.610072006927185	7.576455	2.752536
10.627674276934751	7.4791503	2.7348034
10.64527679843435	7.380303	2.7166712
10.662879571852143	7.2729764	2.6968455
10.680482597614331	7.073368	2.6595805
10.698085876147173	6.851812	2.6175966
10.715689407876988	6.7761564	2.603105
10.733293193230146	6.69302	2.5870872
10.750897232633072	6.718039	2.591918
10.76850152651225	6.6379	2.5764122
10.786106075294207	6.5846214	2.5660517
10.803710879405534	6.4575167	2.5411644
10.821315939272877	6.353583	2.5206316
10.83892125532294	6.292247	2.5084352
10.856526827982472	6.248341	2.4996681
10.874132657678285	6.2253284	2.495061
10.891738744837243	6.1555057	2.481029
10.909345089886271	6.040137	2.457669
10.926951693252343	5.9547973	2.4402454
10.944558555362494	5.939028	2.437012
10.96216567664381	5.8782554	2.4245114
10.979773057523436	5.8382764	2.4162526
10.997380698428573	5.7667212	2.4013999
11.014988599786477	5.742668	2.3963864
11.032596762024461	5.666911	2.3805275
11.050205185569892	5.519078	2.3492718
11.067813870850198	5.4330378	2.3308878
11.085422818292859	5.3439326	2.3116949
11.10303202832541	5.356918	2.3145018
11.120641501375454	5.3747807	2.3183572
11.138251237870636	5.3216677	2.306874
11.155861238238671	5.264702	2.294494
11.173471502907317	5.2014885	2.2806773
11.191082032304402	5.1413646	2.2674577
11.208692826857805	5.1209826	2.2629588
11.226303886995465	5.043123	2.2456899
11.243915213145371	4.9938226	2.2346861
11.261526805735578	4.9097705	2.2158003
11.279138665194196	4.8599815	2.2045367
11.296750791949393	4.800834	2.1910806
11.314363186429393	4.7310815	2.1751049
11.331975849062479	4.6795692	2.1632311
11.34958878027699	4.643966	2.1549864
11.36720198050133	4.603517	2.1455808
11.384815450163948	4.5651526	2.1366217
11.402429189693366	4.510542	2.1238036
11.420043199518153	4.466253	2.113351
11.437657480066942	63.410362	7.9630623
11.455272031768422	85.136696	9.226954
11.472886855051353	107.52485	10.369419
11.490501950344528	99.12072	9.955939
11.508117318076819	84.44622	9.189463
11.52573295867715	45.8535	6.771521
11.543348872574514	4.1361184	2.0337448
11.560965060197946	4.0905657	2.0225146
11.57858152197655	4.0315943	2.007883
11.59619825833949	3.9642248	1.991036
11.613815269715985	3.9259956	1.9814125
11.631432556535323	38.40744	6.197374
11.649050119226837	82.98348	9.109527
11.666667958219929	93.37948	9.663306
11.68428607394406	107.63993	10.374967
11.701904466828756	82.4937	9.082604
11.719523137303586	65.37243	8.085321
11.737142085798196	4.634825	2.1528645
11.754761312742286	3.7014453	1.9239141
11.772380818565619	3.6413426	1.9082302
11.790000603698015	3.6170359	1.9018507
11.80762066856935	3.5937743	1.8957253
11.825241013609572	3.545748	1.8830156
11.842861639248683	3.4795322	1.8653505
11.860482545916748	3.3847847	1.8397784
11.878103734043883	3.3658214	1.8346175
11.895725204060282	3.345256	1.8290042
11.91334695639619	3.358028	1.8324922
11.930968991481919	3.349347	1.8301221
11.948591309747824	3.347008	1.829483
11.966213911624347	3.3507946	1.8305175
11.98383679754198	3.3031528	1.8174578
12.001459967931268	3.2604868	1.8056818
12.019083423222835	3.2226143	1.7951641
12.036707163847352	3.2551196	1.804195
12.05433119023556	3.252825	1.803559
12.071955502818259	3.2402682	1.8000745
12.089580102026313	3.202491	1.7895505
12.107204988290643	3.1410236	1.7722933
12.12483016204224	3.1231306	1.7672381
12.142455623712152	3.107906	1.7629254
12.16008137373149	3.1130455	1.7643825
12.177707412531431	3.0715528	1.7525846
12.19533374054321	3.0328774	1.7415159
12.212960358198126	3.0020697	1.7326481
12.230587265927545	2.9929905	1.7300261
12.248214464162889	2.9933486	1.7301296
12.265841953335649	3.0086544	1.7345473
12.283469733877375	3.0101264	1.7349715
12.301097806219685	2.9351404	1.7132251
12.31872617079425	2.8950114	1.7014734
12.336354828032825	2.904617	1.7042937
12.353983778367205	2.9429274	1.7154963
12.371613022229262	2.9418566	1.7151841
12.389242560050928	2.9343712	1.7130007
12.406872392264201	2.9122062	1.7065188
12.424502519301143	2.9026475	1.7037158
12.442132941593874	2.906471	1.7048376
12.459763659574586	2.8722508	1.6947716
12.477394673675532	2.8088782	1.6759708
12.49502598432903	2.778038	1.6667447
12.51265759196746	2.7502434	1.6583858
12.530289497023267	2.756705	1.6603328
12.547921699928967	2.7773523	1.6665391
12.565554201117134	2.7905605	1.6704971
12.583187001020404	2.8087223	1.6759243
12.600820100071486	2.7576084	1.6606048
12.618453498703152	2.7313294	1.6526734
12.636087197348235	2.7218995	1.6498181
12.65372119643964	2.7610853	1.6616514
12.671355496410326	2.7684238	1.663858
12.68899009769333	2.79108	1.6706525
12.706625000721749	2.8166995	1.6783025
12.724260205928752	2.8928053	1.7008249
12.741895713747551	2.910295	1.7059587
12.759531524611454	2.920381	1.7089123
12.777167638953818	2.8855834	1.6987005
12.794804057208072	2.8912082	1.7003553
12.812440779807702	2.9565818	1.7194713
12.830077807186271	3.164901	1.7790169
12.847715139777405	3.2455754	1.8015481
12.865352778014795	3.4595993	1.8599998
12.882990722332197	3.6005988	1.8975244
12.90062897316344	3.6639903	1.9141552
12.918267530942412	3.6906438	1.9211048
12.935906396103071	3.490789	1.8683653
12.953545569079449	3.5988314	1.8970586
12.971185050305628	3.4511812	1.8577355
12.988824840215775	3.4642441	1.861248
13.006464939244115	3.4828289	1.8662338
13.024105347824943	3.3475204	1.829623
13.041746066392617	3.4115727	1.8470443
13.05938709538157	3.232374	1.7978804
13.077028435226296	3.2504137	1.8028904
13.094670086361363	3.1535518	1.7758243
13.112312049221401	3.0934315	1.7588154
13.129954324241112	3.012859	1.7357589
13.147596911855258	2.8641386	1.6923766
13.165239812498685	2.8195665	1.6791564
13.182883026606293	2.7653723	1.6629409
13.200526554613058	2.7254443	1.650892
13.218170396954017	2.6614485	1.6313946
13.235814554064284	2.6134975	1.6166315
13.253459026379034	2.6052895	1.6140909
13.271103814333523	2.5925407	1.6101369
13.288748918363058	2.6203735	1.6187568
13.306394338903031	2.6321344	1.6223854
13.32404007638889	2.6554327	1.6295499
13.341686131256164	2.6626966	1.6317772
13.359332503940449	2.6075056	1.6147772
13.376979194877402	2.6274455	1.6209397
13.394626204502751	2.6954732	1.6417897
13.412273533252307	2.7400434	1.6553077
13.429921181561937	2.7476017	1.6575891
13.447569149867581	2.7614033	1.6617471
13.465217438605247	2.765575	1.6630018
13.482866048211022	2.7406805	1.6555
13.500514979121052	2.7232468	1.6502262
13.518164231771568	2.6912491	1.6405027
13.535813806598844	2.6718748	1.634587
13.553463704039254	2.6491878	1.6276326
13.571113924529229	2.655499	1.6295701
13.588764468505275	2.698266	1.64264
13.606415336403956	2.726811	1.6513058
13.624066528661917	2.7397752	1.6552266
13.641718045715882	2.7860253	1.669139
13.659369888002635	2.8487425	1.6878219
13.67702205595903	2.876516	1.6960295
13.694674550021993	2.9219801	1.70938
13.712327370628532	2.9793413	1.7260768
13.729980518215713	3.0837972	1.7560744
13.747633993220681	3.1929188	1.786874
13.765287796080647	3.2659776	1.8072016
13.7829419272329	3.2999835	1.8165857
13.800596387114801	3.3144934	1.820575
13.818251176163775	3.3205676	1.8222425
13.835906294817324	3.3640733	1.834141
13.853561743513023	3.4115734	1.8470445
13.871217522688525	3.462871	1.8608791
13.888873632781538	3.4302163	1.8520843
13.906530074229858	3.4257076	1.8508667
13.92418684747135	3.4333389	1.8529271
13.941843952943948	3.4012425	1.8442458
13.959501391085665	3.355362	1.8317647
13.977159162334578	3.2971418	1.8158033
13.994817267128846	3.2939615	1.8149275
14.012475705906693	3.2691495	1.808079
14.030134479106424	3.186494	1.7850754
14.047793587166414	3.0755014	1.7537107
14.065453030525108	3.0460143	1.7452835
14.083112809621026	2.999027	1.7317699
14.100772924892766	2.932999	1.7126
14.118433376778997	2.8833508	1.6980432
14.136094165718458	2.76932	1.6641273
14.153755292149969	2.6804736	1.6372151
14.171416756512416	2.5874403	1.6085522
14.189078559244768	2.514816	1.5858171
14.20674070078606	2.4803364	1.5749084
14.224403181575408	2.45257	1.5660683
14.242066002051999	2.4373813	1.5612115
14.259729162655093	2.4383821	1.561532
14.277392663824022	2.4151857	1.5540868
14.295056505998208	2.3684235	1.5389683
14.312720689617128	2.3548288	1.5345452
14.330385215120348	2.3429792	1.5306793
14.348050082947497	2.354634	1.5344816
14.3657152935383	2.356905	1.5352215
14.383380847332528	2.3475916	1.5321852
14.401046744770051	2.3538847	1.5342375
14.418712986290798	2.3560994	1.5349591
14.436379572334793	2.3552854	1.534694
14.454046503342123	2.3485882	1.5325104
14.471713779752946	2.3207865	1.5234128
14.489381402007504	2.311836	1.5204723
14.507049370546113	2.2931607	1.5143186
14.524717685809168	2.317456	1.5223193
14.542386348237134	2.3596902	1.5361283
14.560055358270553	2.4067824	1.5513808
14.577724716350051	2.5045347	1.5825722
14.595394422916325	2.5251865	1.5890836
14.61306447841015	2.5080752	1.5836904
14.63073488327237	2.476514	1.5736945
14.648405637943917	2.441679	1.5625873
14.6660767428658	2.442458	1.5628365
14.683748198479094	2.515938	1.5861709
14.701420005224954	2.5609586	1.6002996
14.719092163544628	2.6621315	1.631604
14.73676467387942	2.6995187	1.6430212
14.754437536670727	2.7325656	1.6530473
14.772110752360014	2.7134888	1.6472671
14.78978432138882	2.681745	1.6376034
14.807458244198777	2.6610134	1.6312612
14.82513252123159	2.6349998	1.6232682
14.842807152929028	2.62645	1.6206326
14.860482139732962	2.6188512	1.6182865
14.87815748208531	2.6448133	1.6262882
14.8958331804281	2.6332147	1.6227183
14.91350923520342	2.6365914	1.6237584
14.931185646853438	2.6024847	1.6132219
14.948862415820408	2.5869193	1.6083903
14.966539542546656	2.6393125	1.6245961
14.98421702747459	2.6834538	1.6381251
15.001894871046696	2.6986244	1.6427491
15.019573073705542	2.6513512	1.628297
15.037251635893766	2.5977044	1.6117395
15.054930558054092	2.6006799	1.6126623
15.072609840629323	2.6297657	1.6216552
15.090289484062351	2.766871	1.6633914
15.107969488796124	2.9361646	1.713524
15.125649855273691	3.140875	1.7722514
15.14333058393817	3.4539402	1.858478
15.161011675232768	3.9952304	1.9988073
15.17869312960076	4.6281624	2.1513164
15.196374947485506	5.361858	2.3155687
15.214057129330447	6.738544	2.5958705
15.231739675579114	8.9711075	2.9951806
15.249422586675102	13.4518	3.6676695
15.267105863062092	17.965214	4.238539
15.284789505183847	25.22337	5.0222874
15.302473513484218	30.278296	5.5025716
15.320157888407127	34.4242	5.8672137
15.337842630396578	33.29599	5.770268
15.355527739896656	30.442348	5.5174584
15.37321321735153	23.791182	4.8776207
15.39089906320545	16.255175	4.0317707
15.408585277902748	10.368151	3.2199614
15.42627186188783	6.314307	2.5128286
15.443958815605198	4.4943304	2.1199837
15.461646139499424	3.7194228	1.9285805
15.479333834015168	3.3423023	1.8281965
15.497021899597165	3.0616288	1.7497511
15.514710336690234	2.8368874	1.6843061
15.53239914573928	2.6387968	1.6244373
15.550088327189297	2.5160944	1.5862201
15.567777881485336	2.5135982	1.5854331
15.58546780907256	2.5063257	1.583138
15.6031581103962	2.4862626	1.5767887
15.620848785901568	2.4768124	1.5737891
15.638539836034063	2.4538736	1.5664845
15.656231261239173	2.4505084	1.56541
15.673923061962451	2.420087	1.5556629
15.691615238649552	2.4126976	1.5532861
15.709307791746202	2.3913724	1.5464063
15.727000721698221	2.3744578	1.5409276
15.744694028951498	2.3318253	1.5270315
15.76238771395202	2.3088136	1.5194781
15.780081777145844	2.305849	1.5185022
15.797776218979125	2.3250456	1.5248101
15.815471039898094	2.3518364	1.5335698
15.833166240349064	2.3664129	1.5383149
15.850861820778437	2.379795	1.5426584
15.868557781632699	2.3885088	1.5454801
15.886254123358412	2.425738	1.5574781
15.903950846402232	2.4635599	1.5695732
15.921647951210897	2.4896357	1.577858
15.939345438231225	2.5008876	1.5814195
15.957043307910133	2.5160177	1.586196
15.974741560694602	2.5424075	1.5944929
15.992440197031714	2.5331972	1.5916021
16.01013921736862	2.4686644	1.5711983
16.02783862215259	2.4383686	1.5615276
16.045538411830933	2.4318461	1.5594378
16.06323858685107	2.4294276	1.5586622
16.080939147660512	2.3833416	1.5438075
16.09864009470684	2.3153067	1.5216131
16.11634142843774	2.3249178	1.5247681
16.134043149300954	2.3307996	1.5266956
16.15174525774433	2.348681	1.5325407
16.169447754215817	2.3492396	1.532723
16.18715063916342	2.3650093	1.5378587
16.204853913035244	2.392875	1.546892
16.222557576279478	2.414589	1.5538948
16.240261629344403	22.405851	4.733482
16.257966072678386	42.963768	6.554675
16.275670906729868	38.059975	6.1692767
16.293376131947387	2.4883432	1.5774484
16.31108174877957	2.4828308	1.5757
16.328787757675133	2.5368643	1.5927536
16.34649415908287	2.5866015	1.6082915
16.364200953451657	2.614601	1.6169728
16.38190814123048	2.616547	1.6175745
16.39961572286839	2.655015	1.6294217
16.41732369881455	2.7180264	1.6486439
16.43503206951817	2.7488985	1.6579802
16.45274083542859	2.726391	1.6511787
16.47044999699522	2.727656	1.6515616
16.488159554667558	2.7493086	1.658104
16.505869508895184	2.8658898	1.6928939
16.523579860127786	2.9525392	1.7182955
16.541290608815117	3.0516386	1.746894
16.559001755407035	3.125714	1.7679689
16.57671330035348	3.1965613	1.7878929
16.59442524410448	3.2844033	1.8122923
16.61213758711015	3.4242406	1.8504704
16.629850329820705	3.4715607	1.8632125
16.647563472686436	3.498131	1.8703291
16.665277016157724	3.4548042	1.8587104
16.682990960685053	3.4777167	1.8648638
16.70070530671898	3.491528	1.868563
16.718420054710155	3.5376534	1.8808651
16.736135205109335	3.5876513	1.8941096
16.753850758367335	3.616907	1.9018167
16.771566714935087	3.6190596	1.9023826
16.789283075263597	3.6517773	1.9109623
16.80699983980398	3.7122297	1.9267148
16.82471700900741	3.744039	1.9349519
16.84243458332518	3.8355174	1.9584477
16.860152563208665	3.9040277	1.9758613
16.87787094910932	3.9505463	1.9875981
16.89558974147871	3.9958825	1.9989704
16.913308940768466	4.0894394	2.0222363
16.931028547430333	4.2012515	2.0496955
16.94874856191613	4.3004208	2.0737455
16.966468984677785	4.3453603	2.0845528
16.98418981616729	4.410114	2.100027
17.00191105683676	4.447499	2.1089094
17.019632707138374	4.418435	2.1020074
17.03735476752442	4.431793	2.1051824
17.05507723844728	4.4379163	2.1066363
17.072800120359403	4.4949765	2.120136
17.090523413713353	4.4296594	2.1046755
17.108247118961785	4.4694753	2.1141133
17.125971236557437	4.533661	2.1292396
17.143695766953133	4.6133423	2.1478693
17.161420710601806	4.613598	2.1479287
17.179146067956477	4.6225734	2.150017
17.19687183947025	4.628991	2.151509
17.21459802559634	4.647521	2.155811
17.232324626788028	4.67683	2.162598
17.25005164349871	4.6526837	2.157008
17.267779076181863	4.6130385	2.1477985
17.285506925291074	4.5603113	2.1354885
17.30323519127999	4.574682	2.1388507
17.320963874602384	4.5905447	2.1425557
17.33869297571211	4.5776377	2.1395414
17.356422495063114	4.500869	2.121525
17.37415243310944	4.453593	2.1103537
17.391882790305218	4.4692855	2.1140685
17.40961356710468	4.537645	2.1301749
17.42734476396215	4.5582657	2.1350095
17.445076381332044	4.6000247	2.1447668
17.462808419668868	4.6341944	2.1527178
17.48054087942723	4.7474065	2.1788545
17.498273761061835	4.8520837	2.2027445
17.51600706502747	5.1436434	2.26796
17.533740791779024	5.735324	2.3948536
17.551474941771485	6.6389794	2.5766218
17.56920951545993	8.582301	2.9295564
17.586944513299528	9.849986	3.1384687
17.60467993574556	12.778019	3.5746355
17.622415783253373	15.421003	3.9269586
17.64015205627843	18.200153	4.266164
17.657888755276293	20.578491	4.536352
17.675625880702604	22.091116	4.7001185
17.69336343301311	20.660944	4.545431
17.71110141266366	18.557074	4.307792
17.728839820110178	15.834896	3.9793086
17.746578655808705	12.6347685	3.554542
17.764317920215372	10.467961	3.2354228
17.7820576137864	8.731116	2.9548461
17.79979773697811	7.30554	2.7028763
17.81753829024692	6.0248885	2.4545648
17.835279274049356	5.2412148	2.28937
17.85302068884201	4.4543266	2.1105275
17.870762535081607	4.0356903	2.0089028
17.888504813224934	3.8100264	1.9519289
17.90624752372891	3.7247798	1.9299688
17.923990667050536	3.6312418	1.9055817
17.941734243646895	3.503428	1.8717446
17.959478253975185	3.4287295	1.8516829
17.9772226984927	3.4014256	1.8442954
17.994967577656833	3.4156563	1.8481494
18.01271289192506	3.4147248	1.8478974
18.030458641754965	3.3254156	1.8235722
18.04820482760425	3.279207	1.8108581
18.06595144993067	3.2209175	1.7946914
18.083698509192125	3.2419004	1.8005278
18.101446005846576	3.2471147	1.8019753
18.119193940352105	3.242222	1.8006171
18.136942313166887	3.196148	1.7877774
18.1546911247492	3.1516266	1.7752821
18.1724403755574	3.104465	1.7619492
18.19019006604997	3.025481	1.739391
18.207940196685467	3.0226524	1.7385777
18.225690767922575	3.0244873	1.7391053
18.243441780220046	3.0082626	1.7344344
18.261193234036764	2.9783392	1.7257866
18.278945129831676	2.9374368	1.7138952
18.29669746806386	2.963652	1.721526
18.314450249192483	2.9951978	1.730664
18.3322034736768	3.0019536	1.7326146
18.349957141976184	2.9756136	1.7249967
18.3677112545501	2.9669476	1.7224829
18.385465811858108	3.0156927	1.736575
18.403220814359884	3.0220923	1.7384167
18.420976262515172	3.036631	1.7425932
18.43873215678387	3.045949	1.7452648
18.456488497625923	3.1022985	1.7613343
18.474245285501407	3.184155	1.78442
18.492002520870486	3.2429545	1.8008205
18.50976020419343	3.3046727	1.8178759
18.527518335930615	3.5609572	1.8870499
18.545276916542516	4.1186986	2.0294578
18.563035946489688	4.321596	2.078845
18.580795426232832	4.7906885	2.188764
18.598555356232698	4.725351	2.173787
18.616315736950185	4.9756293	2.2306118
18.63407656884626	4.6246634	2.1505032
18.65183785238201	4.7823534	2.1868594
18.669599588018617	4.65535	2.1576262
18.68736177621737	4.630448	2.1518476
18.705124417439652	4.5988107	2.1444838
18.72288751214696	4.3904157	2.095332
18.740651060800886	4.508306	2.1232772
18.758415063863115	4.2449303	2.0603228
18.77617952179546	4.4162593	2.1014898
18.793944435059814	4.1868014	2.0461676
18.811709804118184	4.174429	2.0431418
18.829475629432675	4.124368	2.030854
18.8472419114655	3.9584968	1.9895972
18.86500865067897	4.063038	2.015698
18.88277584753551	3.7384343	1.9335032
18.90054350249763	3.7127986	1.9268624
18.918311616027957	3.38789	1.8406222
18.936080188589226	3.3018656	1.8171036
18.953849220644265	2.9628735	1.7212999
18.971618712656007	2.781265	1.6677126
18.9893886650875	2.7203338	1.6493435
19.007159078401887	7.9633827	2.8219466
19.024929953062408	32.849705	5.7314663
19.042701289532435	32.79295	5.726513
19.060473088275405	25.341978	5.0340815
19.07824534975489	2.6203535	1.6187506
19.096018074434568	2.5966747	1.61142
19.113791262778197	2.5759296	1.6049703
19.13156491524966	2.5866394	1.6083033
19.149339032312945	2.5771558	1.6053523
19.167113614432136	2.5347672	1.5920953
19.184888662071433	2.5220282	1.5880895
19.202664175695123	2.5184054	1.5869485
19.220440155767623	2.5525246	1.5976622
19.238216602753447	2.5542567	1.5982043
19.2559935171172	2.5211406	1.58781
19.27377089932361	2.4869149	1.5769955
19.291548749837514	2.482357	1.5755497
19.309327069123835	2.4705145	1.571787
19.32710585764763	2.468497	1.5711452
19.344885115874032	2.4294162	1.5586585
19.362664844268313	2.453947	1.5665079
19.380445043295822	2.4965968	1.5800623
19.39822571342203	2.5376728	1.5930074
19.41600685511252	2.51905	1.5871515
19.43378846883297	2.499781	1.5810696
19.451570555049173	2.473358	1.5726913
19.469353114227037	2.502613	1.581965
19.48713614683254	2.4677596	1.5709105
19.50491965333182	2.4636278	1.5695947
19.52270363419109	2.4472752	1.564377
19.540488089876686	2.4770076	1.5738512
19.55827302085503	2.493389	1.5790468
19.576058427592674	2.5062797	1.5831234
19.593844310556282	2.4601982	1.5685018
19.611630670212598	2.4485862	1.5647959
19.629417507028506	2.4193902	1.5554389
19.64720482147098	2.4338403	1.560077
19.6649926140071	2.428925	1.5585009
19.682780885104084	2.3911932	1.5463483
19.70056963522921	2.40977	1.5523434
19.718358864849908	2.449146	1.5649748
19.7361485744337	2.494259	1.5793223
19.753938764448215	2.4931636	1.5789754
19.771729435361202	2.4779766	1.574159
19.789520587640506	2.4555519	1.56702
19.807312221754092	2.4626431	1.5692811
19.825104338170043	2.5035524	1.5822618
19.842896937356517	2.5033526	1.5821986
19.860690019781824	2.5085347	1.5838355
19.87848358591436	2.5293987	1.5904083
19.896277636222635	2.494923	1.5795325
19.914072171175278	2.4693136	1.5714049
19.931867191241015	2.4424732	1.5628414
19.94966269688869	2.452481	1.5660399
19.967458688587264	2.441924	1.5626657
19.985255166805807	2.4402316	1.562124
20.00305213201348	2.4162235	1.5544206
20.020849584679578	2.4274821	1.5580379
20.038647525273507	2.4242737	1.5570079
20.05644595426477	2.3903651	1.5460806
20.07424487212299	2.3750434	1.5411175
20.092044279317903	2.3787873	1.5423318
20.109844176319353	2.4284682	1.5583544
20.127644563597304	2.4360566	1.5607872
20.145445441621817	2.4042737	1.550572
20.16324681086307	2.3879502	1.5452994
20.181048671791373	2.377442	1.5418955
20.198851024877122	2.3578765	1.5355378
20.216653870590836	2.344794	1.531272
20.234457209403146	2.341788	1.5302901
20.252261041784802	2.3294244	1.5262452
20.270065368206662	2.34749	1.532152
20.287870189139685	2.3650815	1.5378822
20.305675505054968	2.3577633	1.535501
20.323481316423702	2.3370092	1.528728
20.341287623717207	2.3344643	1.5278953
20.359094427406884	2.343554	1.5308671
20.376901727964288	2.3513303	1.5334048
20.39470952586107	2.3940475	1.547271
20.41251782156899	2.382928	1.5436735
20.430326615559935	2.3269117	1.5254219
20.448135908305886	2.3209867	1.5234785
20.465945700278965	2.312471	1.520681
20.483755991951384	2.305563	1.5184081
20.50156678379548	2.3178813	1.522459
20.519378076283708	2.3442886	1.531107
20.537189869888635	2.3506265	1.5331752
20.55500216508294	2.3357084	1.5283024
20.572814962339415	2.3126361	1.5207354
20.59062826213098	2.2820535	1.5106467
20.60844206493066	2.296968	1.5155752
20.626256371211593	2.3167667	1.5220929
20.644071181447032	2.3125067	1.5206928
20.66188649611036	2.2852967	1.5117198
20.67970231567506	2.2532318	1.5010768
20.697518640614742	2.2515514	1.500517
20.715335471403122	2.2857857	1.5118815
20.73315280851404	2.3105314	1.5200433
20.750970652421447	2.3068264	1.518824
20.768789003599412	2.2737672	1.5079015
20.786607862522136	2.257044	1.5023462
20.8044272296639	2.245301	1.4984329
20.82224710549913	2.2498765	1.4999589
20.84006749050237	2.2676127	1.5058595
20.857888385148268	3.8610473	1.9649547
20.8757097899116	45.975525	6.780525
20.893531705267254	64.81592	8.050834
20.911354131690224	83.7954	9.153983
20.92917706965566	69.03084	8.30848
20.94700051963877	50.098362	7.0780196
20.96482448211493	29.380875	5.4204125
20.982648957559622	4.124791	2.0309582
21.00047394644843	2.2459013	1.4986331
21.01829944925707	2.257115	1.5023698
21.036125466461375	2.224113	1.491346
21.053951998537297	2.2234964	1.4911393
21.071779045960906	2.1951158	1.4815923
21.089606609208378	2.2270775	1.4923396
21.10743468875603	2.2255032	1.4918121
21.12526328508028	2.2374175	1.4957999
21.143092398657675	2.209339	1.4863845
21.16092202996488	2.2172399	1.4890399
21.17875217947867	2.2118754	1.4872376
21.19658284767596	2.1962388	1.4819713
21.21441403503377	2.1464145	1.4650646
21.232245742029225	2.1488833	1.465907
21.2500779691396	2.1603408	1.4698098
21.26791071684227	2.1690345	1.4727643
21.28574398561475	2.1447542	1.4644979
21.30357777593465	2.1460805	1.4649507
21.321412088279704	2.1580615	1.4690342
21.339246923127792	2.138795	1.462462
21.357082280956888	2.070902	1.439063
21.3749181622451	2.0570555	1.4342439
21.392754567470647	2.067262	1.4377975
21.41059149711187	2.0795796	1.4420748
21.42842895164726	2.0921993	1.4464437
21.446266931555378	2.0813608	1.4426922
21.464105437314945	2.0797694	1.4421406
21.481944469404798	2.1091583	1.4522941
21.49978402830388	2.1233783	1.4571816
21.51762411449127	2.1329014	1.4604456
21.53546472844617	2.1127198	1.4535198
21.553305870647876	2.076748	1.4410926
21.571147541575865	2.0279005	1.4240437
21.58898974170967	2.023115	1.4223624
21.60683247152899	2.0510194	1.4321381
21.62467573151363	2.0652428	1.4370953
21.642519522143523	2.0361009	1.42692
21.660363843898722	2.0201406	1.4213165
21.6782086972594	2.0283844	1.4242136
21.696054082705864	2.0462885	1.4304854
21.713900000718535	2.0539389	1.433157
21.73174645177795	2.0451186	1.4300765
21.749593436364794	2.0234385	1.4224762
21.767440954959845	2.015863	1.4198109
21.785289008044032	1.9952456	1.4125316
21.803137596098388	1.9891199	1.4103616
21.820986719604086	1.9775498	1.4062538
21.838836379042412	1.9995985	1.4140716
21.85668657489478	1.988869	1.4102726
21.87453730764273	2.0032938	1.4153776
21.892388577767914	1.9916215	1.4112482
21.91024038575213	1.9548038	1.3981429
21.928092732077285	1.9427595	1.3938291
21.945945617225426	1.9725055	1.4044591
21.963799041678694	2.018413	1.4207087
21.981653005919398	31.335127	5.597779
21.999507510429943	78.12238	8.838687
22.01736255569286	73.07792	8.548562
22.035218142190818	4.1512833	2.0374699
22.05307427040661	1.9632441	1.4011581
22.07093094082315	1.9310961	1.3896388
22.088788153923474	1.9481558	1.3957635
22.106645910190746	1.9416966	1.3934478
22.12450421010827	1.9385415	1.3923151
22.142363054159464	1.9322671	1.3900601
22.16022244282787	1.9371669	1.3918214
22.178082376597164	1.9544549	1.3980182
22.195942855951145	1.9698964	1.40353
22.213803881373742	1.9851172	1.4089419
22.231665453349002	2.0110373	1.4181105
22.24952757236111	1.9969674	1.413141
22.26739023889438	1.9612281	1.4004385
22.28525345343323	1.915235	1.3839202
22.30311721646225	1.9177142	1.3848156
22.320981528466113	1.9197763	1.3855599
22.33884638992964	1.9601716	1.4000612
22.356711801337788	1.9837713	1.4084642
22.37457776317561	1.98127	1.407576
22.392444275928337	1.9761951	1.4057721
22.410311340081282	1.9795233	1.4069554
22.428178956119904	1.9685143	1.4030375
22.446047124529805	1.9693955	1.4033515
22.46391584579669	1.9771603	1.4061153
22.481785120406414	1.9832814	1.4082903
22.49965494884496	2.015859	1.4198095
22.51752533159841	2.0417967	1.4289145
22.53539626915302	2.014125	1.4191988
22.553267761995137	1.9646376	1.4016553
22.571139810611264	1.9226998	1.3866146
22.589012415488025	1.908748	1.3815745
22.60688557711216	1.905391	1.380359
22.624759295970566	1.9129238	1.3830849
22.642633572550263	1.9390318	1.3924912
22.660508407338362	1.9184847	1.3850937
22.67838380082217	1.894321	1.3763434
22.696259753489077	1.9057105	1.3804747
22.714136265826614	1.9400579	1.3928596
22.73201333832246	1.9507095	1.396678
22.74989097146439	1.9495709	1.3962704
22.76776916574035	1.9085143	1.3814899
22.785647921638393	1.8958142	1.3768857
22.803527239646712	1.8769275	1.37001
22.82140712025363	1.8700986	1.3675154
22.839287563947593	1.836929	1.3553336
22.85716857121719	1.8856786	1.3732002
22.875050142551135	1.893667	1.3761058
22.892932278438277	1.9116621	1.3826287
22.910814979367604	1.9360459	1.3914187
22.928698245828222	1.9442153	1.3943512
22.946582078309387	1.9418	1.3934848
22.96446647730047	1.930237	1.3893297
22.98235144329098	1.9234711	1.3868926
23.000236976770562	1.9157959	1.3841228
23.018123078229	1.908326	1.3814217
23.03600974815619	1.895001	1.3765904
23.053896987042194	1.889149	1.3744632
23.071784795377173	1.9041048	1.3798931
23.08967317365145	1.9318573	1.3899127
23.10756212235546	1.918958	1.3852646
23.125451641979787	1.8736464	1.3688121
23.143341733015134	1.869151	1.367169
23.161232395952357	1.8819244	1.3718325
23.179123631282426	1.8984865	1.3778558
23.197015439496468	1.9085088	1.3814878
23.214907821085717	1.9313099	1.3897158
23.23280077654157	1.9516015	1.3969973
23.250694306355538	1.9721501	1.4043326
23.268588411019277	1.9091834	1.381732
23.28648309102458	1.9201143	1.3856819
23.304378346863356	1.9346089	1.3909022
23.322274179027676	1.9655511	1.4019811
23.340170588009723	1.9700023	1.4035677
23.358067574301852	1.9915218	1.4112129
23.37596513839651	1.9655836	1.4019927
23.39386328078629	1.9285085	1.3887075
23.411762001963947	1.8799337	1.3711067
23.429661302422353	1.9383647	1.3922517
23.4475611826545	1.9081383	1.3813537
23.46546164315356	1.9074017	1.3810872
23.48336268441279	1.9297564	1.3891567
23.501264306925638	1.9197481	1.3855498
23.51916651118564	1.9233918	1.3868641
23.537069297686497	1.8828427	1.3721671
23.554972666922037	1.9031634	1.3795519
23.57287661938623	1.8832256	1.3723067
23.59078115557318	1.8570378	1.3627317
23.608686275977128	1.8710618	1.3678676
23.62659198109246	1.9278566	1.3884728
23.6444982714137	1.9271021	1.388201
23.66240514743549	1.8714203	1.3679986
23.68031260965263	1.8463252	1.3587955
23.698220658560068	1.8656582	1.365891
23.716129294652845	1.886034	1.3733295
23.7340385184262	1.9234285	1.3868773
23.75194833037546	1.9144006	1.3836187
23.769858730996123	1.908535	1.3814974
23.78776972078382	1.8886323	1.3742752
23.80568130023431	1.8970813	1.3773457
23.823593469843495	1.8663356	1.3661389
23.841506230107424	1.8593758	1.3635893
23.859419581522275	1.8856946	1.373206
23.87733352458438	1.8752642	1.3694029
23.89524805979019	1.8960562	1.3769735
23.913163187636318	1.9247522	1.3873544
23.931078908619508	1.9378641	1.3920718
23.948995223236633	1.9272776	1.3882642
23.966912131984735	1.9554099	1.3983597
23.98482963536096	2.051079	1.4321588
24.002747733862616	2.0657287	1.4372643
24.020666427987155	2.0157287	1.4197636
24.038585718232156	1.9643947	1.4015687
24.056505605095353	1.9952055	1.4125174
24.074426089074617	2.0473642	1.4308614
24.092347170667946	2.0459569	1.4303695
24.110268850373515	2.022965	1.4223098
24.128191128689586	2.0426428	1.4292105
24.146114006114626	2.0198126	1.4212011
24.164037483147187	2.0278735	1.4240342
24.181961560286005	2.0447881	1.4299608
24.199886238029926	2.0699742	1.4387405
24.21781151687797	2.067604	1.4379165
24.235737397329274	2.0665107	1.4375364
24.253663879883135	2.0617342	1.435874
24.271590965038975	2.033365	1.4259611
24.289518653296376	2.0489738	1.4314237
24.30744694515505	2.034675	1.4264203
24.32537584111486	2.0327296	1.4257382
24.34330534167581	2.006176	1.4163954
24.361235447338046	2.026576	1.4235786
24.379166158601876	2.032806	1.425765
24.39709747596772	2.0521152	1.4325206
24.41502939993615	2.0261028	1.4234123
24.432961931007917	2.0268517	1.4236754
24.450895069683856	2.009299	1.4174975
24.468828816465	1.9799608	1.4071108
24.4867631718525	1.9843563	1.4086719
24.504698136347656	1.9964806	1.4129688
24.52263371045192	1.9562273	1.398652
24.540569894666874	1.9603195	1.400114
24.558506689494266	1.9943048	1.4121985
24.57644409543597	2.024509	1.4228524
24.594382112994012	1.9903374	1.4107932
24.61232074267057	1.9553959	1.3983548
24.630259984967953	1.9833239	1.4083053
24.64819984038863	2.0381527	1.4276389
24.66614030943522	2.0448847	1.4299947
24.684081392610462	2.0156634	1.4197406
24.702023090417274	1.9803191	1.4072381
24.7199654033587	1.9535272	1.3976864
24.737908331937927	1.9726992	1.4045281
24.755851876658305	2.0250022	1.4230257
24.773796038023324	2.0451145	1.430075
24.79174081653661	2.049796	1.431711
24.809686212701962	2.1088254	1.4521796
24.827632227023294	2.1207938	1.4562945
24.8455788600047	2.0992398	1.4488753
24.8635261121504	2.1087291	1.4521464
24.88147398396475	2.113137	1.4536633
24.899422475952303	2.1524317	1.4671168
24.917371588617698	2.1781254	1.4758474
24.935321322465768	2.2540379	1.5013454
24.953271678001478	2.288635	1.5128236
24.97122265572994	2.3501825	1.5330305
24.989174256156414	2.6197488	1.6185638
25.00712647978632	3.280147	1.8111176
25.02507932712521	4.3769417	2.0921142
25.043032798678798	5.9595003	2.4412088
25.060986894952933	7.5821595	2.7535722
25.078941616453637	9.118608	3.0197034
25.096896963687055	10.006115	3.1632445
25.114852937159508	10.704476	3.2717695
25.132809537377444	10.4679365	3.235419
25.150766764847468	9.754181	3.1231685
25.168724620076347	8.35759	2.8909497
25.186683103570985	7.131557	2.6704974
25.204642215838426	5.758682	2.3997254
25.222601957385894	4.641459	2.1544046
25.24056232872074	3.6343827	1.9064057
25.25852333035048	2.9001184	1.7029734
25.276484962782778	2.4303546	1.5589595
25.294447226525435	2.1554143	1.468133
25.312410122086423	2.0716457	1.4393213
25.330373649973843	2.0321188	1.425524
25.348337810695988	1.9854211	1.4090497
25.366302604761245	1.9444269	1.3944271
25.384268032678207	1.9350412	1.3910576
25.40223409495558	1.8953955	1.3767337
25.420200792102257	1.8645824	1.3654971
25.438168124627246	1.8756986	1.3695614
25.45613609303974	1.9261751	1.3878671
25.474104697849057	1.9321793	1.3900285
25.492073939564698	1.9136738	1.383356
25.510043818696285	1.879724	1.3710303
25.528014335753614	1.8639054	1.3652493
25.54598549124664	1.8360292	1.3550016
25.56395728568544	1.8366429	1.355228
25.58192971958028	1.9000971	1.3784401
25.59990279344156	1.9586471	1.3995167
25.617876507779833	1.9615514	1.400554
25.635850863105826	1.9328829	1.3902816
25.653825859930386	1.8678784	1.3667035
25.671801498764548	1.8641082	1.3653234
25.68977778011949	1.8183419	1.3484591
25.707754704506524	1.8092014	1.3450656
25.725732272437153	1.7939548	1.339386
25.743710484423012	1.850918	1.3604845
25.761689340975888	1.856333	1.3624731
25.77966884260774	1.8444304	1.3580981
25.797648989830662	1.8284818	1.3522136
25.815629783156922	1.8566158	1.3625768
25.83361122309895	1.8312507	1.3532372
25.85159331016929	1.8328621	1.3538324
25.869576044880695	1.8482152	1.3594908
25.887559427746034	1.9011768	1.3788316
25.90554345927836	1.8997203	1.3783034
25.92352813999086	1.8711122	1.3678861
25.94151347039689	1.8846866	1.3728389
25.959499451009965	1.8758272	1.3696084
25.97748608234374	1.8657306	1.3659176
25.995473364912062	1.8551116	1.3620248
26.013461299228904	1.8536253	1.361479
26.03144988580839	1.8468406	1.3589852
26.04943912516483	1.7786888	1.3336749
26.067429017812675	1.8013873	1.3421577
26.085419564266537	1.8229511	1.350167
26.103410765041186	1.842914	1.3575397
26.12140262065155	1.8207633	1.3493567
26.139395131612723	1.7788213	1.3337246
26.157388298439948	1.7723119	1.331282
26.17538212164861	1.7891687	1.3375981
26.193376601754295	1.8292266	1.352489
26.211371739272714	1.8580987	1.3631209
26.229367534719746	1.8872085	1.373757
26.247363988611433	1.8662472	1.3661066
26.26536110146397	1.8245094	1.350744
26.283358873793727	1.8119751	1.3460963
26.301357306117204	1.8008212	1.3419468
26.319356398951104	1.8468672	1.358995
26.33735615281224	1.8514879	1.3606939
26.35535656821762	1.8544769	1.3617918
26.373357645684404	1.8087305	1.3448905
26.39135938572991	1.818852	1.3486482
26.409361788871614	1.7859809	1.336406
26.427364855627165	1.7998333	1.3415786
26.445368586514352	1.8365111	1.3551794
26.46337298205115	1.8128972	1.3464388
26.48137804275568	1.7968168	1.340454
26.499383769146217	1.8101314	1.3454113
26.517390161741215	1.8527379	1.3611531
26.53539722105928	1.8833189	1.3723407
26.553404947619182	1.8507843	1.3604354
26.571413341939856	1.7998796	1.3415959
26.589422404540397	1.7630091	1.3277835
26.60743213594006	1.7727083	1.3314309
26.62544253665827	1.7530831	1.3240404
26.64345360721459	1.7413437	1.3195999
26.66146534812879	1.771176	1.3308554
26.679477759920758	1.7775984	1.333266
26.69749084311057	1.7874165	1.3369429
26.71550459821847	1.7947794	1.3396938
26.733519025764842	1.7878299	1.3370975
26.751534126270258	1.7907382	1.3381847
26.769549900255434	1.7934709	1.3392053
26.787566348241267	1.8256518	1.3511668
26.80558347074881	1.853339	1.3613739
26.823601268299267	1.8671637	1.366442
26.841619741414036	1.7967908	1.3404443
26.85963889061465	1.7446289	1.320844
26.877658716422832	1.7330651	1.3164593
26.89567921936045	1.8306334	1.353009
26.913700399949544	1.8659627	1.3660024
26.93172225871233	1.8223369	1.3499396
26.949744796171174	1.8332481	1.3539749
26.967768012848605	1.8337746	1.3541694
26.98579190926733	1.8043708	1.3432686
27.003816485950225	1.7780708	1.3334432
27.021841743420318	1.81119	1.3458046
27.039867682200814	1.8378371	1.3556685
27.057894302815072	1.8467882	1.3589659
27.07592160578664	1.875943	1.3696507
27.0939495916392	1.8457464	1.3585825
27.111978260896635	1.7907888	1.3382035
27.13000761408296	1.8122543	1.3462
27.148037651722397	1.8101944	1.3454347
27.166068374339304	1.8028814	1.3427142
27.184099782458215	1.7823539	1.3350483
27.20213187660384	1.7689779	1.3300292
27.22016465730105	1.7581015	1.3259342
27.23819812507487	1.7971488	1.3405778
27.256232280450533	1.8522582	1.3609769
27.274267123953383	1.872766	1.3684905
27.292302656108987	1.8611293	1.3642321
27.31033887744306	1.8221588	1.3498737
27.32837578848146	1.8431028	1.3576093
27.34641338975026	1.8533982	1.3613957
27.364451681775673	1.7869573	1.3367712
27.382490665084074	1.7558907	1.3251003
27.400530340202046	1.7930044	1.3390311
27.41857070765629	1.8257103	1.3511884
27.436611767973726	1.8153111	1.3473349
27.454653521681404	1.8051363	1.3435537
27.472695969306564	1.8170022	1.3479623
27.490739111376627	1.8409644	1.3568214
27.508782948419153	1.8515947	1.3607332
27.526827480961902	1.8319573	1.3534982
27.54487270953279	1.7910329	1.3382947
27.562918634659898	1.782975	1.3352809
27.580965256871508	1.8112751	1.3458362
27.599012576696026	1.8182604	1.3484288
27.617060594662068	1.8253876	1.3510691
27.63510931129842	1.836029	1.3550014
27.65315872713401	1.8283159	1.3521523
27.67120884269797	1.8047751	1.3434192
27.68925965851958	1.8590744	1.3634788
27.707311175128307	1.9207739	1.3859198
27.725363393053787	1.9234982	1.3869023
27.74341631282583	1.9198707	1.385594
27.7614699349744	1.9345682	1.3908875
27.77952426002968	2.0935953	1.4469261
27.797579288521973	2.1868258	1.478792
27.815635020981784	2.5823555	1.6069709
27.83369145793979	2.6025078	1.613229
27.85174859992682	2.4762826	1.5736208
27.869806447473923	2.3474782	1.5321482
27.887865001112267	2.0765665	1.4410297
27.905924261373233	1.9959933	1.4127963
27.92398422878836	1.9661553	1.4021966
27.94204490388936	1.9631909	1.4011391
27.96010628720813	1.9347992	1.3909706
27.978168379276728	1.8995627	1.3782462
27.9962311806274	1.8466693	1.3589221
28.014294691792568	1.8440188	1.3579465
28.0323589133048	1.8366177	1.3552186
28.050423845696887	1.8172076	1.3480384
28.068489489501758	1.8040729	1.3431578
28.086555845252523	1.8551313	1.362032
28.104622913482487	1.8919919	1.375497
28.122690694725115	1.8706646	1.3677224
28.14075918951405	1.8900845	1.3748034
28.15882839838312	1.9010752	1.3787949
28.176898321866304	1.9329929	1.3903211
28.1949689604978	1.900196	1.3784759
28.213040314811945	1.9147555	1.3837469
28.23111238534327	1.8977523	1.3775893
28.249185172626493	1.841838	1.3571433
28.267258677196473	1.8501917	1.3602176
28.285332899588294	1.9558616	1.3985212
28.303407840337172	1.958279	1.3993852
28.321483499978545	1.9360831	1.391432
28.33955987904799	1.9245803	1.3872925
28.357636978081285	1.9246105	1.3873034
28.37571479761439	1.934414	1.3908322
28.393793338183425	1.9606396	1.4002284
28.41187260032469	1.9585044	1.3994658
28.429952584574686	2.0261767	1.4234383
28.448033291470065	2.051507	1.4323083
28.46611472154769	2.0335107	1.4260122
28.484196875344566	2.061506	1.4357946
28.502279753397914	2.07453	1.4403229
28.52036335624511	2.043066	1.4293586
28.538447684423716	1.9787197	1.4066697
28.556532738471482	1.9669999	1.4024978
28.574618518926325	2.0072386	1.4167705
28.59270502632635	2.0506551	1.4320109
28.61079226120985	2.0543	1.433283
28.628880224115274	2.0216002	1.4218299
28.646968915581287	2.0549107	1.433496
28.66505833614671	2.0694954	1.4385741
28.68314848635055	2.0526578	1.4327099
28.701239366732004	2.085823	1.4442378
28.71933097783044	2.1234622	1.4572104
28.737423320185403	2.1304092	1.4595921
28.75551639433665	2.1223288	1.4568214
28.773610200824074	2.1097126	1.452485
28.791704740187793	2.0882256	1.4450694
28.80980001296809	2.0796883	1.4421124
28.827896019705413	2.0956042	1.4476202
28.845992760940433	2.145407	1.4647207
28.86409023721397	2.204852	1.4848745
28.88218844906704	2.2252195	1.491717
28.900287397040845	2.191771	1.4804631
28.918387081676755	2.193377	1.4810054
28.936487503516343	2.264192	1.5047233
28.954588663101365	2.3047206	1.5181307
28.97269056097374	2.3276224	1.5256548
28.990793197675597	2.3031979	1.517629
29.00889657374923	2.268549	1.5061703
29.027000689737125	2.2640023	1.5046602
29.04510554618196	2.2756214	1.5085163
29.06321114362659	2.3629968	1.5372043
29.08131748261405	2.4173958	1.5547976
29.099424563687567	2.4050522	1.5508231
29.11753238739057	2.430927	1.5591431
29.13564095426663	2.5833304	1.6072742
29.15375026485954	2.6872835	1.6392936
29.171860319713275	2.6724944	1.6347766
29.18997111937199	2.6419163	1.6253973
29.20808266438002	2.6645262	1.6323377
29.226194955281898	2.7468877	1.6573738
29.244307992622335	2.8185449	1.6788522
29.26242177694624	2.8258812	1.6810358
29.2805363087987	2.8532858	1.6891671
29.29865158872498	2.8840497	1.698249
29.316767617270557	2.9053645	1.704513
29.334884394981064	2.9282484	1.7112125
29.353001922402367	2.9551187	1.7190459
29.37112020008047	3.0208418	1.7380569
29.389239228561596	3.1149375	1.7649186
29.407359008392152	3.2552378	1.8042277
29.42547954011872	3.5744352	1.8906177
29.44360082428809	4.126485	2.0313752
29.46172286144722	4.9767933	2.2308729
29.479845652143283	6.623887	2.5736914
29.497969196923606	9.270532	3.0447547
29.516093496335728	13.163173	3.6281087
29.5342185509274	16.992105	4.122148
29.55234436124651	20.44548	4.521668
29.570470927841175	21.82117	4.671314
29.588598251259686	21.645813	4.652506
29.60672633205055	19.717564	4.4404464
29.624855170762405	16.513796	4.063717
29.642984767944146	13.00958	3.6068795
29.66111512414481	9.569171	3.0934076
29.67924623991366	7.063854	2.6577911
29.697378115800138	5.223462	2.2854896
29.71551075235387	4.2675004	2.065793
29.733644150124675	3.7747142	1.9428624
29.751778309662576	3.5555623	1.8856199
29.769913231517766	3.4248495	1.8506349
29.78804891624066	3.3457437	1.8291374
29.806185364381818	3.3885498	1.8408014
29.82432257649206	3.347023	1.8294871
29.842460553122333	3.307576	1.8186742
29.86059929482382	3.2866213	1.8129041
29.878738802147872	3.2248394	1.7957838
29.896879075646048	3.211637	1.7921041
29.915020115870114	3.2873564	1.8131068
29.933161923371976	3.3153825	1.8208191
29.951304498703777	3.2769933	1.8102467
29.969447842417857	3.2852352	1.8125218
29.987591955066733	3.2867513	1.81294
30.005736837203123	3.2865496	1.8128843
30.023882489379943	3.2493305	1.8025899
30.04202891215028	3.2502263	1.8028384
30.060176106067455	3.2454057	1.8015009
30.078324071684946	3.1994421	1.7886984
30.09647280955646	3.1341364	1.7703493
30.114622320235863	3.136142	1.7709156
30.132772604277257	3.1470475	1.773992
30.1509236622349	3.1392944	1.7718054
30.16907549466328	3.1049986	1.7621006
30.18722810211705	3.1087494	1.7631646
30.205381485151097	3.0316255	1.7411563
30.22353564432045	2.9080355	1.7052963
30.241690580180403	2.941338	1.7150329
30.25984629328638	3.0390663	1.7432919
30.278002784194037	2.9620671	1.7210656
30.296160053459246	2.9244525	1.710103
30.314318101638033	2.9157045	1.7075434
30.332476929286646	2.934114	1.7129256
30.35063653696153	2.9054925	1.7045505
30.368796925219307	2.8516853	1.6886934
30.386958094616844	2.82136	1.6796905
30.40512004571115	2.887691	1.6993208
30.423282779059463	2.8655386	1.6927902
30.441446295219233	2.864065	1.6923548
30.459610594748067	2.841846	1.6857775
30.47777567820382	2.773791	1.6654702
30.495941546144504	2.793352	1.6713324
30.51410819912835	2.8189604	1.678976
30.532275637713795	2.8051574	1.6748605
30.55044386245946	2.8319035	1.682826
30.56861287392416	2.8805678	1.6972235
30.586782672666956	2.8883069	1.699502
30.604953259247047	2.8373108	1.6844319
30.623124634223885	2.7364924	1.6542346
30.641296798157075	2.7268193	1.6513083
30.659469751606462	2.8134296	1.6773281
30.677643495132074	2.8520718	1.6888078
30.695818029294152	2.7954588	1.6719625
30.713993354653116	2.7548566	1.6597761
30.73216947176962	2.734456	1.653619
30.75034638120448	2.766939	1.6634119
30.768524083518756	2.8089619	1.6759958
30.786702579273673	2.8757775	1.6958117
30.80488186903069	2.9190419	1.7085204
30.82306195335144	3.0178547	1.7371974
30.841242832797782	3.2068636	1.7907718
30.85942450793176	3.5429146	1.8822632
30.877606979315637	3.9930015	1.9982497
30.895790247511883	4.3848844	2.0940115
30.913974313083134	4.8264174	2.1969109
30.932159176592283	5.244972	2.2901905
30.95034483860237	5.580385	2.362284
30.968531299676698	5.597358	2.3658736
30.98671856037873	5.3074245	2.3037848
31.00490662127215	4.8225026	2.1960196
31.023095482920848	4.34199	2.0837443
31.04128514588892	3.8442078	1.9606651
31.059475610740662	3.3093748	1.8191687
31.07766687804056	2.8527315	1.6890031
31.09585894835335	2.6106117	1.6157387
31.11405182224393	2.5230236	1.5884029
31.132245500277417	2.494491	1.5793958
31.15043998301914	2.4506772	1.5654639
31.168635271034628	2.4775283	1.5740166
31.18683136488964	2.4272528	1.5579643
31.20502826515008	2.414033	1.5537158
31.223225972382135	2.4212976	1.556052
31.241424487152155	2.3742294	1.5408535
31.259623810026692	2.3466158	1.5318668
31.27782394157253	2.414896	1.5539936
31.296024882356644	2.4992337	1.5808965
31.314226632946237	2.4437156	1.5632389
31.332429193908684	2.4440908	1.5633588
31.350632565811598	2.4548159	1.5667852
31.368836749222787	2.4650004	1.570032
31.387041744710295	2.5440812	1.5950177
31.40524755284232	2.5858898	1.6080703
31.423454174187317	2.544889	1.5952709
31.441661609313922	2.4598844	1.5684018
31.459869858791002	2.417351	1.5547832
31.478078923187628	2.4205332	1.5558063
31.496288803073064	2.42642	1.557697
31.514499499016807	2.3721445	1.5401767
31.532711011588546	2.3049865	1.5182182
31.550923341358178	2.2180758	1.4893205
31.56913648889584	2.2103066	1.48671
31.587350454771844	2.2653553	1.5051098
31.605565239556732	2.305194	1.5182865
31.62378084382127	2.340644	1.5299163
31.641997268136382	2.303225	1.517638
31.660214513073274	2.387092	1.5450218
31.67843257920331	2.4002087	1.5492607
31.6966514670981	2.3864176	1.5448034
31.71487117732944	2.2957537	1.5151745
31.733091710469346	2.2435436	1.4978464
31.751313067090052	2.332772	1.5273415
31.769535247764008	2.4360044	1.5607704
31.787758253063878	2.430985	1.5591617
31.805982083562526	2.3501873	1.5330321
31.824206739833024	2.3061628	1.5186056
31.84243222244869	2.2930405	1.5142789
31.860658531983013	2.2505894	1.5001965
31.878885669009737	2.218569	1.4894862
31.897113634102784	2.3007886	1.5168351
31.91534242783632	2.3323872	1.5272155
31.933572050784694	2.273405	1.5077815
31.951802503522508	2.1753724	1.4749143
31.970033786624548	2.1342525	1.4609082
31.988265900665834	2.1537719	1.4675735
32.006498846221575	2.2284884	1.4928123
32.02473262386724	2.2852921	1.5117183
32.04296723417845	2.2455304	1.4985094
32.0612026777311	2.2016943	1.4838107
32.07943895510129	2.2395704	1.4965194
32.097676066865304	2.2479339	1.4993111
32.115914013599685	2.2088835	1.4862313
32.13415279588115	2.205355	1.4850438
32.152392414286666	2.202674	1.4841408
32.1706328693934	2.2683516	1.5061047
32.18887416177875	2.3232965	1.5242364
32.20711629202032	2.1880698	1.4792125
32.225359260695924	2.114568	1.4541554
32.243603068383614	2.1101408	1.4526324
32.26184771566166	2.0903502	1.4458044
32.28009320310852	2.1087303	1.4521468
32.2983395313029	2.212566	1.4874697
32.31658670082372	2.1652226	1.4714695
32.33483471225012	2.1327217	1.4603841
32.35308356616143	2.1562371	1.4684131
32.371333263137245	2.1833642	1.4776211
32.38958380375734	2.1478016	1.465538
32.407835188601744	2.019216	1.4209912
32.42608741825067	1.9894322	1.4104724
32.444340493284585	2.092382	1.4465069
32.46259441428416	2.0704572	1.4389083
32.48084918183028	2.0519326	1.4324569
32.49910479650405	2.0761812	1.4408959
32.51736125888683	2.0195794	1.4211191
32.53561856956014	2.0060408	1.4163477
32.5538767291058	2.0753489	1.4406071
32.572135738105764	2.157693	1.4689088
32.59039559714228	2.1525633	1.4671617
32.608656306797776	2.1378124	1.462126
32.62691786765491	2.077678	1.4414153
32.645180280296586	2.0570228	1.4342325
32.663443545305896	2.0802476	1.4423064
32.68170766326619	2.0801902	1.4422865
32.69997263476099	2.03053	1.4249667
32.7182384603741	1.9756023	1.4055612
32.7365051406895	1.9508613	1.3967323
32.75477267629144	1.9907023	1.4109225
32.77304106776434	2.028739	1.4243381
32.79131031569289	2.0531569	1.4328841
32.809580420661966	2.0578666	1.4345266
32.827851383256714	2.0816588	1.4427955
32.84612320406245	2.1169193	1.4549637
32.86439588366476	2.1699295	1.473068
32.88266942264945	2.1388614	1.4624847
32.9009438216025	2.080612	1.4424326
32.9192190811102	2.0434616	1.429497
32.937495201758985	2.0923693	1.4465024
32.95577218413556	2.0918725	1.4463307
32.974050028826866	1.9288027	1.3888134
32.992328736420035	1.8932601	1.3759578
33.010608307502444	1.9281384	1.3885742
33.02888874266169	1.9624724	1.4008827
33.047170042485604	2.0134504	1.418961
33.06545220756225	1.9812622	1.4075731
33.083735238479896	1.8937274	1.3761277
33.10201913582707	1.9069079	1.3809084
33.12030390019248	1.8919244	1.3754724
33.138589532165135	1.9732227	1.4047145
33.15687603233419	2.0367508	1.4271477
33.17516340128909	2.0412161	1.4287113
33.19345163961947	1.9915667	1.4112288
33.211740747915215	1.9930693	1.411761
33.23003072676643	1.9271684	1.3882248
33.248321576763466	1.9170793	1.3845863
33.266613298496885	1.9706311	1.4037917
33.28490589255747	1.9953912	1.4125832
33.30319935953626	1.856232	1.362436
33.32149370002451	1.9340336	1.3906953
33.339788914613706	2.005325	1.416095
33.358085003895575	1.960397	1.4001418
33.376381968462034	1.884175	1.3726525
33.39467980890529	1.8262564	1.3513906
33.41297852581774	1.8317859	1.3534348
33.43127811979204	1.8638653	1.3652345
33.44957859142105	1.9229574	1.3867074
33.467879941297866	1.9019543	1.3791136
33.486182170015844	1.8900325	1.3747846
33.50448527816853	1.9309696	1.3895934
33.522789266349754	1.979894	1.4070871
33.541094135153514	1.9200386	1.3856546
33.55939988517411	1.8220583	1.3498363
33.57770651700602	1.8691508	1.3671689
33.59601403124398	1.8905935	1.3749886
33.61432242848296	1.8965588	1.377156
33.632631709318154	1.9180593	1.3849401
33.650941874344994	2.0165067	1.4200375
33.66925292415916	2.0258598	1.4233271
33.68756485935654	2.0611305	1.4356638
33.70587768053328	1.9881994	1.4100353
33.724191388285746	1.930332	1.3893639
33.74250598321054	1.880715	1.3713917
33.760821465904506	1.9294091	1.3890318
33.77913783696474	2.0104494	1.4179032
33.79745509698852	1.9410198	1.3932048
33.815773246573414	1.8586403	1.3633196
33.8340922863172	1.8507402	1.3604192
33.852412216817896	1.9250551	1.3874636
33.87073303867377	1.9673804	1.4026334
33.889054752483304	1.9550259	1.3982224
33.907377358845245	1.9797306	1.407029
33.92570085835853	2.05045	1.4319392
33.94402525162239	2.0023866	1.4150571
33.96235053923627	1.8837464	1.3724964
33.980676721799824	1.7943336	1.3395274
33.999003799912984	1.8544443	1.3617798
34.01733177417592	1.9236919	1.3869722
34.03566064518901	1.8999441	1.3783846
34.0539904135529	1.8462076	1.3587523
34.07232107986846	1.8673028	1.3664929
34.090652644736785	1.9271827	1.3882301
34.108985108759235	1.9976524	1.4133834
34.12731847253742	2.062963	1.4363018
34.14565273667313	2.0837865	1.4435326
34.16398790176847	2.0823007	1.443018
34.18232396842574	2.1241252	1.4574379
34.20066093724749	2.2131643	1.4876708
34.21899880883651	2.1683192	1.4725214
34.23733758379583	2.032607	1.4256953
34.25567726272874	1.9167684	1.384474
34.27401784623872	1.9592049	1.399716
34.29235933492957	2.0223174	1.4220821
34.31070172940526	1.9641613	1.4014853
34.32904503027003	1.9147203	1.3837342
34.347389238128386	1.9238315	1.3870225
34.36573435358502	1.9597183	1.3998994
34.38408037724492	1.97474	1.4052545
34.402427309713296	1.9753653	1.4054769
34.42077515159559	1.9570225	1.3989363
34.43912390349752	1.9430726	1.3939414
34.45747356602499	2.0952094	1.4474838
34.47582413978423	2.25206	1.5006865
34.49417562538163	2.2288232	1.4929243
34.51252802342388	2.0431452	1.4293863
34.53088133451789	2.013862	1.419106
34.54923555927084	2.1293192	1.4592187
34.567590698290104	2.089182	1.4454002
34.58594675218336	2.1163266	1.45476
34.6043037215585	2.0098124	1.4176785
34.62266160702365	1.8920559	1.3755202
34.641020409187234	1.8136855	1.3467314
34.65938012865785	1.8209821	1.3494377
34.677740766044394	1.9447764	1.3945524
34.69610232195598	1.9556602	1.3984492
34.714464797002016	1.9115695	1.3825952
34.73282819179208	1.9751475	1.4053994
34.751192506936064	1.9783332	1.4065323
34.76955774304408	1.9349078	1.3910097
34.7879239007265	2.0394778	1.4281029
34.80629098059391	2.1197915	1.4559504
34.824658983257194	2.017344	1.4203323
34.843027909327446	1.9488221	1.3960022
34.86139775941603	1.9189306	1.3852547
34.879768534134534	1.690471	1.3001812
34.89814023409483	1.6876494	1.2990956
34.91651285990901	1.7996889	1.3415248
34.93488641218944	1.9252806	1.3875448
34.95326089154871	2.000037	1.4142267
34.97163629859967	1.953833	1.3977958
34.99001263395542	1.9004844	1.3785806
35.00838989822934	1.923351	1.3868493
35.02676809203499	2.0855236	1.4441342
35.04514721598624	2.1539388	1.4676303
35.063527270697215	1.9752673	1.405442
35.081908256782256	1.7562357	1.3252305
35.10029017485597	1.7271993	1.3142296
35.11867302553321	1.730985	1.3156691
35.137056809429104	2.10706	1.4515716
35.155441527159006	2.4041748	1.5505402
35.173827179338524	2.2434084	1.4978012
35.19221376658354	2.0156326	1.4197298
35.21060128951017	1.871354	1.3679744
35.2289897487348	1.762935	1.3277557
35.24737914487405	1.9174001	1.3847022
35.26576947854479	1.9040959	1.3798898
35.28416075036418	1.6959631	1.3022915
35.30255296094958	1.6410607	1.2810389
35.32094611091867	1.7596909	1.3265334
35.33934020088932	2.2847154	1.5115275
35.35773523147969	2.491052	1.5783067
35.3761312033082	2.3720849	1.5401574
35.394528116993506	2.23169	1.4938842
35.41292597315452	2.3694663	1.5393071
35.431324772410434	2.190393	1.4799976
35.449724515380666	2.0335689	1.4260325
35.46812520268491	1.9278946	1.3884864
35.486526834943106	2.0106783	1.4179839
35.504929412775454	2.4005334	1.5493655
35.52333293680242	2.680141	1.6371136
35.54173740764471	2.0840082	1.4436095
35.560142825923286	2.042695	1.4292288
35.5785491922594	2.4377377	1.5613257
35.59695650727454	2.0404763	1.4284524
35.61536477159042	1.1140177	1.0554703
