0.008763373481513119	0.3822274	0.6182454
0.026290120649546365	0.19633481	0.44309685
0.043816868432600686	0.13637815	0.36929414
0.06134361724069026	0.14389625	0.3793366
0.07887036748382949	0.22296461	0.4721913
0.0963971195720331	0.47360915	0.68819267
0.11392387391531617	0.49499813	0.703561
0.1314506309236943	0.41206217	0.6419207
0.1489773910071836	0.22965272	0.47922096
0.16650415457580078	0.15556535	0.39441773
0.18403092203956356	0.23457983	0.4843344
0.20155769380849	0.263491	0.5133138
0.2190844702925996	0.21762118	0.46649885
0.2366112519019124	0.24343033	0.4933866
0.2541380390464497	0.22105096	0.47016057
0.27166483213623416	0.26434264	0.51414263
0.28919163158128947	0.20952928	0.45774367
0.3067184377916406	0.14777012	0.3844088
0.324245251177314	0.1098468	0.33143145
0.34177207214833777	0.10634853	0.32611123
0.3592989011147415	0.09820849	0.31338233
0.37682573848655654	0.1275962	0.3572061
0.39435258467381573	0.15146412	0.3891839
0.41187944008655414	0.15901224	0.3987634
0.42940630513480854	0.13238604	0.36384892
0.446933180228618	0.110417046	0.3322906
0.4644600657780234	0.09434129	0.30715027
0.48198696219306775	0.09129121	0.30214435
0.49951386988379676	0.101454064	0.31851855
0.5170407892602581	0.092727914	0.3045126
0.5345677207325025	0.09825521	0.31345686
0.5520946647105822	0.11471425	0.33869493
0.5696216216045534	0.14449063	0.38011923
0.5871485918244737	0.16186307	0.4023221
0.6046755757804043	0.19200829	0.4381875
0.6222025738824094	0.20249245	0.4499916
0.6397295865405557	0.1970593	0.4439136
0.6572566141649129	0.23854187	0.4884075
0.6747836571655547	0.22376941	0.47304273
0.6923107159525568	0.1965563	0.4433467
0.7098377909359992	0.14169681	0.37642637
0.7273648825259653	0.15619649	0.395217
0.7448919911325411	0.16448551	0.40556812
0.762419117165817	0.18794523	0.43352652
0.7799462610358868	0.1677488	0.40957147
0.7974734231528482	0.15827939	0.39784342
0.8150006039268024	0.16450286	0.40558952
0.8325278037678551	0.15860024	0.39824647
0.8500550230861152	0.17104994	0.41358185
0.8675822622916969	0.18012027	0.42440578
0.8851095217947171	0.17197613	0.41470006
0.9026368020052984	0.19183569	0.43799052
0.9201641033335665	0.18636383	0.43169877
0.9376914261896523	0.21179621	0.4602132
0.9552187709836915	0.22371411	0.47298425
0.9727461381258234	0.24273603	0.4926825
0.990273528026193	0.23278809	0.48248118
1.0078009410949496	0.23857065	0.48843694
1.0253283777422473	0.26275533	0.51259667
1.0428558383782454	0.2683919	0.5180656
1.0603833234131086	0.28441593	0.5333066
1.0779108332570058	0.29988685	0.5476193
1.0954383683201119	0.29805526	0.5459444
1.112965929012607	0.3272561	0.572063
1.1304935157446763	0.44691733	0.6685188
1.1480211289265108	0.5252186	0.7247197
1.1655487689683062	1.4961786	1.2231838
1.1830764362802655	1.7718306	1.3311013
1.200604131272596	2.101089	1.4495133
1.2181318543555117	2.142263	1.4636471
1.235659605939232	2.1637018	1.4709526
1.253187386433982	3.6937115	1.9219031
1.270715196249994	5.9756327	2.4445107
1.2882430357975057	11.336788	3.3670146
1.3057709054867608	16.248594	4.0309544
1.3232988057280106	22.237732	4.71569
1.3408267369315112	27.371323	5.231761
1.358354699507526	31.016172	5.5692167
1.3758826938663256	34.984783	5.9147935
1.3934107204181858	37.065044	6.0881066
1.410938779573391	37.297283	6.10715
1.4284668717422309	37.50972	6.124518
1.4459949973350033	36.656387	6.054452
1.4635231567620117	36.58045	6.0481772
1.4810513504335687	35.99144	5.9992867
1.4985795787599925	35.183247	5.9315467
1.5161078421516088	34.853477	5.903683
1.5336361410187505	34.23314	5.850909
1.5511644757717598	34.279503	5.85487
1.5686928468209842	34.95489	5.9122663
1.58622125457678	35.339046	5.9446654
1.6037496994495108	36.55634	6.046184
1.621278181849548	36.285313	6.0237293
1.6388067021872719	37.074905	6.088917
1.6563352608730693	36.674965	6.055986
1.673863858317336	36.179268	6.01492
1.6913924949304753	35.780167	5.9816527
1.7089211711228998	34.80157	5.899286
1.7264498873050296	33.73447	5.8081384
1.7439786438872935	32.725777	5.720645
1.7615074412801288	31.479877	5.610693
1.779036279893981	30.753391	5.545574
1.796565160139305	29.699434	5.449719
1.814094082426564	29.073551	5.3919897
1.8316230471662298	28.353224	5.3247747
1.849152054768784	27.453054	5.2395663
1.8666811056447168	27.01051	5.1971636
1.8842102002045273	26.078964	5.1067567
1.901739338858724	25.450853	5.0448837
1.9192685220178245	24.906866	4.990678
1.9367977500923557	24.311434	4.9306626
1.9543270234928547	23.943213	4.8931804
1.971856342629867	23.366653	4.8339067
1.9893857079139496	23.051031	4.801149
2.006915119755667	22.452341	4.73839
2.0244445785655945	21.835382	4.6728344
2.0419740847543175	21.398167	4.6258154
2.0595036387324317	20.82824	4.5637965
2.0770332409105414	20.35723	4.5118985
2.094562891699263	19.95897	4.467546
2.1120925915092217	19.25539	4.3880963
2.129622340751053	19.036886	4.363128
2.1471521398354043	187.34836	13.687526
2.1646819891729323	443.82953	21.067263
2.182211889174303	440.301	20.98335
2.1997418402501974	452.49594	21.271952
2.2172718428113023	432.4581	20.795628
2.234801897268317	320.48575	17.902115
2.2523320040319548	17.076603	4.132385
2.269862163512935	16.566568	4.0702047
2.287392376121992	16.114637	4.014304
2.304922642269869	16.024916	4.0031133
2.322452962367322	16.096788	4.01208
2.3399833368251164	15.851073	3.9813406
2.357513766054032	15.401061	3.9244184
2.3750442504648586	14.921409	3.862824
2.3925747904683963	14.557352	3.81541
2.410105386475459	14.376922	3.791691
2.4276360388968707	14.008862	3.7428415
2.445166748143469	13.956181	3.7357972
2.4626975146261025	13.6972885	3.7009847
2.4802283387556323	13.494459	3.6734805
2.4977592209429305	13.412785	3.6623468
2.5152901615988825	13.067482	3.6148973
2.5328211611343865	12.775272	3.5742514
2.5503522199603523	12.389664	3.5198953
2.5678833384877024	12.218586	3.4955094
2.5854145171273712	12.085901	3.4764783
2.6029457562903064	11.852382	3.4427288
2.620477056387469	11.459874	3.3852437
2.6380084178298326	11.347451	3.3685977
2.655539841028383	11.228203	3.350851
2.673071326394119	11.170312	3.3422017
2.6906028743380523	11.13519	3.3369431
2.708134485271211	10.96266	3.3109908
2.7256661596046325	10.796023	3.2857304
2.743197897749369	10.552579	3.2484734
2.760729700116486	10.528021	3.2446911
2.778261567117063	10.237137	3.1995525
2.795793499162193	10.031296	3.167222
2.8133254966629817	9.792515	3.1292994
2.830857560030551	9.5327	3.087507
2.8483896896760337	9.440436	3.0725293
2.865921886010578	9.312132	3.0515785
2.883454149445347	9.302431	3.0499887
2.9009864803915177	9.168806	3.0280037
2.91851887926028	9.062819	3.0104516
2.9360513464628384	9.087034	3.0144708
2.953583882410413	8.93721	2.9895167
2.9711164875142373	8.766321	2.9607973
2.9886491621855606	8.581775	2.9294667
3.0061819068356455	8.483476	2.9126406
3.023714721875769	8.455571	2.9078465
3.041247607717225	8.423516	2.9023294
3.0587805647713213	8.164152	2.8572981
3.0763135934493806	8.06776	2.8403804
3.0938466941627407	7.87088	2.8055089
3.1113798673227544	7.7599454	2.785668
3.1289131133407904	7.759303	2.7855525
3.1464464326282315	7.695928	2.7741535
3.1639798255964786	7.6195536	2.7603538
3.1815132926569443	7.554944	2.7486258
3.1990468342210603	7.4568496	2.7307234
3.216580450700272	7.3113995	2.70396
3.2341141425060416	7.2430825	2.6912975
3.251647910049847	7.1884456	2.6811275
3.2691817537431813	7.1699786	2.6776817
3.286715673997555	7.15074	2.6740868
3.3042496712244938	7.111227	2.6666884
3.32178374583554	6.983752	2.642679
3.339317898242251	6.9020815	2.6271813
3.3568521288562034	6.7582245	2.5996585
3.3743864380889876	6.786899	2.6051679
3.3919208263522127	6.777437	2.603351
3.4094552940575023	6.735821	2.595346
3.4269898416164972	6.688564	2.5862257
3.444524469440858	6.532614	2.555898
3.4620591779422587	6.43335	2.5364048
3.479593967532391	6.322052	2.514369
3.4971288386229658	6.293424	2.5086699
3.5146637916257086	6.3116007	2.51229
3.5321988269523628	6.379237	2.525715
3.5497339450146903	6.391768	2.5281947
3.5672691462244708	6.462806	2.542205
3.5848044309934988	6.369594	2.5238054
3.60233979973359	6.301894	2.5103574
3.619875252856575	6.202993	2.4905808
3.6374107907743034	6.2155266	2.4930959
3.6549464138986427	6.226259	2.4952474
3.6724821226414788	6.2016563	2.4903126
3.690017917414714	6.1757092	2.4850974
3.7075537986302702	6.1050267	2.4708352
3.7250897667000857	6.12271	2.474411
3.7426258220361235	6.307189	2.5114117
3.7601619650503553	6.693546	2.5871887
3.777698196154779	7.3988256	2.7200782
3.7952345157614067	8.474684	2.911131
3.8127709242822716	9.147755	3.0245256
3.830307422129425	11.2611265	3.35576
3.847844009714936	12.58406	3.547402
3.8653806874508954	16.034777	4.004345
3.882917455749409	15.510446	3.9383304
3.900454315022606	15.524607	3.9401278
3.917991265682631	12.466567	3.5308025
3.9355283081416506	10.6429615	3.262355
3.9530654428118495	8.58821	2.9305649
3.970602670105433	7.372192	2.715178
3.9881399904346244	6.5100775	2.5514853
4.005677404211669	6.4036145	2.5305364
4.023214911848827	6.3464656	2.5192192
4.0407525137583855	6.196484	2.4892738
4.058290210352644	6.172407	2.484433
4.075828002043927	6.075916	2.4649372
4.0933658892445814	6.003818	2.450269
4.110903872366966	6.012341	2.4520075
4.128441951823468	5.956671	2.4406292
4.145980128026488	6.0084987	2.4512239
4.163518401388452	6.06886	2.4635057
4.181056772321807	6.1306257	2.47601
4.1985952412390155	6.1255655	2.474988
4.216133808552567	6.1378393	2.4774663
4.233672474674966	6.0544057	2.46057
4.251211240018741	6.2736983	2.5047352
4.268750104996445	6.498168	2.5491505
4.286289070020643	7.491456	2.7370524
4.303828135503928	9.086732	3.0144207
4.3213673018589125	29.290815	5.412099
4.3389065694982305	90.52006	9.514203
4.356445938834537	165.65399	12.870664
4.3739854102805085	171.03412	13.078001
4.391524984248844	171.95747	13.1132555
4.409064661152262	136.1109	11.666657
4.426604441403504	96.55926	9.826457
4.444144325415337	75.77566	8.704922
4.461684313600543	21.746975	4.6633654
4.47922440637193	22.177744	4.7093253
4.496764604142329	20.26352	4.501502
4.5143049073245916	18.21644	4.268072
4.531845316331589	16.020617	4.0025764
4.5493858315762195	13.045387	3.6118398
4.566926453471405	10.897361	3.301115
4.584467182430081	8.961591	2.9935915
4.602008018865218	8.0879755	2.8439367
4.619548963189798	7.4689074	2.7329302
4.637090015816834	6.908078	2.6283224
4.654631177159353	6.5570884	2.5606813
4.672172447630417	6.223405	2.4946754
4.689713827643102	6.094759	2.4687567
4.7072553176105085	5.929135	2.4349816
4.724796917945764	5.8471055	2.418079
4.742338629062015	5.8466706	2.417989
4.759880451372434	5.7097044	2.3894987
4.777422385290215	5.5767283	2.3615098
4.794964431228581	5.4541955	2.3354218
4.812506589600768	5.3731546	2.3180065
4.830048860820047	5.4413466	2.3326695
4.847591245299709	5.463253	2.3373604
4.8651337434530655	5.4926825	2.3436472
4.882676355693457	5.4852657	2.3420644
4.900219082434242	5.502392	2.3457177
4.917761924088813	5.451198	2.33478
4.935304881070575	5.4469295	2.333866
4.952847953792969	5.379682	2.3194141
4.970391142669449	5.3482866	2.3126364
4.9879344481135055	5.3778167	2.319012
5.005477870538642	5.3390617	2.310641
5.023021410358394	5.288702	2.299718
5.040565067986324	5.2172694	2.2841344
5.05810884383601	5.2560706	2.292612
5.075652738321066	5.303259	2.3028805
5.09319675185512	5.252157	2.2917585
5.110740884851836	5.284506	2.2988052
5.128285137724894	5.2753863	2.2968209
5.145829510888007	5.2965093	2.3014147
5.163374004754908	5.369625	2.3172452
5.1809186197393595	5.3515487	2.3133414
5.198463356255145	5.2700763	2.2956648
5.216008214716077	5.2138524	2.2833862
5.233553195535998	5.123491	2.2635128
5.251098299128764	5.1156073	2.2617707
5.268643525908272	5.048147	2.2468083
5.286188876288432	5.044171	2.2459233
5.3037343506831895	5.0982957	2.2579405
5.32127994950651	5.132684	2.2655427
5.3388256731723915	5.0903416	2.2561786
5.356371522094851	5.035481	2.2439878
5.373917496687938	5.108092	2.2601087
5.391463597365729	5.1319942	2.2653906
5.40900982454232	5.253358	2.2920206
5.426556178631843	5.285639	2.2990518
5.444102660048449	5.244546	2.2900975
5.4616492692063225	5.1391625	2.266972
5.479196006519669	5.060225	2.2494943
5.496742872402727	5.067037	2.251008
5.514289867269756	5.136083	2.2662928
5.531836991535049	5.1537466	2.2701864
5.549384245612924	5.1477704	2.2688699
5.566931629917724	5.108051	2.2600996
5.584479144863822	5.068181	2.2512622
5.6020267908656205	5.082765	2.254499
5.619574568337545	5.0237575	2.241374
5.637122477694054	5.1038556	2.2591715
5.654670519349629	5.0567	2.2487109
5.672218693718784	5.07496	2.2527673
5.689767001216059	5.0404844	2.2451024
5.707315442256021	5.069031	2.2514508
5.724864017253266	5.076156	2.2530327
5.7424127266224225	5.075145	2.252808
5.75996157077814	5.0528293	2.24785
5.777510550135105	5.0632777	2.2501729
5.795059665108022	5.157401	2.2709913
5.812608916111639	5.2367225	2.2883887
5.830158303560715	5.347054	2.3123698
5.847707827870055	5.307035	2.3037002
5.86525748945448	5.381631	2.3198342
5.8828072887288485	5.411391	2.3262396
5.900357226108044	5.452393	2.335036
5.917907302006979	5.5725307	2.3606207
5.9354575168406	6.1470795	2.4793305
5.9530078710238765	6.8023033	2.6081226
5.970558364971812	7.329901	2.707379
5.988108999099438	7.650159	2.765892
6.005659773821818	8.105412	2.8470004
6.023210689554039	7.8682218	2.805035
6.040761746711227	8.203488	2.8641732
6.058312945708531	7.5307016	2.7442124
6.075864286961132	7.1190658	2.6681578
6.093415770884244	6.5505877	2.5594115
6.1109673978931065	6.0741262	2.4645743
6.128519168402993	5.520935	2.349667
6.146071082829204	5.2957687	2.3012538
6.163623141587075	5.18383	2.2768025
6.181175345091969	5.1167006	2.2620125
6.198727693759281	5.090194	2.256146
6.216280188004435	5.0736547	2.2524774
6.233832828242885	5.0545425	2.248231
6.251385614890126	5.0035253	2.2368562
6.268938548361669	4.9733944	2.230111
6.286491629073067	4.99938	2.2359293
6.304044857439898	5.1010756	2.2585561
6.321598233877777	5.080626	2.2540245
6.339151758802344	5.0509386	2.2474294
6.356705432629277	5.0136905	2.2391272
6.37425925577428	4.9907746	2.2340043
6.391813228653095	4.950758	2.22503
6.409367351681486	4.8542833	2.2032437
6.426921625275259	4.935635	2.221629
6.44447604985025	4.9707627	2.2295208
6.46203062582232	5.0749483	2.2527647
6.47958535360737	5.0267997	2.2420526
6.497140233621328	4.994679	2.2348778
6.514695266280161	4.9872026	2.2332046
6.532250451999859	4.9486423	2.2245543
6.549805791196454	4.9053626	2.2148054
6.567361284286002	4.872629	2.2074032
6.584916931684597	4.812908	2.193834
6.602472733808367	4.8412504	2.2002842
6.6200286910734665	4.871065	2.207049
6.637584803896092	4.8834443	2.2098517
6.655141072692462	4.8488708	2.2020152
6.672697497878842	4.835481	2.1989727
6.690254079871514	4.8315883	2.1980875
6.707810819086808	4.868556	2.2064805
6.725367715941078	4.903191	2.214315
6.742924770850719	4.9217987	2.2185128
6.760481984232151	4.884594	2.2101119
6.778039356501836	4.8586183	2.2042274
6.795596888076266	4.8859153	2.2104106
6.813154579371963	4.9007397	2.2137613
6.830712430805492	4.919152	2.217916
6.84827044279344	4.873836	2.2076766
6.865828615752445	4.8791523	2.2088804
6.883386950099159	4.8291078	2.197523
6.900945446250287	4.8279214	2.1972532
6.918504104622553	4.891862	2.2117553
6.936062925632727	5.0306053	2.242901
6.953621909697607	5.141732	2.2675388
6.971181057234028	5.136695	2.2664278
6.988740368658859	5.0287495	2.2424874
7.006299844389007	5.0131197	2.2389996
7.023859484841407	5.052324	2.2477374
7.041419290433036	5.229379	2.2867837
7.058979261580902	5.3793416	2.3193407
7.0765393987020495	5.553868	2.3566647
7.094099702213559	5.9104843	2.4311488
7.111660172532549	6.174828	2.48492
7.129220810076164	6.5733914	2.5638626
7.146781615261595	7.19216	2.6818204
7.16434258850606	7.499473	2.7385166
7.181903730226821	7.913735	2.813136
7.1994650408411704	7.964279	2.8221054
7.217026520766437	8.112191	2.8481908
7.234588170419983	8.3426695	2.888368
7.252149990219215	8.441445	2.9054165
7.269711980581568	8.321608	2.8847196
7.2872741419245175	8.105853	2.847078
7.304836474665574	7.645274	2.765009
7.322398979222286	7.3635297	2.7135825
7.339961656012233	7.151268	2.6741855
7.357524505453039	6.829481	2.6133275
7.375087527962357	6.5328317	2.5559404
7.392650723957886	6.1620336	2.4823444
7.410214093857353	5.807756	2.4099286
7.427777638078528	5.6191792	2.3704808
7.445341357039213	5.452033	2.3349588
7.4629052511572525	5.3374953	2.310302
7.480469320850524	5.2450747	2.2902129
7.498033566536948	5.200788	2.2805235
7.5155979886344735	5.1594653	2.2714458
7.5331625875610975	5.107549	2.2599888
7.550727363734844	5.07807	2.2534573
7.568292317573788	5.0381126	2.244574
7.585857449496025	5.043113	2.2456877
7.603422759919705	5.050242	2.2472744
7.620988249263007	5.036362	2.244184
7.638553917944147	5.070728	2.2518277
7.656119766381391	5.084707	2.2549295
7.673685794993023	5.1207128	2.2628992
7.691252004197388	5.138556	2.2668383
7.70881839441285	5.1576734	2.2710512
7.726384966057826	5.137303	2.266562
7.743951719550762	5.0558815	2.2485287
7.761518655310149	5.1053357	2.259499
7.779085773754511	5.1711345	2.2740128
7.796653075302419	5.2315154	2.2872505
7.814220560372475	5.2436805	2.2899084
7.831788229383323	5.269939	2.2956347
7.8493560827536495	5.3224573	2.3070452
7.866924120902174	5.3282747	2.3083055
7.884492344247663	5.331941	2.3090997
7.9020607532089135	5.2784653	2.297491
7.919629348204771	5.2125707	2.2831054
7.937198129654115	5.154803	2.2704191
7.954767097975865	5.1411495	2.2674103
7.972336253588986	5.214563	2.2835417
7.989905596912472	5.3058205	2.3034368
8.007475128365371	5.4067388	2.3252394
8.025044848366756	5.458605	2.3363657
8.042614757335754	5.5492363	2.3556817
8.060184855691523	5.5496464	2.3557687
8.07775514385327	5.714347	2.39047
8.095325622240228	5.743238	2.3965054
8.112896291271687	5.8637195	2.421512
8.130467151366968	5.8725443	2.4233334
8.148038202945436	5.8721957	2.4232614
8.165609446426497	5.759884	2.3999758
8.183180882229594	5.753939	2.398737
8.200752510774217	5.7916493	2.4065845
8.218324332479893	5.8501034	2.4186988
8.235896347766193	5.880383	2.4249501
8.253468557052724	5.8883634	2.426595
8.27104096075914	5.8635993	2.421487
8.288613559305137	5.951251	2.4395187
8.306186353110448	5.9774194	2.4448762
8.32375934259485	6.13156	2.4761987
8.341332528178162	6.1524754	2.4804184
8.358905910280246	6.2003403	2.4900482
8.376479489321003	6.139051	2.4777107
8.394053265720377	6.1874475	2.487458
8.411627239898356	6.155912	2.481111
8.42920141227497	6.186442	2.4872558
8.44677578327029	6.149725	2.479864
8.464350353304427	6.0930796	2.4684165
8.48192512279754	6.0510783	2.459894
8.499500092169827	6.0365677	2.4569428
8.51707526184153	6.0551386	2.460719
8.534650632232934	6.1010737	2.470035
8.552226203764365	6.1220307	2.4742737
8.569801976856192	6.161517	2.4822404
8.587377951928834	6.1558976	2.4811082
8.60495412940274	6.125638	2.4750025
8.622530509698416	6.1190124	2.4736638
8.6401070932364	6.238625	2.497724
8.657683880437283	6.405647	2.530938
8.675260871721695	6.6692934	2.5824976
8.692838067510303	6.8670816	2.6205118
8.710415468223834	7.0087676	2.6474078
8.727993074283043	7.1229987	2.6688948
8.745570886108737	7.0684013	2.6586466
8.763148904121765	7.073433	2.6595926
8.78072712874302	7.030584	2.6515248
8.798305560393441	7.2592845	2.694306
8.815884199494006	7.4098964	2.7221124
8.833463046465745	7.5886307	2.754747
8.851042101729728	7.753672	2.7845416
8.86862136570707	8.149008	2.8546467
8.886200838818924	8.357554	2.8909435
8.903780521486505	8.362108	2.891731
8.921360414131055	8.424162	2.9024408
8.938940517173874	8.475465	2.9112651
8.956520831036297	8.625347	2.9368942
8.97410135613971	8.921272	2.9868498
8.99168209290554	9.057731	3.0096064
9.009263041755265	9.3307905	3.0546343
9.026844203110405	9.540087	3.0887032
9.044425577392525	9.670071	3.1096737
9.062007165023239	9.740296	3.1209447
9.079588966424197	9.982339	3.159484
9.097170982017108	10.134117	3.1834128
9.11475321222372	11.198096	3.3463557
9.132335657465825	12.08095	3.4757662
9.149918318165264	12.181637	3.49022
9.167501194743924	12.839768	3.5832622
9.18508428762374	12.576478	3.546333
9.202667597226693	12.604961	3.5503466
9.220251123974803	12.280898	3.5044112
9.237834868290143	11.91464	3.451759
9.255418830594836	11.740572	3.426452
9.273003011311046	11.150055	3.3391697
9.290587410860985	10.837237	3.291996
9.308172029666911	10.179985	3.190609
9.32575686815113	9.962197	3.1562948
9.343341926735997	8.682369	2.9465861
9.360927205843916	8.425961	2.9027505
9.378512705897327	8.219378	2.8669457
9.396098427318728	8.041781	2.8358035
9.413684370530664	7.886659	2.8083196
9.431270535955722	7.763158	2.7862444
9.448856924016539	7.720255	2.7785347
9.466443535135806	7.622216	2.7608361
9.484030369736251	7.63599	2.7633295
9.501617428240658	7.645511	2.7650518
9.519204711071852	7.731594	2.7805743
9.536792218652714	7.725466	2.779472
9.55437995140617	7.7527037	2.7843678
9.571967909755191	7.687255	2.77259
9.589556094122802	7.6068406	2.7580502
9.60714450493207	7.62425	2.7612045
9.624733142606116	7.633194	2.7628236
9.642322007568108	7.7817674	2.789582
9.659911100241267	7.903995	2.8114045
9.677500421048851	7.896058	2.8099926
9.695089970414175	7.884726	2.8079755
9.712679748760609	7.886756	2.808337
9.730269756511557	7.970269	2.8231666
9.747859994090492	8.060086	2.839029
9.765450461920915	8.096263	2.8453932
9.78304116042639	8.128519	2.8510559
9.800632090030527	8.131687	2.8516114
9.81822325115699	8.132296	2.851718
9.835814644229481	8.105737	2.8470576
9.853406269671762	8.11644	2.8489366
9.870998127907646	8.147326	2.8543522
9.888590219360985	8.181807	2.8603857
9.906182544455698	8.280854	2.8776474
9.923775103615734	8.34773	2.8892438
9.941367897265108	8.413056	2.900527
9.958960925827878	8.3493805	2.8895295
9.97655418972816	8.206324	2.8646681
9.994147689390106	8.05423	2.8379974
10.011741425237934	7.9928255	2.8271585
10.029335397695904	8.021502	2.8322256
10.04692960718833	8.137219	2.8525813
10.06452405413958	8.171079	2.8585098
10.082118738974064	8.1518755	2.855149
10.099713662116246	8.107842	2.8474274
10.117308823990651	8.14831	2.8545244
10.134904225021844	8.178133	2.8597436
10.152499865634445	8.153806	2.8554869
10.170095746253125	8.101461	2.8463066
10.18769186730261	8.0732565	2.8413477
10.205288229207675	7.998519	2.8281653
10.222884832393145	8.069346	2.8406596
10.2404816772839	8.066348	2.8401318
10.258078764304868	8.100137	2.8460739
10.275676093881035	8.037408	2.8350322
10.293273666437438	8.000967	2.828598
10.310871482399158	8.046693	2.8366692
10.32846954219134	8.123589	2.8501909
10.346067846239173	8.195849	2.8628395
10.363666394967908	8.135735	2.852321
10.38126518880283	8.080957	2.8427024
10.398864228169298	8.064768	2.8398535
10.416463513492713	8.023801	2.8326313
10.434063045198531	7.9794793	2.8247972
10.451662823712262	8.061664	2.8393068
10.469262849459467	8.192422	2.8622408
10.486863122865758	8.161578	2.8568475
10.504463644356806	8.033999	2.8344312
10.522064414358338	7.8787713	2.8069148
10.539665433296118	7.773934	2.7881775
10.557266701595987	7.749951	2.7838733
10.574868219683818	7.6826844	2.7717655
10.592469987985552	7.630421	2.7623217
10.610072006927185	7.6094894	2.7585304
10.627674276934751	7.5594387	2.7494433
10.64527679843435	7.40906	2.7219589
10.662879571852143	7.254442	2.693407
10.680482597614331	7.0110364	2.6478362
10.698085876147173	6.9082036	2.6283462
10.715689407876988	6.84142	2.6156108
10.733293193230146	6.7488084	2.597847
10.750897232633072	6.675774	2.583752
10.76850152651225	6.533941	2.5561574
10.786106075294207	6.483044	2.5461822
10.803710879405534	6.4568915	2.5410414
10.821315939272877	6.3611107	2.5221243
10.83892125532294	6.230888	2.4961746
10.856526827982472	6.131506	2.4761877
10.874132657678285	6.190708	2.4881134
10.891738744837243	6.170032	2.483955
10.909345089886271	6.1475096	2.479417
10.926951693252343	6.0024834	2.4499967
10.944558555362494	5.963756	2.4420803
10.96216567664381	5.90505	2.4300308
10.979773057523436	5.865381	2.4218547
10.997380698428573	5.862953	2.4213536
11.014988599786477	5.7724624	2.4025948
11.032596762024461	5.7045593	2.388422
11.050205185569892	5.5528774	2.3564544
11.067813870850198	5.518608	2.3491719
11.085422818292859	5.4636874	2.3374531
11.10303202832541	5.4419284	2.3327942
11.120641501375454	5.3550596	2.3141003
11.138251237870636	5.280604	2.2979565
11.155861238238671	5.2149334	2.283623
11.173471502907317	5.16279	2.2721772
11.191082032304402	5.152043	2.2698112
11.208692826857805	5.1333866	2.2656977
11.226303886995465	5.052005	2.2476666
11.243915213145371	5.0040827	2.2369807
11.261526805735578	4.9735217	2.2301395
11.279138665194196	4.9434214	2.2233806
11.296750791949393	4.8960214	2.2126956
11.314363186429393	4.7978096	2.1903903
11.331975849062479	4.7536387	2.180284
11.34958878027699	4.6695676	2.1609182
11.36720198050133	4.6177087	2.1488855
11.384815450163948	4.567905	2.1372657
11.402429189693366	4.490153	2.118998
11.420043199518153	4.4353757	2.106033
11.437657480066942	63.384758	7.9614544
11.455272031768422	85.16207	9.22833
11.472886855051353	107.57085	10.371636
11.490501950344528	99.12779	9.956294
11.508117318076819	84.438736	9.189055
11.52573295867715	45.81277	6.768513
11.543348872574514	4.1061845	2.0263722
11.560965060197946	4.052671	2.0131247
11.57858152197655	4.0057597	2.0014393
11.59619825833949	3.991155	1.9977875
11.613815269715985	3.9708033	1.9926875
11.631432556535323	38.50075	6.2048974
11.649050119226837	83.01947	9.111502
11.666667958219929	93.43267	9.666058
11.68428607394406	107.73146	10.379376
11.701904466828756	82.51297	9.083665
11.719523137303586	65.32103	8.082143
11.737142085798196	4.548799	2.1327913
11.754761312742286	3.6960368	1.922508
11.772380818565619	3.702237	1.9241197
11.790000603698015	3.612503	1.9006586
11.80762066856935	3.5724442	1.8900911
11.825241013609572	3.5218716	1.876665
11.842861639248683	3.51777	1.875572
11.860482545916748	3.4776933	1.8648574
11.878103734043883	3.5061898	1.8724823
11.895725204060282	3.4985456	1.87044
11.91334695639619	3.4383743	1.8542854
11.930968991481919	3.3990421	1.8436491
11.948591309747824	3.3709083	1.8360033
11.966213911624347	3.3083324	1.8188822
11.98383679754198	3.2277267	1.7965875
12.001459967931268	3.1692946	1.7802513
12.019083423222835	3.1890962	1.785804
12.036707163847352	3.191028	1.7863449
12.05433119023556	3.1540005	1.7759506
12.071955502818259	3.159314	1.7774459
12.089580102026313	3.1699684	1.7804404
12.107204988290643	3.156165	1.7765598
12.12483016204224	3.1111016	1.7638315
12.142455623712152	3.0541272	1.7476062
12.16008137373149	3.0695884	1.752024
12.177707412531431	3.0924597	1.7585391
12.19533374054321	3.0868719	1.7569495
12.212960358198126	3.0714092	1.7525437
12.230587265927545	3.0434988	1.7445626
12.248214464162889	3.034281	1.7419188
12.265841953335649	2.9902494	1.7292337
12.283469733877375	2.9767497	1.725326
12.301097806219685	3.0016842	1.7325369
12.31872617079425	2.9646986	1.72183
12.336354828032825	2.9534385	1.7185571
12.353983778367205	2.9022245	1.7035917
12.371613022229262	2.8944128	1.7012974
12.389242560050928	2.884083	1.6982589
12.406872392264201	2.8880677	1.6994315
12.424502519301143	2.913687	1.7069526
12.442132941593874	2.8786454	1.6966572
12.459763659574586	2.8657112	1.6928412
12.477394673675532	2.838925	1.6849109
12.49502598432903	2.8433416	1.6862211
12.51265759196746	2.8248737	1.6807361
12.530289497023267	2.7543123	1.659612
12.547921699928967	2.7648182	1.6627742
12.565554201117134	2.7868326	1.6693809
12.583187001020404	2.8146882	1.6777033
12.600820100071486	2.8079324	1.6756886
12.618453498703152	2.8152456	1.6778693
12.636087197348235	2.8189955	1.6789864
12.65372119643964	2.8164134	1.6782173
12.671355496410326	2.806194	1.6751698
12.68899009769333	2.797917	1.6726975
12.706625000721749	2.831022	1.6825641
12.724260205928752	2.9160635	1.7076485
12.741895713747551	2.9550824	1.7190353
12.759531524611454	2.9666526	1.7223973
12.777167638953818	2.9053679	1.7045139
12.794804057208072	2.896398	1.7018807
12.812440779807702	2.9479637	1.7169635
12.830077807186271	3.1168673	1.7654651
12.847715139777405	3.1497664	1.7747581
12.865352778014795	3.3109212	1.8195937
12.882990722332197	3.4344368	1.8532233
12.90062897316344	3.5348222	1.8801123
12.918267530942412	3.666697	1.9148622
12.935906396103071	3.571964	1.889964
12.953545569079449	3.7340064	1.9323578
12.971185050305628	3.5364406	1.8805426
12.988824840215775	3.5555837	1.8856256
13.006464939244115	3.5627964	1.8875371
13.024105347824943	3.396089	1.8428481
13.041746066392617	3.450506	1.8575537
13.05938709538157	3.2804546	1.8112025
13.077028435226296	3.323343	1.8230039
13.094670086361363	3.2502558	1.8028466
13.112312049221401	3.1712205	1.7807921
13.129954324241112	3.0516076	1.7468851
13.147596911855258	2.8503804	1.6883069
13.165239812498685	2.8562498	1.6900443
13.182883026606293	2.8414538	1.6856612
13.200526554613058	2.8060932	1.6751398
13.218170396954017	2.71072	1.6464264
13.235814554064284	2.6210117	1.618954
13.253459026379034	2.635113	1.623303
13.271103814333523	2.6255744	1.6203624
13.288748918363058	2.6426733	1.6256301
13.306394338903031	2.6079557	1.6149166
13.32404007638889	2.6264307	1.6206267
13.341686131256164	2.6528823	1.6287671
13.359332503940449	2.6598597	1.6309077
13.376979194877402	2.6484323	1.6274005
13.394626204502751	2.6742842	1.6353239
13.412273533252307	2.6708162	1.6342632
13.429921181561937	2.6867013	1.639116
13.447569149867581	2.7156193	1.6479136
13.465217438605247	2.7184315	1.6487666
13.482866048211022	2.682403	1.6378044
13.500514979121052	2.661353	1.6313654
13.518164231771568	2.5945733	1.610768
13.535813806598844	2.5974474	1.6116599
13.553463704039254	2.60391	1.6136636
13.571113924529229	2.6523366	1.6285995
13.588764468505275	2.6840088	1.6382945
13.606415336403956	2.7094624	1.6460445
13.624066528661917	2.7182715	1.6487181
13.641718045715882	2.788409	1.669853
13.659369888002635	2.892707	1.700796
13.67702205595903	2.92564	1.7104503
13.694674550021993	2.9748745	1.7247825
13.712327370628532	2.9947777	1.7305425
13.729980518215713	3.0935905	1.7588606
13.747633993220681	3.1363387	1.7709712
13.765287796080647	3.1789348	1.7829567
13.7829419272329	3.216913	1.7935755
13.800596387114801	3.2044418	1.7900954
13.818251176163775	3.2454054	1.8015009
13.835906294817324	3.3350024	1.8261989
13.853561743513023	3.4145617	1.8478533
13.871217522688525	3.4773996	1.8647786
13.888873632781538	3.4846632	1.8667253
13.906530074229858	3.4804926	1.8656079
13.92418684747135	3.4440708	1.8558208
13.941843952943948	3.4226623	1.8500439
13.959501391085665	3.4079454	1.8460622
13.977159162334578	3.3546226	1.8315629
13.994817267128846	3.3386385	1.8271942
14.012475705906693	3.2535694	1.8037653
14.030134479106424	3.1805284	1.7834036
14.047793587166414	3.0915234	1.7582729
14.065453030525108	3.0807357	1.7552024
14.083112809621026	3.0659666	1.7509902
14.100772924892766	3.0017397	1.732553
14.118433376778997	2.950845	1.7178024
14.136094165718458	2.8439543	1.6864028
14.153755292149969	2.7819545	1.6679193
14.171416756512416	2.6861174	1.638938
14.189078559244768	2.6109219	1.6158347
14.20674070078606	2.5654125	1.6016905
14.224403181575408	2.5055723	1.5828999
14.242066002051999	2.4495316	1.5650979
14.259729162655093	2.4532695	1.5662917
14.277392663824022	2.4127991	1.5533187
14.295056505998208	2.381021	1.5430558
14.312720689617128	2.358696	1.5358046
14.330385215120348	2.37594	1.5414084
14.348050082947497	2.3891585	1.5456903
14.3657152935383	2.335498	1.5282336
14.383380847332528	2.3121488	1.5205752
14.401046744770051	2.336189	1.5284597
14.418712986290798	2.3565493	1.5351056
14.436379572334793	2.3931313	1.5469749
14.454046503342123	2.3688862	1.5391186
14.471713779752946	2.3808053	1.5429858
14.489381402007504	2.3869486	1.5449753
14.507049370546113	2.3526037	1.5338199
14.524717685809168	2.3669815	1.5384997
14.542386348237134	2.373507	1.540619
14.560055358270553	2.4128776	1.553344
14.577724716350051	2.4761877	1.5735908
14.595394422916325	2.4760857	1.5735583
14.61306447841015	2.485535	1.5765579
14.63073488327237	2.453898	1.5664922
14.648405637943917	2.4594617	1.5682671
14.6660767428658	2.4571438	1.5675279
14.683748198479094	2.4646628	1.5699245
14.701420005224954	2.499777	1.5810683
14.719092163544628	2.605851	1.6142648
14.73676467387942	2.708288	1.6456877
14.754437536670727	2.7436676	1.656402
14.772110752360014	2.697856	1.6425152
14.78978432138882	2.6773603	1.6362641
14.807458244198777	2.6783977	1.6365811
14.82513252123159	2.6768563	1.6361101
14.842807152929028	2.6577804	1.63027
14.860482139732962	2.6212506	1.6190277
14.87815748208531	2.592244	1.6100447
14.8958331804281	2.5945065	1.6107472
14.91350923520342	2.596405	1.6113365
14.931185646853438	2.597942	1.6118133
14.948862415820408	2.6048963	1.6139691
14.966539542546656	2.6428604	1.6256877
14.98421702747459	2.6267083	1.6207123
15.001894871046696	2.6679804	1.6333953
15.019573073705542	2.6521297	1.628536
15.037251635893766	2.6594908	1.6307945
15.054930558054092	2.6208835	1.6189142
15.072609840629323	2.6361794	1.6236316
15.090289484062351	2.7236447	1.6503469
15.107969488796124	2.8679125	1.6934912
15.125649855273691	3.0855365	1.7565695
15.14333058393817	3.4519114	1.8579321
15.161011675232768	4.006732	2.0016823
15.17869312960076	4.6516733	2.1567738
15.196374947485506	5.356854	2.314488
15.214057129330447	6.714613	2.591257
15.231739675579114	8.883541	2.980527
15.249422586675102	13.400759	3.6607046
15.267105863062092	17.904573	4.2313795
15.284789505183847	25.07251	5.0072455
15.302473513484218	30.024954	5.479503
15.320157888407127	34.357777	5.861551
15.337842630396578	33.386597	5.7781134
15.355527739896656	30.583988	5.530279
15.37321321735153	23.792843	4.877791
15.39089906320545	16.146225	4.0182366
15.408585277902748	10.351348	3.217351
15.42627186188783	6.453635	2.5404005
15.443958815605198	4.6874804	2.165059
15.461646139499424	3.8398151	1.9595447
15.479333834015168	3.3701017	1.8357837
15.497021899597165	3.028018	1.74012
15.514710336690234	2.8333108	1.6832441
15.53239914573928	2.6880662	1.6395323
15.550088327189297	2.6262443	1.6205691
15.567777881485336	2.560946	1.6002955
15.58546780907256	2.545164	1.5953571
15.6031581103962	2.53747	1.5929439
15.620848785901568	2.5330422	1.5915533
15.638539836034063	2.5133913	1.5853679
15.656231261239173	2.4882724	1.5774258
15.673923061962451	2.4807336	1.5750345
15.691615238649552	2.4829614	1.5757415
15.709307791746202	2.4716914	1.5721613
15.727000721698221	2.473764	1.5728204
15.744694028951498	2.4415588	1.5625489
15.76238771395202	2.4139526	1.55369
15.780081777145844	2.4136477	1.5535918
15.797776218979125	2.4050727	1.5508296
15.815471039898094	2.4352088	1.5605155
15.833166240349064	2.4440923	1.5633593
15.850861820778437	2.4550252	1.566852
15.868557781632699	2.430852	1.559119
15.886254123358412	2.427792	1.5581374
15.903950846402232	2.4802995	1.5748967
15.921647951210897	2.482781	1.5756843
15.939345438231225	2.4866319	1.5769058
15.957043307910133	2.4539626	1.5665128
15.974741560694602	2.506201	1.5830985
15.992440197031714	2.5415888	1.5942361
16.01013921736862	2.4996612	1.5810317
16.02783862215259	2.4656513	1.5702392
16.045538411830933	2.4581912	1.5678619
16.06323858685107	2.4824336	1.575574
16.080939147660512	2.4879594	1.5773267
16.09864009470684	2.4687166	1.571215
16.11634142843774	2.4324598	1.5596346
16.134043149300954	2.4163203	1.5544518
16.15174525774433	2.4034297	1.5502999
16.169447754215817	2.3977098	1.548454
16.18715063916342	2.3866708	1.5448854
16.204853913035244	2.4074774	1.5516047
16.222557576279478	2.4213917	1.5560821
16.240261629344403	22.404703	4.733361
16.257966072678386	42.953907	6.553923
16.275670906729868	38.04426	6.1680026
16.293376131947387	2.4371068	1.5611236
16.31108174877957	2.4465253	1.5641372
16.328787757675133	2.5377352	1.5930271
16.34649415908287	2.609686	1.6154522
16.364200953451657	2.6351156	1.6233039
16.38190814123048	2.5948205	1.6108446
16.39961572286839	2.604871	1.6139613
16.41732369881455	2.6766114	1.6360353
16.43503206951817	2.72025	1.649318
16.45274083542859	2.749416	1.6581364
16.47044999699522	2.7895422	1.6701922
16.488159554667558	2.8602936	1.6912403
16.505869508895184	2.909829	1.7058221
16.523579860127786	2.982816	1.7270831
16.541290608815117	3.0225143	1.738538
16.559001755407035	3.0998993	1.7606531
16.57671330035348	3.1697876	1.7803898
16.59442524410448	3.291763	1.8143216
16.61213758711015	3.4650803	1.8614726
16.629850329820705	3.5686228	1.8890799
16.647563472686436	3.599079	1.8971238
16.665277016157724	3.5311995	1.8791486
16.682990960685053	3.4924712	1.8688154
16.70070530671898	3.45124	1.8577514
16.718420054710155	3.4718447	1.8632886
16.736135205109335	3.552067	1.8846928
16.753850758367335	3.5855932	1.8935663
16.771566714935087	3.5745544	1.8906492
16.789283075263597	3.6290758	1.9050133
16.80699983980398	3.6893327	1.9207636
16.82471700900741	3.8227155	1.9551766
16.84243458332518	3.9309597	1.9826648
16.860152563208665	4.014075	2.0035157
16.87787094910932	4.0689244	2.0171576
16.89558974147871	4.116848	2.0290017
16.913308940768466	4.1705203	2.042185
16.931028547430333	4.2008247	2.0495913
16.94874856191613	4.243288	2.0599244
16.966468984677785	4.305033	2.0748575
16.98418981616729	4.303325	2.0744457
17.00191105683676	4.367084	2.089757
17.019632707138374	4.408519	2.0996473
17.03735476752442	4.5370464	2.1300344
17.05507723844728	4.6034646	2.1455686
17.072800120359403	4.641689	2.1544578
17.090523413713353	4.5819054	2.1405385
17.108247118961785	4.573268	2.13852
17.125971236557437	4.5948687	2.1435645
17.143695766953133	4.666631	2.1602387
17.161420710601806	4.6447477	2.1551676
17.179146067956477	4.640409	2.1541607
17.19687183947025	4.6641965	2.1596751
17.21459802559634	4.692172	2.1661422
17.232324626788028	4.6393666	2.153919
17.25005164349871	4.5738516	2.1386564
17.267779076181863	4.5527973	2.1337285
17.285506925291074	4.539719	2.1306617
17.30323519127999	4.535935	2.1297734
17.320963874602384	4.501735	2.1217294
17.33869297571211	4.527658	2.1278293
17.356422495063114	4.55954	2.1353078
17.37415243310944	4.562388	2.1359746
17.391882790305218	4.502398	2.1218855
17.40961356710468	4.4983644	2.1209347
17.42734476396215	4.515605	2.1249952
17.445076381332044	4.590979	2.142657
17.462808419668868	4.63255	2.152336
17.48054087942723	4.702605	2.168549
17.498273761061835	4.827674	2.1971967
17.51600706502747	5.1734915	2.2745311
17.533740791779024	5.755652	2.3990939
17.551474941771485	6.642023	2.5772123
17.56920951545993	8.616209	2.935338
17.586944513299528	9.899374	3.146327
17.60467993574556	12.881083	3.5890224
17.622415783253373	15.56628	3.9454126
17.64015205627843	18.369503	4.285966
17.657888755276293	20.696606	4.549352
17.675625880702604	22.29383	4.7216344
17.69336343301311	20.81068	4.5618725
17.71110141266366	18.561691	4.308328
17.728839820110178	15.709562	3.963529
17.746578655808705	12.497796	3.5352223
17.764317920215372	10.318495	3.2122414
17.7820576137864	8.631876	2.9380054
17.79979773697811	7.3025	2.702314
17.81753829024692	6.0210013	2.4537728
17.835279274049356	5.215538	2.2837553
17.85302068884201	4.472079	2.114729
17.870762535081607	4.040307	2.0100515
17.888504813224934	3.7768118	1.9434022
17.90624752372891	3.6172702	1.9019122
17.923990667050536	3.5368464	1.8806505
17.941734243646895	3.4758015	1.8643502
17.959478253975185	3.4494863	1.8572793
17.9772226984927	3.4072444	1.8458723
17.994967577656833	3.4035754	1.8448782
18.01271289192506	3.3873544	1.8404766
18.030458641754965	3.3749254	1.837097
18.04820482760425	3.347145	1.8295205
18.06595144993067	3.2913718	1.8142139
18.083698509192125	3.2233045	1.7953564
18.101446005846576	3.1683433	1.7799841
18.119193940352105	3.1500077	1.7748262
18.136942313166887	3.1599984	1.7776384
18.1546911247492	3.1495535	1.7746981
18.1724403755574	3.1335366	1.7701799
18.19019006604997	3.090388	1.75795
18.207940196685467	3.110169	1.7635671
18.225690767922575	3.0813694	1.755383
18.243441780220046	3.0716476	1.7526116
18.261193234036764	3.0717146	1.7526308
18.278945129831676	3.0836923	1.7560445
18.29669746806386	3.0722358	1.7527795
18.314450249192483	3.0356421	1.7423095
18.3322034736768	2.9860618	1.7280225
18.349957141976184	2.9747002	1.7247319
18.3677112545501	2.9294233	1.7115558
18.385465811858108	2.9336214	1.7127818
18.403220814359884	2.9679244	1.7227665
18.420976262515172	3.0457287	1.7452016
18.43873215678387	3.086434	1.756825
18.456488497625923	3.1137028	1.7645687
18.474245285501407	3.157952	1.7770628
18.492002520870486	3.2240226	1.7955563
18.50976020419343	3.3313463	1.8251976
18.527518335930615	3.6797745	1.9182738
18.545276916542516	4.2310762	2.056958
18.563035946489688	4.3843555	2.0938852
18.580795426232832	4.790584	2.1887403
18.598555356232698	4.703955	2.1688604
18.616315736950185	4.9664817	2.2285604
18.63407656884626	4.623332	2.1501935
18.65183785238201	4.768052	2.183587
18.669599588018617	4.554693	2.1341727
18.68736177621737	4.574901	2.138902
18.705124417439652	4.6281586	2.1513155
18.72288751214696	4.459113	2.1116612
18.740651060800886	4.5361366	2.1298208
18.758415063863115	4.181585	2.0448923
18.77617952179546	4.348166	2.0852256
18.793944435059814	4.174802	2.0432332
18.811709804118184	4.2412925	2.05944
18.829475629432675	4.191977	2.0474317
18.8472419114655	3.9422603	1.9855126
18.86500865067897	3.960434	1.9900839
18.88277584753551	3.6825588	1.9189994
18.90054350249763	3.7248638	1.9299906
18.918311616027957	3.4363663	1.8537439
18.936080188589226	3.2972674	1.815838
18.953849220644265	2.9738376	1.7244818
18.971618712656007	2.7861278	1.6691698
18.9893886650875	2.733211	1.6532426
19.007159078401887	7.9233303	2.814841
19.024929953062408	32.84251	5.7308383
19.042701289532435	32.807648	5.727796
19.060473088275405	25.360361	5.0359073
19.07824534975489	2.634916	1.6232425
19.096018074434568	2.6128516	1.6164317
19.113791262778197	2.575909	1.6049638
19.13156491524966	2.5598357	1.5999486
19.149339032312945	2.5377944	1.5930456
19.167113614432136	2.5578797	1.5993372
19.184888662071433	2.5206158	1.5876447
19.202664175695123	2.5205314	1.5876181
19.220440155767623	2.506732	1.5832663
19.238216602753447	2.5072854	1.583441
19.2559935171172	2.5244915	1.5888648
19.27377089932361	2.526627	1.5895368
19.291548749837514	2.5241017	1.5887421
19.309327069123835	2.5017564	1.5816941
19.32710585764763	2.4779847	1.5741615
19.344885115874032	2.4793725	1.5746024
19.362664844268313	2.4522583	1.5659689
19.380445043295822	2.4275818	1.55807
19.39822571342203	2.4769588	1.5738357
19.41600685511252	2.5085561	1.5838422
19.43378846883297	2.5335217	1.591704
19.451570555049173	2.5278063	1.5899076
19.469353114227037	2.5254471	1.5891656
19.48713614683254	2.5097053	1.5842049
19.50491965333182	2.475185	1.573272
19.52270363419109	2.4396887	1.5619503
19.540488089876686	2.411762	1.5529848
19.55827302085503	2.432775	1.5597355
19.576058427592674	2.4396174	1.5619274
19.593844310556282	2.4444628	1.5634778
19.611630670212598	2.4667149	1.5705779
19.629417507028506	2.4996076	1.5810148
19.64720482147098	2.5190234	1.5871432
19.6649926140071	2.485717	1.5766157
19.682780885104084	2.47904	1.5744967
19.70056963522921	2.480127	1.574842
19.718358864849908	2.4889035	1.5776259
19.7361485744337	2.5027912	1.5820212
19.753938764448215	2.5018287	1.581717
19.771729435361202	2.500826	1.5813999
19.789520587640506	2.4983408	1.5806141
19.807312221754092	2.5156407	1.5860771
19.825104338170043	2.5150757	1.585899
19.842896937356517	2.5256193	1.5892197
19.860690019781824	2.5176933	1.586724
19.87848358591436	2.4905546	1.5781491
19.896277636222635	2.4980478	1.5805213
19.914072171175278	2.5055754	1.582901
19.931867191241015	2.5202549	1.5875311
19.94966269688869	2.502864	1.5820442
19.967458688587264	2.475246	1.5732914
19.985255166805807	2.4903183	1.5780742
20.00305213201348	2.4670317	1.5706787
20.020849584679578	2.4332705	1.5598943
20.038647525273507	2.4271348	1.5579264
20.05644595426477	2.423524	1.5567671
20.07424487212299	2.4228003	1.5565348
20.092044279317903	2.4014544	1.5496627
20.109844176319353	2.4261804	1.55762
20.127644563597304	2.4079878	1.5517693
20.145445441621817	2.4236226	1.5567988
20.16324681086307	2.4379768	1.5614022
20.181048671791373	2.4271727	1.5579386
20.198851024877122	2.3768547	1.5417051
20.216653870590836	2.34846	1.5324686
20.234457209403146	2.3489337	1.5326232
20.252261041784802	2.3650234	1.5378633
20.270065368206662	2.3661394	1.538226
20.287870189139685	2.354592	1.534468
20.305675505054968	2.3188303	1.5227706
20.323481316423702	2.312393	1.5206554
20.341287623717207	2.3123496	1.5206412
20.359094427406884	2.2979338	1.5158937
20.376901727964288	2.2984436	1.5160619
20.39470952586107	2.3096223	1.5197442
20.41251782156899	2.3443587	1.5311298
20.430326615559935	2.3711972	1.5398692
20.448135908305886	2.371593	1.5399977
20.465945700278965	2.3561804	1.5349854
20.483755991951384	2.323298	1.5242368
20.50156678379548	2.3098307	1.5198127
20.519378076283708	2.3123755	1.5206497
20.537189869888635	2.33171	1.5269939
20.55500216508294	2.3362536	1.5284809
20.572814962339415	2.310053	1.5198859
20.59062826213098	2.2853935	1.5117518
20.60844206493066	2.306334	1.518662
20.626256371211593	2.3355043	1.5282357
20.644071181447032	2.3533657	1.5340683
20.66188649611036	2.35221	1.5336916
20.67970231567506	2.3434987	1.530849
20.697518640614742	2.3508894	1.5332611
20.715335471403122	2.3377194	1.5289602
20.73315280851404	2.3206954	1.5233829
20.750970652421447	2.3233523	1.5242547
20.768789003599412	2.3350067	1.5280728
20.786607862522136	2.300617	1.5167785
20.8044272296639	2.2869813	1.5122769
20.82224710549913	2.257322	1.5024387
20.84006749050237	2.2443666	1.498121
20.857888385148268	3.800188	1.9494071
20.8757097899116	45.900284	6.774975
20.893531705267254	64.78362	8.048827
20.911354131690224	83.7997	9.154218
20.92917706965566	69.075294	8.311154
20.94700051963877	50.13705	7.080752
20.96482448211493	29.401297	5.422296
20.982648957559622	4.126548	2.0313907
21.00047394644843	2.2161214	1.4886643
21.01829944925707	2.1934154	1.4810184
21.036125466461375	2.1898448	1.4798124
21.053951998537297	2.1935961	1.4810793
21.071779045960906	2.2074308	1.4857426
21.089606609208378	2.1909084	1.4801718
21.10743468875603	2.2045758	1.4847814
21.12526328508028	2.2157166	1.4885284
21.143092398657675	2.2358081	1.4952619
21.16092202996488	2.2306569	1.4935384
21.17875217947867	2.2222779	1.4907306
21.19658284767596	2.2053044	1.4850267
21.21441403503377	2.2062433	1.4853429
21.232245742029225	2.174342	1.474565
21.2500779691396	2.1594825	1.4695178
21.26791071684227	2.125793	1.45801
21.28574398561475	2.1199985	1.4560214
21.30357777593465	2.1365838	1.4617058
21.321412088279704	2.1350698	1.4611878
21.339246923127792	2.1322339	1.460217
21.357082280956888	2.1098795	1.4525424
21.3749181622451	2.112734	1.4535247
21.392754567470647	2.139998	1.4628732
21.41059149711187	2.1470072	1.465267
21.42842895164726	2.133778	1.4607457
21.446266931555378	2.092316	1.446484
21.464105437314945	2.110518	1.4527622
21.481944469404798	2.0856938	1.4441931
21.49978402830388	2.1129186	1.4535881
21.51762411449127	2.1102836	1.4526815
21.53546472844617	2.1109197	1.4529004
21.553305870647876	2.0754898	1.4406561
21.571147541575865	2.0680416	1.4380687
21.58898974170967	2.0547783	1.4334497
21.60683247152899	2.0346675	1.4264177
21.62467573151363	2.0251985	1.4230946
21.642519522143523	2.0390368	1.4279485
21.660363843898722	2.0618858	1.4359268
21.6782086972594	2.074543	1.4403274
21.696054082705864	2.0652218	1.437088
21.713900000718535	2.0483797	1.4312161
21.73174645177795	2.0191836	1.4209799
21.749593436364794	2.0255506	1.4232184
21.767440954959845	2.041023	1.4286438
21.785289008044032	2.0356364	1.4267573
21.803137596098388	2.003402	1.4154159
21.820986719604086	2.0054576	1.4161419
21.838836379042412	1.9990772	1.4138873
21.85668657489478	1.9934962	1.4119122
21.87453730764273	1.9745885	1.4052005
21.892388577767914	1.9776506	1.4062897
21.91024038575213	2.0172303	1.4202924
21.928092732077285	2.0321622	1.4255393
21.945945617225426	2.0434923	1.4295077
21.963799041678694	2.0247352	1.4229319
21.981653005919398	31.306171	5.595192
21.999507510429943	78.07912	8.836239
22.01736255569286	73.02928	8.545717
22.035218142190818	4.119412	2.0296335
22.05307427040661	1.9525958	1.3973532
22.07093094082315	1.9557911	1.398496
22.088788153923474	1.9811977	1.4075502
22.106645910190746	1.9543357	1.3979756
22.12450421010827	1.925148	1.3874971
22.142363054159464	1.946083	1.3950207
22.16022244282787	1.9801707	1.4071854
22.178082376597164	1.9527738	1.3974168
22.195942855951145	1.9958401	1.412742
22.213803881373742	2.004326	1.4157423
22.231665453349002	1.9947977	1.4123731
22.24952757236111	1.9605547	1.4001981
22.26739023889438	1.9680123	1.4028586
22.28525345343323	1.9773271	1.4061747
22.30311721646225	1.9634266	1.4012233
22.320981528466113	1.959561	1.3998432
22.33884638992964	1.9465905	1.3952026
22.356711801337788	1.9104999	1.3822083
22.37457776317561	1.9092469	1.381755
22.392444275928337	1.9145603	1.3836764
22.410311340081282	1.9239253	1.3870564
22.428178956119904	1.9052953	1.3803244
22.446047124529805	1.90033	1.3785245
22.46391584579669	1.9172739	1.3846565
22.481785120406414	1.9217325	1.3862656
22.49965494884496	1.938944	1.3924596
22.51752533159841	1.9811687	1.40754
22.53539626915302	2.0266128	1.4235915
22.553267761995137	2.0254545	1.4231846
22.571139810611264	1.9803904	1.4072634
22.589012415488025	1.9585545	1.3994837
22.60688557711216	1.9644506	1.4015886
22.624759295970566	1.9756548	1.4055799
22.642633572550263	1.9846977	1.408793
22.660508407338362	1.9786032	1.4066284
22.67838380082217	1.9925653	1.4115826
22.696259753489077	1.9883271	1.4100806
22.714136265826614	1.9808261	1.4074183
22.73201333832246	1.944871	1.3945863
22.74989097146439	1.9076507	1.3811773
22.76776916574035	1.8804814	1.3713064
22.785647921638393	1.8709186	1.3678153
22.803527239646712	1.8751698	1.3693684
22.82140712025363	1.8877947	1.3739704
22.839287563947593	1.9094436	1.3818262
22.85716857121719	1.9269991	1.3881639
22.875050142551135	1.9326355	1.3901926
22.892932278438277	1.9335783	1.3905317
22.910814979367604	1.947103	1.3953863
22.928698245828222	1.9653887	1.4019232
22.946582078309387	1.9451247	1.3946773
22.96446647730047	1.9204749	1.385812
22.98235144329098	1.8931549	1.3759197
23.000236976770562	1.9092942	1.3817722
23.018123078229	1.915813	1.3841289
23.03600974815619	1.9301628	1.389303
23.053896987042194	1.915275	1.3839346
23.071784795377173	1.8938875	1.3761859
23.08967317365145	1.8551201	1.3620279
23.10756212235546	1.8623537	1.3646808
23.125451641979787	1.9041417	1.3799064
23.143341733015134	1.9371749	1.3918244
23.161232395952357	1.9721688	1.4043393
23.179123631282426	1.9663031	1.4022493
23.197015439496468	1.9396776	1.3927231
23.214907821085717	1.9038875	1.3798143
23.23280077654157	1.9268265	1.3881017
23.250694306355538	1.9285481	1.3887217
23.268588411019277	1.915318	1.3839501
23.28648309102458	1.918422	1.3850712
23.304378346863356	1.9479582	1.3956927
23.322274179027676	1.9531442	1.3975494
23.340170588009723	1.9150143	1.3838404
23.358067574301852	1.9001374	1.3784547
23.37596513839651	1.9369054	1.3917274
23.39386328078629	1.9839963	1.4085441
23.411762001963947	1.969864	1.4035184
23.429661302422353	1.9003694	1.3785388
23.4475611826545	1.8897465	1.3746805
23.46546164315356	1.9338689	1.3906361
23.48336268441279	1.9318109	1.389896
23.501264306925638	1.9349569	1.3910273
23.51916651118564	1.9346808	1.390928
23.537069297686497	1.9159876	1.384192
23.554972666922037	1.9113001	1.3824978
23.57287661938623	1.9034197	1.3796448
23.59078115557318	1.9210387	1.3860154
23.608686275977128	1.9327033	1.390217
23.62659198109246	1.9189742	1.3852705
23.6444982714137	1.8732597	1.3686708
23.66240514743549	1.840039	1.3564804
23.68031260965263	1.8788507	1.3707118
23.698220658560068	1.9461718	1.3950526
23.716129294652845	1.9700154	1.4035723
23.7340385184262	1.9615109	1.4005395
23.75194833037546	1.9528782	1.3974541
23.769858730996123	1.9331316	1.390371
23.78776972078382	1.9245621	1.3872858
23.80568130023431	1.906666	1.3808208
23.823593469843495	1.9317707	1.3898815
23.841506230107424	1.909179	1.3817304
23.859419581522275	1.9005455	1.3786027
23.87733352458438	1.8806827	1.3713799
23.89524805979019	1.9175884	1.3847702
23.913163187636318	1.939989	1.3928349
23.931078908619508	1.9856709	1.4091383
23.948995223236633	2.0177755	1.4204843
23.966912131984735	2.0409834	1.4286299
23.98482963536096	2.0543842	1.4333123
24.002747733862616	2.02901	1.4244332
24.020666427987155	2.0026252	1.4151415
24.038585718232156	2.0193777	1.421048
24.056505605095353	2.0507355	1.4320389
24.074426089074617	2.0701785	1.4388115
24.092347170667946	2.0771296	1.441225
24.110268850373515	2.040371	1.4284155
24.128191128689586	2.054621	1.4333949
24.146114006114626	1.993118	1.4117783
24.164037483147187	1.9882473	1.4100522
24.181961560286005	2.0357792	1.4268074
24.199886238029926	2.0526388	1.4327033
24.21781151687797	2.0258944	1.4233391
24.235737397329274	2.016035	1.4198714
24.253663879883135	2.0481653	1.4311413
24.271590965038975	2.034263	1.4262758
24.289518653296376	1.9937673	1.4120083
24.30744694515505	1.9875212	1.4097947
24.32537584111486	1.9856141	1.4091182
24.34330534167581	2.0322635	1.4255748
24.361235447338046	2.083114	1.4432997
24.379166158601876	2.080444	1.4423745
24.39709747596772	2.0685024	1.438229
24.41502939993615	2.0442715	1.4297802
24.432961931007917	2.0133684	1.4189321
24.450895069683856	1.9887127	1.4102173
24.468828816465	1.9747336	1.4052521
24.4867631718525	1.9754822	1.4055185
24.504698136347656	1.9494159	1.3962148
24.52263371045192	1.9110843	1.3824197
24.540569894666874	1.8972045	1.3773905
24.558506689494266	1.9185026	1.3851002
24.57644409543597	1.927545	1.3883605
24.594382112994012	1.9049507	1.3801996
24.61232074267057	1.9220843	1.3863926
24.630259984967953	1.9275037	1.3883457
24.64819984038863	1.949924	1.3963968
24.66614030943522	1.9461884	1.3950586
24.684081392610462	1.9501832	1.3964896
24.702023090417274	1.9948258	1.4123831
24.7199654033587	2.0171356	1.420259
24.737908331937927	2.027669	1.4239624
24.755851876658305	2.0246406	1.4228987
24.773796038023324	2.032026	1.4254916
24.79174081653661	2.0517797	1.4324034
24.809686212701962	2.0613306	1.4357334
24.827632227023294	2.0714145	1.4392409
24.8455788600047	2.061475	1.4357837
24.8635261121504	2.0640807	1.4366909
24.88147398396475	2.073097	1.4398253
24.899422475952303	2.078542	1.441715
24.917371588617698	2.1208243	1.456305
24.935321322465768	2.1924958	1.4807079
24.953271678001478	2.2672806	1.5057492
24.97122265572994	2.4768934	1.5738149
24.989174256156414	2.8661373	1.692967
25.00712647978632	3.44404	1.8558125
25.02507932712521	4.410914	2.1002176
25.043032798678798	5.9719315	2.4437535
25.060986894952933	7.6620083	2.7680333
25.078941616453637	9.109968	3.0182724
25.096896963687055	9.966485	3.156974
25.114852937159508	10.620004	3.2588346
25.132809537377444	10.398782	3.2247143
25.150766764847468	9.720284	3.117737
25.168724620076347	8.410765	2.900132
25.186683103570985	7.2269855	2.6883054
25.204642215838426	5.8364735	2.4158795
25.222601957385894	4.6763926	2.1624968
25.24056232872074	3.5710325	1.8897176
25.25852333035048	2.818742	1.678911
25.276484962782778	2.4142907	1.5537988
25.294447226525435	2.227323	1.4924219
25.312410122086423	2.120292	1.4561223
25.330373649973843	2.0234456	1.4224787
25.348337810695988	1.9704548	1.4037288
25.366302604761245	1.9076464	1.3811758
25.384268032678207	1.8949765	1.3765814
25.40223409495558	1.9207382	1.385907
25.420200792102257	1.9436107	1.3941344
25.438168124627246	1.9462166	1.3950686
25.45613609303974	1.924052	1.387102
25.474104697849057	1.9167007	1.3844496
25.492073939564698	1.9427367	1.3938209
25.510043818696285	1.952603	1.3973557
25.528014335753614	1.8915871	1.3753499
25.54598549124664	1.8455818	1.3585219
25.56395728568544	1.8130277	1.3464872
25.58192971958028	1.8439734	1.3579298
25.59990279344156	1.8888417	1.3743514
25.617876507779833	1.8911929	1.3752065
25.635850863105826	1.8811452	1.3715485
25.653825859930386	1.8871843	1.3737483
25.671801498764548	1.8391567	1.3561552
25.68977778011949	1.7721741	1.3312303
25.707754704506524	1.8469207	1.3590146
25.725732272437153	1.9059148	1.3805487
25.743710484423012	1.872998	1.3685752
25.761689340975888	1.8349303	1.354596
25.77966884260774	1.8011292	1.3420615
25.797648989830662	1.8341057	1.3542916
25.815629783156922	1.8343912	1.354397
25.83361122309895	1.8475965	1.3592632
25.85159331016929	1.8321965	1.3535866
25.869576044880695	1.8206583	1.3493177
25.887559427746034	1.8626716	1.3647972
25.90554345927836	1.9075367	1.3811361
25.92352813999086	1.8854538	1.3731183
25.94151347039689	1.865007	1.3656526
25.959499451009965	1.8634886	1.3650966
25.97748608234374	1.8765965	1.3698893
25.995473364912062	1.857035	1.3627307
26.013461299228904	1.8652755	1.3657509
26.03144988580839	1.8932859	1.3759673
26.04943912516483	1.8581635	1.3631448
26.067429017812675	1.8168756	1.3479153
26.085419564266537	1.8135909	1.3466963
26.103410765041186	1.8571246	1.3627635
26.12140262065155	1.8406261	1.3566967
26.139395131612723	1.8757573	1.3695829
26.157388298439948	1.8851078	1.3729923
26.17538212164861	1.879229	1.3708497
26.193376601754295	1.8127027	1.3463664
26.211371739272714	1.7691404	1.3300904
26.229367534719746	1.7602361	1.326739
26.247363988611433	1.7581589	1.3259559
26.26536110146397	1.8269454	1.3516455
26.283358873793727	1.8330283	1.3538938
26.301357306117204	1.7933547	1.339162
26.319356398951104	1.7815878	1.3347614
26.33735615281224	1.7978387	1.3408351
26.35535656821762	1.8165245	1.347785
26.373357645684404	1.8351212	1.3546665
26.39135938572991	1.8072829	1.3443522
26.409361788871614	1.7734517	1.3317101
26.427364855627165	1.7627126	1.3276719
26.445368586514352	1.7771165	1.3330853
26.46337298205115	1.8179715	1.3483217
26.48137804275568	1.8200798	1.3491033
26.499383769146217	1.7958956	1.3401103
26.517390161741215	1.788709	1.3374263
26.53539722105928	1.7446222	1.3208414
26.553404947619182	1.7776208	1.3332745
26.571413341939856	1.8083022	1.3447312
26.589422404540397	1.8501189	1.3601907
26.60743213594006	1.8567215	1.3626157
26.62544253665827	1.8225496	1.3500184
26.64345360721459	1.8065351	1.3440741
26.66146534812879	1.7886578	1.3374071
26.679477759920758	1.8056332	1.3437386
26.69749084311057	1.8237958	1.3504798
26.71550459821847	1.8435241	1.3577644
26.733519025764842	1.8257196	1.3511919
26.751534126270258	1.7950165	1.3397822
26.769549900255434	1.8162842	1.3476958
26.787566348241267	1.8541439	1.3616695
26.80558347074881	1.8497107	1.3600407
26.823601268299267	1.8430883	1.3576039
26.841619741414036	1.8212023	1.3495193
26.85963889061465	1.8449788	1.3583
26.877658716422832	1.868707	1.3670065
26.89567921936045	1.8843251	1.3727072
26.913700399949544	1.8795435	1.3709644
26.93172225871233	1.8096572	1.345235
26.949744796171174	1.7404623	1.3192658
26.967768012848605	1.708428	1.3070685
26.98579190926733	1.7137462	1.3091013
27.003816485950225	1.7306482	1.315541
27.021841743420318	1.8023703	1.3425238
27.039867682200814	1.8172938	1.3480704
27.057894302815072	1.8096188	1.3452207
27.07592160578664	1.7626905	1.3276635
27.0939495916392	1.7707356	1.3306899
27.111978260896635	1.8050569	1.3435241
27.13000761408296	1.8723552	1.3683404
27.148037651722397	1.855083	1.3620143
27.166068374339304	1.8192463	1.3487943
27.184099782458215	1.8001823	1.3417088
27.20213187660384	1.7845241	1.3358608
27.22016465730105	1.7321138	1.316098
27.23819812507487	1.7461963	1.3214372
27.256232280450533	1.7516141	1.3234856
27.274267123953383	1.7479714	1.3221087
27.292302656108987	1.7743987	1.3320656
27.31033887744306	1.802096	1.3424217
27.32837578848146	1.7982637	1.3409935
27.34641338975026	1.785714	1.3363061
27.364451681775673	1.7625117	1.3275962
27.382490665084074	1.7614746	1.3272055
27.400530340202046	1.7425346	1.320051
27.41857070765629	1.7536856	1.324268
27.436611767973726	1.746587	1.321585
27.454653521681404	1.7378584	1.3182786
27.472695969306564	1.7380166	1.3183386
27.490739111376627	1.7369685	1.3179411
27.508782948419153	1.7168096	1.3102708
27.526827480961902	1.7322588	1.316153
27.54487270953279	1.8045918	1.343351
27.562918634659898	1.8404391	1.3566278
27.580965256871508	1.8746864	1.3691919
27.599012576696026	1.8822614	1.3719553
27.617060594662068	1.8808578	1.3714437
27.63510931129842	1.9123567	1.3828799
27.65315872713401	1.8833234	1.3723423
27.67120884269797	1.8410646	1.3568584
27.68925965851958	1.7880687	1.3371868
27.707311175128307	1.7688873	1.3299953
27.725363393053787	1.8215817	1.3496598
27.74341631282583	1.8998665	1.3783565
27.7614699349744	1.9323546	1.3900915
27.77952426002968	2.0703804	1.4388816
27.797579288521973	2.1932611	1.4809663
27.815635020981784	2.651419	1.6283178
27.83369145793979	2.6855192	1.6387554
27.85174859992682	2.5065637	1.5832131
27.869806447473923	2.3611465	1.5366023
27.887865001112267	2.041641	1.4288601
27.905924261373233	1.9130667	1.3831365
27.92398422878836	1.8615465	1.364385
27.94204490388936	1.8621334	1.3646001
27.96010628720813	1.8720697	1.368236
27.978168379276728	1.8292067	1.3524817
27.9962311806274	1.8089211	1.3449614
28.014294691792568	1.7956836	1.3400311
28.0323589133048	1.8548095	1.3619139
28.050423845696887	1.8815615	1.3717003
28.068489489501758	1.8683438	1.3668737
28.086555845252523	1.8347279	1.3545213
28.104622913482487	1.8163203	1.3477093
28.122690694725115	1.7971938	1.3405945
28.14075918951405	1.8273456	1.3517935
28.15882839838312	1.8303534	1.3529055
28.176898321866304	1.8586731	1.3633317
28.1949689604978	1.880842	1.3714379
28.213040314811945	1.9531509	1.3975518
28.23111238534327	1.9492369	1.3961507
28.249185172626493	1.8761128	1.3697127
28.267258677196473	1.83244	1.3536764
28.285332899588294	1.8898996	1.3747362
28.303407840337172	1.9202685	1.3857375
28.321483499978545	1.9677767	1.4027746
28.33955987904799	2.0018077	1.4148525
28.357636978081285	1.9910883	1.4110593
28.37571479761439	1.9580349	1.399298
28.393793338183425	1.9775326	1.4062477
28.41187260032469	2.0140564	1.4191746
28.429952584574686	2.0005338	1.4144022
28.448033291470065	2.0277197	1.4239802
28.46611472154769	2.0631628	1.4363714
28.484196875344566	2.0381851	1.4276502
28.502279753397914	1.9946431	1.4123183
28.52036335624511	2.037601	1.4274457
28.538447684423716	1.9939762	1.4120822
28.556532738471482	1.9629909	1.4010677
28.574618518926325	2.0160644	1.4198818
28.59270502632635	2.0256999	1.4232708
28.61079226120985	1.9801791	1.4071884
28.628880224115274	1.9568256	1.3988658
28.646968915581287	2.0019171	1.4148912
28.66505833614671	2.0481913	1.4311503
28.68314848635055	2.0809035	1.4425337
28.701239366732004	2.0874324	1.4447949
28.71933097783044	2.0707912	1.4390244
28.737423320185403	2.1156473	1.4545265
28.75551639433665	2.1368003	1.4617798
28.773610200824074	2.1503003	1.4663903
28.791704740187793	2.1439326	1.4642174
28.80980001296809	2.104374	1.450646
28.827896019705413	2.0296853	1.4246702
28.845992760940433	2.0217474	1.4218817
28.86409023721397	2.0767393	1.4410896
28.88218844906704	2.1451151	1.4646212
28.900287397040845	2.2135227	1.4877912
28.918387081676755	2.2313714	1.4937775
28.936487503516343	2.2777534	1.5092227
28.954588663101365	2.3171942	1.5222332
28.97269056097374	2.3166547	1.5220561
28.990793197675597	2.3625302	1.5370524
29.00889657374923	2.388368	1.5454345
29.027000689737125	2.4057326	1.5510424
29.04510554618196	2.474799	1.5731493
29.06321114362659	2.4471066	1.5643231
29.08131748261405	2.4445758	1.5635139
29.099424563687567	2.498193	1.5805674
29.11753238739057	2.5440717	1.5950146
29.13564095426663	2.553678	1.5980232
29.15375026485954	2.5947435	1.6108208
29.171860319713275	2.5708878	1.6033988
29.18997111937199	2.5981724	1.6118847
29.20808266438002	2.6915488	1.640594
29.226194955281898	2.7538266	1.6594658
29.244307992622335	2.7861524	1.6691772
29.26242177694624	2.8262825	1.6811551
29.2805363087987	2.8828723	1.6979023
29.29865158872498	2.8997552	1.7028668
29.316767617270557	2.9543161	1.7188125
29.334884394981064	2.981406	1.7266748
29.353001922402367	3.004209	1.7332654
29.37112020008047	3.071935	1.7526937
29.389239228561596	3.1868799	1.7851834
29.407359008392152	3.3702514	1.8358245
29.42547954011872	3.6171608	1.9018835
29.44360082428809	4.0583577	2.0145366
29.46172286144722	4.9596095	2.227018
29.479845652143283	6.5321856	2.555814
29.497969196923606	9.209994	3.0347972
29.516093496335728	13.115735	3.6215653
29.5342185509274	16.957573	4.1179576
29.55234436124651	20.100296	4.4833355
29.570470927841175	21.435621	4.629862
29.588598251259686	21.230722	4.607681
29.60672633205055	19.490822	4.414841
29.624855170762405	16.330599	4.0411134
29.642984767944146	12.919685	3.5943964
29.66111512414481	9.585323	3.0960174
29.67924623991366	7.0295043	2.6513212
29.697378115800138	5.2023497	2.280866
29.71551075235387	4.3078775	2.0755427
29.733644150124675	3.8277638	1.9564672
29.751778309662576	3.6379166	1.9073323
29.769913231517766	3.5272565	1.8780992
29.78804891624066	3.3825212	1.8391632
29.806185364381818	3.2771962	1.8103027
29.82432257649206	3.2960918	1.8155142
29.842460553122333	3.3445086	1.8287997
29.86059929482382	3.2917116	1.8143075
29.878738802147872	3.257851	1.8049518
29.896879075646048	3.2991612	1.8163593
29.915020115870114	3.3235824	1.8230695
29.933161923371976	3.3052115	1.818024
29.951304498703777	3.2894416	1.8136817
29.969447842417857	3.3363152	1.8265582
29.987591955066733	3.2651181	1.8069638
30.005736837203123	3.2198777	1.7944018
30.023882489379943	3.2457185	1.8015878
30.04202891215028	3.238028	1.7994522
30.060176106067455	3.175768	1.7820685
30.078324071684946	3.161157	1.7779642
30.09647280955646	3.1049674	1.7620918
30.114622320235863	3.1229527	1.7671878
30.132772604277257	3.1268265	1.7682835
30.1509236622349	3.1095438	1.7633898
30.16907549466328	3.0885897	1.7574384
30.18722810211705	3.171961	1.781
30.205381485151097	3.1231644	1.7672477
30.22353564432045	3.024703	1.7391673
30.241690580180403	3.0258145	1.7394868
30.25984629328638	3.072348	1.7528114
30.278002784194037	3.0472968	1.7456508
30.296160053459246	2.9652019	1.7219762
30.314318101638033	2.9916155	1.7296287
30.332476929286646	2.9899468	1.7291462
30.35063653696153	2.907082	1.7050167
30.368796925219307	2.8689709	1.6938037
30.386958094616844	2.8401692	1.6852802
30.40512004571115	2.8570597	1.6902839
30.423282779059463	2.8367574	1.6842676
30.441446295219233	2.8512287	1.6885582
30.459610594748067	2.8674455	1.6933533
30.47777567820382	2.8829832	1.697935
30.495941546144504	2.819375	1.6790994
30.51410819912835	2.719635	1.6491315
30.532275637713795	2.7504425	1.6584458
30.55044386245946	2.887512	1.6992681
30.56861287392416	2.8505862	1.6883678
30.586782672666956	2.7560003	1.6601206
30.604953259247047	2.7326758	1.6530807
30.623124634223885	2.7304573	1.6524096
30.641296798157075	2.7513173	1.6587095
30.659469751606462	2.7529678	1.659207
30.677643495132074	2.7322288	1.6529455
30.695818029294152	2.704047	1.6443987
30.713993354653116	2.7543705	1.6596296
30.73216947176962	2.8085272	1.6758661
30.75034638120448	2.7510488	1.6586286
30.768524083518756	2.7457626	1.6570343
30.786702579273673	2.8080628	1.6757275
30.80488186903069	2.9050684	1.7044262
30.82306195335144	3.0326746	1.7414576
30.841242832797782	3.2848692	1.8124208
30.85942450793176	3.6382506	1.9074199
30.877606979315637	4.0115232	2.0028787
30.895790247511883	4.476064	2.1156712
30.913974313083134	4.9013886	2.213908
30.932159176592283	5.243247	2.2898138
30.95034483860237	5.5048146	2.346234
30.968531299676698	5.505618	2.3464053
30.98671856037873	5.186829	2.277461
31.00490662127215	4.8554654	2.203512
31.023095482920848	4.4454017	2.108412
31.04128514588892	3.9494503	1.9873223
31.059475610740662	3.3809705	1.8387415
31.07766687804056	2.8191104	1.6790206
31.09585894835335	2.5522223	1.5975676
31.11405182224393	2.4548616	1.5667998
31.132245500277417	2.492424	1.5787413
31.15043998301914	2.4774783	1.5740007
31.168635271034628	2.5058491	1.5829874
31.18683136488964	2.5305853	1.5907813
31.20502826515008	2.5039895	1.5823998
31.223225972382135	2.4404604	1.5621973
31.241424487152155	2.4389129	1.5617019
31.259623810026692	2.385706	1.5445731
31.27782394157253	2.3632083	1.537273
31.296024882356644	2.469377	1.5714252
31.314226632946237	2.6040313	1.6137011
31.332429193908684	2.5941036	1.6106222
31.350632565811598	2.4165847	1.5545368
31.368836749222787	2.3455021	1.5315032
31.387041744710295	2.45882	1.5680625
31.40524755284232	2.5437589	1.5949166
31.423454174187317	2.6105416	1.615717
31.441661609313922	2.592714	1.6101907
31.459869858791002	2.51121	1.5846797
31.478078923187628	2.3857627	1.5445914
31.496288803073064	2.3526998	1.5338513
31.514499499016807	2.366371	1.5383013
31.532711011588546	2.3422647	1.5304459
31.550923341358178	2.373726	1.5406901
31.56913648889584	2.4132895	1.5534766
31.587350454771844	2.4336307	1.5600098
31.605565239556732	2.3545563	1.5344564
31.62378084382127	2.241009	1.497
31.641997268136382	2.2122288	1.4873563
31.660214513073274	2.2800329	1.5099778
31.67843257920331	2.3062377	1.5186301
31.6966514670981	2.3823445	1.5434846
31.71487117732944	2.391788	1.5465406
31.733091710469346	2.3433084	1.5307869
31.751313067090052	2.2678888	1.5059512
31.769535247764008	2.3000238	1.516583
31.787758253063878	2.2224233	1.4907794
31.805982083562526	2.1887825	1.4794534
31.824206739833024	2.1822605	1.4772476
31.84243222244869	2.2325034	1.4941565
31.860658531983013	2.2690034	1.5063212
31.878885669009737	2.2620015	1.5039952
31.897113634102784	2.264942	1.5049725
31.91534242783632	2.2623472	1.5041101
31.933572050784694	2.2426531	1.497549
31.951802503522508	2.2727647	1.5075691
31.970033786624548	2.3231263	1.5241805
31.988265900665834	2.27276	1.5075675
32.006498846221575	2.1824033	1.477296
32.02473262386724	2.1948047	1.4814873
32.04296723417845	2.2731934	1.5077113
32.0612026777311	2.3829243	1.5436723
32.07943895510129	2.3699136	1.5394523
32.097676066865304	2.2705772	1.5068434
32.115914013599685	2.202736	1.4841617
32.13415279588115	2.1845315	1.478016
32.152392414286666	2.0683074	1.4381611
32.1706328693934	2.027305	1.4238346
32.18887416177875	2.0707245	1.4390012
32.20711629202032	2.1169024	1.4549578
32.225359260695924	2.1247623	1.4576564
32.243603068383614	2.176425	1.4752711
32.26184771566166	2.197362	1.4823501
32.28009320310852	2.161505	1.4702058
32.2983395313029	2.1663084	1.4718385
32.31658670082372	2.2138407	1.4878981
32.33483471225012	2.2440012	1.4979991
32.35308356616143	2.2655618	1.5051783
32.371333263137245	2.226627	1.4921887
32.38958380375734	2.1237943	1.4573244
32.407835188601744	2.0944073	1.4472067
32.42608741825067	2.1409993	1.4632154
32.444340493284585	2.1572618	1.468762
32.46259441428416	2.1028655	1.450126
32.48084918183028	2.1473804	1.4653943
32.49910479650405	2.138057	1.4622096
32.51736125888683	2.0679016	1.43802
32.53561856956014	2.0104976	1.4179201
32.5538767291058	1.9824601	1.4079987
32.572135738105764	2.0014489	1.4147258
32.59039559714228	2.023298	1.4224268
32.608656306797776	1.9834058	1.4083344
32.62691786765491	1.9269942	1.3881621
32.645180280296586	1.9698819	1.4035248
32.663443545305896	2.0170324	1.4202226
32.68170766326619	2.067138	1.4377545
32.69997263476099	2.0760038	1.4408344
32.7182384603741	2.1590939	1.4693855
32.7365051406895	2.1749825	1.4747822
32.75477267629144	2.0874772	1.4448104
32.77304106776434	1.9755038	1.4055262
32.79131031569289	1.9830396	1.4082044
32.809580420661966	2.0230756	1.4223486
32.827851383256714	1.9564208	1.3987211
32.84612320406245	1.9596462	1.3998736
32.86439588366476	1.9804509	1.407285
32.88266942264945	2.0317018	1.4253777
32.9009438216025	2.015304	1.4196141
32.9192190811102	1.9854314	1.4090533
32.937495201758985	2.0192425	1.4210005
32.95577218413556	2.0184941	1.4207371
32.974050028826866	1.9880532	1.4099834
32.992328736420035	1.9964944	1.4129736
33.010608307502444	2.079287	1.4419733
33.02888874266169	2.118086	1.4553646
33.047170042485604	2.022747	1.4222331
33.06545220756225	2.0311823	1.4251956
33.083735238479896	2.047601	1.4309441
33.10201913582707	2.0816133	1.4427797
33.12030390019248	2.0459697	1.430374
33.138589532165135	2.0524604	1.432641
33.15687603233419	1.9845395	1.4087368
33.17516340128909	1.9408959	1.3931605
33.19345163961947	1.9468284	1.3952879
33.211740747915215	1.9335415	1.3905184
33.23003072676643	2.0243068	1.4227813
33.248321576763466	2.0436108	1.4295492
33.266613298496885	2.0347672	1.4264526
33.28490589255747	2.0046122	1.4158432
33.30319935953626	1.9886427	1.4101925
33.32149370002451	2.0896168	1.4455507
33.339788914613706	2.063507	1.4364913
33.358085003895575	1.9979182	1.4134773
33.376381968462034	1.9665217	1.4023273
33.39467980890529	1.9564271	1.3987234
33.41297852581774	2.0192757	1.4210122
33.43127811979204	1.9503942	1.3965651
33.44957859142105	1.8898412	1.374715
33.467879941297866	1.9142044	1.3835478
33.486182170015844	1.9339952	1.3906816
33.50448527816853	1.8445126	1.3581283
33.522789266349754	1.816614	1.3478183
33.541094135153514	1.9058197	1.3805143
33.55939988517411	1.9476293	1.3955749
33.57770651700602	1.8277335	1.3519369
33.59601403124398	1.7881516	1.3372178
33.61432242848296	1.8613802	1.3643241
33.632631709318154	1.9517342	1.3970448
33.650941874344994	2.030306	1.4248881
33.66925292415916	1.9657824	1.4020636
33.68756485935654	1.8361443	1.355044
33.70587768053328	1.861762	1.364464
33.724191388285746	2.0214903	1.4217912
33.74250598321054	2.1543772	1.4677796
33.760821465904506	2.1017094	1.4497273
33.77913783696474	2.061423	1.4357656
33.79745509698852	2.1089616	1.4522264
33.815773246573414	2.099186	1.4488568
33.8340922863172	1.9815339	1.4076697
33.852412216817896	1.9048331	1.3801569
33.87073303867377	2.0077097	1.4169368
33.889054752483304	2.1496384	1.4661645
33.907377358845245	2.0296793	1.4246682
33.92570085835853	1.892064	1.3755232
33.94402525162239	1.9821553	1.4078904
33.96235053923627	2.0838122	1.4435415
33.980676721799824	2.040855	1.4285849
33.999003799912984	1.9587711	1.399561
34.01733177417592	1.9859246	1.4092283
34.03566064518901	1.989157	1.4103748
34.0539904135529	2.012641	1.4186758
34.07232107986846	1.9826316	1.4080595
34.090652644736785	1.9084418	1.3814636
34.108985108759235	2.0173652	1.4203398
34.12731847253742	2.1433296	1.4640114
34.14565273667313	2.1191308	1.4557235
34.16398790176847	1.9525701	1.397344
34.18232396842574	1.835663	1.3548664
34.20066093724749	1.8233976	1.3503324
34.21899880883651	1.8631897	1.364987
34.23733758379583	1.8927695	1.3757796
34.25567726272874	1.9209378	1.3859789
34.27401784623872	1.9654139	1.4019322
34.29235933492957	1.8574566	1.3628854
34.31070172940526	1.8253978	1.3510729
34.32904503027003	1.8764844	1.3698483
34.347389238128386	2.0261643	1.423434
34.36573435358502	2.150177	1.4663482
34.38408037724492	2.150841	1.4665745
34.402427309713296	2.0687377	1.4383107
34.42077515159559	2.0806775	1.4424554
34.43912390349752	2.0148962	1.4194704
34.45747356602499	2.000289	1.4143157
34.47582413978423	2.0414023	1.4287765
34.49417562538163	2.0633578	1.4364393
34.51252802342388	2.0695474	1.4385922
34.53088133451789	2.0472693	1.4308282
34.54923555927084	1.9861073	1.4092932
34.567590698290104	1.9879074	1.4099317
34.58594675218336	2.0521545	1.4325343
34.6043037215585	2.047321	1.4308463
34.62266160702365	1.8838894	1.3725485
34.641020409187234	1.9230843	1.3867531
34.65938012865785	2.0058434	1.416278
34.677740766044394	1.9366555	1.3916377
34.69610232195598	1.7597117	1.3265413
34.714464797002016	1.8316491	1.3533843
34.73282819179208	1.9965154	1.412981
34.751192506936064	1.975357	1.405474
34.76955774304408	2.0197809	1.4211899
34.7879239007265	1.9237353	1.3869878
34.80629098059391	1.7177446	1.3106276
34.824658983257194	1.7131718	1.3088819
34.843027909327446	2.0517726	1.432401
34.86139775941603	2.1738193	1.4743878
34.879768534134534	2.0238948	1.4226365
34.89814023409483	1.8661157	1.3660585
34.91651285990901	1.9735185	1.4048197
34.93488641218944	1.9910917	1.4110605
34.95326089154871	1.8226027	1.350038
34.97163629859967	1.7747045	1.3321804
34.99001263395542	1.7806159	1.3343972
35.00838989822934	1.8024153	1.3425406
35.02676809203499	1.9939256	1.4120643
35.04514721598624	1.9330999	1.3903596
35.063527270697215	1.9265457	1.3880006
35.081908256782256	2.0070777	1.4167137
35.10029017485597	2.2253196	1.4917505
35.11867302553321	2.3072236	1.5189548
35.137056809429104	2.1916392	1.4804186
35.155441527159006	2.1606088	1.469901
35.173827179338524	1.9177614	1.3848326
35.19221376658354	1.7070091	1.3065256
35.21060128951017	1.6888918	1.2995737
35.2289897487348	1.8033339	1.3428826
35.24737914487405	1.8132385	1.3465655
35.26576947854479	1.7190032	1.3111076
35.28416075036418	1.719718	1.3113801
35.30255296094958	2.27499	1.508307
35.32094611091867	2.2139456	1.4879334
35.33934020088932	1.7462648	1.3214631
35.35773523147969	1.6346673	1.2785411
35.3761312033082	1.723877	1.3129649
35.394528116993506	1.7529033	1.3239726
35.41292597315452	1.893009	1.3758667
35.431324772410434	1.9991999	1.4139307
35.449724515380666	1.8666428	1.3662513
35.46812520268491	1.9086888	1.381553
35.486526834943106	1.7895932	1.3377568
35.504929412775454	1.8703687	1.3676143
35.52333293680242	1.9331067	1.390362
35.54173740764471	1.8614858	1.3643628
35.560142825923286	1.7793051	1.3339059
35.5785491922594	1.6857109	1.2983493
35.59695650727454	1.8579569	1.3630689
35.61536477159042	1.8569168	1.3626873
