0.008763373481513119	0.56609195	0.7523908
0.026290120649546365	0.30131683	0.5489233
0.043816868432600686	0.27234635	0.5218681
0.06134361724069026	0.16667132	0.408254
0.07887036748382949	0.12360228	0.35157114
0.0963971195720331	0.053553443	0.23141617
0.11392387391531617	0.049415268	0.22229545
0.1314506309236943	0.044680726	0.21137816
0.1489773910071836	0.03936142	0.19839713
0.16650415457580078	0.04576208	0.21392073
0.18403092203956356	0.08477787	0.2911664
0.20155769380849	0.07676365	0.27706254
0.2190844702925996	0.081719056	0.28586546
0.2366112519019124	0.06670881	0.2582805
0.2541380390464497	0.07532939	0.274462
0.27166483213623416	0.10222279	0.31972298
0.28919163158128947	0.1090691	0.3302561
0.3067184377916406	0.15938938	0.399236
0.324245251177314	0.14153737	0.37621453
0.34177207214833777	0.17739955	0.42118827
0.3592989011147415	0.18935502	0.43514943
0.37682573848655654	0.1999011	0.44710302
0.39435258467381573	0.24411048	0.4940754
0.41187944008655414	0.21134073	0.4597181
0.42940630513480854	0.18470727	0.42977583
0.446933180228618	0.13052431	0.36128148
0.4644600657780234	0.13592044	0.3686739
0.48198696219306775	0.13661416	0.36961353
0.49951386988379676	0.11786897	0.3433205
0.5170407892602581	0.13384743	0.36585164
0.5345677207325025	0.1467299	0.3830534
0.5520946647105822	0.18244721	0.4271384
0.5696216216045534	0.17474692	0.4180274
0.5871485918244737	0.16957676	0.411797
0.6046755757804043	0.14017983	0.37440598
0.6222025738824094	0.1808815	0.42530167
0.6397295865405557	0.22370394	0.4729735
0.6572566141649129	0.22626261	0.4756707
0.6747836571655547	0.18435468	0.42936543
0.6923107159525568	0.16076675	0.4009573
0.7098377909359992	0.17692429	0.4206237
0.7273648825259653	0.19800843	0.4449814
0.7448919911325411	0.22600032	0.4753949
0.762419117165817	0.20908737	0.45726073
0.7799462610358868	0.19177713	0.43792364
0.7974734231528482	0.16053346	0.40066627
0.8150006039268024	0.16563976	0.40698865
0.8325278037678551	0.16903737	0.41114154
0.8500550230861152	0.20182686	0.44925144
0.8675822622916969	0.20998481	0.458241
0.8851095217947171	0.19407542	0.44053993
0.9026368020052984	0.19380347	0.44023117
0.9201641033335665	0.18240792	0.4270924
0.9376914261896523	0.19085062	0.43686453
0.9552187709836915	0.19744292	0.4443455
0.9727461381258234	0.2015817	0.4489785
0.990273528026193	0.22197883	0.4711463
1.0078009410949496	0.24286681	0.4928152
1.0253283777422473	0.25422233	0.50420463
1.0428558383782454	0.29458135	0.5427535
1.0603833234131086	0.32094252	0.5665179
1.0779108332570058	0.34561548	0.5878907
1.0954383683201119	0.32877702	0.5733908
1.112965929012607	0.36011612	0.60009676
1.1304935157446763	0.55207044	0.74301445
1.1480211289265108	0.6235987	0.7896826
1.1655487689683062	1.5340474	1.2385666
1.1830764362802655	1.7915423	1.3384851
1.200604131272596	2.1500728	1.4663126
1.2181318543555117	2.3514066	1.5334296
1.235659605939232	2.380679	1.5429449
1.253187386433982	3.8521104	1.9626794
1.270715196249994	6.259591	2.5019176
1.2882430357975057	11.9071	3.4506667
1.3057709054867608	16.640388	4.079263
1.3232988057280106	22.272734	4.7194
1.3408267369315112	27.17194	5.2126713
1.358354699507526	30.395508	5.513212
1.3758826938663256	34.797436	5.8989353
1.3934107204181858	36.81008	6.067131
1.410938779573391	37.155144	6.095502
1.4284668717422309	37.898605	6.156184
1.4459949973350033	37.886158	6.1551733
1.4635231567620117	37.919003	6.1578407
1.4810513504335687	36.799244	6.066238
1.4985795787599925	36.14634	6.0121827
1.5161078421516088	35.88494	5.990404
1.5336361410187505	35.49729	5.95796
1.5511644757717598	35.541077	5.9616337
1.5686928468209842	36.24183	6.0201187
1.58622125457678	37.16703	6.096477
1.6037496994495108	38.059402	6.1692305
1.621278181849548	37.83283	6.15084
1.6388067021872719	38.0262	6.1665387
1.6563352608730693	37.546986	6.1275597
1.673863858317336	37.18275	6.097766
1.6913924949304753	36.72835	6.060392
1.7089211711228998	35.426254	5.951996
1.7264498873050296	34.237953	5.8513207
1.7439786438872935	33.054054	5.7492657
1.7615074412801288	32.02096	5.6587067
1.779036279893981	31.488615	5.6114717
1.796565160139305	30.60539	5.5322137
1.814094082426564	29.764778	5.4557104
1.8316230471662298	29.328861	5.4156127
1.849152054768784	28.514694	5.3399153
1.8666811056447168	27.887552	5.2808666
1.8842102002045273	27.113234	5.207037
1.901739338858724	26.50479	5.14828
1.9192685220178245	25.768759	5.076294
1.9367977500923557	24.889732	4.988961
1.9543270234928547	24.65659	4.9655404
1.971856342629867	24.276476	4.9271164
1.9893857079139496	24.045416	4.9036126
2.006915119755667	23.58315	4.856249
2.0244445785655945	22.936872	4.7892456
2.0419740847543175	22.327656	4.725215
2.0595036387324317	21.637371	4.651599
2.0770332409105414	20.950565	4.577179
2.094562891699263	20.732822	4.553331
2.1120925915092217	20.105825	4.483952
2.129622340751053	20.042416	4.476876
2.1471521398354043	188.17531	13.717701
2.1646819891729323	444.65134	21.086758
2.182211889174303	441.00125	21.00003
2.1997418402501974	453.3625	21.29231
2.2172718428113023	433.03665	20.809532
2.234801897268317	320.60782	17.905525
2.2523320040319548	16.911	4.1122985
2.269862163512935	16.63779	4.0789447
2.287392376121992	16.350077	4.043523
2.304922642269869	16.07554	4.0094314
2.322452962367322	15.836404	3.979498
2.3399833368251164	15.599323	3.9495978
2.357513766054032	15.347304	3.9175637
2.3750442504648586	15.109413	3.8870828
2.3925747904683963	14.90676	3.8609273
2.410105386475459	14.613921	3.822816
2.4276360388968707	14.232112	3.7725472
2.445166748143469	13.980258	3.7390182
2.4626975146261025	13.921305	3.7311265
2.4802283387556323	13.626181	3.6913657
2.4977592209429305	13.405084	3.6612954
2.5152901615988825	13.105371	3.620134
2.5328211611343865	12.90439	3.5922682
2.5503522199603523	12.5439005	3.5417368
2.5678833384877024	12.432969	3.5260415
2.5854145171273712	12.291431	3.5059137
2.6029457562903064	12.039377	3.4697807
2.620477056387469	11.837459	3.4405608
2.6380084178298326	11.740665	3.4264655
2.655539841028383	11.698968	3.4203753
2.673071326394119	11.638707	3.411555
2.6906028743380523	11.40145	3.3766034
2.708134485271211	11.300152	3.36157
2.7256661596046325	11.076385	3.3281202
2.743197897749369	10.97717	3.3131812
2.760729700116486	10.781885	3.2835782
2.778261567117063	10.55659	3.2490907
2.795793499162193	10.416939	3.2275283
2.8133254966629817	10.199614	3.1936834
2.830857560030551	9.906761	3.1475008
2.8483896896760337	9.639379	3.104735
2.865921886010578	9.4484005	3.0738251
2.883454149445347	9.363544	3.059991
2.9009864803915177	9.328143	3.054201
2.91851887926028	9.182555	3.0302732
2.9360513464628384	9.263185	3.043548
2.953583882410413	9.320588	3.0529637
2.9711164875142373	9.150365	3.024957
2.9886491621855606	8.769709	2.9613693
3.0061819068356455	8.438304	2.904876
3.023714721875769	8.48701	2.9132473
3.041247607717225	8.552498	2.9244654
3.0587805647713213	8.562027	2.926094
3.0763135934493806	8.483598	2.9126616
3.0938466941627407	8.31165	2.8829932
3.1113798673227544	8.215663	2.8662977
3.1289131133407904	8.033403	2.834326
3.1464464326282315	7.933853	2.8167095
3.1639798255964786	7.914169	2.8132133
3.1815132926569443	7.8622437	2.8039694
3.1990468342210603	7.7648435	2.786547
3.216580450700272	7.5713644	2.7516112
3.2341141425060416	7.399289	2.7201633
3.251647910049847	7.2724395	2.696746
3.2691817537431813	7.2646666	2.6953046
3.286715673997555	7.2669034	2.6957195
3.3042496712244938	7.1657	2.6768825
3.32178374583554	7.036833	2.6527028
3.339317898242251	6.991572	2.6441581
3.3568521288562034	6.877607	2.6225193
3.3743864380889876	6.9320393	2.6328766
3.3919208263522127	6.824369	2.6123493
3.4094552940575023	6.8719816	2.6214464
3.4269898416164972	6.7883897	2.6054537
3.444524469440858	6.758925	2.5997932
3.4620591779422587	6.6592474	2.5805519
3.479593967532391	6.5717206	2.5635366
3.4971288386229658	6.4753294	2.5446668
3.5146637916257086	6.4718084	2.5439749
3.5321988269523628	6.4972854	2.5489774
3.5497339450146903	6.4130263	2.5323954
3.5672691462244708	6.3374057	2.5174205
3.5848044309934988	6.2967315	2.5093288
3.60233979973359	6.3440137	2.5187325
3.619875252856575	6.4625616	2.542157
3.6374107907743034	6.505817	2.5506504
3.6549464138986427	6.42647	2.5350482
3.6724821226414788	6.4000235	2.5298269
3.690017917414714	6.3463774	2.5192018
3.7075537986302702	6.383739	2.5266063
3.7250897667000857	6.45732	2.5411258
3.7426258220361235	6.6316657	2.575202
3.7601619650503553	6.893892	2.6256223
3.777698196154779	7.5033855	2.7392309
3.7952345157614067	8.523174	2.9194477
3.8127709242822716	9.278485	3.0460606
3.830307422129425	11.399386	3.3762977
3.847844009714936	30.156847	5.491525
3.8653806874508954	97.73943	9.886326
3.882917455749409	97.09194	9.853524
3.900454315022606	96.91011	9.844294
3.917991265682631	41.464985	6.439331
3.9355283081416506	10.93016	3.3060791
3.9530654428118495	8.725692	2.9539282
3.970602670105433	7.4956346	2.7378156
3.9881399904346244	6.613742	2.5717196
4.005677404211669	6.574152	2.5640109
4.023214911848827	6.4490767	2.5395033
4.0407525137583855	6.5465593	2.5586245
4.058290210352644	6.506035	2.550693
4.075828002043927	6.4405775	2.5378294
4.0933658892445814	6.3728657	2.5244536
4.110903872366966	6.323578	2.5146725
4.128441951823468	6.2439365	2.498787
4.145980128026488	6.192235	2.4884202
4.163518401388452	6.1280475	2.4754894
4.181056772321807	6.0568047	2.4610577
4.1985952412390155	6.0201993	2.4536095
4.216133808552567	6.1873026	2.487429
4.233672474674966	6.37649	2.5251713
4.251211240018741	6.665669	2.5817957
4.268750104996445	6.844119	2.6161268
4.286289070020643	7.6896834	2.773028
4.303828135503928	9.331216	3.054704
4.3213673018589125	29.668247	5.4468565
4.3389065694982305	90.950905	9.5368185
4.356445938834537	166.03796	12.8855715
4.3739854102805085	171.38487	13.091405
4.391524984248844	172.22568	13.123478
4.409064661152262	136.29593	11.674584
4.426604441403504	96.77024	9.837187
4.444144325415337	75.84547	8.70893
4.461684313600543	22.012287	4.6917253
4.47922440637193	22.423384	4.7353334
4.496764604142329	20.59253	4.537899
4.5143049073245916	18.613058	4.3142853
4.531845316331589	16.525011	4.065097
4.5493858315762195	13.679652	3.6986015
4.566926453471405	11.5108385	3.3927627
4.584467182430081	9.423629	3.069793
4.602008018865218	8.309899	2.8826897
4.619548963189798	7.630585	2.7623513
4.637090015816834	7.202408	2.6837301
4.654631177159353	6.885361	2.6239972
4.672172447630417	6.6430025	2.5774024
4.689713827643102	6.4668784	2.5430057
4.7072553176105085	6.2506776	2.5001354
4.724796917945764	6.1050744	2.470845
4.742338629062015	5.960026	2.4413164
4.759880451372434	5.8293858	2.414412
4.777422385290215	5.807564	2.4098887
4.794964431228581	5.7592273	2.399839
4.812506589600768	5.67266	2.3817346
4.830048860820047	5.644375	2.3757894
4.847591245299709	5.649585	2.3768854
4.8651337434530655	5.733612	2.3944962
4.882676355693457	5.777195	2.4035797
4.900219082434242	5.7643867	2.4009137
4.917761924088813	5.6880307	2.3849592
4.935304881070575	5.6141343	2.3694165
4.952847953792969	5.6486707	2.3766932
4.970391142669449	5.5527577	2.356429
4.9879344481135055	5.5139036	2.3481703
5.005477870538642	5.417412	2.3275335
5.023021410358394	5.40428	2.3247108
5.040565067986324	5.434897	2.3312864
5.05810884383601	5.412373	2.3264508
5.075652738321066	5.4058585	2.32505
5.09319675185512	5.3892894	2.3214843
5.110740884851836	5.446267	2.3337238
5.128285137724894	5.5037937	2.3460166
5.145829510888007	5.478801	2.340684
5.163374004754908	5.4849253	2.3419917
5.1809186197393595	5.4326854	2.3308122
5.198463356255145	5.366786	2.3166325
5.216008214716077	5.3055196	2.3033714
5.233553195535998	5.2332344	2.2876263
5.251098299128764	5.1847906	2.2770135
5.268643525908272	5.1746016	2.274775
5.286188876288432	5.2850246	2.2989182
5.3037343506831895	5.3567066	2.314456
5.32127994950651	5.3570585	2.314532
5.3388256731723915	5.3169928	2.3058605
5.356371522094851	5.276843	2.297138
5.373917496687938	5.32853	2.3083608
5.391463597365729	5.439157	2.3322
5.40900982454232	5.420084	2.3281074
5.426556178631843	5.3460507	2.3121529
5.444102660048449	5.2451954	2.290239
5.4616492692063225	5.217853	2.284262
5.479196006519669	5.2329264	2.287559
5.496742872402727	5.2304163	2.2870104
5.514289867269756	5.21351	2.2833111
5.531836991535049	5.1906376	2.2782972
5.549384245612924	5.14996	2.2693524
5.566931629917724	5.1183763	2.262383
5.584479144863822	5.1504884	2.2694688
5.6020267908656205	5.247738	2.2907941
5.619574568337545	5.283353	2.2985544
5.637122477694054	5.3153505	2.3055043
5.654670519349629	5.2570357	2.2928226
5.672218693718784	5.2633657	2.2942026
5.689767001216059	5.251942	2.2917116
5.707315442256021	5.270998	2.2958653
5.724864017253266	5.280695	2.2979763
5.7424127266224225	5.299858	2.3021421
5.75996157077814	5.260206	2.293514
5.777510550135105	5.2931566	2.3006861
5.795059665108022	5.237637	2.2885885
5.812608916111639	5.277788	2.2973437
5.830158303560715	5.3429494	2.3114822
5.847707827870055	5.370861	2.3175118
5.86525748945448	5.433361	2.3309572
5.8828072887288485	5.5577435	2.3574867
5.900357226108044	5.6294546	2.3726473
5.917907302006979	5.7390547	2.3956325
5.9354575168406	6.3249245	2.5149403
5.9530078710238765	6.942339	2.634832
5.970558364971812	7.486181	2.7360885
5.988108999099438	7.8801937	2.8071682
6.005659773821818	8.527899	2.9202566
6.023210689554039	8.223795	2.867716
6.040761746711227	8.6580105	2.9424498
6.058312945708531	8.139519	2.8529842
6.075864286961132	7.675199	2.770415
6.093415770884244	6.945904	2.6355083
6.1109673978931065	6.254654	2.5009305
6.128519168402993	5.6174216	2.37011
6.146071082829204	5.4676833	2.3383079
6.163623141587075	5.3429546	2.3114831
6.181175345091969	5.21207	2.282996
6.198727693759281	5.1122537	2.2610292
6.216280188004435	5.1151276	2.2616649
6.233832828242885	5.1201606	2.262777
6.251385614890126	5.136496	2.266384
6.268938548361669	5.114857	2.261605
6.286491629073067	5.0860977	2.2552378
6.304044857439898	5.0907736	2.2562742
6.321598233877777	5.1187377	2.2624629
6.339151758802344	5.108774	2.2602599
6.356705432629277	5.1078644	2.2600584
6.37425925577428	5.0952477	2.2572656
6.391813228653095	5.059203	2.2492673
6.409367351681486	5.083308	2.2546194
6.426921625275259	4.99397	2.2347193
6.44447604985025	4.932216	2.2208593
6.46203062582232	4.937089	2.221956
6.47958535360737	4.979566	2.2314942
6.497140233621328	5.069317	2.2515144
6.514695266280161	5.1413045	2.2674444
6.532250451999859	5.0974236	2.2577474
6.549805791196454	5.0858035	2.2551727
6.567361284286002	5.098785	2.258049
6.584916931684597	5.103732	2.259144
6.602472733808367	5.125036	2.2638543
6.6200286910734665	5.0720043	2.2521112
6.637584803896092	5.069592	2.2515755
6.655141072692462	5.1368623	2.2664647
6.672697497878842	5.0732503	2.2523878
6.690254079871514	5.01701	2.2398684
6.707810819086808	5.021909	2.2409618
6.725367715941078	5.0514746	2.2475486
6.742924770850719	5.0871673	2.255475
6.760481984232151	5.039246	2.2448266
6.778039356501836	5.0592046	2.2492676
6.795596888076266	5.113079	2.2612119
6.813154579371963	5.139606	2.2670698
6.830712430805492	5.080431	2.253981
6.84827044279344	5.073849	2.2525206
6.865828615752445	4.9854865	2.2328203
6.883386950099159	4.9920993	2.2343006
6.900945446250287	4.976405	2.2307858
6.918504104622553	5.039137	2.2448022
6.936062925632727	5.095658	2.2573564
6.953621909697607	5.155284	2.270525
6.971181057234028	5.213907	2.2833982
6.988740368658859	5.176356	2.2751606
7.006299844389007	5.2341824	2.2878335
7.023859484841407	5.2917476	2.30038
7.041419290433036	5.3666167	2.316596
7.058979261580902	5.4468126	2.3338408
7.0765393987020495	5.6897235	2.3853142
7.094099702213559	6.0730467	2.4643552
7.111660172532549	6.453056	2.5402865
7.129220810076164	6.828779	2.6131933
7.146781615261595	7.3707056	2.7149043
7.16434258850606	7.5820932	2.75356
7.181903730226821	8.014385	2.8309689
7.1994650408411704	8.2468	2.8717244
7.217026520766437	8.465771	2.9095998
7.234588170419983	8.715329	2.9521737
7.252149990219215	8.682441	2.946598
7.269711980581568	8.496428	2.914863
7.2872741419245175	8.300329	2.8810291
7.304836474665574	7.861721	2.8038762
7.322398979222286	7.5712028	2.751582
7.339961656012233	7.330837	2.7075517
7.357524505453039	6.98784	2.6434524
7.375087527962357	6.701266	2.5886803
7.392650723957886	6.3382297	2.517584
7.410214093857353	5.9578137	2.4408634
7.427777638078528	5.6769567	2.3826365
7.445341357039213	5.4547153	2.3355331
7.4629052511572525	5.283145	2.2985094
7.480469320850524	5.2495503	2.2911897
7.498033566536948	5.2488723	2.2910419
7.5155979886344735	5.2257247	2.2859845
7.5331625875610975	5.207666	2.282031
7.550727363734844	5.2053547	2.2815247
7.568292317573788	5.254986	2.2923756
7.585857449496025	5.2764044	2.2970426
7.603422759919705	5.310884	2.3045356
7.620988249263007	5.298284	2.3018003
7.638553917944147	5.283858	2.2986643
7.656119766381391	5.2708783	2.2958393
7.673685794993023	5.2362065	2.288276
7.691252004197388	5.251987	2.2917213
7.70881839441285	5.22065	2.2848742
7.726384966057826	5.185797	2.2772346
7.743951719550762	5.1928196	2.278776
7.761518655310149	5.255813	2.292556
7.779085773754511	5.327743	2.3081903
7.796653075302419	5.3475566	2.3124785
7.814220560372475	5.3616076	2.3155146
7.831788229383323	5.316784	2.3058152
7.8493560827536495	5.297277	2.3015814
7.866924120902174	5.287593	2.2994766
7.884492344247663	5.2905927	2.300129
7.9020607532089135	5.3402586	2.3109
7.919629348204771	5.3291073	2.308486
7.937198129654115	5.3894362	2.321516
7.954767097975865	5.510843	2.3475184
7.972336253588986	5.572092	2.360528
7.989905596912472	5.575725	2.3612974
8.007475128365371	5.4871483	2.3424664
8.025044848366756	5.4794717	2.3408272
8.042614757335754	5.665511	2.3802335
8.060184855691523	5.734689	2.394721
8.07775514385327	5.9225545	2.43363
8.095325622240228	5.8848734	2.425876
8.112896291271687	5.9229927	2.4337199
8.130467151366968	5.9241495	2.4339576
8.148038202945436	5.9807467	2.4455566
8.165609446426497	6.0412025	2.4578857
8.183180882229594	6.042768	2.4582043
8.200752510774217	6.03883	2.457403
8.218324332479893	5.9915357	2.4477613
8.235896347766193	5.970738	2.4435093
8.253468557052724	5.898209	2.428623
8.27104096075914	5.921289	2.4333699
8.288613559305137	6.0673285	2.4631948
8.306186353110448	6.188793	2.4877286
8.32375934259485	6.312705	2.5125098
8.341332528178162	6.248339	2.499668
8.358905910280246	6.2803955	2.5060718
8.376479489321003	6.329859	2.515921
8.394053265720377	6.353181	2.5205517
8.411627239898356	6.3715744	2.5241978
8.42920141227497	6.3248816	2.5149317
8.44677578327029	6.3651714	2.5229292
8.464350353304427	6.352773	2.5204709
8.48192512279754	6.339878	2.5179114
8.499500092169827	6.1850715	2.4869804
8.51707526184153	6.1147814	2.4728084
8.534650632232934	6.0864415	2.4670715
8.552226203764365	6.1390877	2.4777184
8.569801976856192	6.161592	2.4822555
8.587377951928834	6.216444	2.4932797
8.60495412940274	6.233123	2.4966223
8.622530509698416	6.2930565	2.5085964
8.6401070932364	6.4447865	2.5386584
8.657683880437283	6.5493255	2.559165
8.675260871721695	6.664084	2.5814886
8.692838067510303	6.8224015	2.6119728
8.710415468223834	6.9444523	2.635233
8.727993074283043	7.1050825	2.6655362
8.745570886108737	7.157969	2.6754382
8.763148904121765	7.2553434	2.6935744
8.78072712874302	7.285747	2.6992123
8.798305560393441	7.5792713	2.7530477
8.815884199494006	7.7402377	2.7821283
8.833463046465745	7.916549	2.8136363
8.851042101729728	8.005901	2.8294702
8.86862136570707	8.274159	2.876484
8.886200838818924	8.47144	2.910574
8.903780521486505	8.500355	2.9155369
8.921360414131055	8.568827	2.9272559
8.938940517173874	8.684966	2.9470267
8.956520831036297	8.8517475	2.9751887
8.97410135613971	9.100253	3.0166626
8.99168209290554	9.254348	3.042096
9.009263041755265	9.562746	3.092369
9.026844203110405	9.803975	3.13113
9.044425577392525	10.008689	3.1636512
9.062007165023239	10.025929	3.166375
9.079588966424197	10.327912	3.213707
9.097170982017108	10.404855	3.2256558
9.11475321222372	11.436461	3.3817837
9.132335657465825	12.39355	3.5204475
9.149918318165264	12.488147	3.533857
9.167501194743924	13.107911	3.6204848
9.18508428762374	12.74929	3.5706148
9.202667597226693	12.7718725	3.5737758
9.220251123974803	12.48344	3.5331912
9.237834868290143	12.262681	3.501811
9.255418830594836	12.036642	3.4693863
9.273003011311046	11.470308	3.3867843
9.290587410860985	11.178797	3.3434708
9.308172029666911	10.549906	3.248062
9.32575686815113	10.176088	3.1899981
9.343341926735997	8.831385	2.9717646
9.360927205843916	8.559382	2.9256423
9.378512705897327	8.372873	2.893592
9.396098427318728	8.195742	2.8628206
9.413684370530664	8.1289625	2.8511336
9.431270535955722	8.064924	2.839881
9.448856924016539	7.910101	2.8124902
9.466443535135806	7.753227	2.7844617
9.484030369736251	7.7445793	2.7829084
9.501617428240658	7.789397	2.790949
9.519204711071852	7.8783712	2.8068438
9.536792218652714	7.9287615	2.8158057
9.55437995140617	7.960367	2.8214123
9.571967909755191	7.934953	2.8169048
9.589556094122802	7.9598665	2.8213236
9.60714450493207	8.047121	2.8367448
9.624733142606116	8.042142	2.8358672
9.642322007568108	8.027352	2.8332582
9.659911100241267	8.028817	2.8335168
9.677500421048851	8.064211	2.8397555
9.695089970414175	8.14459	2.8538728
9.712679748760609	8.203729	2.8642151
9.730269756511557	8.221952	2.8673947
9.747859994090492	8.207012	2.8647883
9.765450461920915	8.2108965	2.865466
9.78304116042639	8.271548	2.87603
9.800632090030527	8.27966	2.87744
9.81822325115699	8.273167	2.8763113
9.835814644229481	8.294728	2.880057
9.853406269671762	8.355569	2.8906002
9.870998127907646	8.363916	2.8920436
9.888590219360985	8.261582	2.874297
9.906182544455698	8.270403	2.875831
9.923775103615734	8.180082	2.8600843
9.941367897265108	8.210566	2.8654084
9.958960925827878	8.256459	2.8734055
9.97655418972816	8.353967	2.890323
9.994147689390106	8.385272	2.8957334
10.011741425237934	8.359335	2.8912516
10.029335397695904	8.329821	2.886143
10.04692960718833	8.239565	2.8704643
10.06452405413958	8.311138	2.8829045
10.082118738974064	8.314301	2.883453
10.099713662116246	8.3284855	2.8859115
10.117308823990651	8.279809	2.8774657
10.134904225021844	8.287861	2.8788645
10.152499865634445	8.3101225	2.8827283
10.170095746253125	8.329156	2.8860278
10.18769186730261	8.297195	2.8804853
10.205288229207675	8.286249	2.8785846
10.222884832393145	8.269684	2.8757057
10.2404816772839	8.21334	2.8658924
10.258078764304868	8.255866	2.8733022
10.275676093881035	8.245707	2.8715339
10.293273666437438	8.211063	2.8654952
10.310871482399158	8.211866	2.8656354
10.32846954219134	8.23802	2.8701952
10.346067846239173	8.294516	2.8800201
10.363666394967908	8.29085	2.8793836
10.38126518880283	8.2654085	2.8749623
10.398864228169298	8.257782	2.8736358
10.416463513492713	8.240844	2.870687
10.434063045198531	8.170362	2.8583846
10.451662823712262	8.17133	2.858554
10.469262849459467	8.217836	2.8666768
10.486863122865758	8.138892	2.8528743
10.504463644356806	8.016116	2.8312747
10.522064414358338	7.9106483	2.8125875
10.539665433296118	7.9390244	2.8176274
10.557266701595987	8.003094	2.828974
10.574868219683818	7.9400706	2.8178132
10.592469987985552	7.806796	2.7940645
10.610072006927185	7.617489	2.75998
10.627674276934751	7.4948573	2.7376738
10.64527679843435	7.3764505	2.7159622
10.662879571852143	7.294624	2.7008562
10.680482597614331	7.18257	2.6800318
10.698085876147173	7.10707	2.6659088
10.715689407876988	7.0396085	2.6532261
10.733293193230146	6.947796	2.635867
10.750897232633072	6.801087	2.6078894
10.76850152651225	6.6909437	2.586686
10.786106075294207	6.5989423	2.5688407
10.803710879405534	6.5541477	2.560107
10.821315939272877	6.5287724	2.5551462
10.83892125532294	6.4469132	2.5390773
10.856526827982472	6.3581657	2.5215404
10.874132657678285	6.2780414	2.505602
10.891738744837243	6.2788224	2.5057578
10.909345089886271	6.2329717	2.496592
10.926951693252343	6.1826396	2.4864914
10.944558555362494	6.1124005	2.472327
10.96216567664381	6.0386395	2.4573643
10.979773057523436	6.025007	2.454589
10.997380698428573	5.963112	2.4419484
11.014988599786477	5.909272	2.4308994
11.032596762024461	5.8135443	2.4111292
11.050205185569892	5.7113113	2.3898351
11.067813870850198	5.6775575	2.3827627
11.085422818292859	5.6131673	2.3692124
11.10303202832541	5.5199027	2.3494473
11.120641501375454	5.4833555	2.3416567
11.138251237870636	5.437927	2.3319364
11.155861238238671	5.3806953	2.3196325
11.173471502907317	5.3217683	2.3068957
11.191082032304402	5.266285	2.2948387
11.208692826857805	5.273958	2.29651
11.226303886995465	5.179229	2.275792
11.243915213145371	5.1015687	2.2586653
11.261526805735578	5.0055056	2.2372987
11.279138665194196	4.96725	2.2287328
11.296750791949393	4.8945966	2.2123735
11.314363186429393	4.824088	2.1963806
11.331975849062479	4.730373	2.174942
11.34958878027699	4.7158794	2.1716075
11.36720198050133	4.676093	2.1624277
11.384815450163948	4.627224	2.1510983
11.402429189693366	4.5637374	2.1362906
11.420043199518153	4.5033636	2.122113
11.437657480066942	63.422638	7.9638333
11.455272031768422	85.1598	9.228207
11.472886855051353	107.54594	10.370436
11.490501950344528	99.18006	9.958919
11.508117318076819	84.51332	9.193112
11.52573295867715	45.89617	6.7746716
11.543348872574514	4.1845493	2.045617
11.560965060197946	4.1397634	2.0346408
11.57858152197655	4.1265383	2.0313883
11.59619825833949	4.095473	2.0237274
11.613815269715985	4.0251856	2.0062866
11.631432556535323	38.52069	6.206504
11.649050119226837	83.069016	9.114221
11.666667958219929	93.49613	9.66934
11.68428607394406	107.76314	10.380902
11.701904466828756	82.557236	9.086102
11.719523137303586	65.41456	8.087927
11.737142085798196	4.6406918	2.1542265
11.754761312742286	3.7727427	1.9423549
11.772380818565619	3.758407	1.9386612
11.790000603698015	3.731701	1.9317611
11.80762066856935	3.7030814	1.9243392
11.825241013609572	3.6581743	1.9126354
11.842861639248683	3.6378653	1.9073188
11.860482545916748	3.56282	1.8875433
11.878103734043883	3.5251024	1.8775256
11.895725204060282	3.4378562	1.8541456
11.91334695639619	3.3963661	1.8429233
11.930968991481919	3.3522496	1.830915
11.948591309747824	3.379194	1.8382584
11.966213911624347	3.3683681	1.8353114
11.98383679754198	3.3575387	1.8323588
12.001459967931268	3.3467026	1.8293995
12.019083423222835	3.3401792	1.8276157
12.036707163847352	3.2902079	1.813893
12.05433119023556	3.2592988	1.8053528
12.071955502818259	3.2093124	1.7914554
12.089580102026313	3.1935105	1.7870396
12.107204988290643	3.1965156	1.7878802
12.12483016204224	3.1932783	1.7869747
12.142455623712152	3.1554534	1.7763596
12.16008137373149	3.0922108	1.7584683
12.177707412531431	3.0716677	1.7526174
12.19533374054321	3.0569828	1.748423
12.212960358198126	3.0613444	1.7496698
12.230587265927545	3.0635848	1.75031
12.248214464162889	3.0732532	1.7530696
12.265841953335649	3.0525188	1.7471459
12.283469733877375	3.0136054	1.7359738
12.301097806219685	2.975	1.7248188
12.31872617079425	2.9769833	1.7253937
12.336354828032825	2.9728234	1.7241877
12.353983778367205	2.9611108	1.7207879
12.371613022229262	2.9560018	1.7193027
12.389242560050928	2.9499779	1.7175499
12.406872392264201	2.9515574	1.7180097
12.424502519301143	2.8919482	1.700573
12.442132941593874	2.870207	1.6941686
12.459763659574586	2.8527992	1.6890231
12.477394673675532	2.8554318	1.6898023
12.49502598432903	2.853815	1.6893239
12.51265759196746	2.8538198	1.6893252
12.530289497023267	2.852665	1.6889834
12.547921699928967	2.8650432	1.6926439
12.565554201117134	2.84316	1.6861672
12.583187001020404	2.8337352	1.6833702
12.600820100071486	2.825111	1.6808066
12.618453498703152	2.8583913	1.6906778
12.636087197348235	2.8708198	1.6943494
12.65372119643964	2.9034545	1.7039527
12.671355496410326	2.9122567	1.7065336
12.68899009769333	2.8862379	1.6988931
12.706625000721749	2.8573194	1.6903607
12.724260205928752	2.9162643	1.7077073
12.741895713747551	2.9357865	1.7134137
12.759531524611454	3.010585	1.7351037
12.777167638953818	3.0256186	1.7394305
12.794804057208072	3.063909	1.7504026
12.812440779807702	3.070735	1.7523513
12.830077807186271	3.202301	1.7894974
12.847715139777405	3.2253582	1.7959282
12.865352778014795	3.4332275	1.852897
12.882990722332197	3.558711	1.8864546
12.90062897316344	3.6532617	1.9113507
12.918267530942412	3.7849307	1.9454899
12.935906396103071	3.670801	1.9159335
12.953545569079449	3.873029	1.9680012
12.971185050305628	3.6809516	1.9185807
12.988824840215775	3.7034907	1.9244455
13.006464939244115	3.6737351	1.916699
13.024105347824943	3.4928303	1.8689115
13.041746066392617	3.5524952	1.8848064
13.05938709538157	3.3465555	1.8293593
13.077028435226296	3.3686981	1.8354013
13.094670086361363	3.301451	1.8169895
13.112312049221401	3.1939294	1.7871568
13.129954324241112	3.0665753	1.751164
13.147596911855258	2.8792262	1.6968282
13.165239812498685	2.8448827	1.686678
13.182883026606293	2.8150082	1.6777986
13.200526554613058	2.8117344	1.6768227
13.218170396954017	2.8031168	1.6742511
13.235814554064284	2.782546	1.6680965
13.253459026379034	2.7450066	1.6568061
13.271103814333523	2.7048306	1.644637
13.288748918363058	2.6918113	1.640674
13.306394338903031	2.7128136	1.6470621
13.32404007638889	2.7229497	1.6501362
13.341686131256164	2.7189748	1.6489314
13.359332503940449	2.679934	1.6370504
13.376979194877402	2.671548	1.634487
13.394626204502751	2.697665	1.642457
13.412273533252307	2.747123	1.6574447
13.429921181561937	2.7451086	1.656837
13.447569149867581	2.7507398	1.6585355
13.465217438605247	2.7598522	1.6612803
13.482866048211022	2.765793	1.6630673
13.500514979121052	2.7610958	1.6616545
13.518164231771568	2.7091305	1.6459436
13.535813806598844	2.6957097	1.6418617
13.553463704039254	2.7078834	1.6455648
13.571113924529229	2.747952	1.6576948
13.588764468505275	2.7802076	1.6673955
13.606415336403956	2.783245	1.6683061
13.624066528661917	2.825162	1.6808218
13.641718045715882	2.8614526	1.6915829
13.659369888002635	2.876869	1.6961335
13.67702205595903	2.899764	1.7028694
13.694674550021993	2.943009	1.71552
13.712327370628532	3.0263705	1.7396467
13.729980518215713	3.1544936	1.7760894
13.747633993220681	3.281921	1.8116072
13.765287796080647	3.3447814	1.8288743
13.7829419272329	3.3690631	1.8355008
13.800596387114801	3.3493946	1.8301351
13.818251176163775	3.382459	1.8391463
13.835906294817324	3.4426053	1.855426
13.853561743513023	3.5323143	1.8794452
13.871217522688525	3.5163126	1.8751833
13.888873632781538	3.5019646	1.8713536
13.906530074229858	3.4731407	1.8636364
13.92418684747135	3.4949846	1.8694878
13.941843952943948	3.4841166	1.8665788
13.959501391085665	3.4440656	1.8558193
13.977159162334578	3.4322617	1.8526365
13.994817267128846	3.4104347	1.8467362
14.012475705906693	3.3833547	1.8393898
14.030134479106424	3.3036153	1.817585
14.047793587166414	3.2092836	1.7914474
14.065453030525108	3.1277297	1.7685388
14.083112809621026	3.0318358	1.7412168
14.100772924892766	2.9680972	1.7228167
14.118433376778997	2.927099	1.7108767
14.136094165718458	2.8347156	1.6836613
14.153755292149969	2.7558858	1.660086
14.171416756512416	2.6970735	1.6422769
14.189078559244768	2.6539338	1.6290898
14.20674070078606	2.5988576	1.6120973
14.224403181575408	2.5310209	1.5909183
14.242066002051999	2.4940953	1.5792705
14.259729162655093	2.4476714	1.5645036
14.277392663824022	2.4339998	1.5601281
14.295056505998208	2.3984919	1.5487065
14.312720689617128	2.3914661	1.5464365
14.330385215120348	2.405551	1.5509839
14.348050082947497	2.4140809	1.5537313
14.3657152935383	2.4166965	1.5545728
14.383380847332528	2.4221869	1.5563376
14.401046744770051	2.4262092	1.5576293
14.418712986290798	2.4202826	1.5557257
14.436379572334793	2.4052203	1.5508772
14.454046503342123	2.4010675	1.5495378
14.471713779752946	2.4041057	1.5505179
14.489381402007504	2.3993194	1.5489737
14.507049370546113	2.393149	1.5469806
14.524717685809168	2.4108343	1.5526862
14.542386348237134	2.413906	1.553675
14.560055358270553	2.4069762	1.5514432
14.577724716350051	2.4551103	1.5668792
14.595394422916325	2.472472	1.5724096
14.61306447841015	2.5161724	1.5862447
14.63073488327237	2.4749799	1.5732069
14.648405637943917	2.504017	1.5824087
14.6660767428658	2.4994905	1.5809777
14.683748198479094	2.5271778	1.58971
14.701420005224954	2.5901082	1.6093813
14.719092163544628	2.6588366	1.6305939
14.73676467387942	2.6727002	1.6348395
14.754437536670727	2.661787	1.6314985
14.772110752360014	2.647414	1.6270876
14.78978432138882	2.6725595	1.6347965
14.807458244198777	2.7503085	1.6584054
14.82513252123159	2.7561288	1.6601592
14.842807152929028	2.7636263	1.6624159
14.860482139732962	2.69805	1.6425742
14.87815748208531	2.6706057	1.6341988
14.8958331804281	2.6986477	1.6427561
14.91350923520342	2.6761014	1.6358794
14.931185646853438	2.7287056	1.6518794
14.948862415820408	2.6821465	1.6377261
14.966539542546656	2.710357	1.6463162
14.98421702747459	2.7206805	1.6494485
15.001894871046696	2.746641	1.6572993
15.019573073705542	2.7360077	1.6540881
15.037251635893766	2.7408154	1.6555408
15.054930558054092	2.7796154	1.6672179
15.072609840629323	2.8059492	1.6750968
15.090289484062351	2.9066677	1.7048953
15.107969488796124	3.1777282	1.7826184
15.125649855273691	3.5753045	1.8908476
15.14333058393817	4.0898976	2.0223496
15.161011675232768	5.071496	2.2519982
15.17869312960076	6.43592	2.5369115
15.196374947485506	8.306458	2.8820927
15.214057129330447	11.35442	3.369632
15.231739675579114	16.119184	4.0148706
15.249422586675102	21.279507	4.612972
15.267105863062092	24.473143	4.947034
15.284789505183847	24.891203	4.9891086
15.302473513484218	22.928251	4.7883453
15.320157888407127	19.394415	4.403909
15.337842630396578	15.105673	3.8866017
15.355527739896656	11.743285	3.4268477
15.37321321735153	9.091514	3.0152137
15.39089906320545	6.5764065	2.5644505
15.408585277902748	4.852077	2.202743
15.42627186188783	3.732923	1.9320774
15.443958815605198	3.2200384	1.7944466
15.461646139499424	2.988688	1.7287822
15.479333834015168	2.8236136	1.6803612
15.497021899597165	2.7073946	1.6454163
15.514710336690234	2.6420932	1.6254517
15.53239914573928	2.607037	1.6146321
15.550088327189297	2.5403023	1.5938326
15.567777881485336	2.514599	1.5857488
15.58546780907256	2.4935374	1.5790938
15.6031581103962	2.5146759	1.585773
15.620848785901568	2.5020838	1.5817976
15.638539836034063	2.4884477	1.5774814
15.656231261239173	2.4764922	1.5736874
15.673923061962451	2.447964	1.564597
15.691615238649552	2.4451003	1.5636816
15.709307791746202	2.4253304	1.5573472
15.727000721698221	2.4193804	1.5554358
15.744694028951498	2.4252253	1.5573134
15.76238771395202	2.4113417	1.5528495
15.780081777145844	2.409877	1.5523778
15.797776218979125	2.405257	1.5508891
15.815471039898094	2.39236	1.5467255
15.833166240349064	2.383237	1.5437735
15.850861820778437	2.3970134	1.5482291
15.868557781632699	2.4394178	1.5618635
15.886254123358412	2.4296494	1.5587332
15.903950846402232	2.4073	1.5515476
15.921647951210897	2.416033	1.5543593
15.939345438231225	2.429932	1.558824
15.957043307910133	2.4139462	1.5536879
15.974741560694602	2.3871071	1.5450265
15.992440197031714	2.40667	1.5513446
16.01013921736862	2.4268458	1.5578337
16.02783862215259	2.4268656	1.55784
16.045538411830933	2.3965476	1.5480787
16.06323858685107	2.3702698	1.5395681
16.080939147660512	2.3624277	1.5370191
16.09864009470684	2.3873622	1.5451092
16.11634142843774	2.4298096	1.5587846
16.134043149300954	2.4507465	1.5654861
16.15174525774433	2.4600804	1.5684644
16.169447754215817	2.436701	1.5609937
16.18715063916342	2.4249086	1.5572118
16.204853913035244	2.412124	1.5531014
16.222557576279478	2.4020627	1.5498589
16.240261629344403	22.381039	4.73086
16.257966072678386	42.955135	6.5540166
16.275670906729868	38.12699	6.174706
16.293376131947387	2.553991	1.5981212
16.31108174877957	2.582636	1.6070582
16.328787757675133	2.6057131	1.6142222
16.34649415908287	2.6177654	1.617951
16.364200953451657	2.6028783	1.6133438
16.38190814123048	2.578893	1.6058931
16.39961572286839	2.6035974	1.6135666
16.41732369881455	2.6583169	1.6304345
16.43503206951817	2.7357576	1.6540126
16.45274083542859	2.7647934	1.6627668
16.47044999699522	2.7888577	1.6699873
16.488159554667558	2.8325527	1.6830189
16.505869508895184	2.9033718	1.7039284
16.523579860127786	2.9544847	1.7188615
16.541290608815117	2.9543507	1.7188225
16.559001755407035	2.9860654	1.7280235
16.57671330035348	3.021087	1.7381275
16.59442524410448	3.1030881	1.7615584
16.61213758711015	3.1406803	1.7721964
16.629850329820705	3.1677704	1.7798232
16.647563472686436	3.2377067	1.7993629
16.665277016157724	3.3426306	1.8282863
16.682990960685053	3.421344	1.8496876
16.70070530671898	3.4626725	1.8608258
16.718420054710155	3.49948	1.8706897
16.736135205109335	3.5827563	1.892817
16.753850758367335	3.6156948	1.9014981
16.771566714935087	3.6146245	1.9012166
16.789283075263597	3.686178	1.9199421
16.80699983980398	3.793198	1.9476135
16.82471700900741	3.8382168	1.9591367
16.84243458332518	3.9146435	1.9785458
16.860152563208665	4.003192	2.0007977
16.87787094910932	4.132001	2.0327325
16.89558974147871	4.197466	2.0487719
16.913308940768466	4.213816	2.0527582
16.931028547430333	4.2278376	2.0561707
16.94874856191613	4.2675066	2.0657945
16.966468984677785	4.3004074	2.0737424
16.98418981616729	4.3379765	2.0827808
17.00191105683676	4.396957	2.096892
17.019632707138374	4.452289	2.1100447
17.03735476752442	4.4678097	2.1137195
17.05507723844728	4.5034847	2.1221416
17.072800120359403	4.555354	2.1343277
17.090523413713353	4.6386333	2.1537488
17.108247118961785	4.657784	2.15819
17.125971236557437	4.6788898	2.1630743
17.143695766953133	4.694872	2.1667652
17.161420710601806	4.7524533	2.1800122
17.179146067956477	4.7596245	2.1816564
17.19687183947025	4.7621174	2.1822276
17.21459802559634	4.715881	2.171608
17.232324626788028	4.645325	2.1553016
17.25005164349871	4.6338716	2.152643
17.267779076181863	4.6407747	2.1542459
17.285506925291074	4.6406894	2.1542258
17.30323519127999	4.6485853	2.1560578
17.320963874602384	4.6471114	2.155716
17.33869297571211	4.676975	2.1626315
17.356422495063114	4.6360917	2.1531584
17.37415243310944	4.583311	2.140867
17.391882790305218	4.5211196	2.1262925
17.40961356710468	4.510437	2.123779
17.42734476396215	4.540228	2.130781
17.445076381332044	4.5667324	2.1369915
17.462808419668868	4.6413517	2.1543796
17.48054087942723	4.7529173	2.1801186
17.498273761061835	5.0467715	2.2465022
17.51600706502747	5.486992	2.342433
17.533740791779024	6.2285337	2.495703
17.551474941771485	7.655133	2.766791
17.56920951545993	8.726645	2.9540896
17.586944513299528	10.856839	3.2949717
17.60467993574556	12.515252	3.5376902
17.622415783253373	14.287019	3.7798173
17.64015205627843	15.799248	3.9748268
17.657888755276293	16.997953	4.1228576
17.675625880702604	17.470076	4.179722
17.69336343301311	17.284569	4.1574717
17.71110141266366	16.38286	4.0475745
17.728839820110178	15.377405	3.9214034
17.746578655808705	14.404984	3.79539
17.764317920215372	13.0692215	3.6151378
17.7820576137864	11.499622	3.3911092
17.79979773697811	9.475893	3.0782938
17.81753829024692	7.5668344	2.750788
17.835279274049356	5.9399757	2.4372065
17.85302068884201	4.9087563	2.2155714
17.870762535081607	4.2250147	2.055484
17.888504813224934	3.8990788	1.9746085
17.90624752372891	3.7257829	1.9302287
17.923990667050536	3.6386259	1.9075183
17.941734243646895	3.5865903	1.8938296
17.959478253975185	3.5317554	1.8792965
17.9772226984927	3.5233912	1.8770698
17.994967577656833	3.4646943	1.8613689
18.01271289192506	3.4311996	1.8523498
18.030458641754965	3.3503194	1.8303877
18.04820482760425	3.3188748	1.8217779
18.06595144993067	3.2649014	1.8069038
18.083698509192125	3.2905824	1.8139963
18.101446005846576	3.2744365	1.8095404
18.119193940352105	3.2759264	1.809952
18.136942313166887	3.2415206	1.8004223
18.1546911247492	3.2290556	1.7969574
18.1724403755574	3.2222419	1.7950604
18.19019006604997	3.1846936	1.7845709
18.207940196685467	3.1328819	1.7699949
18.225690767922575	3.1070943	1.7626952
18.243441780220046	3.089843	1.757795
18.261193234036764	3.0909853	1.7581198
18.278945129831676	3.074699	1.753482
18.29669746806386	3.0800588	1.7550097
18.314450249192483	3.0712407	1.7524955
18.3322034736768	3.0574956	1.7485696
18.349957141976184	3.019511	1.737674
18.3677112545501	3.0479746	1.745845
18.385465811858108	3.0989206	1.7603751
18.403220814359884	3.1127405	1.764296
18.420976262515172	3.111543	1.7639567
18.43873215678387	3.1180801	1.7658086
18.456488497625923	3.1728337	1.781245
18.474245285501407	3.272917	1.8091205
18.492002520870486	3.3412185	1.8279
18.50976020419343	3.4128337	1.8473856
18.527518335930615	3.7174287	1.9280635
18.545276916542516	4.2987213	2.073336
18.563035946489688	4.439352	2.106977
18.580795426232832	4.91706	2.2174444
18.598555356232698	4.7911177	2.188862
18.616315736950185	5.1278033	2.2644653
18.63407656884626	4.7647533	2.1828315
18.65183785238201	4.9481444	2.2244425
18.669599588018617	4.6509557	2.1566074
18.68736177621737	4.638034	2.1536095
18.705124417439652	4.6778574	2.1628356
18.72288751214696	4.53888	2.1304648
18.740651060800886	4.6918015	2.1660566
18.758415063863115	4.3916936	2.0956368
18.77617952179546	4.542178	2.1312387
18.793944435059814	4.3209133	2.0786808
18.811709804118184	4.3629723	2.088773
18.829475629432675	4.315172	2.0772994
18.8472419114655	4.063371	2.0157804
18.86500865067897	4.1242843	2.0308335
18.88277584753551	3.7991455	1.9491397
18.90054350249763	3.8206537	1.9546492
18.918311616027957	3.4794903	1.8653392
18.936080188589226	3.388187	1.8407029
18.953849220644265	3.0830443	1.75586
18.971618712656007	2.9250124	1.7102667
18.9893886650875	2.8977268	1.7022711
19.007159078401887	8.067486	2.840332
19.024929953062408	32.915855	5.737234
19.042701289532435	32.811417	5.728125
19.060473088275405	25.359222	5.0357943
19.07824534975489	2.6911588	1.6404752
19.096018074434568	2.6996381	1.6430576
19.113791262778197	2.672511	1.6347817
19.13156491524966	2.6213095	1.6190459
19.149339032312945	2.6372056	1.6239475
19.167113614432136	2.6536567	1.6290048
19.184888662071433	2.6427562	1.6256557
19.202664175695123	2.6095452	1.6154087
19.220440155767623	2.5831187	1.6072084
19.238216602753447	2.5903754	1.6094643
19.2559935171172	2.5922842	1.6100572
19.27377089932361	2.6057196	1.6142242
19.291548749837514	2.5704248	1.6032544
19.309327069123835	2.5387912	1.5933585
19.32710585764763	2.5133157	1.5853441
19.344885115874032	2.5311055	1.5909449
19.362664844268313	2.546633	1.5958173
19.380445043295822	2.52783	1.589915
19.39822571342203	2.5032125	1.5821544
19.41600685511252	2.4635348	1.5695652
19.43378846883297	2.467476	1.5708201
19.451570555049173	2.476019	1.5735371
19.469353114227037	2.4641626	1.5697651
19.48713614683254	2.470981	1.5719354
19.50491965333182	2.5164194	1.5863227
19.52270363419109	2.5157719	1.5861185
19.540488089876686	2.4948235	1.579501
19.55827302085503	2.4809387	1.5750996
19.576058427592674	2.4981074	1.5805402
19.593844310556282	2.4886787	1.5775547
19.611630670212598	2.4982078	1.580572
19.629417507028506	2.5387363	1.5933412
19.64720482147098	2.5507429	1.5971045
19.6649926140071	2.5583274	1.5994773
19.682780885104084	2.513654	1.5854508
19.70056963522921	2.5160923	1.5862195
19.718358864849908	2.5270188	1.5896599
19.7361485744337	2.5276084	1.5898454
19.753938764448215	2.528697	1.5901878
19.771729435361202	2.535824	1.5924271
19.789520587640506	2.5137835	1.5854915
19.807312221754092	2.5276113	1.5898463
19.825104338170043	2.511774	1.5848577
19.842896937356517	2.5206583	1.587658
19.860690019781824	2.5443974	1.5951167
19.87848358591436	2.5524995	1.5976543
19.896277636222635	2.5633883	1.6010585
19.914072171175278	2.5509014	1.5971541
19.931867191241015	2.549564	1.5967354
19.94966269688869	2.5402868	1.5938277
19.967458688587264	2.4898565	1.577928
19.985255166805807	2.4729996	1.5725774
20.00305213201348	2.5000548	1.5811561
20.020849584679578	2.5036156	1.5822818
20.038647525273507	2.4922218	1.5786773
20.05644595426477	2.4574146	1.5676143
20.07424487212299	2.440084	1.5620768
20.092044279317903	2.4399335	1.5620286
20.109844176319353	2.4426584	1.5629007
20.127644563597304	2.4598577	1.5683933
20.145445441621817	2.4544644	1.566673
20.16324681086307	2.424084	1.556947
20.181048671791373	2.4104078	1.5525488
20.198851024877122	2.4178956	1.5549583
20.216653870590836	2.460555	1.5686157
20.234457209403146	2.4478953	1.5645751
20.252261041784802	2.4474359	1.5644283
20.270065368206662	2.412641	1.5532678
20.287870189139685	2.3815558	1.543229
20.305675505054968	2.3678658	1.5387871
20.323481316423702	2.3994842	1.5490268
20.341287623717207	2.4261563	1.5576124
20.359094427406884	2.4204144	1.5557681
20.376901727964288	2.3880591	1.5453346
20.39470952586107	2.3858073	1.5446059
20.41251782156899	2.379365	1.5425191
20.430326615559935	2.3891385	1.5456839
20.448135908305886	2.360489	1.5363883
20.465945700278965	2.3184938	1.5226601
20.483755991951384	2.328973	1.5260973
20.50156678379548	2.3977685	1.548473
20.519378076283708	2.4273567	1.5579977
20.537189869888635	2.4133081	1.5534825
20.55500216508294	2.3924317	1.5467488
20.572814962339415	2.3526995	1.5338511
20.59062826213098	2.3374243	1.5288637
20.60844206493066	2.3050127	1.5182269
20.626256371211593	2.308015	1.5192153
20.644071181447032	2.2838588	1.511244
20.66188649611036	2.2625651	1.5041826
20.67970231567506	2.2487376	1.4995792
20.697518640614742	2.2578325	1.5026085
20.715335471403122	2.2555625	1.501853
20.73315280851404	2.2752478	1.5083925
20.750970652421447	2.28415	1.5113404
20.768789003599412	2.2821698	1.5106852
20.786607862522136	2.2962658	1.5153434
20.8044272296639	2.2903779	1.5133995
20.82224710549913	2.3059967	1.5185509
20.84006749050237	2.3322804	1.5271806
20.857888385148268	3.886261	1.9713602
20.8757097899116	45.998287	6.7822037
20.893531705267254	64.84342	8.052542
20.911354131690224	83.867935	9.157944
20.92917706965566	69.10779	8.313109
20.94700051963877	50.149704	7.0816455
20.96482448211493	29.42022	5.424041
20.982648957559622	4.1490602	2.0369241
21.00047394644843	2.2492247	1.4997416
21.01829944925707	2.2819643	1.5106171
21.036125466461375	2.3103642	1.5199883
21.053951998537297	2.2842507	1.5113738
21.071779045960906	2.2122486	1.487363
21.089606609208378	2.1949065	1.4815217
21.10743468875603	2.20083	1.4835194
21.12526328508028	2.2129583	1.4876015
21.143092398657675	2.1948733	1.4815105
21.16092202996488	2.2148666	1.4882427
21.17875217947867	2.2048676	1.4848796
21.19658284767596	2.1881056	1.4792247
21.21441403503377	2.1956668	1.4817783
21.232245742029225	2.231094	1.4936846
21.2500779691396	2.2394426	1.4964768
21.26791071684227	2.2397084	1.4965656
21.28574398561475	2.2257805	1.491905
21.30357777593465	2.2137687	1.4878739
21.321412088279704	2.1913803	1.4803312
21.339246923127792	2.1705077	1.4732643
21.357082280956888	2.1961706	1.4819483
21.3749181622451	2.1833148	1.4776044
21.392754567470647	2.1485143	1.4657811
21.41059149711187	2.1315928	1.4599975
21.42842895164726	2.156346	1.4684502
21.446266931555378	2.1659632	1.4717212
21.464105437314945	2.1292253	1.4591866
21.481944469404798	2.143768	1.4641613
21.49978402830388	2.1840823	1.4778641
21.51762411449127	2.1975067	1.482399
21.53546472844617	2.1321166	1.460177
21.553305870647876	2.0845995	1.4438142
21.571147541575865	2.0703986	1.438888
21.58898974170967	2.1029875	1.4501681
21.60683247152899	2.0971055	1.4481386
21.62467573151363	2.1015573	1.4496748
21.642519522143523	2.0907907	1.4459567
21.660363843898722	2.0730462	1.4398077
21.6782086972594	2.0694008	1.4385412
21.696054082705864	2.1084719	1.4520578
21.713900000718535	2.1054618	1.451021
21.73174645177795	2.0838556	1.4435565
21.749593436364794	2.0592945	1.4350243
21.767440954959845	2.065515	1.4371899
21.785289008044032	2.0678818	1.4380132
21.803137596098388	2.0444913	1.4298571
21.820986719604086	2.03957	1.4281352
21.838836379042412	2.0414479	1.4287925
21.85668657489478	2.0286226	1.4242972
21.87453730764273	2.013052	1.4188206
21.892388577767914	2.0117223	1.418352
21.91024038575213	2.000492	1.4143876
21.928092732077285	1.9807248	1.4073822
21.945945617225426	2.0177865	1.4204881
21.963799041678694	2.0561635	1.4339329
21.981653005919398	31.376247	5.6014504
21.999507510429943	78.153206	8.84043
22.01736255569286	73.0836	8.548895
22.035218142190818	4.180973	2.0447428
22.05307427040661	2.016974	1.4202021
22.07093094082315	2.0239916	1.4226706
22.088788153923474	2.0158708	1.4198136
22.106645910190746	1.982151	1.4078889
22.12450421010827	1.9886386	1.4101909
22.142363054159464	2.0300195	1.4247875
22.16022244282787	2.090362	1.4458084
22.178082376597164	2.0828512	1.4432087
22.195942855951145	2.0363955	1.4270233
22.213803881373742	1.9979777	1.4134984
22.231665453349002	1.9778693	1.4063674
22.24952757236111	1.9576979	1.3991776
22.26739023889438	1.9457409	1.3948982
22.28525345343323	1.954683	1.3980998
22.30311721646225	1.9534343	1.3976531
22.320981528466113	1.9635912	1.401282
22.33884638992964	1.9765853	1.4059108
22.356711801337788	1.9917885	1.4113073
22.37457776317561	1.9809824	1.4074738
22.392444275928337	1.9668161	1.4024322
22.410311340081282	1.9743091	1.4051011
22.428178956119904	1.9949833	1.4124388
22.446047124529805	1.9950578	1.4124652
22.46391584579669	1.9797721	1.4070437
22.481785120406414	1.9469885	1.3953453
22.49965494884496	1.9392918	1.3925846
22.51752533159841	1.9565507	1.3987676
22.53539626915302	1.9626442	1.400944
22.553267761995137	1.9462347	1.3950752
22.571139810611264	1.9486847	1.3959529
22.589012415488025	1.9697373	1.4034733
22.60688557711216	1.9710424	1.4039382
22.624759295970566	1.9798286	1.4070638
22.642633572550263	1.9764779	1.4058726
22.660508407338362	1.9807782	1.4074012
22.67838380082217	1.9554005	1.3983563
22.696259753489077	1.9755911	1.4055572
22.714136265826614	2.01437	1.419285
22.73201333832246	2.0157826	1.4197826
22.74989097146439	1.9842538	1.4086354
22.76776916574035	1.9263169	1.3879181
22.785647921638393	1.8838656	1.3725399
22.803527239646712	1.882642	1.372094
22.82140712025363	1.8995001	1.3782235
22.839287563947593	1.9312913	1.3897091
22.85716857121719	1.9387113	1.3923762
22.875050142551135	1.9158018	1.3841249
22.892932278438277	1.912055	1.3827708
22.910814979367604	1.8996726	1.3782861
22.928698245828222	1.9393034	1.3925887
22.946582078309387	1.9477177	1.3956065
22.96446647730047	1.9321214	1.3900077
22.98235144329098	1.9134166	1.383263
23.000236976770562	1.8975134	1.3775026
23.018123078229	1.9059182	1.38055
23.03600974815619	1.8919502	1.3754818
23.053896987042194	1.882442	1.3720211
23.071784795377173	1.9076216	1.3811668
23.08967317365145	1.9097676	1.3819435
23.10756212235546	1.8972178	1.3773953
23.125451641979787	1.8840355	1.3726017
23.143341733015134	1.8848008	1.3728805
23.161232395952357	1.9237424	1.3869904
23.179123631282426	1.9659958	1.4021397
23.197015439496468	1.9828153	1.4081247
23.214907821085717	1.9149348	1.3838117
23.23280077654157	1.8823568	1.3719901
23.250694306355538	1.8938019	1.3761548
23.268588411019277	1.935124	1.3910874
23.28648309102458	1.9573447	1.3990513
23.304378346863356	1.9320918	1.389997
23.322274179027676	1.9337661	1.3905993
23.340170588009723	1.9196985	1.3855318
23.358067574301852	1.9036622	1.3797326
23.37596513839651	1.8914919	1.3753152
23.39386328078629	1.9180946	1.3849529
23.411762001963947	1.9624262	1.4008663
23.429661302422353	1.9659224	1.4021136
23.4475611826545	1.9568313	1.3988678
23.46546164315356	1.9791355	1.4068176
23.48336268441279	1.9978917	1.413468
23.501264306925638	1.9790931	1.4068024
23.51916651118564	1.9486083	1.3959256
23.537069297686497	1.92289	1.3866831
23.554972666922037	1.9277382	1.3884301
23.57287661938623	1.9440227	1.3942821
23.59078115557318	1.9408115	1.3931301
23.608686275977128	1.9423152	1.3936697
23.62659198109246	1.958862	1.3995935
23.6444982714137	1.9407654	1.3931136
23.66240514743549	1.9243058	1.3871934
23.68031260965263	1.8953807	1.3767283
23.698220658560068	1.8806968	1.371385
23.716129294652845	1.8683089	1.366861
23.7340385184262	1.8976369	1.3775474
23.75194833037546	1.89267	1.3757434
23.769858730996123	1.8866849	1.3735665
23.78776972078382	1.8836367	1.3724564
23.80568130023431	1.8972845	1.3774195
23.823593469843495	1.9064937	1.3807584
23.841506230107424	1.8982567	1.3777723
23.859419581522275	1.907785	1.381226
23.87733352458438	1.9055941	1.3804326
23.89524805979019	1.9072092	1.3810174
23.913163187636318	1.9088974	1.3816285
23.931078908619508	1.9567679	1.3988452
23.948995223236633	1.9967775	1.4130738
23.966912131984735	2.0154986	1.4196826
23.98482963536096	2.0527253	1.4327335
24.002747733862616	2.0620823	1.4359952
24.020666427987155	2.0790727	1.441899
24.038585718232156	2.0937083	1.4469652
24.056505605095353	2.0816498	1.4427923
24.074426089074617	2.1100624	1.4526054
24.092347170667946	2.0972705	1.4481956
24.110268850373515	2.0617409	1.4358764
24.128191128689586	2.070597	1.4389569
24.146114006114626	2.0510168	1.4321371
24.164037483147187	2.0888593	1.4452887
24.181961560286005	2.0708554	1.4390467
24.199886238029926	2.103489	1.450341
24.21781151687797	2.088154	1.4450446
24.235737397329274	2.088025	1.445
24.253663879883135	2.052068	1.432504
24.271590965038975	2.028921	1.424402
24.289518653296376	2.0575573	1.4344188
24.30744694515505	2.0765107	1.4410102
24.32537584111486	2.0439374	1.4296634
24.34330534167581	2.011872	1.4184047
24.361235447338046	2.05467	1.4334121
24.379166158601876	2.0377796	1.4275081
24.39709747596772	2.0358744	1.4268407
24.41502939993615	2.0386028	1.4277965
24.432961931007917	1.990482	1.4108444
24.450895069683856	1.9763647	1.4058324
24.468828816465	1.9820243	1.4078438
24.4867631718525	2.0038183	1.4155629
24.504698136347656	2.0322654	1.4255755
24.52263371045192	2.0187585	1.4208302
24.540569894666874	1.9710441	1.4039388
24.558506689494266	1.9574984	1.3991063
24.57644409543597	1.9479928	1.3957051
24.594382112994012	1.9569335	1.3989044
24.61232074267057	1.9583901	1.3994249
24.630259984967953	1.9563165	1.3986838
24.64819984038863	1.9159968	1.3841953
24.66614030943522	1.9168203	1.3844928
24.684081392610462	1.9140763	1.3835015
24.702023090417274	1.9606836	1.4002441
24.7199654033587	1.9691138	1.4032512
24.737908331937927	1.9314237	1.3897567
24.755851876658305	1.9066402	1.3808115
24.773796038023324	1.9568185	1.3988633
24.79174081653661	2.0276575	1.4239584
24.809686212701962	2.055858	1.4338263
24.827632227023294	2.04909	1.4314642
24.8455788600047	2.0834854	1.4434283
24.8635261121504	2.1148677	1.4542584
24.88147398396475	2.1215594	1.4565574
24.899422475952303	2.078399	1.4416653
24.917371588617698	2.0728154	1.4397275
24.935321322465768	2.1243827	1.4575262
24.953271678001478	2.2022545	1.4839995
24.97122265572994	2.395599	1.5477723
24.989174256156414	2.7866728	1.6693331
25.00712647978632	3.2483792	1.8023261
25.02507932712521	3.7883952	1.94638
25.043032798678798	4.2953796	2.0725298
25.060986894952933	4.9715967	2.2297077
25.078941616453637	5.7152066	2.3906498
25.096896963687055	6.735275	2.5952408
25.114852937159508	7.934373	2.8168018
25.132809537377444	8.410449	2.9000773
25.150766764847468	8.409353	2.8998885
25.168724620076347	7.7760825	2.7885628
25.186683103570985	6.7449226	2.5970988
25.204642215838426	5.582155	2.3626585
25.222601957385894	4.289424	2.0710924
25.24056232872074	3.2391782	1.7997717
25.25852333035048	2.71359	1.6472977
25.276484962782778	2.3736815	1.5406756
25.294447226525435	2.2041306	1.4846315
25.312410122086423	2.057988	1.4345689
25.330373649973843	1.9483883	1.3958468
25.348337810695988	1.9009801	1.3787603
25.366302604761245	1.8737967	1.3688669
25.384268032678207	1.8599901	1.3638146
25.40223409495558	1.8411479	1.356889
25.420200792102257	1.8758497	1.3696166
25.438168124627246	1.9261616	1.3878622
25.45613609303974	1.9566455	1.3988014
25.474104697849057	1.9634746	1.4012403
25.492073939564698	1.962349	1.4008387
25.510043818696285	1.9475292	1.395539
25.528014335753614	1.929555	1.3890842
25.54598549124664	1.9134333	1.3832691
25.56395728568544	1.8836148	1.3724484
25.58192971958028	1.8809499	1.3714772
25.59990279344156	1.8948644	1.3765408
25.617876507779833	1.9374518	1.3919238
25.635850863105826	1.9272457	1.3882527
25.653825859930386	1.8979472	1.37766
25.671801498764548	1.8746219	1.3691683
25.68977778011949	1.8804111	1.3712808
25.707754704506524	1.8867259	1.3735814
25.725732272437153	1.9155058	1.384018
25.743710484423012	1.9233587	1.386852
25.761689340975888	1.8792523	1.3708582
25.77966884260774	1.8213537	1.3495754
25.797648989830662	1.8319354	1.3534901
25.815629783156922	1.8618888	1.3645104
25.83361122309895	1.8788246	1.3707023
25.85159331016929	1.9194181	1.3854307
25.869576044880695	1.9247541	1.3873551
25.887559427746034	1.9073356	1.3810632
25.90554345927836	1.857464	1.3628881
25.92352813999086	1.839989	1.3564619
25.94151347039689	1.8146715	1.3470974
25.959499451009965	1.847332	1.3591659
25.97748608234374	1.8846123	1.3728118
25.995473364912062	1.9040389	1.3798691
26.013461299228904	1.8557452	1.3622574
26.03144988580839	1.8251773	1.3509912
26.04943912516483	1.8339895	1.3542486
26.067429017812675	1.8847195	1.3728509
26.085419564266537	1.8724769	1.3683848
26.103410765041186	1.8149455	1.3471991
26.12140262065155	1.8324114	1.353666
26.139395131612723	1.8452226	1.3583897
26.157388298439948	1.8371093	1.3554001
26.17538212164861	1.8344727	1.3544271
26.193376601754295	1.8239634	1.350542
26.211371739272714	1.8441632	1.3579997
26.229367534719746	1.8362887	1.3550973
26.247363988611433	1.8418821	1.3571596
26.26536110146397	1.8159486	1.3475714
26.283358873793727	1.8254952	1.3511089
26.301357306117204	1.7971747	1.3405875
26.319356398951104	1.8017452	1.342291
26.33735615281224	1.8236419	1.3504229
26.35535656821762	1.8452497	1.3583996
26.373357645684404	1.8544616	1.3617861
26.39135938572991	1.8603218	1.3639362
26.409361788871614	1.8694284	1.3672705
26.427364855627165	1.8469228	1.3590153
26.445368586514352	1.823285	1.3502907
26.46337298205115	1.8009819	1.3420067
26.48137804275568	1.854975	1.3619747
26.499383769146217	1.87652	1.3698614
26.517390161741215	1.8311577	1.3532027
26.53539722105928	1.8042668	1.34323
26.553404947619182	1.8248439	1.3508679
26.571413341939856	1.8453737	1.3584453
26.589422404540397	1.8002648	1.3417395
26.60743213594006	1.8288722	1.352358
26.62544253665827	1.9037125	1.3797508
26.64345360721459	1.8719097	1.3681775
26.66146534812879	1.8470927	1.3590779
26.679477759920758	1.8266186	1.3515245
26.69749084311057	1.8339097	1.3542192
26.71550459821847	1.8428525	1.357517
26.733519025764842	1.8387785	1.3560157
26.751534126270258	1.8793248	1.3708847
26.769549900255434	1.8878613	1.3739946
26.787566348241267	1.8778228	1.3703368
26.80558347074881	1.8326604	1.3537579
26.823601268299267	1.8415588	1.3570404
26.841619741414036	1.822165	1.3498759
26.85963889061465	1.8243228	1.350675
26.877658716422832	1.8224505	1.3499817
26.89567921936045	1.8627108	1.3648117
26.913700399949544	1.877003	1.3700376
26.93172225871233	1.8868545	1.3736283
26.949744796171174	1.8226955	1.3500724
26.967768012848605	1.7645831	1.3283762
26.98579190926733	1.7907121	1.3381749
27.003816485950225	1.8052953	1.3436128
27.021841743420318	1.8153206	1.3473383
27.039867682200814	1.7803268	1.3342888
27.057894302815072	1.780366	1.3343035
27.07592160578664	1.8087498	1.3448977
27.0939495916392	1.8202844	1.3491791
27.111978260896635	1.805296	1.343613
27.13000761408296	1.8099471	1.3453428
27.148037651722397	1.8227777	1.3501029
27.166068374339304	1.8439015	1.3579034
27.184099782458215	1.8238157	1.3504872
27.20213187660384	1.825174	1.35099
27.22016465730105	1.7957667	1.3400623
27.23819812507487	1.811523	1.3459283
27.256232280450533	1.8184896	1.3485138
27.274267123953383	1.7934617	1.3392019
27.292302656108987	1.7971927	1.3405942
27.31033887744306	1.8223554	1.3499465
27.32837578848146	1.8137757	1.3467649
27.34641338975026	1.834042	1.3542681
27.364451681775673	1.851687	1.360767
27.382490665084074	1.8793517	1.3708946
27.400530340202046	1.834288	1.3543589
27.41857070765629	1.8060182	1.3438817
27.436611767973726	1.7965473	1.3403534
27.454653521681404	1.7691698	1.3301014
27.472695969306564	1.8001522	1.3416975
27.490739111376627	1.8615326	1.3643799
27.508782948419153	1.8632561	1.3650113
27.526827480961902	1.8543985	1.361763
27.54487270953279	1.8325859	1.3537303
27.562918634659898	1.7813343	1.3346664
27.580965256871508	1.7900158	1.3379147
27.599012576696026	1.7933291	1.3391523
27.617060594662068	1.8177341	1.3482337
27.63510931129842	1.8409647	1.3568215
27.65315872713401	1.815811	1.3475204
27.67120884269797	1.8398975	1.3564283
27.68925965851958	1.8274325	1.3518256
27.707311175128307	1.8629445	1.3648973
27.725363393053787	1.8619612	1.364537
27.74341631282583	1.8508214	1.360449
27.7614699349744	1.8992586	1.3781359
27.77952426002968	2.1712232	1.473507
27.797579288521973	2.2364283	1.4954692
27.815635020981784	2.5421112	1.5943999
27.83369145793979	2.5407615	1.5939766
27.85174859992682	2.3678617	1.5387858
27.869806447473923	2.2670429	1.5056702
27.887865001112267	2.0318496	1.4254296
27.905924261373233	1.9414883	1.393373
27.92398422878836	1.9346482	1.3909163
27.94204490388936	1.911992	1.382748
27.96010628720813	1.8417772	1.3571209
27.978168379276728	1.8376682	1.3556062
27.9962311806274	1.8480073	1.3594143
28.014294691792568	1.8770977	1.3700721
28.0323589133048	1.8530266	1.3612592
28.050423845696887	1.8325522	1.3537179
28.068489489501758	1.8917205	1.3753983
28.086555845252523	1.9327325	1.3902274
28.104622913482487	1.9225293	1.386553
28.122690694725115	1.9058148	1.3805125
28.14075918951405	1.9298716	1.3891982
28.15882839838312	1.9736935	1.4048821
28.176898321866304	1.9809483	1.4074616
28.1949689604978	1.9398599	1.3927885
28.213040314811945	1.9087886	1.3815892
28.23111238534327	1.8890706	1.3744347
28.249185172626493	1.9038197	1.3797897
28.267258677196473	1.8829265	1.3721976
28.285332899588294	1.9313338	1.3897244
28.303407840337172	1.9645355	1.4016188
28.321483499978545	1.9530222	1.3975058
28.33955987904799	1.9414647	1.3933645
28.357636978081285	1.9348816	1.3910002
28.37571479761439	1.9349737	1.3910333
28.393793338183425	1.8777719	1.3703182
28.41187260032469	1.8616143	1.3644099
28.429952584574686	1.8773708	1.3701718
28.448033291470065	1.8958855	1.3769115
28.46611472154769	1.9609215	1.4003291
28.484196875344566	1.9921908	1.4114499
28.502279753397914	1.984119	1.4085876
28.52036335624511	2.0278354	1.4240209
28.538447684423716	2.0690722	1.438427
28.556532738471482	2.053622	1.4330465
28.574618518926325	2.0069208	1.4166583
28.59270502632635	1.9905452	1.4108669
28.61079226120985	2.0120208	1.4184572
28.628880224115274	1.9857118	1.4091529
28.646968915581287	1.9755663	1.4055483
28.66505833614671	2.0251563	1.4230798
28.68314848635055	2.0887055	1.4452355
28.701239366732004	2.1041236	1.4505597
28.71933097783044	2.0878356	1.4449345
28.737423320185403	2.061831	1.4359077
28.75551639433665	2.0538042	1.43311
28.773610200824074	2.0667248	1.4376107
28.791704740187793	2.0922146	1.4464489
28.80980001296809	2.1257832	1.4580066
28.827896019705413	2.1738694	1.4744047
28.845992760940433	2.207331	1.485709
28.86409023721397	2.219314	1.4897362
28.88218844906704	2.2032835	1.4843462
28.900287397040845	2.2432706	1.4977552
28.918387081676755	2.2373636	1.4957819
28.936487503516343	2.25054	1.50018
28.954588663101365	2.2342565	1.494743
28.97269056097374	2.2906694	1.5134958
28.990793197675597	2.298208	1.5159842
29.00889657374923	2.3120587	1.5205455
29.027000689737125	2.3517473	1.5335407
29.04510554618196	2.345194	1.5314027
29.06321114362659	2.3457623	1.5315882
29.08131748261405	2.4549887	1.5668404
29.099424563687567	2.5186815	1.5870354
29.11753238739057	2.4994779	1.5809737
29.13564095426663	2.4558215	1.5671061
29.15375026485954	2.479539	1.5746552
29.171860319713275	2.5868847	1.6083795
29.18997111937199	2.6203732	1.6187567
29.20808266438002	2.6555598	1.6295888
29.226194955281898	2.7179673	1.6486259
29.244307992622335	2.7699277	1.66431
29.26242177694624	2.8479478	1.6875864
29.2805363087987	2.886216	1.6988866
29.29865158872498	2.9278486	1.7110957
29.316767617270557	2.9641466	1.7216697
29.334884394981064	3.042999	1.7444195
29.353001922402367	3.1516705	1.7752944
29.37112020008047	3.1799884	1.7832522
29.389239228561596	3.1652265	1.7791083
29.407359008392152	3.3004968	1.8167269
29.42547954011872	3.6288917	1.904965
29.44360082428809	4.2706137	2.0665462
29.46172286144722	5.2920504	2.3004458
29.479845652143283	6.804873	2.6086152
29.497969196923606	8.835228	2.9724112
29.516093496335728	11.375923	3.3728213
29.5342185509274	14.129038	3.7588613
29.55234436124651	16.597704	4.074028
29.570470927841175	18.057087	4.249363
29.588598251259686	17.800047	4.2190104
29.60672633205055	16.491987	4.061033
29.624855170762405	14.457953	3.8023615
29.642984767944146	11.847669	3.4420443
29.66111512414481	9.042344	3.007049
29.67924623991366	6.7011323	2.5886545
29.697378115800138	5.0845194	2.2548878
29.71551075235387	4.131201	2.0325356
29.733644150124675	3.700981	1.9237933
29.751778309662576	3.5600753	1.8868161
29.769913231517766	3.4622383	1.8607091
29.78804891624066	3.4113286	1.8469782
29.806185364381818	3.357755	1.8324178
29.82432257649206	3.2470493	1.8019571
29.842460553122333	3.2221375	1.7950313
29.86059929482382	3.2347221	1.7985333
29.878738802147872	3.330799	1.8250477
29.896879075646048	3.3623252	1.8336644
29.915020115870114	3.3415008	1.8279772
29.933161923371976	3.277242	1.8103154
29.951304498703777	3.2641075	1.8066841
29.969447842417857	3.3198378	1.8220422
29.987591955066733	3.3008623	1.8168275
30.005736837203123	3.2249675	1.7958194
30.023882489379943	3.1632364	1.778549
30.04202891215028	3.169848	1.7804067
30.060176106067455	3.287762	1.8132187
30.078324071684946	3.2904274	1.8139535
30.09647280955646	3.2366848	1.7990788
30.114622320235863	3.2121854	1.7922571
30.132772604277257	3.1711326	1.7807674
30.1509236622349	3.1638668	1.7787262
30.16907549466328	3.2013097	1.7892205
30.18722810211705	3.1601684	1.7776862
30.205381485151097	3.0693896	1.7519673
30.22353564432045	3.0687118	1.7517738
30.241690580180403	3.1249087	1.7677411
30.25984629328638	3.0536716	1.7474757
30.278002784194037	3.0145667	1.7362508
30.296160053459246	2.943047	1.7155311
30.314318101638033	2.904913	1.7043805
30.332476929286646	2.918982	1.7085029
30.35063653696153	2.924153	1.7100155
30.368796925219307	2.9940157	1.7303225
30.386958094616844	3.016961	1.7369401
30.40512004571115	3.0123007	1.7355981
30.423282779059463	2.9863982	1.7281199
30.441446295219233	2.974837	1.7247716
30.459610594748067	2.9148638	1.7072972
30.47777567820382	2.85198	1.6887807
30.495941546144504	2.8465216	1.6871638
30.51410819912835	2.805776	1.675045
30.532275637713795	2.767532	1.6635901
30.55044386245946	2.7883809	1.6698445
30.56861287392416	2.857221	1.6903316
30.586782672666956	2.8570893	1.6902927
30.604953259247047	2.8044393	1.674646
30.623124634223885	2.8184035	1.6788101
30.641296798157075	2.798548	1.6728861
30.659469751606462	2.8114426	1.6767358
30.677643495132074	2.788146	1.6697743
30.695818029294152	2.7644515	1.6626639
30.713993354653116	2.7170422	1.6483454
30.73216947176962	2.7116945	1.6467223
30.75034638120448	2.7045102	1.6445395
30.768524083518756	2.749629	1.6582005
30.786702579273673	2.8376002	1.6845179
30.80488186903069	2.9179575	1.708203
30.82306195335144	2.9881516	1.7286271
30.841242832797782	3.1394186	1.7718405
30.85942450793176	3.4481096	1.8569087
30.877606979315637	3.7640822	1.9401243
30.895790247511883	4.072576	2.0180624
30.913974313083134	4.514556	2.1247485
30.932159176592283	4.8536673	2.203104
30.95034483860237	4.9688325	2.2290878
30.968531299676698	4.817352	2.1948466
30.98671856037873	4.41295	2.1007023
31.00490662127215	3.9779844	1.9944885
31.023095482920848	3.5098014	1.8734463
31.04128514588892	3.0588787	1.748965
31.059475610740662	2.7212229	1.6496129
31.07766687804056	2.6011422	1.6128057
31.09585894835335	2.5903594	1.6094594
31.11405182224393	2.5839188	1.6074573
31.132245500277417	2.4659717	1.5703412
31.15043998301914	2.3920476	1.5466245
31.168635271034628	2.439004	1.5617311
31.18683136488964	2.460982	1.5687518
31.20502826515008	2.4655025	1.5701919
31.223225972382135	2.4372847	1.5611806
31.241424487152155	2.4150567	1.5540453
31.259623810026692	2.4157927	1.5542821
31.27782394157253	2.4095073	1.5522587
31.296024882356644	2.3915813	1.5464739
31.314226632946237	2.3449385	1.5313193
31.332429193908684	2.3852613	1.5444291
31.350632565811598	2.4608338	1.5687045
31.368836749222787	2.5084639	1.5838131
31.387041744710295	2.457899	1.5677688
31.40524755284232	2.4923785	1.5787269
31.423454174187317	2.5134425	1.585384
31.441661609313922	2.444828	1.5635946
31.459869858791002	2.3844144	1.5441549
31.478078923187628	2.414455	1.5538516
31.496288803073064	2.3680527	1.5388478
31.514499499016807	2.3178446	1.5224469
31.532711011588546	2.3302329	1.52651
31.550923341358178	2.3128684	1.5208118
31.56913648889584	2.254111	1.5013697
31.587350454771844	2.3010778	1.5169305
31.605565239556732	2.3408654	1.5299886
31.62378084382127	2.3450787	1.531365
31.641997268136382	2.3342824	1.5278358
31.660214513073274	2.3559465	1.5349092
31.67843257920331	2.312073	1.5205503
31.6966514670981	2.2393432	1.4964435
31.71487117732944	2.250193	1.5000644
31.733091710469346	2.2759516	1.5086257
31.751313067090052	2.2304912	1.493483
31.769535247764008	2.2577431	1.5025789
31.787758253063878	2.3249223	1.5247695
31.805982083562526	2.3713543	1.5399202
31.824206739833024	2.3623364	1.5369895
31.84243222244869	2.3162732	1.5219307
31.860658531983013	2.2276542	1.4925328
31.878885669009737	2.2112572	1.4870297
31.897113634102784	2.2223527	1.4907558
31.91534242783632	2.1935496	1.4810637
31.933572050784694	2.1628916	1.4706773
31.951802503522508	2.209276	1.4863633
31.970033786624548	2.2177072	1.4891968
31.988265900665834	2.2066376	1.4854755
32.006498846221575	2.1908257	1.4801438
32.02473262386724	2.1834202	1.47764
32.04296723417845	2.163359	1.4708362
32.0612026777311	2.1577704	1.4689351
32.07943895510129	2.187324	1.4789605
32.097676066865304	2.2234094	1.4911101
32.115914013599685	2.1871214	1.478892
32.13415279588115	2.121159	1.45642
32.152392414286666	2.0890052	1.4453391
32.1706328693934	2.076262	1.440924
32.18887416177875	2.0919137	1.446345
32.20711629202032	2.1353123	1.4612708
32.225359260695924	2.1791062	1.4761796
32.243603068383614	2.1678743	1.4723703
32.26184771566166	2.146243	1.4650062
32.28009320310852	2.1179857	1.4553301
32.2983395313029	2.1082952	1.4519969
32.31658670082372	2.0765219	1.4410142
32.33483471225012	2.0724497	1.4396006
32.35308356616143	2.0979025	1.4484138
32.371333263137245	2.0912974	1.4461318
32.38958380375734	2.075611	1.4406981
32.407835188601744	2.0504642	1.4319441
32.42608741825067	2.1466444	1.4651431
32.444340493284585	2.1710083	1.4734342
32.46259441428416	2.1408765	1.4631734
32.48084918183028	2.1523352	1.4670839
32.49910479650405	2.1661434	1.4717824
32.51736125888683	2.168244	1.4724958
32.53561856956014	2.2510352	1.500345
32.5538767291058	2.1927	1.4807768
32.572135738105764	2.052067	1.4325038
32.59039559714228	2.033176	1.4258947
32.608656306797776	2.0367806	1.4271582
32.62691786765491	1.9973015	1.4132591
32.645180280296586	1.9465712	1.3951957
32.663443545305896	1.9589765	1.3996344
32.68170766326619	1.9930702	1.4117614
32.69997263476099	1.9928207	1.4116731
32.7182384603741	1.9807658	1.4073968
32.7365051406895	2.0474446	1.4308895
32.75477267629144	2.1173894	1.4551252
32.77304106776434	2.0152864	1.4196079
32.79131031569289	2.0207586	1.421534
32.809580420661966	2.0448909	1.4299968
32.827851383256714	2.0855055	1.4441279
32.84612320406245	2.0423656	1.4291135
32.86439588366476	2.048443	1.4312383
32.88266942264945	1.9941337	1.412138
32.9009438216025	1.9602169	1.4000775
32.9192190811102	1.931842	1.3899071
32.937495201758985	1.9919258	1.411356
32.95577218413556	1.964041	1.4014425
32.974050028826866	1.956665	1.3988085
32.992328736420035	2.0274074	1.4238706
33.010608307502444	2.0935042	1.4468946
33.02888874266169	2.0573707	1.4343537
33.047170042485604	1.9693712	1.4033428
33.06545220756225	1.9365269	1.3915915
33.083735238479896	1.9843925	1.4086847
33.10201913582707	1.9728407	1.4045784
33.12030390019248	2.037449	1.4273924
33.138589532165135	2.1102307	1.4526633
33.15687603233419	2.0919654	1.4463629
33.17516340128909	2.0342357	1.4262663
33.19345163961947	2.0785227	1.4417082
33.211740747915215	2.0541172	1.4332192
33.23003072676643	1.9870989	1.409645
33.248321576763466	1.9624416	1.4008718
33.266613298496885	1.9181376	1.3849684
33.28490589255747	1.9386463	1.3923528
33.30319935953626	1.8613995	1.3643311
33.32149370002451	1.8313893	1.3532883
33.339788914613706	1.8450366	1.3583213
33.358085003895575	1.8933321	1.3759841
33.376381968462034	2.0106442	1.4179718
33.39467980890529	2.0820005	1.4429139
33.41297852581774	2.024008	1.4226763
33.43127811979204	1.8810579	1.3715166
33.44957859142105	1.7737603	1.331826
33.467879941297866	1.8322517	1.3536069
33.486182170015844	1.8072009	1.3443217
33.50448527816853	1.8239132	1.3505234
33.522789266349754	1.9781466	1.406466
33.541094135153514	2.041364	1.428763
33.55939988517411	1.9965315	1.4129868
33.57770651700602	1.9485083	1.3958898
33.59601403124398	1.9594971	1.3998203
33.61432242848296	1.9926962	1.411629
33.632631709318154	1.9731705	1.4046959
33.650941874344994	1.9506226	1.3966469
33.66925292415916	1.8826944	1.3721131
33.68756485935654	1.821678	1.3496956
33.70587768053328	1.8928528	1.3758099
33.724191388285746	1.9271806	1.3882294
33.74250598321054	1.993805	1.4120216
33.760821465904506	2.0302987	1.4248855
33.77913783696474	1.9241766	1.387147
33.79745509698852	1.8645574	1.3654879
33.815773246573414	1.9017925	1.3790549
33.8340922863172	1.9847438	1.4088094
33.852412216817896	2.0424452	1.4291414
33.87073303867377	1.986153	1.4093094
33.889054752483304	1.8997489	1.3783138
33.907377358845245	1.9672837	1.402599
33.92570085835853	2.1504755	1.46645
33.94402525162239	2.154862	1.4679447
33.96235053923627	1.8924888	1.3756776
33.980676721799824	1.7610344	1.3270397
33.999003799912984	1.7422551	1.3199451
34.01733177417592	1.7867358	1.3366884
34.03566064518901	1.8123233	1.3462256
34.0539904135529	1.8025161	1.3425782
34.07232107986846	1.8637809	1.3652036
34.090652644736785	1.8474716	1.3592173
34.108985108759235	1.8219463	1.3497949
34.12731847253742	1.7822944	1.335026
34.14565273667313	1.8241804	1.3506222
34.16398790176847	1.9955055	1.4126236
34.18232396842574	2.069038	1.438415
34.20066093724749	2.007097	1.4167205
34.21899880883651	1.9827131	1.4080884
34.23733758379583	1.9444494	1.3944352
34.25567726272874	1.9511755	1.3968449
34.27401784623872	1.8957081	1.3768471
34.29235933492957	1.9246346	1.387312
34.31070172940526	1.901336	1.3788894
34.32904503027003	1.9604448	1.4001589
34.347389238128386	2.0057461	1.4162437
34.36573435358502	1.9694496	1.4033709
34.38408037724492	2.0486124	1.4312974
34.402427309713296	2.1227434	1.4569638
34.42077515159559	1.9817913	1.4077611
34.43912390349752	1.9857621	1.4091707
34.45747356602499	2.0523534	1.4326037
34.47582413978423	1.9579331	1.3992616
34.49417562538163	1.8577648	1.3629985
34.51252802342388	1.8099238	1.345334
34.53088133451789	1.9337513	1.3905939
34.54923555927084	1.8978611	1.3776288
34.567590698290104	1.9229381	1.3867004
34.58594675218336	1.8355685	1.3548316
34.6043037215585	1.7664764	1.3290886
34.62266160702365	1.804727	1.3434013
34.641020409187234	1.9532818	1.3975986
34.65938012865785	2.083126	1.4433038
34.677740766044394	2.0554497	1.433684
34.69610232195598	1.9601245	1.4000444
34.714464797002016	1.9145403	1.3836691
34.73282819179208	1.8970109	1.3773202
34.751192506936064	2.0381975	1.4276545
34.76955774304408	2.147648	1.4654856
34.7879239007265	2.0559714	1.4338659
34.80629098059391	2.010375	1.417877
34.824658983257194	1.9307709	1.3895218
34.843027909327446	1.8892943	1.374516
34.86139775941603	1.8698095	1.3674098
34.879768534134534	1.8735869	1.3687903
34.89814023409483	2.0266879	1.4236178
34.91651285990901	2.0770462	1.4411961
34.93488641218944	2.050706	1.4320287
34.95326089154871	2.016282	1.4199585
34.97163629859967	1.8388599	1.3560457
34.99001263395542	1.9243469	1.3872083
35.00838989822934	1.949874	1.3963789
35.02676809203499	2.008041	1.4170536
35.04514721598624	2.0010793	1.4145951
35.063527270697215	1.970645	1.4037967
35.081908256782256	2.261712	1.503899
35.10029017485597	2.4717674	1.5721855
35.11867302553321	2.2891839	1.5130049
35.137056809429104	2.0035973	1.4154848
35.155441527159006	1.8845183	1.3727776
35.173827179338524	1.8514615	1.3606842
35.19221376658354	1.9293152	1.3889979
35.21060128951017	1.9496684	1.3963053
35.2289897487348	1.8235732	1.3503975
35.24737914487405	2.0766244	1.4410497
35.26576947854479	2.1598036	1.469627
35.28416075036418	2.0299566	1.4247655
35.30255296094958	2.009443	1.4175483
35.32094611091867	2.0981634	1.4485039
35.33934020088932	2.3806427	1.5429331
35.35773523147969	2.3415885	1.530225
35.3761312033082	2.1219208	1.4566815
35.394528116993506	2.1203818	1.456153
35.41292597315452	2.153048	1.4673269
35.431324772410434	2.0570445	1.4342401
35.449724515380666	1.873195	1.3686472
35.46812520268491	2.1296215	1.4593223
35.486526834943106	2.1500163	1.4662933
35.504929412775454	2.1439562	1.4642254
35.52333293680242	2.1953373	1.481667
35.54173740764471	2.184507	1.4780078
35.560142825923286	2.378183	1.5421358
35.5785491922594	2.4040384	1.5504962
35.59695650727454	2.4477067	1.5645149
35.61536477159042	2.6747022	1.6354517
