0.008763373481513119	0.0	0.0
0.026290120649546365	0.3180582	0.56396645
0.043816868432600686	0.24565311	0.49563405
0.06134361724069026	0.18105172	0.42550173
0.07887036748382949	0.15123375	0.38888782
0.0963971195720331	0.09369486	0.30609617
0.11392387391531617	0.14166158	0.37637958
0.1314506309236943	0.15546696	0.39429298
0.1489773910071836	0.16949965	0.41170335
0.16650415457580078	0.11703882	0.34210938
0.18403092203956356	0.14477286	0.38049027
0.20155769380849	0.16754162	0.40931848
0.2190844702925996	0.19257933	0.4388386
0.2366112519019124	0.17669892	0.4203557
0.2541380390464497	0.18133633	0.42583603
0.27166483213623416	0.19733348	0.44422233
0.28919163158128947	0.18800367	0.4335939
0.3067184377916406	0.18493845	0.4300447
0.324245251177314	0.15039805	0.38781187
0.34177207214833777	0.16701807	0.40867844
0.3592989011147415	0.17521566	0.41858768
0.37682573848655654	0.17530864	0.41869876
0.39435258467381573	0.1230355	0.35076416
0.41187944008655414	0.105804406	0.3252759
0.42940630513480854	0.07692428	0.27735227
0.446933180228618	0.09367185	0.3060586
0.4644600657780234	0.06621063	0.25731426
0.48198696219306775	0.081143565	0.2848571
0.49951386988379676	0.087387055	0.29561302
0.5170407892602581	0.0923686	0.30392203
0.5345677207325025	0.12377995	0.35182375
0.5520946647105822	0.11655622	0.3414033
0.5696216216045534	0.11338955	0.33673364
0.5871485918244737	0.076483026	0.27655566
0.6046755757804043	0.063744985	0.2524777
0.6222025738824094	0.07728195	0.2779963
0.6397295865405557	0.092069305	0.30342925
0.6572566141649129	0.09045219	0.3007527
0.6747836571655547	0.13320754	0.36497608
0.6923107159525568	0.14774658	0.38437817
0.7098377909359992	0.16827746	0.41021636
0.7273648825259653	0.16586956	0.40727088
0.7448919911325411	0.21011592	0.45838404
0.762419117165817	0.23585643	0.4856505
0.7799462610358868	0.26742184	0.51712847
0.7974734231528482	0.27470824	0.5241262
0.8150006039268024	0.2437487	0.49370912
0.8325278037678551	0.20130268	0.44866768
0.8500550230861152	0.21381398	0.46240023
0.8675822622916969	0.2041802	0.45186302
0.8851095217947171	0.2245224	0.47383794
0.9026368020052984	0.23000254	0.4795858
0.9201641033335665	0.22175	0.4709034
0.9376914261896523	0.2398819	0.48977742
0.9552187709836915	0.24876949	0.49876797
0.9727461381258234	0.2210561	0.47016603
0.990273528026193	0.21945323	0.46845835
1.0078009410949496	0.21004789	0.4583098
1.0253283777422473	0.2459018	0.49588487
1.0428558383782454	0.29524767	0.54336697
1.0603833234131086	0.30694327	0.55402464
1.0779108332570058	0.3471672	0.58920896
1.0954383683201119	0.37799302	0.61481136
1.112965929012607	0.3615407	0.60128254
1.1304935157446763	0.49707237	0.7050336
1.1480211289265108	0.4989929	0.7063943
1.1655487689683062	1.3607849	1.1665268
1.1830764362802655	1.649171	1.2842005
1.200604131272596	2.0983088	1.448554
1.2181318543555117	2.4923408	1.578715
1.235659605939232	2.4832659	1.5758382
1.253187386433982	3.8588247	1.9643892
1.270715196249994	5.9887853	2.4471996
1.2882430357975057	11.138213	3.3373961
1.3057709054867608	15.919935	3.9899793
1.3232988057280106	21.76857	4.66568
1.3408267369315112	26.395828	5.137687
1.358354699507526	30.139921	5.4899836
1.3758826938663256	34.123222	5.8415084
1.3934107204181858	36.204746	6.017038
1.410938779573391	36.297928	6.024776
1.4284668717422309	36.823025	6.0681977
1.4459949973350033	36.34939	6.0290456
1.4635231567620117	36.45539	6.03783
1.4810513504335687	35.51279	5.959261
1.4985795787599925	34.680916	5.8890505
1.5161078421516088	34.82219	5.901033
1.5336361410187505	34.02397	5.833007
1.5511644757717598	33.935814	5.825445
1.5686928468209842	34.28422	5.855273
1.58622125457678	34.959244	5.9126344
1.6037496994495108	36.741444	6.061472
1.621278181849548	36.653366	6.0542026
1.6388067021872719	37.544487	6.1273556
1.6563352608730693	36.497406	6.0413084
1.673863858317336	35.56096	5.963301
1.6913924949304753	34.75521	5.895355
1.7089211711228998	33.862213	5.8191247
1.7264498873050296	33.126465	5.7555594
1.7439786438872935	32.08659	5.6645026
1.7615074412801288	31.288046	5.5935717
1.779036279893981	30.56986	5.5290017
1.796565160139305	29.647305	5.444934
1.814094082426564	28.982803	5.383568
1.8316230471662298	28.314707	5.3211565
1.849152054768784	27.430494	5.237413
1.8666811056447168	26.820862	5.178886
1.8842102002045273	26.094088	5.1082373
1.901739338858724	25.66196	5.0657635
1.9192685220178245	24.900127	4.9900026
1.9367977500923557	24.073387	4.9064636
1.9543270234928547	23.570295	4.8549247
1.971856342629867	22.813982	4.7763987
1.9893857079139496	22.524145	4.7459607
2.006915119755667	22.14931	4.706305
2.0244445785655945	21.692791	4.6575522
2.0419740847543175	21.24531	4.6092634
2.0595036387324317	20.82404	4.5633364
2.0770332409105414	20.4997	4.5276594
2.094562891699263	20.122583	4.4858203
2.1120925915092217	19.47857	4.4134536
2.129622340751053	19.143047	4.375277
2.1471521398354043	187.04355	13.676387
2.1646819891729323	443.35977	21.05611
2.182211889174303	439.8824	20.973373
2.1997418402501974	452.30817	21.267538
2.2172718428113023	432.2509	20.790644
2.234801897268317	320.26852	17.896048
2.2523320040319548	16.649395	4.080367
2.269862163512935	16.494173	4.0613017
2.287392376121992	16.171185	4.0213413
2.304922642269869	15.835063	3.9793293
2.322452962367322	15.34579	3.9173703
2.3399833368251164	14.909685	3.8613062
2.357513766054032	14.849648	3.8535242
2.3750442504648586	14.768065	3.842924
2.3925747904683963	14.548825	3.8142922
2.410105386475459	14.322474	3.7845044
2.4276360388968707	14.050658	3.7484207
2.445166748143469	13.8778715	3.7253015
2.4626975146261025	13.709171	3.7025898
2.4802283387556323	13.493013	3.6732838
2.4977592209429305	13.081986	3.6169028
2.5152901615988825	12.795615	3.577096
2.5328211611343865	12.468749	3.5311115
2.5503522199603523	12.304207	3.5077353
2.5678833384877024	12.062716	3.473142
2.5854145171273712	11.822894	3.4384437
2.6029457562903064	11.604292	3.4065073
2.620477056387469	11.473911	3.3873162
2.6380084178298326	11.377061	3.37299
2.655539841028383	11.226896	3.350656
2.673071326394119	11.113935	3.333757
2.6906028743380523	10.929724	3.3060133
2.708134485271211	10.770144	3.2817898
2.7256661596046325	10.624425	3.259513
2.743197897749369	10.431643	3.2298052
2.760729700116486	10.280957	3.2063932
2.778261567117063	10.105175	3.1788638
2.795793499162193	9.93578	3.1521072
2.8133254966629817	9.781027	3.1274633
2.830857560030551	9.571094	3.0937183
2.8483896896760337	9.449114	3.073941
2.865921886010578	9.374508	3.061782
2.883454149445347	9.281106	3.0464907
2.9009864803915177	9.122423	3.020335
2.91851887926028	8.997679	2.999613
2.9360513464628384	8.89088	2.9817579
2.953583882410413	8.820624	2.9699535
2.9711164875142373	8.727269	2.9541953
2.9886491621855606	8.699714	2.9495277
3.0061819068356455	8.668926	2.944304
3.023714721875769	8.510219	2.917228
3.041247607717225	8.247226	2.8717983
3.0587805647713213	8.006487	2.8295736
3.0763135934493806	7.8667293	2.804769
3.0938466941627407	7.864888	2.8044407
3.1113798673227544	7.830761	2.7983496
3.1289131133407904	7.965867	2.8223867
3.1464464326282315	7.9630556	2.8218887
3.1639798255964786	7.760059	2.7856882
3.1815132926569443	7.5830755	2.7537384
3.1990468342210603	7.4541473	2.7302284
3.216580450700272	7.3764377	2.7159598
3.2341141425060416	7.079286	2.6606927
3.251647910049847	6.9578724	2.637778
3.2691817537431813	6.9261875	2.6317651
3.286715673997555	6.9497876	2.636245
3.3042496712244938	6.9438734	2.635123
3.32178374583554	6.856047	2.6184053
3.339317898242251	6.8066564	2.608957
3.3568521288562034	6.596877	2.5684388
3.3743864380889876	6.5907497	2.5672455
3.3919208263522127	6.528996	2.55519
3.4094552940575023	6.666149	2.5818887
3.4269898416164972	6.69436	2.587346
3.444524469440858	6.697017	2.5878596
3.4620591779422587	6.636521	2.5761445
3.479593967532391	6.5040326	2.5503006
3.4971288386229658	6.3493323	2.5197883
3.5146637916257086	6.272569	2.5045097
3.5321988269523628	6.2824306	2.5064778
3.5497339450146903	6.294086	2.5088017
3.5672691462244708	6.196402	2.4892573
3.5848044309934988	6.188954	2.4877608
3.60233979973359	6.140141	2.4779308
3.619875252856575	6.1671267	2.48337
3.6374107907743034	6.2154217	2.4930747
3.6549464138986427	6.179771	2.4859145
3.6724821226414788	6.1407886	2.4780614
3.690017917414714	6.1681	2.483566
3.7075537986302702	6.2730327	2.5046022
3.7250897667000857	6.323386	2.5146344
3.7426258220361235	6.526892	2.5547783
3.7601619650503553	6.7503366	2.598141
3.777698196154779	7.1949086	2.6823328
3.7952345157614067	8.0571575	2.8385134
3.8127709242822716	8.796169	2.9658337
3.830307422129425	11.015455	3.318954
3.847844009714936	12.558041	3.5437326
3.8653806874508954	15.955771	3.9944675
3.882917455749409	15.485495	3.9351614
3.900454315022606	15.418379	3.9266243
3.917991265682631	12.199926	3.4928393
3.9355283081416506	10.417546	3.2276223
3.9530654428118495	8.364933	2.8922193
3.970602670105433	7.2694664	2.696195
3.9881399904346244	6.559629	2.5611773
4.005677404211669	6.4777436	2.5451412
4.023214911848827	6.434089	2.5365508
4.0407525137583855	6.3415656	2.5182467
4.058290210352644	6.3538933	2.520693
4.075828002043927	6.2796264	2.5059183
4.0933658892445814	6.2392735	2.4978538
4.110903872366966	6.1431513	2.478538
4.128441951823468	6.033151	2.4562473
4.145980128026488	5.9487467	2.4390054
4.163518401388452	5.943451	2.4379194
4.181056772321807	6.0102124	2.4515734
4.1985952412390155	6.013164	2.4521754
4.216133808552567	6.092232	2.4682448
4.233672474674966	6.1896677	2.4879043
4.251211240018741	6.3984346	2.5295126
4.268750104996445	6.6070304	2.5704145
4.286289070020643	7.545267	2.746865
4.303828135503928	9.190671	3.031612
4.3213673018589125	29.444967	5.4263215
4.3389065694982305	90.54556	9.515543
4.356445938834537	165.57948	12.867769
4.3739854102805085	170.89642	13.072736
4.391524984248844	171.79826	13.107183
4.409064661152262	136.09993	11.666187
4.426604441403504	96.50318	9.823604
4.444144325415337	75.46399	8.687001
4.461684313600543	21.207006	4.6051064
4.47922440637193	21.516596	4.6385984
4.496764604142329	19.659384	4.4338903
4.5143049073245916	17.930115	4.2343965
4.531845316331589	15.90904	3.9886138
4.5493858315762195	13.114767	3.6214316
4.566926453471405	10.87008	3.2969804
4.584467182430081	8.861295	2.9767928
4.602008018865218	7.914651	2.813299
4.619548963189798	7.364337	2.7137313
4.637090015816834	6.909428	2.6285791
4.654631177159353	6.516493	2.5527422
4.672172447630417	6.1960645	2.4891896
4.689713827643102	6.1223025	2.4743288
4.7072553176105085	5.9386473	2.436934
4.724796917945764	5.7514424	2.3982165
4.742338629062015	5.5717607	2.3604577
4.759880451372434	5.493445	2.3438098
4.777422385290215	5.502315	2.3457015
4.794964431228581	5.455373	2.335674
4.812506589600768	5.454335	2.3354518
4.830048860820047	5.436312	2.3315902
4.847591245299709	5.4662476	2.3380008
4.8651337434530655	5.4740257	2.3396635
4.882676355693457	5.4289865	2.3300185
4.900219082434242	5.450663	2.3346655
4.917761924088813	5.4596853	2.336597
4.935304881070575	5.447076	2.333897
4.952847953792969	5.3629537	2.3158052
4.970391142669449	5.3387237	2.3105679
4.9879344481135055	5.303222	2.3028727
5.005477870538642	5.3211284	2.3067572
5.023021410358394	5.3972754	2.3232038
5.040565067986324	5.331415	2.3089857
5.05810884383601	5.3194165	2.306386
5.075652738321066	5.2639647	2.2943332
5.09319675185512	5.245866	2.2903855
5.110740884851836	5.3457	2.312077
5.128285137724894	5.365337	2.3163197
5.145829510888007	5.373036	2.317981
5.163374004754908	5.329229	2.3085122
5.1809186197393595	5.292705	2.300588
5.198463356255145	5.228682	2.286631
5.216008214716077	5.13412	2.2658596
5.233553195535998	5.141293	2.267442
5.251098299128764	5.106454	2.2597463
5.268643525908272	5.121256	2.263019
5.286188876288432	5.1638284	2.2724059
5.3037343506831895	5.1347375	2.265996
5.32127994950651	5.0866637	2.2553632
5.3388256731723915	5.058602	2.2491336
5.356371522094851	5.140172	2.2671947
5.373917496687938	5.2089014	2.2823017
5.391463597365729	5.217545	2.2841947
5.40900982454232	5.1302304	2.2650013
5.426556178631843	5.119407	2.2626107
5.444102660048449	5.062366	2.2499702
5.4616492692063225	5.01322	2.239022
5.479196006519669	5.034275	2.243719
5.496742872402727	5.0219107	2.240962
5.514289867269756	5.0681086	2.251246
5.531836991535049	5.09888	2.25807
5.549384245612924	5.0811605	2.254143
5.566931629917724	5.050808	2.2474003
5.584479144863822	5.0230765	2.2412221
5.6020267908656205	4.927569	2.2198129
5.619574568337545	4.9586015	2.2267919
5.637122477694054	4.9792247	2.2314177
5.654670519349629	5.069944	2.2516537
5.672218693718784	5.0905766	2.2562306
5.689767001216059	5.0383554	2.2446282
5.707315442256021	5.003195	2.2367823
5.724864017253266	5.008262	2.2379148
5.7424127266224225	5.065332	2.2506292
5.75996157077814	5.090138	2.2561333
5.777510550135105	5.0712247	2.2519379
5.795059665108022	5.0625834	2.2500186
5.812608916111639	5.071163	2.2519243
5.830158303560715	5.141077	2.2673943
5.847707827870055	5.188914	2.2779188
5.86525748945448	5.2678447	2.2951787
5.8828072887288485	5.411687	2.3263032
5.900357226108044	5.4729705	2.339438
5.917907302006979	5.513748	2.3481371
5.9354575168406	6.187729	2.4875145
5.9530078710238765	6.826218	2.6127033
5.970558364971812	7.3762107	2.715918
5.988108999099438	7.721764	2.7788062
6.005659773821818	8.101819	2.8463695
6.023210689554039	7.878405	2.8068497
6.040761746711227	8.334622	2.8869746
6.058312945708531	7.753992	2.784599
6.075864286961132	7.3299665	2.707391
6.093415770884244	6.646765	2.5781322
6.1109673978931065	6.011543	2.4518447
6.128519168402993	5.4384494	2.3320484
6.146071082829204	5.2783575	2.2974677
6.163623141587075	5.25206	2.2917373
6.181175345091969	5.1779013	2.2755003
6.198727693759281	5.0926056	2.2566803
6.216280188004435	5.0577445	2.248943
6.233832828242885	5.0336084	2.2435706
6.251385614890126	5.057313	2.248847
6.268938548361669	4.9693637	2.229207
6.286491629073067	4.8557587	2.2035787
6.304044857439898	4.8562107	2.2036812
6.321598233877777	4.8243494	2.1964402
6.339151758802344	4.870606	2.206945
6.356705432629277	4.871995	2.2072597
6.37425925577428	4.8487515	2.201988
6.391813228653095	4.8799987	2.2090719
6.409367351681486	4.931535	2.220706
6.426921625275259	4.9875517	2.2332828
6.44447604985025	5.017415	2.2399588
6.46203062582232	4.9672346	2.2287295
6.47958535360737	4.9173045	2.2174995
6.497140233621328	4.912141	2.216335
6.514695266280161	4.89279	2.211965
6.532250451999859	4.86739	2.2062163
6.549805791196454	4.886461	2.210534
6.567361284286002	4.9296007	2.2202704
6.584916931684597	4.952803	2.2254894
6.602472733808367	4.9900784	2.2338483
6.6200286910734665	5.012609	2.2388856
6.637584803896092	5.0104923	2.2384129
6.655141072692462	4.9533195	2.2256055
6.672697497878842	4.879235	2.208899
6.690254079871514	4.858448	2.2041888
6.707810819086808	4.883045	2.2097614
6.725367715941078	4.865718	2.2058372
6.742924770850719	4.8636355	2.2053652
6.760481984232151	4.8834977	2.2098637
6.778039356501836	4.960622	2.2272453
6.795596888076266	5.0102787	2.2383652
6.813154579371963	4.943274	2.2233474
6.830712430805492	4.864739	2.2056153
6.84827044279344	4.842927	2.2006652
6.865828615752445	4.871237	2.2070878
6.883386950099159	4.8911695	2.2115989
6.900945446250287	4.973037	2.2300308
6.918504104622553	5.044986	2.2461045
6.936062925632727	5.044721	2.2460456
6.953621909697607	5.0046134	2.2370994
6.971181057234028	4.9413757	2.2229207
6.988740368658859	4.962865	2.2277489
7.006299844389007	5.018357	2.2401688
7.023859484841407	5.099086	2.2581155
7.041419290433036	5.201204	2.2806149
7.058979261580902	5.2928457	2.3006186
7.0765393987020495	5.497506	2.344676
7.094099702213559	5.7784877	2.4038484
7.111660172532549	6.098717	2.469558
7.129220810076164	6.3805714	2.5259793
7.146781615261595	7.0205874	2.6496391
7.16434258850606	7.2564692	2.6937835
7.181903730226821	7.7953596	2.7920172
7.1994650408411704	7.919414	2.8141453
7.217026520766437	8.077717	2.8421323
7.234588170419983	8.269549	2.8756824
7.252149990219215	8.278285	2.8772008
7.269711980581568	8.216643	2.866469
7.2872741419245175	8.144288	2.8538198
7.304836474665574	7.7939944	2.7917726
7.322398979222286	7.4474835	2.7290077
7.339961656012233	7.0710225	2.6591394
7.357524505453039	6.65725	2.5801647
7.375087527962357	6.338738	2.517685
7.392650723957886	6.0553555	2.4607632
7.410214093857353	5.797187	2.4077349
7.427777638078528	5.5995708	2.366341
7.445341357039213	5.486395	2.3423054
7.4629052511572525	5.411474	2.3262575
7.480469320850524	5.2759156	2.296936
7.498033566536948	5.1762624	2.27514
7.5155979886344735	5.0944443	2.2570875
7.5331625875610975	5.051675	2.2475932
7.550727363734844	5.0485744	2.2469034
7.568292317573788	5.0359716	2.244097
7.585857449496025	5.037618	2.244464
7.603422759919705	5.0958095	2.25739
7.620988249263007	5.0768623	2.2531893
7.638553917944147	5.055249	2.248388
7.656119766381391	5.077227	2.2532704
7.673685794993023	5.1114035	2.2608414
7.691252004197388	5.073176	2.252371
7.70881839441285	4.984041	2.2324967
7.726384966057826	4.897646	2.2130625
7.743951719550762	4.969333	2.2292001
7.761518655310149	5.0806	2.2540185
7.779085773754511	5.1573787	2.2709863
7.796653075302419	5.2003202	2.280421
7.814220560372475	5.160003	2.271564
7.831788229383323	5.114025	2.261421
7.8493560827536495	5.119255	2.262577
7.866924120902174	5.0711317	2.2519174
7.884492344247663	5.0575433	2.2488983
7.9020607532089135	5.059927	2.249428
7.919629348204771	5.146755	2.268646
7.937198129654115	5.219898	2.2847097
7.954767097975865	5.279332	2.2976797
7.972336253588986	5.2327337	2.2875168
7.989905596912472	5.324786	2.3075497
8.007475128365371	5.3674455	2.3167748
8.025044848366756	5.461193	2.3369195
8.042614757335754	5.567924	2.359645
8.060184855691523	5.639674	2.3747997
8.07775514385327	5.749371	2.3977847
8.095325622240228	5.7170687	2.3910391
8.112896291271687	5.6993713	2.3873355
8.130467151366968	5.739257	2.3956747
8.148038202945436	5.8327913	2.4151173
8.165609446426497	5.8895164	2.4268327
8.183180882229594	5.9500446	2.4392715
8.200752510774217	5.9112306	2.4313023
8.218324332479893	5.8038077	2.4091094
8.235896347766193	5.7080326	2.389149
8.253468557052724	5.7376976	2.3953493
8.27104096075914	5.8165445	2.4117513
8.288613559305137	5.951863	2.439644
8.306186353110448	6.0148635	2.4525218
8.32375934259485	6.083222	2.4664187
8.341332528178162	6.0630918	2.4623346
8.358905910280246	6.088907	2.467571
8.376479489321003	6.1139174	2.4726336
8.394053265720377	6.1671324	2.4833713
8.411627239898356	6.1626444	2.4824674
8.42920141227497	6.203444	2.4906714
8.44677578327029	6.245007	2.4990013
8.464350353304427	6.241189	2.4982371
8.48192512279754	6.255341	2.5010679
8.499500092169827	6.174771	2.4849086
8.51707526184153	6.102486	2.470321
8.534650632232934	6.143651	2.478639
8.552226203764365	6.144348	2.4787796
8.569801976856192	6.1328206	2.4764533
8.587377951928834	6.0678144	2.4632933
8.60495412940274	6.071319	2.4640048
8.622530509698416	6.1476426	2.479444
8.6401070932364	6.2745275	2.5049007
8.657683880437283	6.412404	2.5322726
8.675260871721695	6.590735	2.5672426
8.692838067510303	6.780935	2.6040227
8.710415468223834	6.9408135	2.6345425
8.727993074283043	7.0489535	2.6549866
8.745570886108737	7.042205	2.6537154
8.763148904121765	7.0689096	2.6587422
8.78072712874302	7.074906	2.6598694
8.798305560393441	7.233017	2.689427
8.815884199494006	7.3600764	2.7129462
8.833463046465745	7.487547	2.7363381
8.851042101729728	7.6262927	2.7615743
8.86862136570707	7.971658	2.8234124
8.886200838818924	8.237773	2.870152
8.903780521486505	8.28147	2.8777544
8.921360414131055	8.359009	2.891195
8.938940517173874	8.460284	2.9086568
8.956520831036297	8.607877	2.9339182
8.97410135613971	8.825827	2.9708292
8.99168209290554	8.906939	2.9844494
9.009263041755265	9.149965	3.024891
9.026844203110405	9.32556	3.053778
9.044425577392525	9.535369	3.0879393
9.062007165023239	9.704764	3.115247
9.079588966424197	10.013875	3.1644707
9.097170982017108	10.133898	3.1833785
9.11475321222372	11.080979	3.3288105
9.132335657465825	11.949396	3.45679
9.149918318165264	12.158184	3.4868588
9.167501194743924	12.904417	3.5922718
9.18508428762374	12.634159	3.5544562
9.202667597226693	12.6712055	3.5596638
9.220251123974803	12.17184	3.4888163
9.237834868290143	11.767463	3.4303737
9.255418830594836	11.441177	3.3824809
9.273003011311046	10.950029	3.3090827
9.290587410860985	10.726687	3.2751622
9.308172029666911	10.124194	3.1818538
9.32575686815113	9.814436	3.1328
9.343341926735997	8.557852	2.9253807
9.360927205843916	8.305126	2.8818617
9.378512705897327	8.218875	2.866858
9.396098427318728	8.055404	2.8382044
9.413684370530664	8.000714	2.8285534
9.431270535955722	7.8974357	2.8102376
9.448856924016539	7.786985	2.7905169
9.466443535135806	7.5824213	2.7536197
9.484030369736251	7.516047	2.741541
9.501617428240658	7.5068274	2.739859
9.519204711071852	7.5653734	2.7505224
9.536792218652714	7.591958	2.7553508
9.55437995140617	7.6523466	2.7662876
9.571967909755191	7.6434307	2.7646756
9.589556094122802	7.6449347	2.7649474
9.60714450493207	7.730764	2.780425
9.624733142606116	7.7495794	2.7838066
9.642322007568108	7.678407	2.770994
9.659911100241267	7.666042	2.7687619
9.677500421048851	7.768168	2.7871432
9.695089970414175	7.987909	2.826289
9.712679748760609	8.042594	2.8359468
9.730269756511557	8.0475	2.8368115
9.747859994090492	8.045952	2.8365388
9.765450461920915	8.031791	2.8340414
9.78304116042639	8.029482	2.8336341
9.800632090030527	8.002114	2.828801
9.81822325115699	8.052821	2.8377492
9.835814644229481	8.100552	2.8461468
9.853406269671762	8.223614	2.8676844
9.870998127907646	8.275739	2.8767583
9.888590219360985	8.295528	2.8801959
9.906182544455698	8.194193	2.86255
9.923775103615734	8.166773	2.8577566
9.941367897265108	8.185077	2.8609574
9.958960925827878	8.240948	2.8707051
9.97655418972816	8.189271	2.8616903
9.994147689390106	8.122195	2.8499465
10.011741425237934	8.045701	2.8364944
10.029335397695904	8.1145735	2.848609
10.04692960718833	8.117916	2.8491957
10.06452405413958	8.1608	2.8567114
10.082118738974064	8.074834	2.8416252
10.099713662116246	7.989668	2.8266
10.117308823990651	7.9758763	2.8241594
10.134904225021844	7.9849143	2.8257592
10.152499865634445	7.9302073	2.8160625
10.170095746253125	7.8912697	2.8091404
10.18769186730261	7.896055	2.809992
10.205288229207675	7.952623	2.8200395
10.222884832393145	8.036808	2.8349264
10.2404816772839	7.969474	2.8230257
10.258078764304868	7.910352	2.8125348
10.275676093881035	7.8849344	2.8080125
10.293273666437438	7.8729897	2.8058848
10.310871482399158	7.88919	2.8087702
10.32846954219134	7.8418627	2.8003325
10.346067846239173	7.9250903	2.8151536
10.363666394967908	7.9531775	2.8201377
10.38126518880283	8.010084	2.8302093
10.398864228169298	8.084682	2.8433576
10.416463513492713	8.123674	2.8502061
10.434063045198531	8.070137	2.8407986
10.451662823712262	7.9933624	2.8272536
10.469262849459467	7.952261	2.8199754
10.486863122865758	7.9084334	2.8121936
10.504463644356806	7.929973	2.8160207
10.522064414358338	7.84555	2.8009908
10.539665433296118	7.7515993	2.7841694
10.557266701595987	7.7014065	2.7751408
10.574868219683818	7.6152477	2.759574
10.592469987985552	7.5222554	2.7426732
10.610072006927185	7.4493456	2.729349
10.627674276934751	7.3625546	2.7134027
10.64527679843435	7.2256556	2.688058
10.662879571852143	7.089378	2.6625886
10.680482597614331	6.9635825	2.63886
10.698085876147173	6.878304	2.622652
10.715689407876988	6.8716884	2.6213906
10.733293193230146	6.83293	2.6139874
10.750897232633072	6.7576437	2.599547
10.76850152651225	6.6290445	2.5746932
10.786106075294207	6.5448737	2.558295
10.803710879405534	6.479893	2.5455635
10.821315939272877	6.3150296	2.5129724
10.83892125532294	6.319632	2.513888
10.856526827982472	6.247338	2.4994676
10.874132657678285	6.2845564	2.5069017
10.891738744837243	6.1669188	2.483328
10.909345089886271	6.0360084	2.4568288
10.926951693252343	5.935406	2.4362688
10.944558555362494	5.9032907	2.429669
10.96216567664381	5.961009	2.4415178
10.979773057523436	5.9447985	2.4381957
10.997380698428573	5.910727	2.4311986
11.014988599786477	5.7746377	2.4030476
11.032596762024461	5.6466355	2.376265
11.050205185569892	5.5624533	2.3584855
11.067813870850198	5.440598	2.332509
11.085422818292859	5.362669	2.3157437
11.10303202832541	5.2564535	2.2926958
11.120641501375454	5.2311893	2.2871792
11.138251237870636	5.1824265	2.2764943
11.155861238238671	5.2564864	2.292703
11.173471502907317	5.211518	2.2828748
11.191082032304402	5.1427135	2.2677553
11.208692826857805	5.0137157	2.239133
11.226303886995465	4.9715376	2.2296946
11.243915213145371	4.949836	2.2248225
11.261526805735578	4.89971	2.2135289
11.279138665194196	4.8659334	2.2058861
11.296750791949393	4.8351617	2.1989002
11.314363186429393	4.7901206	2.1886344
11.331975849062479	4.732288	2.1753821
11.34958878027699	4.657907	2.1582184
11.36720198050133	4.5733085	2.1385295
11.384815450163948	4.474395	2.1152766
11.402429189693366	4.4515166	2.1098619
11.420043199518153	4.404366	2.098658
11.437657480066942	63.38643	7.9615593
11.455272031768422	85.06301	9.222961
11.472886855051353	107.41237	10.363994
11.490501950344528	99.0241	9.951085
11.508117318076819	84.44277	9.189275
11.52573295867715	45.868073	6.7725973
11.543348872574514	4.203563	2.0502594
11.560965060197946	4.1089573	2.0270562
11.57858152197655	4.0378127	2.009431
11.59619825833949	3.963311	1.9908066
11.613815269715985	3.943755	1.985889
11.631432556535323	38.46728	6.2022
11.649050119226837	82.97377	9.108994
11.666667958219929	93.34551	9.661548
11.68428607394406	107.6608	10.375972
11.701904466828756	82.486755	9.082222
11.719523137303586	65.328476	8.082603
11.737142085798196	4.5229335	2.126719
11.754761312742286	3.595028	1.8960559
11.772380818565619	3.5617218	1.8872524
11.790000603698015	3.5399299	1.8814701
11.80762066856935	3.5393314	1.881311
11.825241013609572	3.522056	1.8767142
11.842861639248683	3.5420864	1.8820431
11.860482545916748	3.4934654	1.8690815
11.878103734043883	3.397955	1.8433542
11.895725204060282	3.3131044	1.8201935
11.91334695639619	3.311736	1.8198177
11.930968991481919	3.2999973	1.8165895
11.948591309747824	3.3337977	1.8258691
11.966213911624347	3.319755	1.8220195
11.98383679754198	3.2994506	1.816439
12.001459967931268	3.224052	1.7955645
12.019083423222835	3.152508	1.7755303
12.036707163847352	3.1312554	1.7695353
12.05433119023556	3.179795	1.783198
12.071955502818259	3.1993778	1.7886804
12.089580102026313	3.2018	1.7893574
12.107204988290643	3.1805677	1.7834146
12.12483016204224	3.1440558	1.7731485
12.142455623712152	3.1114175	1.763921
12.16008137373149	3.0568247	1.7483777
12.177707412531431	3.0391364	1.7433119
12.19533374054321	3.0395331	1.7434257
12.212960358198126	3.02813	1.7401524
12.230587265927545	3.0125868	1.7356805
12.248214464162889	2.9945734	1.7304835
12.265841953335649	3.001242	1.7324092
12.283469733877375	2.9861264	1.7280412
12.301097806219685	2.9745076	1.7246761
12.31872617079425	2.9761648	1.7251564
12.336354828032825	2.9810739	1.7265787
12.353983778367205	2.9755807	1.7249871
12.371613022229262	2.9602444	1.7205361
12.389242560050928	2.9418	1.7151676
12.406872392264201	2.9010699	1.7032528
12.424502519301143	2.8432388	1.6861906
12.442132941593874	2.7887654	1.6699597
12.459763659574586	2.7795148	1.6671877
12.477394673675532	2.7646034	1.6627096
12.49502598432903	2.762113	1.6619606
12.51265759196746	2.77967	1.6672342
12.530289497023267	2.789322	1.6701263
12.547921699928967	2.7770705	1.6664544
12.565554201117134	2.752713	1.6591302
12.583187001020404	2.7425933	1.6560776
12.600820100071486	2.730867	1.6525335
12.618453498703152	2.751686	1.6588207
12.636087197348235	2.7229915	1.6501489
12.65372119643964	2.723665	1.650353
12.671355496410326	2.721721	1.649764
12.68899009769333	2.7493541	1.6581177
12.706625000721749	2.7941856	1.6715817
12.724260205928752	2.8663054	1.6930166
12.741895713747551	2.8681495	1.6935612
12.759531524611454	2.917349	1.7080249
12.777167638953818	2.8884785	1.6995524
12.794804057208072	2.8765507	1.6960397
12.812440779807702	2.92086	1.7090524
12.830077807186271	3.11545	1.7650638
12.847715139777405	3.1916096	1.7865076
12.865352778014795	3.3680804	1.8352331
12.882990722332197	3.4205716	1.8494787
12.90062897316344	3.4833035	1.866361
12.918267530942412	3.5462368	1.8831455
12.935906396103071	3.499304	1.8706427
12.953545569079449	3.6797247	1.9182608
12.971185050305628	3.5000398	1.8708394
12.988824840215775	3.4795146	1.8653457
13.006464939244115	3.5211236	1.8764657
13.024105347824943	3.386856	1.8403413
13.041746066392617	3.50528	1.8722394
13.05938709538157	3.3169212	1.8212416
13.077028435226296	3.3398807	1.8275341
13.094670086361363	3.214769	1.7929777
13.112312049221401	3.1070328	1.7626777
13.129954324241112	2.9979203	1.7314503
13.147596911855258	2.8285768	1.6818373
13.165239812498685	2.825668	1.6809723
13.182883026606293	2.7889254	1.6700076
13.200526554613058	2.7252471	1.6508323
13.218170396954017	2.678649	1.6366578
13.235814554064284	2.655422	1.6295465
13.253459026379034	2.6710613	1.6343381
13.271103814333523	2.6372156	1.6239506
13.288748918363058	2.6574738	1.630176
13.306394338903031	2.6312065	1.6220994
13.32404007638889	2.6049428	1.6139835
13.341686131256164	2.6084683	1.6150753
13.359332503940449	2.595618	1.6110922
13.376979194877402	2.6089954	1.6152385
13.394626204502751	2.65853	1.6305
13.412273533252307	2.6672356	1.6331674
13.429921181561937	2.6434474	1.6258682
13.447569149867581	2.6342504	1.6230375
13.465217438605247	2.639185	1.6245569
13.482866048211022	2.6588216	1.6305894
13.500514979121052	2.6473908	1.6270804
13.518164231771568	2.5976706	1.611729
13.535813806598844	2.604428	1.613824
13.553463704039254	2.60813	1.6149706
13.571113924529229	2.6376631	1.6240884
13.588764468505275	2.6206644	1.6188467
13.606415336403956	2.6120937	1.6161973
13.624066528661917	2.6264336	1.6206275
13.641718045715882	2.717123	1.6483698
13.659369888002635	2.7958958	1.6720933
13.67702205595903	2.8310826	1.6825821
13.694674550021993	2.8889544	1.6996925
13.712327370628532	2.9404378	1.7147704
13.729980518215713	3.0482073	1.7459116
13.747633993220681	3.106497	1.7625258
13.765287796080647	3.1442816	1.7732122
13.7829419272329	3.1942284	1.7872405
13.800596387114801	3.2352338	1.7986755
13.818251176163775	3.2639391	1.8066375
13.835906294817324	3.3552792	1.8317422
13.853561743513023	3.4187171	1.8489773
13.871217522688525	3.4702868	1.8628706
13.888873632781538	3.4489155	1.8571256
13.906530074229858	3.4319434	1.8525505
13.92418684747135	3.4124231	1.8472745
13.941843952943948	3.4068806	1.8457737
13.959501391085665	3.3695161	1.8356242
13.977159162334578	3.3116543	1.8197951
13.994817267128846	3.2941015	1.814966
14.012475705906693	3.2268844	1.7963531
14.030134479106424	3.187341	1.7853125
14.047793587166414	3.1230206	1.767207
14.065453030525108	3.0860684	1.7567209
14.083112809621026	3.0363305	1.742507
14.100772924892766	2.9538066	1.7186642
14.118433376778997	2.899428	1.7027707
14.136094165718458	2.8091247	1.6760443
14.153755292149969	2.723469	1.6502936
14.171416756512416	2.6513827	1.6283067
14.189078559244768	2.5808425	1.6065
14.20674070078606	2.5625465	1.6007956
14.224403181575408	2.533141	1.5915844
14.242066002051999	2.488356	1.5774524
14.259729162655093	2.4180827	1.5550185
14.277392663824022	2.407376	1.5515721
14.295056505998208	2.4211464	1.5560033
14.312720689617128	2.4581766	1.5678574
14.330385215120348	2.4532237	1.566277
14.348050082947497	2.4143739	1.5538256
14.3657152935383	2.3795135	1.5425671
14.383380847332528	2.3663967	1.5383097
14.401046744770051	2.3694756	1.5393101
14.418712986290798	2.3955748	1.5477644
14.436379572334793	2.4165633	1.5545299
14.454046503342123	2.3854396	1.5444869
14.471713779752946	2.3618298	1.5368246
14.489381402007504	2.3267505	1.5253689
14.507049370546113	2.2943578	1.5147138
14.524717685809168	2.3030322	1.5175744
14.542386348237134	2.336323	1.5285035
14.560055358270553	2.3753903	1.5412301
14.577724716350051	2.3907495	1.5462048
14.595394422916325	2.3602035	1.5362954
14.61306447841015	2.4057734	1.5510556
14.63073488327237	2.4423976	1.5628172
14.648405637943917	2.4502294	1.5653208
14.6660767428658	2.4383903	1.5615345
14.683748198479094	2.4366593	1.5609802
14.701420005224954	2.4913936	1.5784149
14.719092163544628	2.5798466	1.6061901
14.73676467387942	2.6502328	1.6279535
14.754437536670727	2.6678095	1.633343
14.772110752360014	2.6543634	1.6292217
14.78978432138882	2.6291056	1.6214517
14.807458244198777	2.6543534	1.6292187
14.82513252123159	2.6244411	1.6200126
14.842807152929028	2.6556597	1.6296195
14.860482139732962	2.6287649	1.6213466
14.87815748208531	2.5954573	1.6110423
14.8958331804281	2.5486252	1.5964414
14.91350923520342	2.5352361	1.5922425
14.931185646853438	2.603717	1.6136037
14.948862415820408	2.6763315	1.6359497
14.966539542546656	2.7120762	1.6468382
14.98421702747459	2.6589458	1.6306274
15.001894871046696	2.6412184	1.6251826
15.019573073705542	2.6068304	1.6145681
15.037251635893766	2.6163263	1.6175063
15.054930558054092	2.6406667	1.6250129
15.072609840629323	2.6652672	1.6325647
15.090289484062351	2.796899	1.6723932
15.107969488796124	2.9476898	1.7168838
15.125649855273691	3.1339598	1.7702993
15.14333058393817	3.448847	1.8571072
15.161011675232768	3.9289138	1.9821488
15.17869312960076	4.5128617	2.1243498
15.196374947485506	5.221169	2.2849877
15.214057129330447	6.5880513	2.56672
15.231739675579114	8.734384	2.955399
15.249422586675102	13.42863	3.6645095
15.267105863062092	18.07613	4.251603
15.284789505183847	25.476765	5.0474515
15.302473513484218	30.507944	5.5234
15.320157888407127	34.686554	5.889529
15.337842630396578	33.38293	5.7777963
15.355527739896656	30.414854	5.5149665
15.37321321735153	23.67861	4.8660674
15.39089906320545	16.122019	4.0152235
15.408585277902748	10.304857	3.210118
15.42627186188783	6.3635697	2.5226116
15.443958815605198	4.5644507	2.1364574
15.461646139499424	3.7347307	1.9325452
15.479333834015168	3.2732146	1.8092028
15.497021899597165	2.952693	1.7183402
15.514710336690234	2.7650123	1.6628326
15.53239914573928	2.6168902	1.6176805
15.550088327189297	2.5395591	1.5935994
15.567777881485336	2.4985979	1.5806954
15.58546780907256	2.509596	1.5841705
15.6031581103962	2.4812305	1.5751922
15.620848785901568	2.5120976	1.5849599
15.638539836034063	2.5121667	1.5849817
15.656231261239173	2.5541427	1.5981685
15.673923061962451	2.5149183	1.5858494
15.691615238649552	2.510492	1.5844532
15.709307791746202	2.467617	1.570865
15.727000721698221	2.4202223	1.5557064
15.744694028951498	2.3981552	1.5485978
15.76238771395202	2.3983276	1.5486535
15.780081777145844	2.4168878	1.5546343
15.797776218979125	2.4028275	1.5501057
15.815471039898094	2.3526196	1.5338252
15.833166240349064	2.3305113	1.5266012
15.850861820778437	2.3794677	1.5425524
15.868557781632699	2.429865	1.5588024
15.886254123358412	2.4473066	1.564387
15.903950846402232	2.4427657	1.562935
15.921647951210897	2.451206	1.5656328
15.939345438231225	2.4921503	1.5786546
15.957043307910133	2.5311015	1.5909436
15.974741560694602	2.5259495	1.5893236
15.992440197031714	2.5328286	1.5914863
16.01013921736862	2.5200756	1.5874746
16.02783862215259	2.4758606	1.5734868
16.045538411830933	2.4696836	1.5715227
16.06323858685107	2.4238327	1.5568663
16.080939147660512	2.3762825	1.5415195
16.09864009470684	2.3506222	1.5331739
16.11634142843774	2.3605554	1.5364099
16.134043149300954	2.3715339	1.5399785
16.15174525774433	2.3879104	1.5452865
16.169447754215817	2.3544617	1.5344255
16.18715063916342	2.3745844	1.5409687
16.204853913035244	2.3740785	1.5408045
16.222557576279478	2.3642979	1.5376273
16.240261629344403	22.309908	4.7233367
16.257966072678386	42.87522	6.5479174
16.275670906729868	38.005657	6.1648726
16.293376131947387	2.4674628	1.5708159
16.31108174877957	2.4768453	1.5737996
16.328787757675133	2.5063279	1.5831386
16.34649415908287	2.534927	1.5921453
16.364200953451657	2.5627236	1.6008509
16.38190814123048	2.5628674	1.6008958
16.39961572286839	2.5757375	1.6049104
16.41732369881455	2.598004	1.6118325
16.43503206951817	2.6511683	1.6282408
16.45274083542859	2.7299106	1.6522441
16.47044999699522	2.8054662	1.6749526
16.488159554667558	2.8404684	1.6853689
16.505869508895184	2.869567	1.6939796
16.523579860127786	2.9476311	1.7168666
16.541290608815117	3.019418	1.7376473
16.559001755407035	3.0762558	1.7539258
16.57671330035348	3.1547732	1.7761681
16.59442524410448	3.266368	1.8073096
16.61213758711015	3.4542205	1.8585533
16.629850329820705	3.5281756	1.8783438
16.647563472686436	3.57854	1.891703
16.665277016157724	3.4577212	1.8594949
16.682990960685053	3.445816	1.8562909
16.70070530671898	3.3932164	1.8420686
16.718420054710155	3.4616044	1.8605387
16.736135205109335	3.5362353	1.880488
16.753850758367335	3.6053498	1.8987758
16.771566714935087	3.631021	1.9055238
16.789283075263597	3.671833	1.9162028
16.80699983980398	3.6901946	1.920988
16.82471700900741	3.7897363	1.9467245
16.84243458332518	3.92293	1.9806387
16.860152563208665	4.0280085	2.00699
16.87787094910932	4.0881867	2.0219264
16.89558974147871	4.105365	2.02617
16.913308940768466	4.107073	2.0265915
16.931028547430333	4.142229	2.0352466
16.94874856191613	4.196563	2.0485513
16.966468984677785	4.2288547	2.056418
16.98418981616729	4.3143187	2.0770938
17.00191105683676	4.3939443	2.0961738
17.019632707138374	4.4565783	2.1110609
17.03735476752442	4.475823	2.1156142
17.05507723844728	4.512887	2.1243556
17.072800120359403	4.5511985	2.1333537
17.090523413713353	4.5954866	2.1437087
17.108247118961785	4.6060114	2.146162
17.125971236557437	4.6073213	2.1464672
17.143695766953133	4.585822	2.1414533
17.161420710601806	4.5979013	2.1442719
17.179146067956477	4.63626	2.1531975
17.19687183947025	4.625955	2.1508033
17.21459802559634	4.596509	2.1439471
17.232324626788028	4.556915	2.1346931
17.25005164349871	4.5607963	2.135602
17.267779076181863	4.550003	2.1330736
17.285506925291074	4.5380597	2.1302722
17.30323519127999	4.519448	2.1258993
17.320963874602384	4.503568	2.1221611
17.33869297571211	4.4921484	2.119469
17.356422495063114	4.529246	2.1282024
17.37415243310944	4.528473	2.128021
17.391882790305218	4.506618	2.1228797
17.40961356710468	4.488935	2.1187108
17.42734476396215	4.5300226	2.128385
17.445076381332044	4.616996	2.1487195
17.462808419668868	4.6447415	2.1551661
17.48054087942723	4.7322006	2.175362
17.498273761061835	4.8206525	2.1955984
17.51600706502747	5.144541	2.268158
17.533740791779024	5.685119	2.3843489
17.551474941771485	6.580843	2.5653155
17.56920951545993	8.421922	2.9020548
17.586944513299528	9.753725	3.1230955
17.60467993574556	12.700579	3.5637872
17.622415783253373	15.466632	3.9327638
17.64015205627843	18.296434	4.277433
17.657888755276293	20.76353	4.5567017
17.675625880702604	22.269146	4.7190194
17.69336343301311	20.766893	4.5570707
17.71110141266366	18.5421	4.306054
17.728839820110178	15.752777	3.9689767
17.746578655808705	12.617118	3.5520582
17.764317920215372	10.4602165	3.2342257
17.7820576137864	8.7762785	2.9624784
17.79979773697811	7.356387	2.712266
17.81753829024692	6.040367	2.4577157
17.835279274049356	5.2019053	2.2807686
17.85302068884201	4.4497166	2.109435
17.870762535081607	4.05384	2.013415
17.888504813224934	3.817616	1.9538721
17.90624752372891	3.6451323	1.909223
17.923990667050536	3.5435839	1.8824409
17.941734243646895	3.4447587	1.8560061
17.959478253975185	3.411879	1.8471272
17.9772226984927	3.4146945	1.8478892
17.994967577656833	3.395948	1.8428098
18.01271289192506	3.3792017	1.8382605
18.030458641754965	3.3647492	1.8343253
18.04820482760425	3.3716953	1.8362176
18.06595144993067	3.3370461	1.8267584
18.083698509192125	3.2672153	1.807544
18.101446005846576	3.212187	1.7922575
18.119193940352105	3.1671927	1.7796608
18.136942313166887	3.1570919	1.7768207
18.1546911247492	3.116343	1.7653167
18.1724403755574	3.143079	1.7728732
18.19019006604997	3.1392148	1.7717829
18.207940196685467	3.0956447	1.7594445
18.225690767922575	3.0770402	1.7541494
18.243441780220046	3.090089	1.757865
18.261193234036764	3.0558965	1.7481123
18.278945129831676	3.0154178	1.7364959
18.29669746806386	3.0272841	1.7399093
18.314450249192483	3.0210152	1.7381067
18.3322034736768	3.0136347	1.7359823
18.349957141976184	2.992391	1.7298529
18.3677112545501	2.9496882	1.7174656
18.385465811858108	2.9837909	1.7273653
18.403220814359884	3.003252	1.7329893
18.420976262515172	3.0561798	1.7481933
18.43873215678387	3.07055	1.7522985
18.456488497625923	3.0812302	1.7553433
18.474245285501407	3.148103	1.7742895
18.492002520870486	3.223694	1.7954649
18.50976020419343	3.3275807	1.8241657
18.527518335930615	3.6057746	1.8988878
18.545276916542516	4.1778765	2.0439854
18.563035946489688	4.3652897	2.0893276
18.580795426232832	4.792394	2.1891537
18.598555356232698	4.664138	2.1596615
18.616315736950185	4.950173	2.2248983
18.63407656884626	4.6440873	2.1550145
18.65183785238201	4.8217716	2.1958532
18.669599588018617	4.6373677	2.1534548
18.68736177621737	4.6043286	2.1457698
18.705124417439652	4.5712175	2.1380405
18.72288751214696	4.3883066	2.0948286
18.740651060800886	4.5398045	2.1306818
18.758415063863115	4.2665477	2.0655622
18.77617952179546	4.4335537	2.1056006
18.793944435059814	4.1593494	2.0394483
18.811709804118184	4.165163	2.040873
18.829475629432675	4.1237617	2.0307047
18.8472419114655	3.9332023	1.9832302
18.86500865067897	4.017145	2.0042818
18.88277584753551	3.7029085	1.9242942
18.90054350249763	3.723239	1.9295696
18.918311616027957	3.4189255	1.8490337
18.936080188589226	3.325347	1.8235534
18.953849220644265	3.0478654	1.7458137
18.971618712656007	2.8513975	1.6886082
18.9893886650875	2.810298	1.6763943
19.007159078401887	7.9725347	2.8235676
19.024929953062408	32.881927	5.734277
19.042701289532435	32.817207	5.7286305
19.060473088275405	25.354996	5.0353746
19.07824534975489	2.6452394	1.6264192
19.096018074434568	2.6338384	1.6229105
19.113791262778197	2.5818388	1.6068101
19.13156491524966	2.520145	1.5874964
19.149339032312945	2.4734442	1.5727187
19.167113614432136	2.5051212	1.5827575
19.184888662071433	2.5391963	1.5934856
19.202664175695123	2.5648618	1.6015186
19.220440155767623	2.5820816	1.6068857
19.238216602753447	2.566002	1.6018745
19.2559935171172	2.5708792	1.6033962
19.27377089932361	2.5855086	1.6079516
19.291548749837514	2.562328	1.6007273
19.309327069123835	2.5252125	1.5890918
19.32710585764763	2.529199	1.5903455
19.344885115874032	2.5442042	1.5950562
19.362664844268313	2.5009012	1.5814238
19.380445043295822	2.4451742	1.5637053
19.39822571342203	2.4258015	1.5574985
19.41600685511252	2.42301	1.5566021
19.43378846883297	2.4298663	1.5588028
19.451570555049173	2.4171443	1.5547168
19.469353114227037	2.438665	1.5616225
19.48713614683254	2.4487796	1.5648577
19.50491965333182	2.443819	1.5632719
19.52270363419109	2.413171	1.5534384
19.540488089876686	2.4173336	1.5547776
19.55827302085503	2.4744878	1.5730505
19.576058427592674	2.4816742	1.575333
19.593844310556282	2.4341025	1.5601611
19.611630670212598	2.4222856	1.5563693
19.629417507028506	2.4398665	1.5620072
19.64720482147098	2.454813	1.5667843
19.6649926140071	2.4799106	1.5747732
19.682780885104084	2.498431	1.5806426
19.70056963522921	2.513582	1.585428
19.718358864849908	2.5223866	1.5882024
19.7361485744337	2.510598	1.5844866
19.753938764448215	2.4740763	1.5729196
19.771729435361202	2.4614272	1.5688937
19.789520587640506	2.47742	1.5739822
19.807312221754092	2.4738038	1.5728331
19.825104338170043	2.4660666	1.5703715
19.842896937356517	2.4890695	1.5776786
19.860690019781824	2.509664	1.5841919
19.87848358591436	2.5202434	1.5875274
19.896277636222635	2.4903252	1.5780765
19.914072171175278	2.4745579	1.5730728
19.931867191241015	2.4874392	1.5771618
19.94966269688869	2.5022895	1.5818627
19.967458688587264	2.5010834	1.5814813
19.985255166805807	2.4441583	1.5633804
20.00305213201348	2.4235544	1.5567769
20.020849584679578	2.471237	1.5720168
20.038647525273507	2.5105648	1.5844762
20.05644595426477	2.5017595	1.5816952
20.07424487212299	2.4520519	1.565903
20.092044279317903	2.4414527	1.5625149
20.109844176319353	2.4540493	1.5665406
20.127644563597304	2.4350924	1.5604783
20.145445441621817	2.4052715	1.5508938
20.16324681086307	2.3730128	1.5404587
20.181048671791373	2.3692398	1.5392336
20.198851024877122	2.3635259	1.5373763
20.216653870590836	2.3790917	1.5424305
20.234457209403146	2.373357	1.5405704
20.252261041784802	2.3688323	1.5391011
20.270065368206662	2.334343	1.5278556
20.287870189139685	2.337087	1.5287534
20.305675505054968	2.3440373	1.5310249
20.323481316423702	2.3633955	1.5373338
20.341287623717207	2.342542	1.5305365
20.359094427406884	2.3213515	1.5235982
20.376901727964288	2.3371193	1.528764
20.39470952586107	2.3577676	1.5355024
20.41251782156899	2.3475006	1.5321555
20.430326615559935	2.3465867	1.5318573
20.448135908305886	2.329259	1.526191
20.465945700278965	2.312485	1.5206857
20.483755991951384	2.288766	1.5128667
20.50156678379548	2.2841306	1.5113341
20.519378076283708	2.2896678	1.5131649
20.537189869888635	2.2755556	1.5084945
20.55500216508294	2.2779634	1.5092924
20.572814962339415	2.271639	1.5071958
20.59062826213098	2.2889352	1.5129228
20.60844206493066	2.2866137	1.5121553
20.626256371211593	2.2924063	1.5140694
20.644071181447032	2.2826872	1.5108564
20.66188649611036	2.289239	1.5130231
20.67970231567506	2.309539	1.5197167
20.697518640614742	2.30853	1.5193847
20.715335471403122	2.284623	1.5114969
20.73315280851404	2.2604325	1.5034735
20.750970652421447	2.251236	1.500412
20.768789003599412	2.247259	1.499086
20.786607862522136	2.2456841	1.4985607
20.8044272296639	2.2418623	1.497285
20.82224710549913	2.2750556	1.5083288
20.84006749050237	2.2729952	1.5076456
20.857888385148268	3.8060691	1.950915
20.8757097899116	45.891037	6.7742925
20.893531705267254	64.756096	8.047117
20.911354131690224	83.770035	9.152597
20.92917706965566	69.020615	8.307864
20.94700051963877	50.06764	7.075849
20.96482448211493	29.357748	5.418279
20.982648957559622	4.1185493	2.0294209
21.00047394644843	2.2519336	1.5006444
21.01829944925707	2.2817657	1.5105515
21.036125466461375	2.2856567	1.5118388
21.053951998537297	2.2843523	1.5114074
21.071779045960906	2.249738	1.4999126
21.089606609208378	2.2123659	1.4874024
21.10743468875603	2.1808844	1.4767817
21.12526328508028	2.2066758	1.4854884
21.143092398657675	2.2320886	1.4940176
21.16092202996488	2.2308607	1.4936066
21.17875217947867	2.1881723	1.4792472
21.19658284767596	2.1566606	1.4685574
21.21441403503377	2.1784174	1.4759463
21.232245742029225	2.1911411	1.4802504
21.2500779691396	2.21535	1.4884051
21.26791071684227	2.1993885	1.4830335
21.28574398561475	2.1922216	1.4806153
21.30357777593465	2.1298814	1.4594113
21.321412088279704	2.112223	1.4533489
21.339246923127792	2.0988781	1.4487505
21.357082280956888	2.1004317	1.4492866
21.3749181622451	2.0920563	1.4463942
21.392754567470647	2.0897048	1.4455811
21.41059149711187	2.0942204	1.4471421
21.42842895164726	2.1282604	1.4588559
21.446266931555378	2.1395786	1.4627298
21.464105437314945	2.1233957	1.4571877
21.481944469404798	2.0856845	1.4441899
21.49978402830388	2.0757656	1.4407518
21.51762411449127	2.078907	1.4418415
21.53546472844617	2.0587425	1.4348319
21.553305870647876	2.0650823	1.4370394
21.571147541575865	2.063707	1.4365609
21.58898974170967	2.0651832	1.4370745
21.60683247152899	2.0572798	1.4343221
21.62467573151363	2.0560923	1.433908
21.642519522143523	2.0137365	1.4190618
21.660363843898722	1.9795325	1.4069586
21.6782086972594	1.9861158	1.4092962
21.696054082705864	1.9928498	1.4116833
21.713900000718535	2.0258744	1.4233321
21.73174645177795	2.0266685	1.423611
21.749593436364794	1.9957277	1.4127022
21.767440954959845	1.9769189	1.4060295
21.785289008044032	1.944402	1.3944181
21.803137596098388	1.974314	1.4051028
21.820986719604086	1.9791327	1.4068165
21.838836379042412	1.9824123	1.4079816
21.85668657489478	1.9779682	1.4064026
21.87453730764273	1.9724799	1.40445
21.892388577767914	1.9671149	1.4025388
21.91024038575213	1.9629427	1.4010506
21.928092732077285	1.9654871	1.4019583
21.945945617225426	1.9607925	1.400283
21.963799041678694	1.9682641	1.4029484
21.981653005919398	31.285362	5.593332
21.999507510429943	78.06804	8.835612
22.01736255569286	73.01905	8.545118
22.035218142190818	4.128247	2.0318089
22.05307427040661	1.9685323	1.403044
22.07093094082315	1.9413047	1.3933071
22.088788153923474	1.939035	1.3924924
22.106645910190746	1.9242561	1.3871756
22.12450421010827	1.9607534	1.400269
22.142363054159464	1.9773024	1.4061658
22.16022244282787	1.9837604	1.4084603
22.178082376597164	1.953374	1.3976315
22.195942855951145	1.9424168	1.3937061
22.213803881373742	1.9504874	1.3965985
22.231665453349002	1.9598827	1.3999581
22.24952757236111	1.9413579	1.3933262
22.26739023889438	1.950142	1.3964748
22.28525345343323	1.967992	1.4028513
22.30311721646225	1.9831359	1.4082386
22.320981528466113	2.0127637	1.418719
22.33884638992964	1.9985473	1.4136999
22.356711801337788	1.9587606	1.3995574
22.37457776317561	1.9321458	1.3900164
22.392444275928337	1.9388876	1.3924395
22.410311340081282	1.9695309	1.4033998
22.428178956119904	1.9348422	1.3909861
22.446047124529805	1.8973588	1.3774464
22.46391584579669	1.8725146	1.3683985
22.481785120406414	1.8928368	1.3758041
22.49965494884496	1.9177674	1.3848348
22.51752533159841	1.9561688	1.398631
22.53539626915302	1.984099	1.4085805
22.553267761995137	2.005988	1.416329
22.571139810611264	1.9886738	1.4102035
22.589012415488025	1.9858674	1.409208
22.60688557711216	1.9942244	1.4121702
22.624759295970566	1.9934236	1.4118866
22.642633572550263	1.9733857	1.4047725
22.660508407338362	1.9480802	1.3957365
22.67838380082217	1.9429506	1.3938977
22.696259753489077	1.9625671	1.4009166
22.714136265826614	1.975397	1.4054881
22.73201333832246	1.9561855	1.398637
22.74989097146439	1.9396923	1.3927283
22.76776916574035	1.9097878	1.3819507
22.785647921638393	1.9039735	1.3798455
22.803527239646712	1.8887568	1.3743205
22.82140712025363	1.8943057	1.3763378
22.839287563947593	1.895836	1.3768936
22.85716857121719	1.8878998	1.3740087
22.875050142551135	1.8793684	1.3709006
22.892932278438277	1.9171306	1.3846048
22.910814979367604	1.9428321	1.3938551
22.928698245828222	1.9285899	1.3887368
22.946582078309387	1.8846959	1.3728423
22.96446647730047	1.8637618	1.3651966
22.98235144329098	1.8792168	1.3708453
23.000236976770562	1.9159139	1.3841654
23.018123078229	1.9321312	1.3900112
23.03600974815619	1.9241923	1.3871526
23.053896987042194	1.8947147	1.3764864
23.071784795377173	1.9230882	1.3867545
23.08967317365145	1.9407158	1.3930957
23.10756212235546	1.9600672	1.4000239
23.125451641979787	1.9442673	1.3943698
23.143341733015134	1.9583347	1.3994051
23.161232395952357	1.9125024	1.3829325
23.179123631282426	1.9130967	1.3831474
23.197015439496468	1.9201024	1.3856776
23.214907821085717	1.933345	1.3904477
23.23280077654157	1.9478906	1.3956685
23.250694306355538	1.9657925	1.4020672
23.268588411019277	1.9586457	1.3995162
23.28648309102458	1.9547851	1.3981363
23.304378346863356	1.946575	1.3951972
23.322274179027676	1.9216801	1.3862468
23.340170588009723	1.8886917	1.3742968
23.358067574301852	1.8874507	1.3738452
23.37596513839651	1.9171504	1.384612
23.39386328078629	1.9160552	1.3842164
23.411762001963947	1.9167124	1.3844538
23.429661302422353	1.9275109	1.3883482
23.4475611826545	1.9258344	1.3877443
23.46546164315356	1.910193	1.3820974
23.48336268441279	1.950716	1.3966804
23.501264306925638	1.9298648	1.3891957
23.51916651118564	1.8646783	1.3655323
23.537069297686497	1.8134642	1.3466493
23.554972666922037	1.8588539	1.363398
23.57287661938623	1.9225522	1.3865613
23.59078115557318	1.9641551	1.4014832
23.608686275977128	1.9350262	1.3910521
23.62659198109246	1.9214085	1.3861488
23.6444982714137	1.9287817	1.3888059
23.66240514743549	1.9498708	1.3963778
23.68031260965263	1.9334277	1.3904775
23.698220658560068	1.8994077	1.37819
23.716129294652845	1.8780644	1.3704249
23.7340385184262	1.8909987	1.3751359
23.75194833037546	1.914569	1.3836795
23.769858730996123	1.9467762	1.3952692
23.78776972078382	1.913164	1.3831717
23.80568130023431	1.9035676	1.3796984
23.823593469843495	1.8811196	1.3715391
23.841506230107424	1.8504502	1.3603126
23.859419581522275	1.8622621	1.3646473
23.87733352458438	1.8787704	1.3706825
23.89524805979019	1.880245	1.3712202
23.913163187636318	1.8841133	1.3726301
23.931078908619508	1.9355567	1.3912429
23.948995223236633	1.9416538	1.3934324
23.966912131984735	1.9762386	1.4057876
23.98482963536096	2.0250597	1.4230459
24.002747733862616	2.0367243	1.4271386
24.020666427987155	2.015089	1.4195383
24.038585718232156	2.0262094	1.4234498
24.056505605095353	2.0594547	1.43508
24.074426089074617	2.1107304	1.4528353
24.092347170667946	2.1041205	1.4505587
24.110268850373515	2.098934	1.4487698
24.128191128689586	2.1211739	1.4564251
24.146114006114626	2.126468	1.4582413
24.164037483147187	2.123515	1.4572285
24.181961560286005	2.0500293	1.4317924
24.199886238029926	1.981728	1.4077386
24.21781151687797	1.9525205	1.3973262
24.235737397329274	2.0019317	1.4148964
24.253663879883135	2.0428963	1.4292992
24.271590965038975	2.0657864	1.4372844
24.289518653296376	2.0938935	1.4470292
24.30744694515505	2.072964	1.4397792
24.32537584111486	2.036213	1.4269593
24.34330534167581	1.993668	1.4119731
24.361235447338046	1.9828737	1.4081454
24.379166158601876	1.9627688	1.4009885
24.39709747596772	1.9759016	1.4056677
24.41502939993615	1.9941443	1.4121418
24.432961931007917	2.003361	1.4154013
24.450895069683856	1.9734105	1.4047813
24.468828816465	1.894333	1.3763477
24.4867631718525	1.905819	1.380514
24.504698136347656	1.9321461	1.3900166
24.52263371045192	1.9313073	1.3897148
24.540569894666874	1.9259516	1.3877866
24.558506689494266	1.9492099	1.396141
24.57644409543597	1.9354019	1.3911872
24.594382112994012	1.8975285	1.377508
24.61232074267057	1.9246005	1.3872997
24.630259984967953	1.9567792	1.3988492
24.64819984038863	1.9909557	1.4110123
24.66614030943522	1.9644428	1.4015858
24.684081392610462	1.954069	1.3978802
24.702023090417274	1.9648288	1.4017235
24.7199654033587	2.0046983	1.4158736
24.737908331937927	1.9852169	1.4089773
24.755851876658305	1.9914061	1.4111719
24.773796038023324	1.9838784	1.4085022
24.79174081653661	2.0143647	1.4192832
24.809686212701962	2.074332	1.4402541
24.827632227023294	2.1092248	1.452317
24.8455788600047	2.0800376	1.4422336
24.8635261121504	2.0708833	1.4390564
24.88147398396475	2.0757725	1.4407542
24.899422475952303	2.0960631	1.4477787
24.917371588617698	2.0963771	1.4478872
24.935321322465768	2.1382113	1.4622624
24.953271678001478	2.2462764	1.4987583
24.97122265572994	2.4639893	1.5697099
24.989174256156414	2.84419	1.6864727
25.00712647978632	3.446172	1.8563868
25.02507932712521	4.441556	2.1074998
25.043032798678798	5.917186	2.4325266
25.060986894952933	7.5798798	2.753158
25.078941616453637	9.06644	3.0110528
25.096896963687055	10.062129	3.172086
25.114852937159508	10.774286	3.2824209
25.132809537377444	10.576417	3.2521403
25.150766764847468	9.75563	3.1234002
25.168724620076347	8.334063	2.8868775
25.186683103570985	7.110515	2.666555
25.204642215838426	5.702086	2.3879042
25.222601957385894	4.5767283	2.139329
25.24056232872074	3.5235772	1.8771194
25.25852333035048	2.8036876	1.6744215
25.276484962782778	2.3449671	1.5313286
25.294447226525435	2.1332839	1.4605765
25.312410122086423	2.035932	1.4268609
25.330373649973843	1.9777597	1.4063284
25.348337810695988	1.9116318	1.3826177
25.366302604761245	1.8856027	1.3731725
25.384268032678207	1.8989193	1.3780128
25.40223409495558	1.9057883	1.3805029
25.420200792102257	1.8870305	1.3736923
25.438168124627246	1.8236973	1.3504434
25.45613609303974	1.8760962	1.3697066
25.474104697849057	1.9325224	1.390152
25.492073939564698	1.9664594	1.402305
25.510043818696285	1.8983976	1.3778235
25.528014335753614	1.8502415	1.3602358
25.54598549124664	1.7854967	1.3362248
25.56395728568544	1.8023866	1.3425299
25.58192971958028	1.8059888	1.3438709
25.59990279344156	1.8398681	1.3564174
25.617876507779833	1.875699	1.3695617
25.635850863105826	1.8782632	1.3704975
25.653825859930386	1.8652567	1.365744
25.671801498764548	1.8410932	1.3568689
25.68977778011949	1.8625777	1.3647629
25.707754704506524	1.8515446	1.3607148
25.725732272437153	1.9101578	1.3820846
25.743710484423012	1.9150888	1.3838674
25.761689340975888	1.8803473	1.3712575
25.77966884260774	1.850187	1.3602158
25.797648989830662	1.8724442	1.3683728
25.815629783156922	1.8547889	1.3619063
25.83361122309895	1.7890953	1.3375707
25.85159331016929	1.799868	1.3415916
25.869576044880695	1.8593938	1.363596
25.887559427746034	1.8626622	1.3647938
25.90554345927836	1.8837775	1.3725077
25.92352813999086	1.8556919	1.3622378
25.94151347039689	1.8279835	1.3520294
25.959499451009965	1.7782025	1.3334926
25.97748608234374	1.8104172	1.3455174
25.995473364912062	1.8368075	1.3552887
26.013461299228904	1.849501	1.3599637
26.03144988580839	1.8507466	1.3604215
26.04943912516483	1.8236554	1.3504279
26.067429017812675	1.7680236	1.3296705
26.085419564266537	1.7654842	1.3287152
26.103410765041186	1.804623	1.3433626
26.12140262065155	1.787809	1.3370898
26.139395131612723	1.7750349	1.3323044
26.157388298439948	1.7784053	1.3335687
26.17538212164861	1.8508037	1.3604425
26.193376601754295	1.8415275	1.357029
26.211371739272714	1.8444403	1.3581017
26.229367534719746	1.7969849	1.3405167
26.247363988611433	1.7942771	1.3395063
26.26536110146397	1.8031416	1.3428111
26.283358873793727	1.8318858	1.3534718
26.301357306117204	1.772317	1.3312839
26.319356398951104	1.7637665	1.3280687
26.33735615281224	1.7446977	1.32087
26.35535656821762	1.7497095	1.3227658
26.373357645684404	1.7799238	1.3341378
26.39135938572991	1.8890845	1.3744397
26.409361788871614	1.8923621	1.3756316
26.427364855627165	1.8481458	1.3594652
26.445368586514352	1.7884145	1.3373162
26.46337298205115	1.7995512	1.3414736
26.48137804275568	1.7902511	1.3380027
26.499383769146217	1.7890166	1.3375412
26.517390161741215	1.80042	1.3417974
26.53539722105928	1.7986393	1.3411336
26.553404947619182	1.7721522	1.331222
26.571413341939856	1.787592	1.3370086
26.589422404540397	1.8124636	1.3462777
26.60743213594006	1.8175292	1.3481578
26.62544253665827	1.8129787	1.346469
26.64345360721459	1.8091649	1.345052
26.66146534812879	1.7856848	1.3362951
26.679477759920758	1.772943	1.331519
26.69749084311057	1.7861797	1.3364804
26.71550459821847	1.7958485	1.3400927
26.733519025764842	1.8118349	1.3460442
26.751534126270258	1.8157188	1.3474861
26.769549900255434	1.8512131	1.360593
26.787566348241267	1.8624142	1.3647029
26.80558347074881	1.8288491	1.3523495
26.823601268299267	1.7783487	1.3335474
26.841619741414036	1.7149878	1.3095754
26.85963889061465	1.665097	1.2903863
26.877658716422832	1.7511263	1.3233013
26.89567921936045	1.841796	1.3571279
26.913700399949544	1.8749702	1.3692955
26.93172225871233	1.8528446	1.3611923
26.949744796171174	1.8133483	1.3466063
26.967768012848605	1.7591062	1.326313
26.98579190926733	1.752409	1.3237859
27.003816485950225	1.7664764	1.3290886
27.021841743420318	1.7635249	1.3279778
27.039867682200814	1.7729185	1.3315098
27.057894302815072	1.8214482	1.3496104
27.07592160578664	1.8244878	1.350736
27.0939495916392	1.8046418	1.3433696
27.111978260896635	1.7910086	1.3382857
27.13000761408296	1.8197604	1.348985
27.148037651722397	1.7845484	1.3358699
27.166068374339304	1.8269638	1.3516523
27.184099782458215	1.8367639	1.3552727
27.20213187660384	1.8427193	1.357468
27.22016465730105	1.8314575	1.3533136
27.23819812507487	1.8231261	1.3502319
27.256232280450533	1.8376164	1.3555871
27.274267123953383	1.7949616	1.3397617
27.292302656108987	1.7760298	1.3326777
27.31033887744306	1.734629	1.3170532
27.32837578848146	1.7553583	1.3248993
27.34641338975026	1.846623	1.3589051
27.364451681775673	1.8819487	1.3718413
27.382490665084074	1.8629631	1.364904
27.400530340202046	1.8393512	1.3562268
27.41857070765629	1.8593444	1.3635777
27.436611767973726	1.9109943	1.3823872
27.454653521681404	1.8789709	1.3707556
27.472695969306564	1.815643	1.347458
27.490739111376627	1.8249947	1.3509237
27.508782948419153	1.8087366	1.3448927
27.526827480961902	1.7791395	1.333844
27.54487270953279	1.7568711	1.3254701
27.562918634659898	1.7850372	1.3360528
27.580965256871508	1.8833853	1.3723649
27.599012576696026	1.8930451	1.3758798
27.617060594662068	1.8500936	1.3601815
27.63510931129842	1.8009104	1.34198
27.65315872713401	1.7735099	1.3317319
27.67120884269797	1.8208201	1.3493776
27.68925965851958	1.8359277	1.3549641
27.707311175128307	1.8732291	1.3686596
27.725363393053787	1.889681	1.3746567
27.74341631282583	1.9405847	1.3930486
27.7614699349744	1.9570309	1.3989393
27.77952426002968	2.0608704	1.4355732
27.797579288521973	2.108577	1.452094
27.815635020981784	2.5267022	1.5895604
27.83369145793979	2.6511998	1.6282505
27.85174859992682	2.486543	1.5768776
27.869806447473923	2.3434126	1.5308208
27.887865001112267	2.0547297	1.4334328
27.905924261373233	1.9370974	1.3917965
27.92398422878836	1.8788455	1.3707098
27.94204490388936	1.8743418	1.369066
27.96010628720813	1.8508229	1.3604496
27.978168379276728	1.7878273	1.3370966
27.9962311806274	1.7570794	1.3255486
28.014294691792568	1.8036284	1.3429923
28.0323589133048	1.8272158	1.3517455
28.050423845696887	1.8141212	1.3468932
28.068489489501758	1.8246057	1.3507797
28.086555845252523	1.8440233	1.3579482
28.104622913482487	1.854841	1.3619255
28.122690694725115	1.9013273	1.3788862
28.14075918951405	1.9313948	1.3897463
28.15882839838312	1.9221727	1.3864244
28.176898321866304	1.9100263	1.382037
28.1949689604978	1.9204743	1.3858118
28.213040314811945	1.9291421	1.3889356
28.23111238534327	1.9397495	1.392749
28.249185172626493	1.971947	1.4042603
28.267258677196473	1.994186	1.4121566
28.285332899588294	1.969099	1.4032459
28.303407840337172	1.9683462	1.4029776
28.321483499978545	1.996962	1.413139
28.33955987904799	2.0164905	1.4200319
28.357636978081285	1.98578	1.4091771
28.37571479761439	1.9807522	1.407392
28.393793338183425	2.0130131	1.4188069
28.41187260032469	2.0440788	1.4297129
28.429952584574686	2.045978	1.4303769
28.448033291470065	2.022627	1.4221909
28.46611472154769	1.9892621	1.4104121
28.484196875344566	2.0157988	1.4197882
28.502279753397914	2.026734	1.4236342
28.52036335624511	2.0541341	1.433225
28.538447684423716	2.032908	1.4258008
28.556532738471482	1.9874369	1.4097649
28.574618518926325	1.9991329	1.4139069
28.59270502632635	1.9933468	1.4118594
28.61079226120985	2.015144	1.4195577
28.628880224115274	2.0173628	1.420339
28.646968915581287	2.007454	1.4168465
28.66505833614671	1.9952484	1.4125327
28.68314848635055	2.0405667	1.4284841
28.701239366732004	2.088823	1.4452761
28.71933097783044	2.0739808	1.4401323
28.737423320185403	2.0833392	1.4433777
28.75551639433665	2.1082754	1.4519901
28.773610200824074	2.1028183	1.4501097
28.791704740187793	2.1217914	1.456637
28.80980001296809	2.1896813	1.4797572
28.827896019705413	2.1947434	1.4814667
28.845992760940433	2.1621938	1.47044
28.86409023721397	2.1890864	1.4795562
28.88218844906704	2.1965635	1.4820808
28.900287397040845	2.1833687	1.4776226
28.918387081676755	2.1653728	1.4715205
28.936487503516343	2.224145	1.4913567
28.954588663101365	2.3182623	1.5225841
28.97269056097374	2.3337457	1.5276603
28.990793197675597	2.3036318	1.517772
29.00889657374923	2.2300265	1.4933274
29.027000689737125	2.2833853	1.5110874
29.04510554618196	2.3777733	1.542003
29.06321114362659	2.4238362	1.5568675
29.08131748261405	2.4238737	1.5568795
29.099424563687567	2.4783068	1.5742639
29.11753238739057	2.4578645	1.5677578
29.13564095426663	2.4714136	1.572073
29.15375026485954	2.5005944	1.5813267
29.171860319713275	2.5502245	1.5969423
29.18997111937199	2.6448743	1.626307
29.20808266438002	2.7122123	1.6468796
29.226194955281898	2.757251	1.6604972
29.244307992622335	2.8261828	1.6811255
29.26242177694624	2.8427904	1.6860577
29.2805363087987	2.813256	1.6772764
29.29865158872498	2.8844109	1.6983553
29.316767617270557	2.8988996	1.7026155
29.334884394981064	2.9557266	1.7192227
29.353001922402367	3.041545	1.7440026
29.37112020008047	3.0699778	1.7521352
29.389239228561596	3.1278887	1.7685838
29.407359008392152	3.3053687	1.8180673
29.42547954011872	3.5702133	1.8895009
29.44360082428809	3.977612	1.9943951
29.46172286144722	4.9674873	2.228786
29.479845652143283	6.641019	2.5770175
29.497969196923606	9.313996	3.0518842
29.516093496335728	13.127856	3.6232383
29.5342185509274	16.824677	4.1017895
29.55234436124651	19.830996	4.453201
29.570470927841175	21.261374	4.611006
29.588598251259686	21.455105	4.6319656
29.60672633205055	19.787329	4.448295
29.624855170762405	16.603945	4.074794
29.642984767944146	12.983169	3.6032164
29.66111512414481	9.636356	3.104248
29.67924623991366	7.149641	2.6738813
29.697378115800138	5.2127156	2.2831373
29.71551075235387	4.2291284	2.0564845
29.733644150124675	3.7395449	1.9337903
29.751778309662576	3.500731	1.871024
29.769913231517766	3.3910708	1.8414861
29.78804891624066	3.3691642	1.8355284
29.806185364381818	3.3304396	1.8249491
29.82432257649206	3.305572	1.8181232
29.842460553122333	3.2642236	1.8067162
29.86059929482382	3.2805798	1.8112371
29.878738802147872	3.336859	1.8267071
29.896879075646048	3.3207843	1.822302
29.915020115870114	3.2771378	1.8102866
29.933161923371976	3.1789412	1.7829585
29.951304498703777	3.1259854	1.7680457
29.969447842417857	3.1299615	1.7691697
29.987591955066733	3.1635942	1.7786496
30.005736837203123	3.202554	1.7895681
30.023882489379943	3.1868002	1.7851611
30.04202891215028	3.2128239	1.7924352
30.060176106067455	3.1847482	1.7845863
30.078324071684946	3.184405	1.7844901
30.09647280955646	3.2338526	1.7982916
30.114622320235863	3.2843854	1.8122873
30.132772604277257	3.23714	1.7992054
30.1509236622349	3.1377754	1.7713767
30.16907549466328	3.0843768	1.7562394
30.18722810211705	3.0783174	1.7545134
30.205381485151097	3.0581057	1.748744
30.22353564432045	3.0316775	1.7411712
30.241690580180403	3.0910432	1.7581363
30.25984629328638	3.0761783	1.7539037
30.278002784194037	3.0551772	1.7479066
30.296160053459246	2.9585314	1.7200382
30.314318101638033	2.9292405	1.7115024
30.332476929286646	2.9414868	1.7150763
30.35063653696153	2.9657416	1.7221329
30.368796925219307	2.9343634	1.7129984
30.386958094616844	2.8655217	1.6927851
30.40512004571115	2.853424	1.6892081
30.423282779059463	2.8055646	1.674982
30.441446295219233	2.795878	1.6720879
30.459610594748067	2.7535303	1.6593765
30.47777567820382	2.8137922	1.6774362
30.495941546144504	2.8271785	1.6814215
30.51410819912835	2.8297377	1.6821824
30.532275637713795	2.798377	1.672835
30.55044386245946	2.8144164	1.6776222
30.56861287392416	2.7939649	1.6715157
30.586782672666956	2.776372	1.6662449
30.604953259247047	2.7919252	1.6709055
30.623124634223885	2.7956188	1.6720104
30.641296798157075	2.7715666	1.6648023
30.659469751606462	2.68735	1.6393139
30.677643495132074	2.6749637	1.6355317
30.695818029294152	2.7174485	1.6484685
30.713993354653116	2.6955595	1.6418159
30.73216947176962	2.653185	1.62886
30.75034638120448	2.6325889	1.6225255
30.768524083518756	2.7195573	1.649108
30.786702579273673	2.836368	1.684152
30.80488186903069	2.9222386	1.7094556
30.82306195335144	3.011064	1.7352418
30.841242832797782	3.2432256	1.8008958
30.85942450793176	3.5535557	1.8850877
30.877606979315637	3.9411066	1.9852221
30.895790247511883	4.3923483	2.095793
30.913974313083134	4.873787	2.2076654
30.932159176592283	5.299088	2.3019748
30.95034483860237	5.687284	2.3848028
30.968531299676698	5.6583247	2.3787234
30.98671856037873	5.286612	2.2992635
31.00490662127215	4.760203	2.181789
31.023095482920848	4.280904	2.0690346
31.04128514588892	3.7290974	1.9310871
31.059475610740662	3.2101257	1.7916824
31.07766687804056	2.8664603	1.6930624
31.09585894835335	2.729139	1.6520107
31.11405182224393	2.6267722	1.620732
31.132245500277417	2.5267959	1.5895898
31.15043998301914	2.4827752	1.5756824
31.168635271034628	2.430445	1.5589885
31.18683136488964	2.427989	1.5582006
31.20502826515008	2.4450524	1.5636663
31.223225972382135	2.4649868	1.5700276
31.241424487152155	2.4604776	1.568591
31.259623810026692	2.472132	1.5723015
31.27782394157253	2.4228086	1.5565374
31.296024882356644	2.4491394	1.5649726
31.314226632946237	2.4146001	1.5538983
31.332429193908684	2.3948116	1.5475179
31.350632565811598	2.4070492	1.5514668
31.368836749222787	2.3993027	1.5489683
31.387041744710295	2.4556925	1.567065
31.40524755284232	2.4710422	1.5719548
31.423454174187317	2.4596028	1.568312
31.441661609313922	2.4609058	1.5687275
31.459869858791002	2.5128942	1.585211
31.478078923187628	2.469216	1.5713739
31.496288803073064	2.3779035	1.5420452
31.514499499016807	2.3597846	1.536159
31.532711011588546	2.3562093	1.5349948
31.550923341358178	2.3263085	1.5252241
31.56913648889584	2.3715065	1.5399697
31.587350454771844	2.3527882	1.5338801
31.605565239556732	2.3307827	1.5266901
31.62378084382127	2.221382	1.4904301
31.641997268136382	2.2643657	1.5047809
31.660214513073274	2.23953	1.496506
31.67843257920331	2.2411695	1.4970536
31.6966514670981	2.2493224	1.4997741
31.71487117732944	2.2341974	1.4947232
31.733091710469346	2.2172415	1.4890405
31.751313067090052	2.2067852	1.4855253
31.769535247764008	2.243596	1.4978639
31.787758253063878	2.258489	1.5028269
31.805982083562526	2.2697756	1.5065775
31.824206739833024	2.297602	1.5157843
31.84243222244869	2.334437	1.5278864
31.860658531983013	2.316593	1.5220358
31.878885669009737	2.202642	1.48413
31.897113634102784	2.1944716	1.4813749
31.91534242783632	2.245961	1.498653
31.933572050784694	2.3100643	1.5198896
31.951802503522508	2.3416018	1.5302293
31.970033786624548	2.2985246	1.5160886
31.988265900665834	2.253389	1.5011292
32.006498846221575	2.213348	1.4877325
32.02473262386724	2.2494533	1.4998177
32.04296723417845	2.2875338	1.5124595
32.0612026777311	2.2963233	1.5153624
32.07943895510129	2.2500892	1.5000297
32.097676066865304	2.152069	1.4669932
32.115914013599685	2.1667056	1.4719734
32.13415279588115	2.1343184	1.4609307
32.152392414286666	2.064708	1.4369092
32.1706328693934	2.0805304	1.4424044
32.18887416177875	2.1364102	1.4616464
32.20711629202032	2.1044512	1.4506726
32.225359260695924	2.1288555	1.4590598
32.243603068383614	2.1536338	1.4675264
32.26184771566166	2.1849394	1.4781541
32.28009320310852	2.2403421	1.4967773
32.2983395313029	2.3015742	1.517094
32.31658670082372	2.1816957	1.4770564
32.33483471225012	2.0962646	1.4478483
32.35308356616143	2.1183555	1.4554571
32.371333263137245	2.0717692	1.4393642
32.38958380375734	1.9802996	1.4072312
32.407835188601744	1.9582523	1.3993757
32.42608741825067	1.9883472	1.4100877
32.444340493284585	2.036404	1.4270263
32.46259441428416	2.114944	1.4542847
32.48084918183028	2.1043377	1.4506335
32.49910479650405	2.0529075	1.4327971
32.51736125888683	2.037036	1.4272476
32.53561856956014	2.0665023	1.4375334
32.5538767291058	2.0704706	1.438913
32.572135738105764	2.0315683	1.425331
32.59039559714228	2.0383768	1.4277173
32.608656306797776	2.081688	1.4428055
32.62691786765491	2.1274886	1.4585913
32.645180280296586	2.079583	1.442076
32.663443545305896	2.0419614	1.4289721
32.68170766326619	1.9983997	1.4136477
32.69997263476099	2.0279562	1.4240633
32.7182384603741	2.0773685	1.4413079
32.7365051406895	2.1409898	1.4632121
32.75477267629144	2.1638846	1.4710149
32.77304106776434	2.090482	1.4458499
32.79131031569289	2.035403	1.4266756
32.809580420661966	1.9871062	1.4096476
32.827851383256714	1.9480363	1.3957207
32.84612320406245	1.953172	1.3975593
32.86439588366476	1.978499	1.4065913
32.88266942264945	1.950029	1.3964344
32.9009438216025	1.9359267	1.3913758
32.9192190811102	1.8645369	1.3654804
32.937495201758985	1.8355254	1.3548156
32.95577218413556	1.8890554	1.3744291
32.974050028826866	1.9750069	1.4053494
32.992328736420035	1.9662818	1.4022417
33.010608307502444	1.8860852	1.3733481
33.02888874266169	1.8320897	1.3535471
33.047170042485604	1.8397552	1.3563757
33.06545220756225	1.9155205	1.3840233
33.083735238479896	1.975505	1.4055266
33.10201913582707	1.9381839	1.3921868
33.12030390019248	1.967631	1.4027227
33.138589532165135	1.962275	1.4008123
33.15687603233419	1.9519677	1.3971283
33.17516340128909	1.9435239	1.3941033
33.19345163961947	1.8860143	1.3733224
33.211740747915215	1.8420237	1.3572117
33.23003072676643	1.9578866	1.399245
33.248321576763466	1.9800574	1.4071451
33.266613298496885	1.9204918	1.3858181
33.28490589255747	1.8895499	1.374609
33.30319935953626	1.8275923	1.3518847
33.32149370002451	1.8861376	1.3733673
33.339788914613706	1.9308425	1.3895476
33.358085003895575	1.8681762	1.3668125
33.376381968462034	1.8682029	1.3668222
33.39467980890529	2.064801	1.4369415
33.41297852581774	2.154182	1.4677131
33.43127811979204	2.0320206	1.4254895
33.44957859142105	1.8325039	1.3537
33.467879941297866	1.8129034	1.346441
33.486182170015844	1.8865446	1.3735154
33.50448527816853	1.965452	1.4019458
33.522789266349754	1.927729	1.3884268
33.541094135153514	1.9416034	1.3934143
33.55939988517411	1.9494021	1.39621
33.57770651700602	1.9550328	1.3982248
33.59601403124398	1.974222	1.4050701
33.61432242848296	2.0080628	1.4170613
33.632631709318154	2.0412424	1.4287205
33.650941874344994	2.034282	1.4262825
33.66925292415916	1.9712069	1.4039967
33.68756485935654	1.9478601	1.3956575
33.70587768053328	1.8872557	1.3737743
33.724191388285746	1.8255286	1.3511212
33.74250598321054	1.7920597	1.3386784
33.760821465904506	1.7966001	1.3403732
33.77913783696474	1.8959228	1.3769251
33.79745509698852	2.074269	1.4402323
33.815773246573414	2.0866818	1.4445351
33.8340922863172	1.9190866	1.385311
33.852412216817896	1.8233881	1.3503289
33.87073303867377	1.8577248	1.3629838
33.889054752483304	2.002497	1.415096
33.907377358845245	1.9715015	1.4041016
33.92570085835853	1.943022	1.3939233
33.94402525162239	1.965988	1.4021369
33.96235053923627	1.9221302	1.3864092
33.980676721799824	1.7999432	1.3416196
33.999003799912984	1.7609143	1.3269944
34.01733177417592	1.7798442	1.334108
34.03566064518901	1.7211876	1.3119404
34.0539904135529	1.771534	1.3309898
34.07232107986846	1.9310933	1.3896378
34.090652644736785	1.8982832	1.377782
34.108985108759235	1.7695324	1.3302377
34.12731847253742	1.7770988	1.3330787
34.14565273667313	1.8467095	1.3589369
34.16398790176847	1.9530175	1.397504
34.18232396842574	2.0218701	1.4219248
34.20066093724749	2.0153427	1.4196277
34.21899880883651	1.9542581	1.3979478
34.23733758379583	1.925864	1.387755
34.25567726272874	2.0427225	1.4292384
34.27401784623872	2.0876825	1.4448814
34.29235933492957	1.9787933	1.4066958
34.31070172940526	2.0171194	1.4202533
34.32904503027003	2.1340995	1.4608557
34.347389238128386	2.1245298	1.4575768
34.36573435358502	2.0421097	1.4290241
34.38408037724492	1.9424636	1.3937229
34.402427309713296	1.8866245	1.3735445
34.42077515159559	1.8685418	1.3669462
34.43912390349752	2.01196	1.4184358
34.45747356602499	2.160029	1.4697037
34.47582413978423	2.0820804	1.4429415
34.49417562538163	1.901094	1.3788016
34.51252802342388	1.8113207	1.3458531
34.53088133451789	1.7205997	1.3117163
34.54923555927084	1.7721505	1.3312215
34.567590698290104	1.8651693	1.365712
34.58594675218336	1.9602731	1.4000976
34.6043037215585	2.0345933	1.4263917
34.62266160702365	2.0485284	1.4312681
34.641020409187234	1.986011	1.4092591
34.65938012865785	1.914423	1.3836267
34.677740766044394	1.774805	1.332218
34.69610232195598	1.7628115	1.3277091
34.714464797002016	1.821366	1.3495799
34.73282819179208	1.9970878	1.4131836
34.751192506936064	2.1269195	1.4583962
34.76955774304408	1.9609654	1.4003447
34.7879239007265	2.0161579	1.4199147
34.80629098059391	2.2020617	1.4839345
34.824658983257194	2.1494136	1.4660878
34.843027909327446	2.0774112	1.4413227
34.86139775941603	2.1299796	1.459445
34.879768534134534	2.1057684	1.4511266
34.89814023409483	1.95056	1.3966244
34.91651285990901	2.0079074	1.4170065
34.93488641218944	2.1620898	1.4704046
34.95326089154871	2.0779767	1.4415189
34.97163629859967	1.8362311	1.3550761
34.99001263395542	1.755833	1.3250785
35.00838989822934	1.8057289	1.3437741
35.02676809203499	1.9559222	1.3985429
35.04514721598624	2.0539947	1.4331764
35.063527270697215	1.9224849	1.386537
35.081908256782256	1.8894253	1.3745637
35.10029017485597	1.883774	1.3725065
35.11867302553321	1.9618584	1.4006635
35.137056809429104	2.1768906	1.4754289
35.155441527159006	2.1395411	1.462717
35.173827179338524	2.042742	1.4292452
35.19221376658354	1.8695698	1.3673221
35.21060128951017	1.9442184	1.3943523
35.2289897487348	2.0423014	1.4290911
35.24737914487405	2.1146648	1.4541887
35.26576947854479	2.033287	1.4259337
35.28416075036418	1.9406545	1.3930738
35.30255296094958	1.9769746	1.4060493
35.32094611091867	2.0539606	1.4331645
35.33934020088932	2.2011702	1.4836341
35.35773523147969	2.430533	1.5590167
35.3761312033082	2.5639327	1.6012285
35.394528116993506	2.2024534	1.4840665
35.41292597315452	1.7776017	1.3332673
35.431324772410434	1.7933187	1.3391485
35.449724515380666	2.0259328	1.4233526
35.46812520268491	2.3343399	1.5278547
35.486526834943106	2.1267996	1.4583551
35.504929412775454	2.0310972	1.4251657
35.52333293680242	2.0718856	1.4394046
35.54173740764471	1.9886904	1.4102093
35.560142825923286	1.6275433	1.2757521
35.5785491922594	1.385429	1.1770425
35.59695650727454	0.9609354	0.9802731
35.61536477159042	0.6898081	0.83054686
