0.008763373481513119	0.0	0.0
0.026290120649546365	0.0	0.0
0.043816868432600686	0.0	0.0
0.06134361724069026	0.022973347	0.15156962
0.07887036748382949	0.16521108	0.40646166
0.0963971195720331	0.23580225	0.48559475
0.11392387391531617	0.20618014	0.45407063
0.1314506309236943	0.08776412	0.2962501
0.1489773910071836	0.018355029	0.13548073
0.16650415457580078	0.07400091	0.27203107
0.18403092203956356	0.13935673	0.37330514
0.20155769380849	0.13822016	0.3717797
0.2190844702925996	0.13123575	0.36226475
0.2366112519019124	0.1399134	0.37405
0.2541380390464497	0.100562185	0.31711543
0.27166483213623416	0.113561206	0.33698845
0.28919163158128947	0.14635302	0.38256115
0.3067184377916406	0.13182549	0.3630778
0.324245251177314	0.16246763	0.40307274
0.34177207214833777	0.10889884	0.32999825
0.3592989011147415	0.15897375	0.39871514
0.37682573848655654	0.13930055	0.3732299
0.39435258467381573	0.19413589	0.44060853
0.41187944008655414	0.17554247	0.4189779
0.42940630513480854	0.19003858	0.43593416
0.446933180228618	0.1953993	0.44203994
0.4644600657780234	0.18458602	0.42963475
0.48198696219306775	0.1892187	0.43499276
0.49951386988379676	0.13674945	0.36979648
0.5170407892602581	0.12797421	0.35773483
0.5345677207325025	0.12522167	0.35386673
0.5520946647105822	0.18725021	0.43272418
0.5696216216045534	0.20080064	0.44810784
0.5871485918244737	0.22157452	0.470717
0.6046755757804043	0.1746011	0.41785297
0.6222025738824094	0.11534888	0.3396305
0.6397295865405557	0.0805753	0.28385788
0.6572566141649129	0.08516104	0.29182366
0.6747836571655547	0.12334207	0.35120088
0.6923107159525568	0.1298621	0.36036384
0.7098377909359992	0.11495306	0.33904728
0.7273648825259653	0.1032071	0.3212586
0.7448919911325411	0.11522145	0.33944285
0.762419117165817	0.16908315	0.41119722
0.7799462610358868	0.19549924	0.44215295
0.7974734231528482	0.19600622	0.4427259
0.8150006039268024	0.24484268	0.4948158
0.8325278037678551	0.21901841	0.46799403
0.8500550230861152	0.22301221	0.4722417
0.8675822622916969	0.194453	0.44096825
0.8851095217947171	0.21973342	0.4687573
0.9026368020052984	0.23018564	0.47977665
0.9201641033335665	0.2278054	0.47728965
0.9376914261896523	0.1958056	0.44249925
0.9552187709836915	0.22623746	0.47564426
0.9727461381258234	0.27622113	0.5255674
0.990273528026193	0.28031597	0.52944875
1.0078009410949496	0.286648	0.5353952
1.0253283777422473	0.2679415	0.51763064
1.0428558383782454	0.2652	0.5149757
1.0603833234131086	0.2975595	0.54549015
1.0779108332570058	0.30578145	0.5529751
1.0954383683201119	0.29708222	0.54505247
1.112965929012607	0.3413629	0.58426267
1.1304935157446763	0.49599624	0.70427
1.1480211289265108	0.5720173	0.7563183
1.1655487689683062	1.3958235	1.1814498
1.1830764362802655	1.707322	1.3066453
1.200604131272596	2.1792917	1.4762424
1.2181318543555117	2.58105	1.6065646
1.235659605939232	2.5102713	1.5843836
1.253187386433982	3.9612508	1.9902891
1.270715196249994	6.2380114	2.497601
1.2882430357975057	11.712305	3.4223244
1.3057709054867608	16.679226	4.0840206
1.3232988057280106	22.587358	4.752616
1.3408267369315112	27.79698	5.272284
1.358354699507526	31.425873	5.6058784
1.3758826938663256	35.413643	5.9509363
1.3934107204181858	37.391125	6.114828
1.410938779573391	37.521587	6.125487
1.4284668717422309	37.8292	6.1505446
1.4459949973350033	37.499233	6.1236615
1.4635231567620117	38.164207	6.1777186
1.4810513504335687	37.450718	6.119699
1.4985795787599925	36.3453	6.028706
1.5161078421516088	35.60662	5.9671283
1.5336361410187505	34.335094	5.8596153
1.5511644757717598	34.52962	5.876191
1.5686928468209842	34.908478	5.9083395
1.58622125457678	35.89436	5.99119
1.6037496994495108	37.32542	6.109453
1.621278181849548	37.527367	6.1259584
1.6388067021872719	38.483322	6.2034926
1.6563352608730693	37.965927	6.1616497
1.673863858317336	36.941578	6.0779586
1.6913924949304753	35.960922	5.9967427
1.7089211711228998	34.70075	5.890734
1.7264498873050296	33.804012	5.8141217
1.7439786438872935	33.063374	5.750076
1.7615074412801288	32.462997	5.697631
1.779036279893981	31.867176	5.645102
1.796565160139305	30.74449	5.544771
1.814094082426564	29.756458	5.454948
1.8316230471662298	29.060284	5.390759
1.849152054768784	28.470564	5.3357816
1.8666811056447168	28.026566	5.294012
1.8842102002045273	27.114252	5.2071347
1.901739338858724	26.595871	5.1571183
1.9192685220178245	26.030005	5.1019607
1.9367977500923557	25.211159	5.0210714
1.9543270234928547	24.483593	4.9480896
1.971856342629867	23.622435	4.8602915
1.9893857079139496	23.033049	4.799276
2.006915119755667	22.65007	4.759209
2.0244445785655945	22.131128	4.7043734
2.0419740847543175	22.002542	4.6906867
2.0595036387324317	21.691692	4.657434
2.0770332409105414	21.149078	4.5988126
2.094562891699263	20.541683	4.5322933
2.1120925915092217	19.917398	4.462891
2.129622340751053	19.857136	4.456135
2.1471521398354043	188.34824	13.724002
2.1646819891729323	444.58264	21.085129
2.182211889174303	440.7391	20.993788
2.1997418402501974	452.97684	21.283253
2.2172718428113023	433.03613	20.80952
2.234801897268317	320.8347	17.91186
2.2523320040319548	17.284634	4.1574793
2.269862163512935	16.746538	4.092253
2.287392376121992	16.384146	4.0477333
2.304922642269869	16.232637	4.0289745
2.322452962367322	16.07166	4.0089474
2.3399833368251164	15.737529	3.9670553
2.357513766054032	15.3559885	3.9186718
2.3750442504648586	14.87419	3.856707
2.3925747904683963	14.8595705	3.8548114
2.410105386475459	14.63847	3.8260252
2.4276360388968707	14.2124	3.7699337
2.445166748143469	14.05095	3.7484596
2.4626975146261025	13.698296	3.7011209
2.4802283387556323	13.725043	3.7047327
2.4977592209429305	13.574186	3.6843162
2.5152901615988825	13.227248	3.6369283
2.5328211611343865	12.77654	3.5744286
2.5503522199603523	12.572946	3.545835
2.5678833384877024	12.354524	3.5149002
2.5854145171273712	12.100916	3.478637
2.6029457562903064	11.910178	3.4511125
2.620477056387469	11.690735	3.4191716
2.6380084178298326	11.690876	3.4191923
2.655539841028383	11.3684225	3.371709
2.673071326394119	11.22454	3.3503044
2.6906028743380523	11.053554	3.3246884
2.708134485271211	11.030782	3.3212621
2.7256661596046325	10.985389	3.3144214
2.743197897749369	10.852165	3.2942624
2.760729700116486	10.668736	3.266303
2.778261567117063	10.492928	3.2392788
2.795793499162193	10.458113	3.2339005
2.8133254966629817	10.220137	3.196895
2.830857560030551	9.962172	3.1562908
2.8483896896760337	9.694849	3.1136553
2.865921886010578	9.42163	3.0694673
2.883454149445347	9.301808	3.0498867
2.9009864803915177	9.360559	3.059503
2.91851887926028	9.346738	3.0572436
2.9360513464628384	9.371586	3.0613046
2.953583882410413	9.232599	3.0385191
2.9711164875142373	9.106032	3.0176203
2.9886491621855606	8.917617	2.986238
3.0061819068356455	8.789575	2.9647217
3.023714721875769	8.593568	2.9314787
3.041247607717225	8.520087	2.9189188
3.0587805647713213	8.378472	2.8945591
3.0763135934493806	8.314911	2.8835588
3.0938466941627407	8.234368	2.8695588
3.1113798673227544	8.227138	2.8682988
3.1289131133407904	8.080706	2.8426583
3.1464464326282315	7.8977556	2.8102946
3.1639798255964786	7.7846594	2.7901003
3.1815132926569443	7.744031	2.78281
3.1990468342210603	7.5951667	2.755933
3.216580450700272	7.493074	2.737348
3.2341141425060416	7.37713	2.7160873
3.251647910049847	7.365292	2.7139072
3.2691817537431813	7.269356	2.6961744
3.286715673997555	7.141872	2.6724281
3.3042496712244938	7.0854173	2.6618447
3.32178374583554	6.996847	2.6451554
3.339317898242251	6.8832483	2.6235945
3.3568521288562034	6.827493	2.6129472
3.3743864380889876	6.825166	2.6125019
3.3919208263522127	6.864663	2.6200502
3.4094552940575023	6.8349442	2.6143727
3.4269898416164972	6.759126	2.599832
3.444524469440858	6.5865474	2.566427
3.4620591779422587	6.409356	2.5316706
3.479593967532391	6.326834	2.5153198
3.4971288386229658	6.3550296	2.5209184
3.5146637916257086	6.4752693	2.544655
3.5321988269523628	6.502814	2.5500615
3.5497339450146903	6.4714746	2.5439093
3.5672691462244708	6.2730265	2.504601
3.5848044309934988	6.1794105	2.485842
3.60233979973359	6.229862	2.4959693
3.619875252856575	6.365942	2.5230818
3.6374107907743034	6.442499	2.5382078
3.6549464138986427	6.5219836	2.5538175
3.6724821226414788	6.490939	2.547732
3.690017917414714	6.4770045	2.544996
3.7075537986302702	6.450098	2.5397043
3.7250897667000857	6.5125337	2.5519667
3.7426258220361235	6.656043	2.5799308
3.7601619650503553	6.9753637	2.6410913
3.777698196154779	7.533039	2.7446382
3.7952345157614067	8.633397	2.9382644
3.8127709242822716	9.452045	3.0744178
3.830307422129425	11.688771	3.4188845
3.847844009714936	30.420967	5.5155206
3.8653806874508954	97.82101	9.8904505
3.882917455749409	97.157715	9.856861
3.900454315022606	96.984566	9.848074
3.917991265682631	41.4281	6.4364667
3.9355283081416506	10.957471	3.3102071
3.9530654428118495	8.715933	2.952276
3.970602670105433	7.5352883	2.745048
3.9881399904346244	6.740885	2.5963213
4.005677404211669	6.6721034	2.5830414
4.023214911848827	6.604547	2.5699313
4.0407525137583855	6.4969687	2.5489151
4.058290210352644	6.4073224	2.5312688
4.075828002043927	6.330687	2.5160856
4.0933658892445814	6.3077283	2.5115192
4.110903872366966	6.2450256	2.4990048
4.128441951823468	6.203619	2.4907064
4.145980128026488	6.144932	2.4788973
4.163518401388452	6.091723	2.4681416
4.181056772321807	6.1029863	2.4704223
4.1985952412390155	6.1405354	2.4780104
4.216133808552567	6.211855	2.4923594
4.233672474674966	6.259439	2.501887
4.251211240018741	6.4618616	2.5420191
4.268750104996445	6.666435	2.581944
4.286289070020643	7.6048045	2.757681
4.303828135503928	9.216216	3.0358222
4.3213673018589125	29.50966	5.4322796
4.3389065694982305	90.62736	9.51984
4.356445938834537	165.83914	12.877854
4.3739854102805085	171.26039	13.086649
4.391524984248844	172.27945	13.125526
4.409064661152262	136.33064	11.676071
4.426604441403504	96.68339	9.832771
4.444144325415337	75.83597	8.7083845
4.461684313600543	22.1048	4.7015743
4.47922440637193	22.61452	4.7554727
4.496764604142329	20.92053	4.5738964
4.5143049073245916	18.995762	4.3584127
4.531845316331589	16.810068	4.1000085
4.5493858315762195	13.8455305	3.7209582
4.566926453471405	11.461576	3.385495
4.584467182430081	9.284048	3.0469737
4.602008018865218	8.098727	2.8458264
4.619548963189798	7.489471	2.7366898
4.637090015816834	7.054572	2.6560445
4.654631177159353	6.841541	2.615634
4.672172447630417	6.516804	2.5528033
4.689713827643102	6.2966356	2.5093098
4.7072553176105085	6.0300817	2.4556224
4.724796917945764	5.849525	2.418579
4.742338629062015	5.834086	2.4153852
4.759880451372434	5.823775	2.4132497
4.777422385290215	5.8944154	2.4278417
4.794964431228581	5.8008304	2.4084914
4.812506589600768	5.653007	2.3776052
4.830048860820047	5.6237617	2.371447
4.847591245299709	5.6441293	2.3757377
4.8651337434530655	5.6970983	2.3868594
4.882676355693457	5.714724	2.390549
4.900219082434242	5.65052	2.377082
4.917761924088813	5.6601334	2.3791034
4.935304881070575	5.622923	2.3712704
4.952847953792969	5.622365	2.3711526
4.970391142669449	5.5783777	2.3618588
4.9879344481135055	5.53716	2.353117
5.005477870538642	5.456624	2.3359418
5.023021410358394	5.3411684	2.311097
5.040565067986324	5.353153	2.3136883
5.05810884383601	5.3762903	2.318683
5.075652738321066	5.470392	2.338887
5.09319675185512	5.419247	2.3279276
5.110740884851836	5.4277267	2.3297482
5.128285137724894	5.385461	2.3206596
5.145829510888007	5.3611126	2.3154078
5.163374004754908	5.3546524	2.3140123
5.1809186197393595	5.3758645	2.318591
5.198463356255145	5.386651	2.320916
5.216008214716077	5.4069858	2.3252926
5.233553195535998	5.393258	2.3223388
5.251098299128764	5.2928085	2.3006105
5.268643525908272	5.1724553	2.2743032
5.286188876288432	5.2460723	2.2904305
5.3037343506831895	5.300411	2.3022623
5.32127994950651	5.403863	2.324621
5.3388256731723915	5.310961	2.304552
5.356371522094851	5.1745734	2.2747688
5.373917496687938	5.1179566	2.2622902
5.391463597365729	5.2008414	2.2805352
5.40900982454232	5.272607	2.2962158
5.426556178631843	5.3489614	2.312782
5.444102660048449	5.2120996	2.2830024
5.4616492692063225	5.145024	2.2682645
5.479196006519669	5.1103373	2.2606056
5.496742872402727	5.1029043	2.258961
5.514289867269756	5.201257	2.2806265
5.531836991535049	5.269957	2.2956388
5.549384245612924	5.315935	2.3056312
5.566931629917724	5.3031836	2.3028643
5.584479144863822	5.2471495	2.2906656
5.6020267908656205	5.2464094	2.2905042
5.619574568337545	5.224618	2.2857423
5.637122477694054	5.222166	2.2852058
5.654670519349629	5.224453	2.2857063
5.672218693718784	5.2197285	2.2846725
5.689767001216059	5.2245646	2.2857306
5.707315442256021	5.189685	2.278088
5.724864017253266	5.134966	2.2660463
5.7424127266224225	5.130937	2.2651572
5.75996157077814	5.1056805	2.2595754
5.777510550135105	5.1754303	2.2749572
5.795059665108022	5.1351647	2.2660902
5.812608916111639	5.1766706	2.2752297
5.830158303560715	5.3384604	2.3105109
5.847707827870055	5.385399	2.3206463
5.86525748945448	5.479961	2.3409317
5.8828072887288485	5.577369	2.3616455
5.900357226108044	5.552071	2.3562834
5.917907302006979	5.5628085	2.3585608
5.9354575168406	6.196241	2.489225
5.9530078710238765	6.8652925	2.6201704
5.970558364971812	7.5158544	2.7415059
5.988108999099438	7.9400024	2.817801
6.005659773821818	8.545905	2.923338
6.023210689554039	8.315088	2.8835895
6.040761746711227	8.646302	2.9404595
6.058312945708531	8.005912	2.829472
6.075864286961132	7.4297957	2.7257652
6.093415770884244	6.7297945	2.5941846
6.1109673978931065	6.088623	2.4675136
6.128519168402993	5.4367485	2.3316836
6.146071082829204	5.300513	2.3022842
6.163623141587075	5.272609	2.2962162
6.181175345091969	5.269931	2.295633
6.198727693759281	5.233164	2.287611
6.216280188004435	5.2141995	2.2834623
6.233832828242885	5.256305	2.2926633
6.251385614890126	5.25405	2.2921715
6.268938548361669	5.266321	2.2948468
6.286491629073067	5.159879	2.2715368
6.304044857439898	5.103203	2.259027
6.321598233877777	5.034165	2.2436945
6.339151758802344	4.986436	2.233033
6.356705432629277	5.0367727	2.2442756
6.37425925577428	5.1194415	2.2626183
6.391813228653095	5.17143	2.274078
6.409367351681486	5.156846	2.270869
6.426921625275259	5.0544524	2.248211
6.44447604985025	4.9344487	2.2213619
6.46203062582232	4.925252	2.219291
6.47958535360737	5.0039415	2.2369492
6.497140233621328	5.091301	2.256391
6.514695266280161	5.087173	2.2554762
6.532250451999859	5.001886	2.2364895
6.549805791196454	4.883143	2.2097836
6.567361284286002	4.858004	2.204088
6.584916931684597	4.8639708	2.2054412
6.602472733808367	4.913649	2.2166753
6.6200286910734665	5.0200815	2.2405539
6.637584803896092	5.000906	2.2362707
6.655141072692462	4.9938793	2.234699
6.672697497878842	5.0094147	2.238172
6.690254079871514	5.0138717	2.2391677
6.707810819086808	5.052621	2.2478037
6.725367715941078	5.057209	2.248824
6.742924770850719	5.042484	2.2455475
6.760481984232151	5.0312753	2.2430503
6.778039356501836	4.997689	2.235551
6.795596888076266	4.96674	2.2286184
6.813154579371963	4.9834843	2.2323718
6.830712430805492	4.9927287	2.2344415
6.84827044279344	4.984332	2.2325618
6.865828615752445	4.9696064	2.2292614
6.883386950099159	4.95966	2.2270293
6.900945446250287	4.982302	2.2321072
6.918504104622553	4.997078	2.2354145
6.936062925632727	5.018803	2.2402685
6.953621909697607	4.99993	2.2360523
6.971181057234028	5.000903	2.23627
6.988740368658859	5.0180984	2.2401114
7.006299844389007	5.099869	2.2582889
7.023859484841407	5.234524	2.287908
7.041419290433036	5.366287	2.3165247
7.058979261580902	5.5330687	2.3522475
7.0765393987020495	5.7400403	2.395838
7.094099702213559	6.0019517	2.449888
7.111660172532549	6.351982	2.520314
7.129220810076164	6.6988306	2.5882099
7.146781615261595	7.284432	2.6989686
7.16434258850606	7.575825	2.7524216
7.181903730226821	7.9793863	2.8247807
7.1994650408411704	8.116943	2.849025
7.217026520766437	8.274655	2.87657
7.234588170419983	8.567763	2.9270742
7.252149990219215	8.513936	2.917865
7.269711980581568	8.353246	2.8901982
7.2872741419245175	8.124167	2.8502924
7.304836474665574	7.763939	2.7863846
7.322398979222286	7.489674	2.736727
7.339961656012233	7.2772064	2.6976297
7.357524505453039	6.9700627	2.6400876
7.375087527962357	6.6307592	2.575026
7.392650723957886	6.270342	2.504065
7.410214093857353	5.915832	2.4322484
7.427777638078528	5.707446	2.3890262
7.445341357039213	5.5106487	2.3474772
7.4629052511572525	5.359022	2.3149562
7.480469320850524	5.276928	2.2971566
7.498033566536948	5.2955294	2.3012018
7.5155979886344735	5.3052545	2.3033137
7.5331625875610975	5.2717524	2.2960298
7.550727363734844	5.237599	2.2885802
7.568292317573788	5.1654925	2.272772
7.585857449496025	5.123065	2.263419
7.603422759919705	5.1147842	2.2615888
7.620988249263007	5.1689763	2.2735384
7.638553917944147	5.274048	2.2965295
7.656119766381391	5.245095	2.2902172
7.673685794993023	5.279399	2.2976942
7.691252004197388	5.3232107	2.3072085
7.70881839441285	5.371552	2.3176608
7.726384966057826	5.338454	2.3105094
7.743951719550762	5.3172874	2.3059244
7.761518655310149	5.3003087	2.30224
7.779085773754511	5.2720428	2.296093
7.796653075302419	5.2949443	2.3010745
7.814220560372475	5.3516097	2.3133547
7.831788229383323	5.3936005	2.3224127
7.8493560827536495	5.4464955	2.333773
7.866924120902174	5.3572297	2.314569
7.884492344247663	5.354956	2.3140779
7.9020607532089135	5.417078	2.3274617
7.919629348204771	5.4609857	2.3368752
7.937198129654115	5.5151515	2.3484359
7.954767097975865	5.5046544	2.3462
7.972336253588986	5.4784513	2.340609
7.989905596912472	5.439902	2.3323598
8.007475128365371	5.418204	2.3277035
8.025044848366756	5.4608026	2.336836
8.042614757335754	5.6511374	2.377212
8.060184855691523	5.6584034	2.3787398
8.07775514385327	5.7182183	2.3912797
8.095325622240228	5.717644	2.3911595
8.112896291271687	5.7253222	2.3927646
8.130467151366968	5.7144494	2.3904915
8.148038202945436	5.6789746	2.38306
8.165609446426497	5.7124724	2.3900778
8.183180882229594	5.8755665	2.4239569
8.200752510774217	6.0109415	2.4517221
8.218324332479893	6.0519977	2.4600809
8.235896347766193	5.983547	2.446129
8.253468557052724	5.9929085	2.4480417
8.27104096075914	5.98886	2.4472148
8.288613559305137	6.053719	2.4604306
8.306186353110448	6.128623	2.4756055
8.32375934259485	6.2130117	2.4925914
8.341332528178162	6.1817737	2.4863174
8.358905910280246	6.216251	2.493241
8.376479489321003	6.189533	2.4878774
8.394053265720377	6.2968984	2.5093622
8.411627239898356	6.3545914	2.5208316
8.42920141227497	6.4107394	2.5319438
8.44677578327029	6.424378	2.5346355
8.464350353304427	6.3969216	2.5292137
8.48192512279754	6.366068	2.5231068
8.499500092169827	6.317223	2.5134087
8.51707526184153	6.2726083	2.5045176
8.534650632232934	6.2432494	2.4986496
8.552226203764365	6.221909	2.4943755
8.569801976856192	6.212915	2.492572
8.587377951928834	6.320092	2.5139794
8.60495412940274	6.3111296	2.512196
8.622530509698416	6.3383937	2.5176167
8.6401070932364	6.3566675	2.5212433
8.657683880437283	6.448386	2.5393672
8.675260871721695	6.5936985	2.5678198
8.692838067510303	6.781082	2.604051
8.710415468223834	7.019281	2.6493926
8.727993074283043	7.193751	2.6821167
8.745570886108737	7.1448984	2.6729944
8.763148904121765	7.141323	2.6723254
8.78072712874302	7.183867	2.6802738
8.798305560393441	7.338843	2.70903
8.815884199494006	7.4100432	2.7221394
8.833463046465745	7.5866017	2.7543786
8.851042101729728	7.7709503	2.7876425
8.86862136570707	8.154345	2.8555813
8.886200838818924	8.354109	2.8903475
8.903780521486505	8.410767	2.9001322
8.921360414131055	8.527902	2.920257
8.938940517173874	8.580433	2.9292376
8.956520831036297	8.752997	2.9585464
8.97410135613971	9.026261	3.0043738
8.99168209290554	9.164611	3.0273108
9.009263041755265	9.456299	3.0751095
9.026844203110405	9.7190075	3.1175323
9.044425577392525	10.032637	3.1674337
9.062007165023239	10.129325	3.18266
9.079588966424197	10.38933	3.2232482
9.097170982017108	10.425692	3.228884
9.11475321222372	11.4826565	3.3886068
9.132335657465825	12.456719	3.5294077
9.149918318165264	12.619213	3.5523531
9.167501194743924	13.223945	3.6364741
9.18508428762374	12.812844	3.5795033
9.202667597226693	12.8217945	3.5807533
9.220251123974803	12.53879	3.5410154
9.237834868290143	12.255239	3.5007484
9.255418830594836	12.026178	3.467878
9.273003011311046	11.335232	3.3667836
9.290587410860985	11.012226	3.3184674
9.308172029666911	10.384521	3.2225022
9.32575686815113	10.256852	3.202632
9.343341926735997	8.947882	2.991301
9.360927205843916	8.744104	2.9570432
9.378512705897327	8.502237	2.9158597
9.396098427318728	8.270828	2.8759048
9.413684370530664	8.170949	2.8584871
9.431270535955722	7.9950104	2.827545
9.448856924016539	7.959032	2.8211756
9.466443535135806	7.8145275	2.7954476
9.484030369736251	7.8183074	2.7961237
9.501617428240658	7.825905	2.7974818
9.519204711071852	7.836265	2.7993329
9.536792218652714	7.8826017	2.8075972
9.55437995140617	7.9332366	2.8166
9.571967909755191	7.9499593	2.8195672
9.589556094122802	8.03558	2.83471
9.60714450493207	7.9964356	2.827797
9.624733142606116	8.06479	2.8398573
9.642322007568108	7.9790196	2.8247159
9.659911100241267	7.9999247	2.8284137
9.677500421048851	8.053409	2.8378527
9.695089970414175	8.138364	2.8527818
9.712679748760609	8.179933	2.860058
9.730269756511557	8.13207	2.8516784
9.747859994090492	8.137519	2.8526337
9.765450461920915	8.187623	2.8614023
9.78304116042639	8.268029	2.8754182
9.800632090030527	8.266178	2.875096
9.81822325115699	8.301158	2.8811731
9.835814644229481	8.316294	2.8837986
9.853406269671762	8.374859	2.8939347
9.870998127907646	8.38771	2.8961542
9.888590219360985	8.377607	2.8944097
9.906182544455698	8.395069	2.8974245
9.923775103615734	8.354777	2.890463
9.941367897265108	8.379465	2.8947306
9.958960925827878	8.407465	2.8995628
9.97655418972816	8.410102	2.9000175
9.994147689390106	8.416134	2.9010575
10.011741425237934	8.277341	2.8770368
10.029335397695904	8.278191	2.8771844
10.04692960718833	8.267402	2.875309
10.06452405413958	8.285463	2.878448
10.082118738974064	8.325945	2.8854713
10.099713662116246	8.376833	2.894276
10.117308823990651	8.372441	2.893517
10.134904225021844	8.358616	2.891127
10.152499865634445	8.307776	2.8823214
10.170095746253125	8.301099	2.8811626
10.18769186730261	8.235242	2.8697112
10.205288229207675	8.241707	2.8708372
10.222884832393145	8.2429495	2.8710537
10.2404816772839	8.242769	2.8710222
10.258078764304868	8.17935	2.8599563
10.275676093881035	8.108839	2.8476024
10.293273666437438	8.021664	2.8322542
10.310871482399158	8.092528	2.844737
10.32846954219134	8.13851	2.8528073
10.346067846239173	8.157585	2.8561487
10.363666394967908	8.18265	2.860533
10.38126518880283	8.168357	2.8580337
10.398864228169298	8.269605	2.8756921
10.416463513492713	8.252483	2.8727136
10.434063045198531	8.2423725	2.8709533
10.451662823712262	8.211507	2.8655727
10.469262849459467	8.328626	2.8859358
10.486863122865758	8.274228	2.8764958
10.504463644356806	8.246473	2.8716674
10.522064414358338	8.093981	2.8449922
10.539665433296118	7.996022	2.8277237
10.557266701595987	7.858743	2.803345
10.574868219683818	7.695457	2.7740686
10.592469987985552	7.591831	2.7553277
10.610072006927185	7.547649	2.7472985
10.627674276934751	7.532681	2.744573
10.64527679843435	7.4596562	2.7312372
10.662879571852143	7.3554573	2.7120945
10.680482597614331	7.240303	2.690781
10.698085876147173	7.127632	2.6697626
10.715689407876988	7.016278	2.6488256
10.733293193230146	6.9483423	2.6359708
10.750897232633072	6.867256	2.620545
10.76850152651225	6.7688165	2.6016948
10.786106075294207	6.70216	2.5888531
10.803710879405534	6.5953894	2.568149
10.821315939272877	6.506867	2.550856
10.83892125532294	6.3471146	2.5193481
10.856526827982472	6.229244	2.4958453
10.874132657678285	6.203439	2.4906704
10.891738744837243	6.2442565	2.498851
10.909345089886271	6.2598915	2.5019774
10.926951693252343	6.2289476	2.495786
10.944558555362494	6.2138367	2.4927568
10.96216567664381	6.1679134	2.4835284
10.979773057523436	6.0522904	2.4601402
10.997380698428573	5.9486413	2.4389837
11.014988599786477	5.8151016	2.4114523
11.032596762024461	5.772722	2.402649
11.050205185569892	5.6847515	2.3842716
11.067813870850198	5.6029954	2.3670647
11.085422818292859	5.513159	2.3480117
11.10303202832541	5.4515953	2.334865
11.120641501375454	5.4011784	2.3240435
11.138251237870636	5.3145943	2.3053403
11.155861238238671	5.2339625	2.2877855
11.173471502907317	5.147605	2.2688334
11.191082032304402	5.1072297	2.259918
11.208692826857805	5.088669	2.2558079
11.226303886995465	5.1104693	2.2606347
11.243915213145371	5.0786395	2.2535837
11.261526805735578	5.0089226	2.2380621
11.279138665194196	4.941404	2.2229269
11.296750791949393	4.837431	2.1994162
11.314363186429393	4.802864	2.1915438
11.331975849062479	4.7478437	2.1789548
11.34958878027699	4.7683744	2.1836607
11.36720198050133	4.7202764	2.1726196
11.384815450163948	4.643645	2.1549118
11.402429189693366	4.5795074	2.1399784
11.420043199518153	4.5618706	2.1358535
11.437657480066942	63.551407	7.971914
11.455272031768422	85.27634	9.234519
11.472886855051353	107.63761	10.374855
11.490501950344528	99.20471	9.960156
11.508117318076819	84.52648	9.193829
11.52573295867715	45.877945	6.773326
11.543348872574514	4.186511	2.0460966
11.560965060197946	4.1520753	2.0376642
11.57858152197655	4.0989294	2.0245812
11.59619825833949	4.0837994	2.0208414
11.613815269715985	4.007725	2.0019302
11.631432556535323	38.475574	6.2028685
11.649050119226837	82.998634	9.110358
11.666667958219929	93.391624	9.663934
11.68428607394406	107.70322	10.378016
11.701904466828756	82.521095	9.084112
11.719523137303586	65.35574	8.08429
11.737142085798196	4.579849	2.140058
11.754761312742286	3.7357595	1.9328113
11.772380818565619	3.734674	1.9325304
11.790000603698015	3.7091053	1.9259038
11.80762066856935	3.6642153	1.914214
11.825241013609572	3.6377025	1.9072762
11.842861639248683	3.5601919	1.886847
11.860482545916748	3.5102234	1.873559
11.878103734043883	3.4652083	1.8615069
11.895725204060282	3.4560294	1.8590399
11.91334695639619	3.4298882	1.8519957
11.930968991481919	3.3968544	1.8430557
11.948591309747824	3.3642194	1.8341808
11.966213911624347	3.3346195	1.826094
11.98383679754198	3.3290732	1.8245748
12.001459967931268	3.2659726	1.8072002
12.019083423222835	3.244401	1.8012221
12.036707163847352	3.229836	1.7971745
12.05433119023556	3.2700574	1.80833
12.071955502818259	3.283608	1.8120729
12.089580102026313	3.277509	1.8103892
12.107204988290643	3.1955838	1.7876196
12.12483016204224	3.1682837	1.7799673
12.142455623712152	3.1451104	1.7734458
12.16008137373149	3.151518	1.7752515
12.177707412531431	3.09584	1.7594999
12.19533374054321	3.060538	1.7494394
12.212960358198126	3.0171158	1.7369847
12.230587265927545	2.989531	1.7290261
12.248214464162889	2.9653845	1.7220292
12.265841953335649	2.961015	1.72076
12.283469733877375	2.9780674	1.7257078
12.301097806219685	2.9504766	1.7176951
12.31872617079425	2.971814	1.723895
12.336354828032825	2.9904788	1.7293
12.353983778367205	3.0089135	1.734622
12.371613022229262	3.0051763	1.7335445
12.389242560050928	2.9640653	1.7216461
12.406872392264201	2.9427664	1.7154493
12.424502519301143	2.8966718	1.7019612
12.442132941593874	2.8479455	1.6875857
12.459763659574586	2.8034413	1.674348
12.477394673675532	2.7930512	1.6712425
12.49502598432903	2.8175008	1.6785413
12.51265759196746	2.7954175	1.6719502
12.530289497023267	2.7705233	1.6644889
12.547921699928967	2.7458336	1.6570557
12.565554201117134	2.7797666	1.6672632
12.583187001020404	2.7709982	1.6646316
12.600820100071486	2.794031	1.6715355
12.618453498703152	2.772537	1.6650937
12.636087197348235	2.7849283	1.6688105
12.65372119643964	2.7854202	1.6689578
12.671355496410326	2.8036768	1.6744183
12.68899009769333	2.8455102	1.686864
12.706625000721749	2.926078	1.7105783
12.724260205928752	3.0057025	1.7336962
12.741895713747551	3.0172017	1.7370094
12.759531524611454	3.0400414	1.7435715
12.777167638953818	3.015569	1.7365394
12.794804057208072	3.0556533	1.7480427
12.812440779807702	3.0746975	1.7534815
12.830077807186271	3.1826553	1.7839998
12.847715139777405	3.2214477	1.7948391
12.865352778014795	3.4486701	1.8570596
12.882990722332197	3.5887089	1.8943888
12.90062897316344	3.675667	1.917203
12.918267530942412	3.7446904	1.9351202
12.935906396103071	3.6450064	1.9091899
12.953545569079449	3.8071764	1.9511987
12.971185050305628	3.6088736	1.8997035
12.988824840215775	3.6089666	1.8997281
13.006464939244115	3.6369407	1.9070765
13.024105347824943	3.502354	1.8714577
13.041746066392617	3.6212697	1.9029634
13.05938709538157	3.4363277	1.8537334
13.077028435226296	3.451902	1.8579295
13.094670086361363	3.3306646	1.8250109
13.112312049221401	3.2723851	1.8089736
13.129954324241112	3.1808307	1.7834884
13.147596911855258	2.9607363	1.720679
13.165239812498685	2.9003143	1.703031
13.182883026606293	2.8194828	1.6791315
13.200526554613058	2.7811725	1.6676848
13.218170396954017	2.7381258	1.6547283
13.235814554064284	2.7269359	1.6513437
13.253459026379034	2.7503955	1.6584316
13.271103814333523	2.7323506	1.6529824
13.288748918363058	2.7540436	1.6595311
13.306394338903031	2.7466614	1.6573055
13.32404007638889	2.7165523	1.6481967
13.341686131256164	2.6983926	1.6426785
13.359332503940449	2.6624668	1.6317067
13.376979194877402	2.6392887	1.6245887
13.394626204502751	2.6462352	1.6267253
13.412273533252307	2.693977	1.6413339
13.429921181561937	2.7061422	1.6450356
13.447569149867581	2.749779	1.6582458
13.465217438605247	2.7707438	1.6645552
13.482866048211022	2.720341	1.6493456
13.500514979121052	2.6720612	1.634644
13.518164231771568	2.6594062	1.6307685
13.535813806598844	2.69249	1.640881
13.553463704039254	2.700615	1.6433548
13.571113924529229	2.693342	1.6411405
13.588764468505275	2.7141967	1.6474819
13.606415336403956	2.7763429	1.6662362
13.624066528661917	2.7996652	1.67322
13.641718045715882	2.8356504	1.683939
13.659369888002635	2.8846233	1.6984179
13.67702205595903	2.9376566	1.7139593
13.694674550021993	3.01955	1.7376853
13.712327370628532	3.0817885	1.7555023
13.729980518215713	3.1521776	1.7754372
13.747633993220681	3.1901722	1.7861053
13.765287796080647	3.2470195	1.8019488
13.7829419272329	3.326026	1.8237395
13.800596387114801	3.4053535	1.84536
13.818251176163775	3.4437275	1.8557283
13.835906294817324	3.4368527	1.853875
13.853561743513023	3.406749	1.845738
13.871217522688525	3.3993418	1.8437304
13.888873632781538	3.4297104	1.8519478
13.906530074229858	3.4859822	1.8670785
13.92418684747135	3.513991	1.8745643
13.941843952943948	3.5048602	1.8721272
13.959501391085665	3.4851642	1.8668594
13.977159162334578	3.4088252	1.8463004
13.994817267128846	3.3994544	1.843761
14.012475705906693	3.3019443	1.8171253
14.030134479106424	3.2279162	1.7966403
14.047793587166414	3.156647	1.7766955
14.065453030525108	3.1036584	1.7617203
14.083112809621026	3.0534306	1.7474068
14.100772924892766	2.9932668	1.730106
14.118433376778997	2.9346967	1.7130957
14.136094165718458	2.872334	1.6947962
14.153755292149969	2.7925756	1.6711001
14.171416756512416	2.7292404	1.6520413
14.189078559244768	2.6615531	1.6314267
14.20674070078606	2.6069942	1.6146189
14.224403181575408	2.566366	1.6019881
14.242066002051999	2.539305	1.5935197
14.259729162655093	2.5325038	1.5913843
14.277392663824022	2.541664	1.5942596
14.295056505998208	2.4916623	1.5785
14.312720689617128	2.478207	1.5742322
14.330385215120348	2.4587579	1.5680426
14.348050082947497	2.450813	1.5655073
14.3657152935383	2.4156928	1.5542499
14.383380847332528	2.392547	1.546786
14.401046744770051	2.4008036	1.5494527
14.418712986290798	2.4252357	1.5573169
14.436379572334793	2.4734018	1.5727053
14.454046503342123	2.4693527	1.5714175
14.471713779752946	2.4229918	1.5565962
14.489381402007504	2.362225	1.5369532
14.507049370546113	2.3764226	1.541565
14.524717685809168	2.38648	1.5448236
14.542386348237134	2.3974545	1.5483716
14.560055358270553	2.394395	1.5473833
14.577724716350051	2.4075584	1.5516309
14.595394422916325	2.4426866	1.5629096
14.61306447841015	2.4972823	1.5802792
14.63073488327237	2.5112634	1.5846967
14.648405637943917	2.522827	1.5883409
14.6660767428658	2.4935167	1.5790873
14.683748198479094	2.5151842	1.5859332
14.701420005224954	2.5356128	1.5923607
14.719092163544628	2.6184788	1.6181715
14.73676467387942	2.6310575	1.6220535
14.754437536670727	2.6488745	1.6275363
14.772110752360014	2.6371293	1.623924
14.78978432138882	2.6625397	1.631729
14.807458244198777	2.7218108	1.6497911
14.82513252123159	2.7169857	1.6483282
14.842807152929028	2.7450001	1.6568042
14.860482139732962	2.7191465	1.6489835
14.87815748208531	2.7347078	1.6536952
14.8958331804281	2.724265	1.6505347
14.91350923520342	2.69622	1.642017
14.931185646853438	2.726214	1.6511251
14.948862415820408	2.7193763	1.6490532
14.966539542546656	2.738049	1.6547052
14.98421702747459	2.6833692	1.6380992
15.001894871046696	2.6521358	1.6285379
15.019573073705542	2.611849	1.6161216
15.037251635893766	2.649106	1.6276075
15.054930558054092	2.6760807	1.6358731
15.072609840629323	2.733647	1.6533744
15.090289484062351	2.8520741	1.6888084
15.107969488796124	3.085069	1.7564365
15.125649855273691	3.5276744	1.8782104
15.14333058393817	4.0182047	2.004546
15.161011675232768	5.0016603	2.2364392
15.17869312960076	6.3690658	2.5237007
15.196374947485506	8.268831	2.8755577
15.214057129330447	11.373389	3.3724456
15.231739675579114	16.207058	4.0257993
15.249422586675102	21.411648	4.627272
15.267105863062092	24.60359	4.960201
15.284789505183847	25.052525	5.0052495
15.302473513484218	23.106358	4.806907
15.320157888407127	19.501493	4.4160495
15.337842630396578	15.10204	3.8861344
15.355527739896656	11.629314	3.410178
15.37321321735153	9.030062	3.005006
15.39089906320545	6.550343	2.5593638
15.408585277902748	4.87944	2.2089455
15.42627186188783	3.7669814	1.9408712
15.443958815605198	3.200922	1.7891121
15.461646139499424	2.9227026	1.7095914
15.479333834015168	2.822118	1.679916
15.497021899597165	2.7577624	1.6606512
15.514710336690234	2.6909401	1.6404085
15.53239914573928	2.5964205	1.6113412
15.550088327189297	2.5333228	1.5916415
15.567777881485336	2.487006	1.5770243
15.58546780907256	2.4965754	1.5800555
15.6031581103962	2.5155132	1.5860369
15.620848785901568	2.5590558	1.5997049
15.638539836034063	2.542851	1.5946319
15.656231261239173	2.4763143	1.5736309
15.673923061962451	2.3962772	1.5479914
15.691615238649552	2.3752785	1.5411938
15.709307791746202	2.3765202	1.5415967
15.727000721698221	2.4148068	1.5539649
15.744694028951498	2.415809	1.5542873
15.76238771395202	2.449278	1.565017
15.780081777145844	2.4402168	1.5621194
15.797776218979125	2.423801	1.5568562
15.815471039898094	2.3856213	1.5445457
15.833166240349064	2.392212	1.5466777
15.850861820778437	2.4100773	1.5524424
15.868557781632699	2.4349482	1.5604321
15.886254123358412	2.4343183	1.5602303
15.903950846402232	2.3900297	1.5459721
15.921647951210897	2.3467917	1.5319242
15.939345438231225	2.3440928	1.531043
15.957043307910133	2.3642235	1.5376031
15.974741560694602	2.399458	1.5490184
15.992440197031714	2.3889694	1.5456291
16.01013921736862	2.3777177	1.541985
16.02783862215259	2.3875453	1.5451684
16.045538411830933	2.407315	1.5515524
16.06323858685107	2.4383771	1.5615304
16.080939147660512	2.442843	1.5629597
16.09864009470684	2.4245636	1.557101
16.11634142843774	2.429543	1.5586991
16.134043149300954	2.4401913	1.5621111
16.15174525774433	2.4595191	1.5682855
16.169447754215817	2.4580088	1.5678039
16.18715063916342	2.4199457	1.5556175
16.204853913035244	2.4195602	1.5554936
16.222557576279478	2.421234	1.5560315
16.240261629344403	22.440601	4.737151
16.257966072678386	43.00515	6.5578313
16.275670906729868	38.124367	6.1744933
16.293376131947387	2.552485	1.5976498
16.31108174877957	2.5675318	1.602352
16.328787757675133	2.584924	1.6077698
16.34649415908287	2.6050842	1.6140273
16.364200953451657	2.6337202	1.622874
16.38190814123048	2.6410048	1.6251168
16.39961572286839	2.6650157	1.6324875
16.41732369881455	2.6850579	1.6386147
16.43503206951817	2.7417855	1.6558338
16.45274083542859	2.7913003	1.6707186
16.47044999699522	2.8217156	1.6797963
16.488159554667558	2.83677	1.6842713
16.505869508895184	2.857649	1.6904583
16.523579860127786	2.8990583	1.7026621
16.541290608815117	2.9307947	1.7119564
16.559001755407035	2.9653091	1.7220073
16.57671330035348	3.028824	1.7403517
16.59442524410448	3.1624916	1.7783395
16.61213758711015	3.260415	1.8056619
16.629850329820705	3.2863927	1.812841
16.647563472686436	3.3509889	1.8305707
16.665277016157724	3.384594	1.8397266
16.682990960685053	3.4485655	1.8570313
16.70070530671898	3.478246	1.8650056
16.718420054710155	3.523813	1.8771822
16.736135205109335	3.55964	1.8867007
16.753850758367335	3.588037	1.8942114
16.771566714935087	3.6561625	1.9121095
16.789283075263597	3.719356	1.9285632
16.80699983980398	3.7718058	1.9421138
16.82471700900741	3.8132977	1.9527667
16.84243458332518	3.8953846	1.9736729
16.860152563208665	3.9937224	1.99843
16.87787094910932	4.062494	2.015563
16.89558974147871	4.1361427	2.033751
16.913308940768466	4.18161	2.0448985
16.931028547430333	4.2400956	2.0591493
16.94874856191613	4.3052373	2.0749066
16.966468984677785	4.376781	2.0920758
16.98418981616729	4.448463	2.109138
17.00191105683676	4.477468	2.1160028
17.019632707138374	4.5156198	2.1249988
17.03735476752442	4.597182	2.144104
17.05507723844728	4.673899	2.1619203
17.072800120359403	4.7060113	2.1693344
17.090523413713353	4.680293	2.1633985
17.108247118961785	4.6622405	2.1592221
17.125971236557437	4.6759624	2.1623974
17.143695766953133	4.7461624	2.1785688
17.161420710601806	4.7903514	2.188687
17.179146067956477	4.744585	2.178207
17.19687183947025	4.7200904	2.172577
17.21459802559634	4.749947	2.1794374
17.232324626788028	4.7728415	2.1846833
17.25005164349871	4.778978	2.1860874
17.267779076181863	4.7574344	2.1811543
17.285506925291074	4.7541428	2.1803997
17.30323519127999	4.713135	2.1709754
17.320963874602384	4.6733227	2.161787
17.33869297571211	4.6705384	2.1611428
17.356422495063114	4.655015	2.1575484
17.37415243310944	4.6315627	2.1521065
17.391882790305218	4.559934	2.1354003
17.40961356710468	4.5653224	2.1366615
17.42734476396215	4.5675774	2.1371891
17.445076381332044	4.5675955	2.1371934
17.462808419668868	4.6063485	2.1462405
17.48054087942723	4.7053533	2.1691825
17.498273761061835	4.9913387	2.2341304
17.51600706502747	5.4396534	2.3323064
17.533740791779024	6.135469	2.4769878
17.551474941771485	7.577144	2.7526612
17.56920951545993	8.664406	2.9435363
17.586944513299528	11.016987	3.3191848
17.60467993574556	12.789756	3.5762768
17.622415783253373	14.710454	3.8354208
17.64015205627843	16.135967	4.01696
17.657888755276293	17.26688	4.1553435
17.675625880702604	17.815699	4.220865
17.69336343301311	17.766146	4.2149906
17.71110141266366	16.95118	4.117181
17.728839820110178	15.902789	3.9878302
17.746578655808705	14.8416395	3.852485
17.764317920215372	13.224019	3.6364844
17.7820576137864	11.57757	3.402583
17.79979773697811	9.514565	3.084569
17.81753829024692	7.635722	2.763281
17.835279274049356	5.92064	2.4332366
17.85302068884201	4.8446436	2.201055
17.870762535081607	4.1826415	2.0451508
17.888504813224934	3.8888402	1.9720143
17.90624752372891	3.7212763	1.9290609
17.923990667050536	3.6235669	1.9035668
17.941734243646895	3.5912406	1.8950568
17.959478253975185	3.5359018	1.8803993
17.9772226984927	3.506206	1.8724866
17.994967577656833	3.4518037	1.857903
18.01271289192506	3.414036	1.847711
18.030458641754965	3.3518126	1.8307956
18.04820482760425	3.3356802	1.8263844
18.06595144993067	3.355596	1.8318286
18.083698509192125	3.3376095	1.8269125
18.101446005846576	3.3034184	1.8175309
18.119193940352105	3.2692862	1.8081168
18.136942313166887	3.2200835	1.7944591
18.1546911247492	3.2054825	1.7903861
18.1724403755574	3.192363	1.7867185
18.19019006604997	3.1631765	1.7785321
18.207940196685467	3.1363432	1.7709724
18.225690767922575	3.1213374	1.7667307
18.243441780220046	3.0960588	1.7595621
18.261193234036764	3.1090832	1.7632593
18.278945129831676	3.1002784	1.7607608
18.29669746806386	3.0828173	1.7557954
18.314450249192483	3.1023045	1.761336
18.3322034736768	3.1208477	1.7665921
18.349957141976184	3.1223536	1.7670183
18.3677112545501	3.101831	1.7612016
18.385465811858108	3.090841	1.7580788
18.403220814359884	3.1144333	1.7647758
18.420976262515172	3.13837	1.7715446
18.43873215678387	3.1270695	1.7683522
18.456488497625923	3.1386962	1.7716366
18.474245285501407	3.2103148	1.7917352
18.492002520870486	3.2875507	1.8131604
18.50976020419343	3.4062502	1.845603
18.527518335930615	3.6892948	1.9207537
18.545276916542516	4.2313952	2.0570354
18.563035946489688	4.345892	2.0846803
18.580795426232832	4.816715	2.1947014
18.598555356232698	4.738932	2.1769087
18.616315736950185	5.094265	2.257048
18.63407656884626	4.729816	2.174814
18.65183785238201	4.907407	2.2152667
18.669599588018617	4.6148562	2.1482217
18.68736177621737	4.5751653	2.1389637
18.705124417439652	4.533474	2.1291957
18.72288751214696	4.3837786	2.0937474
18.740651060800886	4.5574737	2.134824
18.758415063863115	4.332545	2.0814767
18.77617952179546	4.5075526	2.1230998
18.793944435059814	4.270955	2.066629
18.811709804118184	4.244332	2.0601776
18.829475629432675	4.1909547	2.047182
18.8472419114655	3.9844117	1.9960991
18.86500865067897	4.092242	2.022929
18.88277584753551	3.7964075	1.9484372
18.90054350249763	3.857093	1.9639484
18.918311616027957	3.5555072	1.8856052
18.936080188589226	3.4550812	1.8587849
18.953849220644265	3.1226168	1.7670927
18.971618712656007	2.9182544	1.7082899
18.9893886650875	2.8722594	1.6947742
19.007159078401887	8.038143	2.835162
19.024929953062408	32.925243	5.7380524
19.042701289532435	32.83314	5.730021
19.060473088275405	25.393934	5.0392394
19.07824534975489	2.6478343	1.6272167
19.096018074434568	2.628896	1.621387
19.113791262778197	2.632598	1.6225282
19.13156491524966	2.6627445	1.6317918
19.149339032312945	2.660232	1.6310217
19.167113614432136	2.6359916	1.6235737
19.184888662071433	2.5980287	1.6118401
19.202664175695123	2.5607758	1.6002424
19.220440155767623	2.5581188	1.599412
19.238216602753447	2.5811985	1.6066109
19.2559935171172	2.5679514	1.6024829
19.27377089932361	2.541484	1.5942032
19.291548749837514	2.5185037	1.5869794
19.309327069123835	2.512511	1.5850903
19.32710585764763	2.4803119	1.5749006
19.344885115874032	2.4930744	1.5789473
19.362664844268313	2.4845772	1.5762541
19.380445043295822	2.4972582	1.5802716
19.39822571342203	2.506168	1.583088
19.41600685511252	2.5428314	1.5946258
19.43378846883297	2.5302112	1.5906638
19.451570555049173	2.48637	1.5768228
19.469353114227037	2.4840043	1.5760725
19.48713614683254	2.5016828	1.5816709
19.50491965333182	2.5316067	1.5911024
19.52270363419109	2.5276031	1.5898438
19.540488089876686	2.4799764	1.574794
19.55827302085503	2.4510202	1.5655735
19.576058427592674	2.4783735	1.574285
19.593844310556282	2.5120714	1.5849515
19.611630670212598	2.5187154	1.5870461
19.629417507028506	2.5150464	1.5858898
19.64720482147098	2.4976485	1.580395
19.6649926140071	2.5089352	1.5839618
19.682780885104084	2.4811974	1.5751817
19.70056963522921	2.485	1.5763882
19.718358864849908	2.4838347	1.5760187
19.7361485744337	2.4826975	1.5756578
19.753938764448215	2.4877732	1.5772676
19.771729435361202	2.479387	1.5746069
19.789520587640506	2.4749737	1.5732049
19.807312221754092	2.4738922	1.5728612
19.825104338170043	2.4941227	1.5792792
19.842896937356517	2.547578	1.5961134
19.860690019781824	2.562598	1.6008117
19.87848358591436	2.568639	1.6026974
19.896277636222635	2.5316086	1.591103
19.914072171175278	2.539998	1.5937371
19.931867191241015	2.5521107	1.5975326
19.94966269688869	2.5058022	1.5829725
19.967458688587264	2.4505022	1.565408
19.985255166805807	2.4507792	1.5654964
20.00305213201348	2.4861283	1.5767461
20.020849584679578	2.4505904	1.5654361
20.038647525273507	2.4543378	1.5666326
20.05644595426477	2.4383872	1.5615336
20.07424487212299	2.473501	1.5727367
20.092044279317903	2.4549396	1.5668247
20.109844176319353	2.4025283	1.5500091
20.127644563597304	2.3893807	1.5457622
20.145445441621817	2.3857014	1.5445716
20.16324681086307	2.4115226	1.5529078
20.181048671791373	2.4155362	1.5541996
20.198851024877122	2.4384322	1.561548
20.216653870590836	2.447826	1.5645529
20.234457209403146	2.4456384	1.5638537
20.252261041784802	2.448909	1.5648991
20.270065368206662	2.4286602	1.5584159
20.287870189139685	2.3825526	1.5435519
20.305675505054968	2.3211076	1.5235182
20.323481316423702	2.333148	1.5274645
20.341287623717207	2.3590624	1.535924
20.359094427406884	2.4049613	1.5507938
20.376901727964288	2.3861732	1.5447243
20.39470952586107	2.3511477	1.5333452
20.41251782156899	2.3530226	1.5339565
20.430326615559935	2.3677683	1.5387554
20.448135908305886	2.366566	1.5383646
20.465945700278965	2.3451786	1.5313976
20.483755991951384	2.3336535	1.52763
20.50156678379548	2.3374496	1.528872
20.519378076283708	2.331011	1.5267649
20.537189869888635	2.3856199	1.5445452
20.55500216508294	2.4231772	1.5566558
20.572814962339415	2.4070363	1.5514627
20.59062826213098	2.411842	1.5530107
20.60844206493066	2.4060981	1.5511602
20.626256371211593	2.3893359	1.5457476
20.644071181447032	2.3595731	1.5360903
20.66188649611036	2.3409123	1.530004
20.67970231567506	2.3562474	1.5350074
20.697518640614742	2.3728995	1.5404218
20.715335471403122	2.3818572	1.5433266
20.73315280851404	2.3515863	1.5334883
20.750970652421447	2.338031	1.5290622
20.768789003599412	2.316548	1.522021
20.786607862522136	2.2929513	1.5142494
20.8044272296639	2.295509	1.5150938
20.82224710549913	2.3141534	1.5212342
20.84006749050237	2.33742	1.5288624
20.857888385148268	3.874752	1.968439
20.8757097899116	45.96006	6.779385
20.893531705267254	64.78029	8.04862
20.911354131690224	83.81901	9.1552725
20.92917706965566	69.10106	8.312705
20.94700051963877	50.16964	7.083053
20.96482448211493	29.435286	5.4254293
20.982648957559622	4.1524873	2.0377653
21.00047394644843	2.2317665	1.4939098
21.01829944925707	2.2230318	1.4909835
21.036125466461375	2.218976	1.4896228
21.053951998537297	2.2366812	1.4955539
21.071779045960906	2.2435782	1.4978579
21.089606609208378	2.2677267	1.5058973
21.10743468875603	2.2524328	1.5008107
21.12526328508028	2.247617	1.4992055
21.143092398657675	2.2280889	1.4926784
21.16092202996488	2.235331	1.4951024
21.17875217947867	2.236587	1.4955224
21.19658284767596	2.2492583	1.4997528
21.21441403503377	2.1989176	1.4828748
21.232245742029225	2.1659048	1.4717013
21.2500779691396	2.1483266	1.4657171
21.26791071684227	2.1714962	1.4735997
21.28574398561475	2.2017725	1.4838371
21.30357777593465	2.211636	1.487157
21.321412088279704	2.2159173	1.4885957
21.339246923127792	2.207845	1.4858819
21.357082280956888	2.1961238	1.4819325
21.3749181622451	2.1594377	1.4695026
21.392754567470647	2.1189275	1.4556537
21.41059149711187	2.0859706	1.444289
21.42842895164726	2.0902479	1.445769
21.446266931555378	2.0883942	1.4451277
21.464105437314945	2.1188617	1.455631
21.481944469404798	2.1275995	1.4586294
21.49978402830388	2.1318457	1.4600842
21.51762411449127	2.1553168	1.4680997
21.53546472844617	2.1663537	1.4718539
21.553305870647876	2.1826584	1.4773823
21.571147541575865	2.1466737	1.4651531
21.58898974170967	2.1243615	1.4575189
21.60683247152899	2.055294	1.4336296
21.62467573151363	2.0336287	1.4260535
21.642519522143523	2.0520954	1.4325137
21.660363843898722	2.0934482	1.4468753
21.6782086972594	2.1156085	1.4545132
21.696054082705864	2.1088557	1.4521899
21.713900000718535	2.0917056	1.446273
21.73174645177795	2.0573285	1.434339
21.749593436364794	2.035953	1.4268683
21.767440954959845	2.0446804	1.4299232
21.785289008044032	2.0593023	1.435027
21.803137596098388	2.08106	1.442588
21.820986719604086	2.0873592	1.4447696
21.838836379042412	2.073588	1.4399958
21.85668657489478	2.0560627	1.4338977
21.87453730764273	2.04364	1.4295594
21.892388577767914	2.0379083	1.4275533
21.91024038575213	2.0265703	1.4235766
21.928092732077285	2.0161984	1.419929
21.945945617225426	1.9919319	1.4113582
21.963799041678694	1.9921999	1.4114531
21.981653005919398	31.295925	5.594276
21.999507510429943	78.11644	8.83835
22.01736255569286	73.09155	8.549359
22.035218142190818	4.2029996	2.0501218
22.05307427040661	2.0073018	1.4167928
22.07093094082315	2.0071814	1.4167503
22.088788153923474	2.0109344	1.4180741
22.106645910190746	2.0121803	1.4185134
22.12450421010827	2.0133295	1.4189184
22.142363054159464	2.0206041	1.4214796
22.16022244282787	2.0087643	1.4173088
22.178082376597164	1.9753939	1.4054871
22.195942855951145	1.9756896	1.4055923
22.213803881373742	1.9760073	1.4057053
22.231665453349002	1.9828483	1.4081365
22.24952757236111	1.99856	1.4137044
22.26739023889438	2.0047252	1.4158832
22.28525345343323	1.9725564	1.4044772
22.30311721646225	1.9463569	1.395119
22.320981528466113	1.9501568	1.3964802
22.33884638992964	1.9195846	1.3854908
22.356711801337788	1.8907999	1.3750635
22.37457776317561	1.9153537	1.383963
22.392444275928337	1.9550855	1.3982438
22.410311340081282	1.9757557	1.4056158
22.428178956119904	1.9498136	1.3963573
22.446047124529805	1.9495269	1.3962547
22.46391584579669	1.9659137	1.4021105
22.481785120406414	1.9654328	1.4019389
22.49965494884496	1.9513514	1.3969078
22.51752533159841	1.9579477	1.3992668
22.53539626915302	1.9440325	1.3942857
22.553267761995137	1.9827099	1.4080874
22.571139810611264	1.9899169	1.4106442
22.589012415488025	1.9713234	1.4040382
22.60688557711216	1.9458275	1.3949292
22.624759295970566	1.9753046	1.4054554
22.642633572550263	1.9902244	1.4107531
22.660508407338362	1.9682198	1.4029325
22.67838380082217	1.9695164	1.4033946
22.696259753489077	1.9437199	1.3941735
22.714136265826614	1.9425645	1.3937591
22.73201333832246	1.9000505	1.3784232
22.74989097146439	1.8814808	1.3716708
22.76776916574035	1.873418	1.3687286
22.785647921638393	1.8857903	1.3732408
22.803527239646712	1.9356956	1.3912928
22.82140712025363	1.9338986	1.3906468
22.839287563947593	1.9381759	1.3921839
22.85716857121719	1.9453175	1.3947464
22.875050142551135	1.9680318	1.4028655
22.892932278438277	1.9662392	1.4022266
22.910814979367604	1.9462056	1.3950647
22.928698245828222	1.8712608	1.3679403
22.946582078309387	1.8688744	1.3670678
22.96446647730047	1.8921881	1.3755683
22.98235144329098	1.9135075	1.3832959
23.000236976770562	1.8987703	1.3779588
23.018123078229	1.8928837	1.3758211
23.03600974815619	1.9037483	1.3797638
23.053896987042194	1.9010946	1.3788018
23.071784795377173	1.8816222	1.3717223
23.08967317365145	1.8948528	1.3765365
23.10756212235546	1.9189769	1.3852714
23.125451641979787	1.9411811	1.3932627
23.143341733015134	1.9346179	1.3909054
23.161232395952357	1.9391063	1.392518
23.179123631282426	1.9573679	1.3990597
23.197015439496468	1.9417471	1.3934659
23.214907821085717	1.9569114	1.3988965
23.23280077654157	1.9389738	1.3924704
23.250694306355538	1.9286039	1.3887419
23.268588411019277	1.917876	1.384874
23.28648309102458	1.9332294	1.3904063
23.304378346863356	1.9498812	1.3963815
23.322274179027676	1.9637121	1.4013251
23.340170588009723	1.956318	1.3986844
23.358067574301852	1.9488649	1.3960176
23.37596513839651	1.9279113	1.3884925
23.39386328078629	1.9004065	1.3785523
23.411762001963947	1.9136207	1.3833368
23.429661302422353	1.9378808	1.3920778
23.4475611826545	1.9265207	1.3879917
23.46546164315356	1.9511157	1.3968234
23.48336268441279	1.9954345	1.4125985
23.501264306925638	2.0103889	1.4178818
23.51916651118564	1.9730947	1.4046689
23.537069297686497	2.0028791	1.4152311
23.554972666922037	1.9984281	1.4136577
23.57287661938623	1.9601264	1.4000452
23.59078115557318	1.9467167	1.3952479
23.608686275977128	1.9135017	1.3832937
23.62659198109246	1.8959785	1.3769454
23.6444982714137	1.8819191	1.3718306
23.66240514743549	1.9008026	1.378696
23.68031260965263	1.8944734	1.3763987
23.698220658560068	1.8963206	1.3770696
23.716129294652845	1.9219087	1.3863292
23.7340385184262	1.924359	1.3872126
23.75194833037546	1.9281104	1.3885641
23.769858730996123	1.9275838	1.3883746
23.78776972078382	1.9357405	1.3913089
23.80568130023431	1.9282632	1.3886192
23.823593469843495	1.9061729	1.3806422
23.841506230107424	1.8802432	1.3712196
23.859419581522275	1.8803725	1.3712667
23.87733352458438	1.9168389	1.3844995
23.89524805979019	1.9338316	1.3906227
23.913163187636318	1.9416044	1.3934146
23.931078908619508	1.9457918	1.3949164
23.948995223236633	1.9712747	1.4040209
23.966912131984735	2.026569	1.4235761
23.98482963536096	2.0415719	1.4288359
24.002747733862616	2.0631242	1.436358
24.020666427987155	2.050002	1.4317828
24.038585718232156	2.0902414	1.4457667
24.056505605095353	2.1049187	1.4508338
24.074426089074617	2.166646	1.4719532
24.092347170667946	2.1608315	1.4699767
24.110268850373515	2.1269033	1.4583906
24.128191128689586	2.0973003	1.4482058
24.146114006114626	2.0818088	1.4428475
24.164037483147187	2.0693886	1.438537
24.181961560286005	2.0520196	1.4324872
24.199886238029926	2.0698116	1.438684
24.21781151687797	2.0715787	1.439298
24.235737397329274	2.0955815	1.4476124
24.253663879883135	2.0944176	1.4472103
24.271590965038975	2.0985963	1.4486533
24.289518653296376	2.0915167	1.4462078
24.30744694515505	2.0760634	1.4408551
24.32537584111486	2.0544279	1.4333276
24.34330534167581	2.0417469	1.428897
24.361235447338046	2.0301492	1.424833
24.379166158601876	2.0176466	1.4204389
24.39709747596772	1.9918891	1.411343
24.41502939993615	1.9995588	1.4140576
24.432961931007917	2.0368474	1.4271816
24.450895069683856	2.034032	1.426195
24.468828816465	2.0001824	1.414278
24.4867631718525	1.9775733	1.4062622
24.504698136347656	1.9763168	1.4058154
24.52263371045192	1.9755712	1.4055501
24.540569894666874	1.95248	1.3973117
24.558506689494266	1.9362893	1.3915061
24.57644409543597	1.917238	1.3846437
24.594382112994012	1.9164779	1.3843691
24.61232074267057	1.9070051	1.3809435
24.630259984967953	1.9189452	1.38526
24.64819984038863	1.9579731	1.3992759
24.66614030943522	1.996757	1.4130665
24.684081392610462	2.005659	1.4162129
24.702023090417274	1.9863412	1.4093761
24.7199654033587	1.9870336	1.4096218
24.737908331937927	2.014901	1.4194721
24.755851876658305	2.0791345	1.4419204
24.773796038023324	2.1228037	1.4569844
24.79174081653661	2.138947	1.4625139
24.809686212701962	2.0786443	1.4417504
24.827632227023294	2.0777917	1.4414548
24.8455788600047	2.0804813	1.4423873
24.8635261121504	2.0936787	1.446955
24.88147398396475	2.0943434	1.4471847
24.899422475952303	2.140135	1.4629201
24.917371588617698	2.1746228	1.4746603
24.935321322465768	2.24482	1.4982724
24.953271678001478	2.3567998	1.5351872
24.97122265572994	2.5406086	1.5939287
24.989174256156414	2.8685038	1.6936657
25.00712647978632	3.3480623	1.829771
25.02507932712521	3.923468	1.9807746
25.043032798678798	4.387609	2.094662
25.060986894952933	4.9827867	2.2322156
25.078941616453637	5.826143	2.4137404
25.096896963687055	6.8722725	2.621502
25.114852937159508	8.127084	2.850804
25.132809537377444	8.590675	2.9309855
25.150766764847468	8.638546	2.9391403
25.168724620076347	7.960701	2.8214715
25.186683103570985	6.9077625	2.6282623
25.204642215838426	5.6828074	2.383864
25.222601957385894	4.3136444	2.0769315
25.24056232872074	3.2189803	1.7941517
25.25852333035048	2.6185248	1.6181856
25.276484962782778	2.234702	1.494892
25.294447226525435	2.071826	1.4393839
25.312410122086423	1.9764675	1.4058689
25.330373649973843	1.957971	1.3992752
25.348337810695988	1.9640913	1.4014604
25.366302604761245	1.9584389	1.3994423
25.384268032678207	1.9239138	1.3870522
25.40223409495558	1.8718323	1.3681492
25.420200792102257	1.8772926	1.3701433
25.438168124627246	1.9297501	1.3891544
25.45613609303974	1.960907	1.4003239
25.474104697849057	1.9418502	1.3935028
25.492073939564698	1.9315864	1.3898152
25.510043818696285	1.8955816	1.3768013
25.528014335753614	1.8772293	1.3701202
25.54598549124664	1.8997452	1.3783125
25.56395728568544	1.8562826	1.3624547
25.58192971958028	1.843467	1.3577434
25.59990279344156	1.883825	1.372525
25.617876507779833	1.9117512	1.3826609
25.635850863105826	1.9201102	1.3856804
25.653825859930386	1.9224007	1.3865067
25.671801498764548	1.908851	1.3816117
25.68977778011949	1.8908328	1.3750756
25.707754704506524	1.8568878	1.3626767
25.725732272437153	1.844843	1.35825
25.743710484423012	1.8649528	1.3656328
25.761689340975888	1.8910401	1.3751509
25.77966884260774	1.9137709	1.3833911
25.797648989830662	1.9071388	1.3809919
25.815629783156922	1.880348	1.3712578
25.83361122309895	1.9052808	1.3803191
25.85159331016929	1.9290645	1.3889077
25.869576044880695	1.9606361	1.4002272
25.887559427746034	1.9371347	1.3918098
25.90554345927836	1.9237715	1.3870009
25.92352813999086	1.8648448	1.3655932
25.94151347039689	1.8131934	1.3465487
25.959499451009965	1.8426601	1.3574462
25.97748608234374	1.8799844	1.3711252
25.995473364912062	1.8931549	1.3759197
26.013461299228904	1.8860626	1.37334
26.03144988580839	1.8340966	1.3542882
26.04943912516483	1.7974837	1.3407027
26.067429017812675	1.8051822	1.3435707
26.085419564266537	1.8190147	1.3487085
26.103410765041186	1.8366082	1.3552152
26.12140262065155	1.8502052	1.3602225
26.139395131612723	1.8607476	1.3640922
26.157388298439948	1.8465396	1.3588744
26.17538212164861	1.8381786	1.3557944
26.193376601754295	1.8264337	1.3514562
26.211371739272714	1.8190662	1.3487276
26.229367534719746	1.8262912	1.3514035
26.247363988611433	1.8229284	1.3501587
26.26536110146397	1.8147229	1.3471165
26.283358873793727	1.7875859	1.3370063
26.301357306117204	1.8277062	1.3519268
26.319356398951104	1.8842378	1.3726754
26.33735615281224	1.872185	1.3682781
26.35535656821762	1.8156807	1.347472
26.373357645684404	1.8039396	1.3431082
26.39135938572991	1.7963171	1.3402675
26.409361788871614	1.8098148	1.3452935
26.427364855627165	1.8361028	1.3550287
26.445368586514352	1.8331642	1.353944
26.46337298205115	1.8527639	1.3611627
26.48137804275568	1.8542436	1.3617061
26.499383769146217	1.8431385	1.3576224
26.517390161741215	1.8578624	1.3630342
26.53539722105928	1.8900917	1.374806
26.553404947619182	1.8695921	1.3673303
26.571413341939856	1.8288777	1.35236
26.589422404540397	1.8582821	1.3631883
26.60743213594006	1.8916823	1.3753844
26.62544253665827	1.8606447	1.3640546
26.64345360721459	1.8306831	1.3530273
26.66146534812879	1.8220093	1.3498182
26.679477759920758	1.8744822	1.3691173
26.69749084311057	1.8873445	1.3738066
26.71550459821847	1.8924959	1.3756801
26.733519025764842	1.8510764	1.3605427
26.751534126270258	1.8340316	1.3542643
26.769549900255434	1.8376012	1.3555815
26.787566348241267	1.8285495	1.3522387
26.80558347074881	1.8777899	1.3703247
26.823601268299267	1.8490213	1.3597872
26.841619741414036	1.7791724	1.3338562
26.85963889061465	1.7418993	1.3198103
26.877658716422832	1.7332901	1.3165448
26.89567921936045	1.772792	1.3314624
26.913700399949544	1.7949455	1.3397558
26.93172225871233	1.8144192	1.3470038
26.949744796171174	1.8760275	1.3696815
26.967768012848605	1.9156464	1.3840688
26.98579190926733	1.9253733	1.3875782
27.003816485950225	1.916412	1.3843453
27.021841743420318	1.871965	1.3681977
27.039867682200814	1.8072107	1.3443254
27.057894302815072	1.7878296	1.3370975
27.07592160578664	1.8058151	1.3438061
27.0939495916392	1.8233266	1.3503062
27.111978260896635	1.8041553	1.3431885
27.13000761408296	1.7979807	1.340888
27.148037651722397	1.8464886	1.3588556
27.166068374339304	1.8424749	1.357378
27.184099782458215	1.8607417	1.3640901
27.20213187660384	1.8463752	1.3588139
27.22016465730105	1.8175603	1.3481692
27.23819812507487	1.8125576	1.3463126
27.256232280450533	1.8248323	1.3508636
27.274267123953383	1.8461192	1.3587197
27.292302656108987	1.8364687	1.3551637
27.31033887744306	1.823613	1.3504121
27.32837578848146	1.8388056	1.3560257
27.34641338975026	1.8085395	1.3448195
27.364451681775673	1.8055166	1.3436952
27.382490665084074	1.8671601	1.3664407
27.400530340202046	1.892484	1.3756758
27.41857070765629	1.8726149	1.3684351
27.436611767973726	1.8431411	1.3576233
27.454653521681404	1.8332155	1.3539629
27.472695969306564	1.831547	1.3533466
27.490739111376627	1.85492	1.3619545
27.508782948419153	1.8564644	1.3625213
27.526827480961902	1.8635105	1.3651046
27.54487270953279	1.8373885	1.3555031
27.562918634659898	1.8625666	1.3647588
27.580965256871508	1.821053	1.3494639
27.599012576696026	1.8106397	1.3456001
27.617060594662068	1.8518977	1.3608445
27.63510931129842	1.8888723	1.3743625
27.65315872713401	1.9000158	1.3784106
27.67120884269797	1.9233626	1.3868535
27.68925965851958	1.934035	1.3906958
27.707311175128307	1.8973646	1.3774486
27.725363393053787	1.8782964	1.3705095
27.74341631282583	1.8969243	1.3772887
27.7614699349744	1.9375596	1.3919625
27.77952426002968	2.1189506	1.4556615
27.797579288521973	2.1692257	1.4728291
27.815635020981784	2.5227509	1.588317
27.83369145793979	2.5685954	1.6026838
27.85174859992682	2.3805935	1.5429173
27.869806447473923	2.236638	1.4955394
27.887865001112267	1.974299	1.4050975
27.905924261373233	1.9002275	1.3784875
27.92398422878836	1.8656474	1.365887
27.94204490388936	1.8778733	1.3703551
27.96010628720813	1.9594923	1.3998187
27.978168379276728	1.9646114	1.401646
27.9962311806274	1.890481	1.3749477
28.014294691792568	1.8713773	1.367983
28.0323589133048	1.8607339	1.3640872
28.050423845696887	1.8559885	1.3623466
28.068489489501758	1.8867469	1.373589
28.086555845252523	1.9114956	1.3825685
28.104622913482487	1.8994794	1.378216
28.122690694725115	1.9061819	1.3806455
28.14075918951405	1.8885854	1.3742582
28.15882839838312	1.9096014	1.3818833
28.176898321866304	1.935444	1.3912023
28.1949689604978	1.9397849	1.3927616
28.213040314811945	1.9474545	1.3955122
28.23111238534327	1.9062469	1.380669
28.249185172626493	1.9084463	1.3814653
28.267258677196473	1.9071116	1.3809822
28.285332899588294	1.902231	1.3792139
28.303407840337172	1.9391133	1.3925204
28.321483499978545	1.9933524	1.4118613
28.33955987904799	1.9882492	1.4100529
28.357636978081285	1.9141413	1.3835249
28.37571479761439	1.8760645	1.3696951
28.393793338183425	1.8864332	1.3734748
28.41187260032469	1.9567065	1.3988233
28.429952584574686	1.9892265	1.4103994
28.448033291470065	1.9813921	1.4076194
28.46611472154769	1.9992684	1.4139549
28.484196875344566	2.0141988	1.4192247
28.502279753397914	2.0082045	1.4171113
28.52036335624511	2.023419	1.4224693
28.538447684423716	2.0143623	1.4192823
28.556532738471482	2.0063503	1.4164569
28.574618518926325	2.0000079	1.4142164
28.59270502632635	1.9562451	1.3986583
28.61079226120985	1.9566356	1.3987979
28.628880224115274	1.9893472	1.4104422
28.646968915581287	2.036426	1.427034
28.66505833614671	2.0343413	1.4263034
28.68314848635055	2.067908	1.4380223
28.701239366732004	2.0561473	1.4339273
28.71933097783044	2.0739713	1.4401289
28.737423320185403	2.075585	1.4406891
28.75551639433665	2.105105	1.4508979
28.773610200824074	2.1398163	1.4628111
28.791704740187793	2.150237	1.4663687
28.80980001296809	2.1037643	1.4504359
28.827896019705413	2.0990322	1.4488037
28.845992760940433	2.1205475	1.45621
28.86409023721397	2.1624005	1.4705102
28.88218844906704	2.1525977	1.4671733
28.900287397040845	2.2228029	1.4909067
28.918387081676755	2.2488596	1.4996198
28.936487503516343	2.247179	1.4990594
28.954588663101365	2.270367	1.5067737
28.97269056097374	2.3306103	1.5266336
28.990793197675597	2.3590674	1.5359256
29.00889657374923	2.3647904	1.5377876
29.027000689737125	2.4220333	1.5562884
29.04510554618196	2.4410658	1.562391
29.06321114362659	2.4845045	1.5762311
29.08131748261405	2.4822867	1.5755274
29.099424563687567	2.4499516	1.5652322
29.11753238739057	2.5054653	1.5828662
29.13564095426663	2.5800867	1.6062648
29.15375026485954	2.601586	1.6129433
29.171860319713275	2.6139064	1.616758
29.18997111937199	2.6319225	1.62232
29.20808266438002	2.7325163	1.6530324
29.226194955281898	2.8495884	1.6880724
29.244307992622335	2.9030867	1.7038447
29.26242177694624	2.9047086	1.7043205
29.2805363087987	2.8612893	1.6915346
29.29865158872498	2.8913672	1.700402
29.316767617270557	2.997891	1.7314419
29.334884394981064	3.02426	1.73904
29.353001922402367	3.0082088	1.7344189
29.37112020008047	3.0104868	1.7350755
29.389239228561596	3.1072698	1.7627449
29.407359008392152	3.3012736	1.8169407
29.42547954011872	3.6393466	1.9077072
29.44360082428809	4.2373314	2.0584779
29.46172286144722	5.3640523	2.3160424
29.479845652143283	6.9780717	2.641604
29.497969196923606	9.10835	3.0180042
29.516093496335728	11.738503	3.4261498
29.5342185509274	14.798189	3.8468413
29.55234436124651	17.33599	4.163651
29.570470927841175	18.83588	4.340032
29.588598251259686	18.533424	4.3050466
29.60672633205055	17.095333	4.13465
29.624855170762405	14.752596	3.840911
29.642984767944146	11.973311	3.4602473
29.66111512414481	9.1882105	3.0312061
29.67924623991366	6.8200016	2.6115134
29.697378115800138	5.110842	2.2607172
29.71551075235387	4.217683	2.0536997
29.733644150124675	3.8782184	1.9693192
29.751778309662576	3.656927	1.9123094
29.769913231517766	3.4843037	1.866629
29.78804891624066	3.3475432	1.8296293
29.806185364381818	3.3518138	1.830796
29.82432257649206	3.3953402	1.8426449
29.842460553122333	3.3929331	1.8419917
29.86059929482382	3.369309	1.8355677
29.878738802147872	3.361725	1.8335007
29.896879075646048	3.3938038	1.8422279
29.915020115870114	3.4015923	1.8443406
29.933161923371976	3.3740172	1.8368498
29.951304498703777	3.2870898	1.8130333
29.969447842417857	3.268818	1.8079872
29.987591955066733	3.2334225	1.798172
30.005736837203123	3.2508266	1.8030049
30.023882489379943	3.259314	1.8053571
30.04202891215028	3.283492	1.8120408
30.060176106067455	3.2089224	1.7913465
30.078324071684946	3.1223357	1.7670132
30.09647280955646	3.1553886	1.7763413
30.114622320235863	3.1842635	1.7844504
30.132772604277257	3.1580827	1.7770995
30.1509236622349	3.1360936	1.7709019
30.16907549466328	3.050892	1.7466803
30.18722810211705	3.0842404	1.7562006
30.205381485151097	3.1276093	1.7685049
30.22353564432045	3.0778613	1.7543834
30.241690580180403	3.03886	1.7432326
30.25984629328638	2.9865754	1.7281711
30.278002784194037	2.9315314	1.7121716
30.296160053459246	2.9547558	1.7189403
30.314318101638033	3.0450108	1.744996
30.332476929286646	3.0412197	1.7439094
30.35063653696153	2.959495	1.7203183
30.368796925219307	2.8759892	1.6958742
30.386958094616844	2.9095263	1.7057334
30.40512004571115	2.9426217	1.7154071
30.423282779059463	2.84479	1.6866505
30.441446295219233	2.7667463	1.6633539
30.459610594748067	2.8148587	1.677754
30.47777567820382	2.8551257	1.6897117
30.495941546144504	2.8889508	1.6996914
30.51410819912835	2.84089	1.685494
30.532275637713795	2.8378093	1.6845798
30.55044386245946	2.8414817	1.6856695
30.56861287392416	2.7881787	1.6697841
30.586782672666956	2.7725005	1.6650827
30.604953259247047	2.8231242	1.6802155
30.623124634223885	2.842164	1.6858718
30.641296798157075	2.8134532	1.6773351
30.659469751606462	2.6812754	1.63746
30.677643495132074	2.6780972	1.6364893
30.695818029294152	2.7912843	1.6707137
30.713993354653116	2.8478055	1.6875442
30.73216947176962	2.8384666	1.684775
30.75034638120448	2.782598	1.6681122
30.768524083518756	2.7153351	1.6478274
30.786702579273673	2.685384	1.6387142
30.80488186903069	2.8006294	1.673508
30.82306195335144	2.8701644	1.6941559
30.841242832797782	3.1199193	1.7663293
30.85942450793176	3.5534978	1.8850724
30.877606979315637	3.871732	1.9676718
30.895790247511883	4.1152205	2.0286007
30.913974313083134	4.5465617	2.1322668
30.932159176592283	4.9825263	2.2321572
30.95034483860237	5.004963	2.2371774
30.968531299676698	4.6730137	2.1617155
30.98671856037873	4.322967	2.0791745
31.00490662127215	3.8421223	1.9601332
31.023095482920848	3.4914029	1.8685296
31.04128514588892	3.0469851	1.7455616
31.059475610740662	2.692304	1.6408242
31.07766687804056	2.5346484	1.592058
31.09585894835335	2.5550096	1.5984397
31.11405182224393	2.5242565	1.5887909
31.132245500277417	2.4932632	1.579007
31.15043998301914	2.532124	1.591265
31.168635271034628	2.6023848	1.6131909
31.18683136488964	2.5749981	1.6046801
31.20502826515008	2.4831238	1.575793
31.223225972382135	2.4401016	1.5620824
31.241424487152155	2.4708035	1.571879
31.259623810026692	2.4510965	1.5655978
31.27782394157253	2.4370613	1.561109
31.296024882356644	2.4528584	1.5661604
31.314226632946237	2.4912531	1.5783705
31.332429193908684	2.434708	1.5603551
31.350632565811598	2.3973505	1.5483379
31.368836749222787	2.4570456	1.5674965
31.387041744710295	2.5407832	1.5939834
31.40524755284232	2.5853925	1.6079155
31.423454174187317	2.6091802	1.6152956
31.441661609313922	2.5162044	1.5862548
31.459869858791002	2.463488	1.5695503
31.478078923187628	2.4037876	1.5504153
31.496288803073064	2.367394	1.5386338
31.514499499016807	2.4852157	1.5764567
31.532711011588546	2.511624	1.5848104
31.550923341358178	2.405919	1.5511025
31.56913648889584	2.3025122	1.5174031
31.587350454771844	2.266114	1.5053618
31.605565239556732	2.2072861	1.4856938
31.62378084382127	2.2790482	1.5096517
31.641997268136382	2.3589582	1.5358901
31.660214513073274	2.378335	1.5421852
31.67843257920331	2.3164794	1.5219985
31.6966514670981	2.3234901	1.5242999
31.71487117732944	2.3033829	1.51769
31.733091710469346	2.25813	1.5027076
31.751313067090052	2.2440498	1.4980153
31.769535247764008	2.2533083	1.5011023
31.787758253063878	2.1931362	1.4809241
31.805982083562526	2.1819108	1.4771292
31.824206739833024	2.2039573	1.4845731
31.84243222244869	2.2470222	1.4990071
31.860658531983013	2.2884545	1.5127639
31.878885669009737	2.347773	1.5322444
31.897113634102784	2.4067657	1.5513754
31.91534242783632	2.3630466	1.5372205
31.933572050784694	2.3081408	1.5192566
31.951802503522508	2.2442522	1.4980829
31.970033786624548	2.1879268	1.4791642
31.988265900665834	2.145456	1.4647375
32.006498846221575	2.152195	1.4670361
32.02473262386724	2.1769142	1.4754369
32.04296723417845	2.2519393	1.5006462
32.0612026777311	2.2982883	1.5160106
32.07943895510129	2.1645896	1.4712545
32.097676066865304	2.094612	1.4472774
32.115914013599685	2.1067383	1.4514607
32.13415279588115	2.2087793	1.4861963
32.152392414286666	2.1854708	1.4783338
32.1706328693934	2.156102	1.4683671
32.18887416177875	2.0946631	1.4472951
32.20711629202032	2.046814	1.4306691
32.225359260695924	2.01156	1.4182948
32.243603068383614	1.9980792	1.4135343
32.26184771566166	2.028267	1.4241724
32.28009320310852	2.0610673	1.4356418
32.2983395313029	2.0331388	1.4258817
32.31658670082372	2.1013842	1.4496151
32.33483471225012	2.14981	1.4662231
32.35308356616143	2.126477	1.4582444
32.371333263137245	2.1354046	1.4613024
32.38958380375734	2.1350257	1.4611727
32.407835188601744	2.1599483	1.4696763
32.42608741825067	2.1582048	1.469083
32.444340493284585	2.0856297	1.444171
32.46259441428416	2.1315334	1.4599771
32.48084918183028	2.1207023	1.4562631
32.49910479650405	2.084327	1.4437199
32.51736125888683	2.0042617	1.4157195
32.53561856956014	1.958792	1.3995684
32.5538767291058	1.911251	1.38248
32.572135738105764	1.99582	1.412735
32.59039559714228	2.0680797	1.438082
32.608656306797776	2.073733	1.4400462
32.62691786765491	2.0165699	1.4200598
32.645180280296586	1.9814944	1.4076556
32.663443545305896	1.9830233	1.4081986
32.68170766326619	1.914065	1.3834974
32.69997263476099	1.8570107	1.3627218
32.7182384603741	1.9994289	1.4140116
32.7365051406895	2.0778031	1.4414587
32.75477267629144	2.049056	1.4314524
32.77304106776434	2.0621016	1.4360019
32.79131031569289	2.0288608	1.4243809
32.809580420661966	2.0041418	1.4156772
32.827851383256714	1.9831865	1.4082565
32.84612320406245	2.0388243	1.4278741
32.86439588366476	2.124603	1.4576018
32.88266942264945	2.0634623	1.4364756
32.9009438216025	2.0246038	1.4228858
32.9192190811102	2.0749853	1.440481
32.937495201758985	2.1032784	1.4502684
32.95577218413556	2.045142	1.4300846
32.974050028826866	2.0021257	1.4149649
32.992328736420035	1.954368	1.3979871
33.010608307502444	1.9112434	1.3824773
33.02888874266169	1.94062	1.3930614
33.047170042485604	1.9874765	1.4097788
33.06545220756225	1.9266065	1.3880225
33.083735238479896	1.8951156	1.376632
33.10201913582707	1.9354998	1.3912224
33.12030390019248	1.9297894	1.3891686
33.138589532165135	1.9796702	1.4070076
33.15687603233419	1.9778799	1.4063711
33.17516340128909	1.9736482	1.4048659
33.19345163961947	2.0593958	1.4350595
33.211740747915215	2.0805264	1.442403
33.23003072676643	2.088344	1.4451104
33.248321576763466	2.1010284	1.4494925
33.266613298496885	2.0172539	1.4203006
33.28490589255747	1.9835236	1.4083762
33.30319935953626	2.0287156	1.4243299
33.32149370002451	2.074946	1.4404672
33.339788914613706	2.094033	1.4470774
33.358085003895575	2.0522773	1.4325771
33.376381968462034	1.9489218	1.3960379
33.39467980890529	1.9163777	1.3843329
33.41297852581774	1.9108107	1.3823208
33.43127811979204	1.9910672	1.4110518
33.44957859142105	2.0348892	1.4264954
33.467879941297866	2.0274928	1.4239006
33.486182170015844	2.0130417	1.418817
33.50448527816853	2.0356646	1.4267671
33.522789266349754	1.9560016	1.3985713
33.541094135153514	1.874039	1.3689555
33.55939988517411	1.8080559	1.3446397
33.57770651700602	1.7282256	1.3146199
33.59601403124398	1.846296	1.3587847
33.61432242848296	1.9465467	1.395187
33.632631709318154	2.0240278	1.4226834
33.650941874344994	1.9376678	1.3920014
33.66925292415916	1.90627	1.3806773
33.68756485935654	1.9055976	1.3804338
33.70587768053328	1.8817726	1.3717772
33.724191388285746	1.8528517	1.361195
33.74250598321054	1.8313133	1.3532603
33.760821465904506	1.9527433	1.3974059
33.77913783696474	2.041194	1.4287035
33.79745509698852	2.037261	1.4273266
33.815773246573414	1.9718138	1.4042128
33.8340922863172	1.8931918	1.375933
33.852412216817896	1.8515058	1.3607005
33.87073303867377	1.912657	1.3829885
33.889054752483304	1.905348	1.3803434
33.907377358845245	1.9584336	1.3994405
33.92570085835853	2.041068	1.4286596
33.94402525162239	2.0682707	1.4381484
33.96235053923627	1.9340507	1.3907015
33.980676721799824	1.8571464	1.3627716
33.999003799912984	1.8291476	1.3524598
34.01733177417592	1.8733695	1.3687109
34.03566064518901	1.9493864	1.3962042
34.0539904135529	1.8818042	1.3717887
34.07232107986846	1.8246853	1.3508091
34.090652644736785	1.8464235	1.3588316
34.108985108759235	2.0308375	1.4250746
34.12731847253742	2.1123219	1.4533828
34.14565273667313	2.0247865	1.4229499
34.16398790176847	1.9932683	1.4118315
34.18232396842574	2.0048594	1.4159306
34.20066093724749	1.9392378	1.3925653
34.21899880883651	1.9862167	1.409332
34.23733758379583	2.0377424	1.4274951
34.25567726272874	1.9339232	1.3906556
34.27401784623872	1.9392602	1.3925732
34.29235933492957	1.9572084	1.3990027
34.31070172940526	2.0101483	1.417797
34.32904503027003	2.0064113	1.4164785
34.347389238128386	1.9006587	1.3786438
34.36573435358502	1.8687537	1.3670237
34.38408037724492	2.02153	1.4218051
34.402427309713296	2.0820203	1.4429208
34.42077515159559	1.9943132	1.4122015
34.43912390349752	1.9581879	1.3993527
34.45747356602499	1.9723376	1.4043994
34.47582413978423	1.910515	1.3822138
34.49417562538163	1.8554459	1.3621476
34.51252802342388	1.9320617	1.3899862
34.53088133451789	1.7587324	1.3261721
34.54923555927084	1.6940869	1.3015709
34.567590698290104	1.8224142	1.3499682
34.58594675218336	1.9346676	1.3909233
34.6043037215585	1.8773541	1.3701657
34.62266160702365	1.8295132	1.352595
34.641020409187234	1.8265637	1.3515042
34.65938012865785	1.8010657	1.3420379
34.677740766044394	1.7908057	1.3382099
34.69610232195598	1.7741793	1.3319832
34.714464797002016	1.9095527	1.3818656
34.73282819179208	1.9642696	1.4015241
34.751192506936064	1.8847852	1.3728747
34.76955774304408	1.780175	1.334232
34.7879239007265	1.8381463	1.3557825
34.80629098059391	1.8547724	1.3619003
34.824658983257194	1.9326066	1.3901823
34.843027909327446	2.0983925	1.4485829
34.86139775941603	2.1204515	1.456177
34.879768534134534	2.0552533	1.4336154
34.89814023409483	1.8814908	1.3716744
34.91651285990901	1.885657	1.3731922
34.93488641218944	2.0975075	1.4482775
34.95326089154871	2.0479922	1.4310808
34.97163629859967	2.26461	1.5048622
34.99001263395542	2.3076973	1.5191107
35.00838989822934	2.142416	1.4636995
35.02676809203499	2.0482202	1.4311604
35.04514721598624	2.1163223	1.4547585
35.063527270697215	2.0290117	1.4244338
35.081908256782256	2.0205734	1.4214687
35.10029017485597	2.008516	1.4172213
35.11867302553321	1.8164111	1.347743
35.137056809429104	1.7592663	1.3263733
35.155441527159006	1.9240307	1.3870944
35.173827179338524	2.0672548	1.4377952
35.19221376658354	2.1968544	1.4821789
35.21060128951017	2.2885716	1.5128026
35.2289897487348	2.245499	1.4984989
35.24737914487405	2.228198	1.492715
35.26576947854479	2.0259588	1.4233618
35.28416075036418	2.1646342	1.4712696
35.30255296094958	2.2600548	1.5033479
35.32094611091867	1.9028032	1.3794214
35.33934020088932	1.8896095	1.3746307
35.35773523147969	2.3092234	1.5196129
35.3761312033082	2.2197392	1.4898789
35.394528116993506	1.8036672	1.3430067
35.41292597315452	1.898281	1.3777812
35.431324772410434	2.181229	1.4768984
35.449724515380666	2.1061425	1.4512554
35.46812520268491	2.1953988	1.4816878
35.486526834943106	2.511696	1.5848331
35.504929412775454	2.1770833	1.4754943
35.52333293680242	1.9585592	1.3994853
35.54173740764471	1.9860089	1.4092582
35.560142825923286	1.9157252	1.3840972
35.5785491922594	1.6772044	1.2950692
35.59695650727454	1.7938572	1.3393495
35.61536477159042	2.6304495	1.6218661
