0.008763373481513119	0.7644548	0.87433106
0.026290120649546365	0.5644624	0.75130713
0.043816868432600686	0.3835621	0.6193239
0.06134361724069026	0.11350935	0.3369115
0.07887036748382949	0.09595883	0.30977222
0.0963971195720331	0.25419903	0.50418156
0.11392387391531617	0.28497547	0.53383094
0.1314506309236943	0.29156786	0.5399702
0.1489773910071836	0.23312697	0.48283222
0.16650415457580078	0.13971296	0.37378198
0.18403092203956356	0.13232109	0.36375967
0.20155769380849	0.109403715	0.33076233
0.2190844702925996	0.09493381	0.3081133
0.2366112519019124	0.10887946	0.32996887
0.2541380390464497	0.09177328	0.30294105
0.27166483213623416	0.09058736	0.30097735
0.28919163158128947	0.13933906	0.37328148
0.3067184377916406	0.14585902	0.38191494
0.324245251177314	0.20228784	0.4497642
0.34177207214833777	0.18398258	0.42893192
0.3592989011147415	0.1615422	0.40192315
0.37682573848655654	0.118483946	0.34421498
0.39435258467381573	0.119837485	0.34617552
0.41187944008655414	0.11617566	0.3408455
0.42940630513480854	0.12813465	0.357959
0.446933180228618	0.19029137	0.43622398
0.4644600657780234	0.21401554	0.46261814
0.48198696219306775	0.19578151	0.44247204
0.49951386988379676	0.17840374	0.42237866
0.5170407892602581	0.17428868	0.41747895
0.5345677207325025	0.19131319	0.43739364
0.5520946647105822	0.16589406	0.40730095
0.5696216216045534	0.1718755	0.4145787
0.5871485918244737	0.17973334	0.4239497
0.6046755757804043	0.16877386	0.41082096
0.6222025738824094	0.1369866	0.370117
0.6397295865405557	0.12165107	0.34878513
0.6572566141649129	0.14648524	0.3827339
0.6747836571655547	0.20730998	0.45531306
0.6923107159525568	0.2110141	0.45936272
0.7098377909359992	0.21425067	0.4628722
0.7273648825259653	0.18006507	0.42434075
0.7448919911325411	0.18374132	0.4286506
0.762419117165817	0.18224292	0.4268992
0.7799462610358868	0.22676781	0.47620144
0.7974734231528482	0.2193854	0.46838596
0.8150006039268024	0.22190435	0.47106725
0.8325278037678551	0.17815909	0.42208895
0.8500550230861152	0.19693264	0.44377095
0.8675822622916969	0.24306546	0.4930167
0.8851095217947171	0.29152274	0.53992844
0.9026368020052984	0.28611588	0.53489804
0.9201641033335665	0.23571523	0.48550513
0.9376914261896523	0.22571033	0.47508982
0.9552187709836915	0.24124545	0.49116743
0.9727461381258234	0.26309934	0.5129321
0.990273528026193	0.20958722	0.45780697
1.0078009410949496	0.18866645	0.43435752
1.0253283777422473	0.22023736	0.46929455
1.0428558383782454	0.26015374	0.5100527
1.0603833234131086	0.26842213	0.5180947
1.0779108332570058	0.31124792	0.55789596
1.0954383683201119	0.3287226	0.57334334
1.112965929012607	0.37039772	0.60860306
1.1304935157446763	0.473168	0.68787205
1.1480211289265108	0.51490575	0.71756935
1.1655487689683062	1.3064336	1.1429932
1.1830764362802655	1.5807126	1.2572639
1.200604131272596	2.0678928	1.438017
1.2181318543555117	2.4856021	1.5765792
1.235659605939232	2.5287986	1.5902196
1.253187386433982	4.0630207	2.0156937
1.270715196249994	6.62619	2.5741386
1.2882430357975057	12.417189	3.5238032
1.3057709054867608	17.323866	4.1621947
1.3232988057280106	23.111673	4.8074603
1.3408267369315112	27.77778	5.270463
1.358354699507526	31.43214	5.606437
1.3758826938663256	35.191677	5.932257
1.3934107204181858	36.87239	6.072264
1.410938779573391	37.264393	6.104457
1.4284668717422309	38.149162	6.176501
1.4459949973350033	37.753277	6.1443696
1.4635231567620117	37.321606	6.1091413
1.4810513504335687	36.481663	6.040005
1.4985795787599925	35.67736	5.973053
1.5161078421516088	35.572018	5.964228
1.5336361410187505	34.786995	5.8980503
1.5511644757717598	34.876648	5.9056454
1.5686928468209842	35.81761	5.9847817
1.58622125457678	36.58706	6.0487237
1.6037496994495108	37.94823	6.1602135
1.621278181849548	37.50148	6.123845
1.6388067021872719	38.299843	6.188687
1.6563352608730693	37.47812	6.1219373
1.673863858317336	36.2151	6.017898
1.6913924949304753	35.45029	5.954015
1.7089211711228998	34.601753	5.8823256
1.7264498873050296	34.205894	5.8485804
1.7439786438872935	33.342728	5.7743163
1.7615074412801288	32.255135	5.6793604
1.779036279893981	31.29334	5.594045
1.796565160139305	29.931246	5.470946
1.814094082426564	29.33792	5.416449
1.8316230471662298	28.626963	5.350417
1.849152054768784	27.83493	5.275882
1.8666811056447168	27.543276	5.248169
1.8842102002045273	27.171593	5.212638
1.901739338858724	26.61663	5.1591306
1.9192685220178245	25.62303	5.0619197
1.9367977500923557	24.74867	4.9748034
1.9543270234928547	24.170532	4.9163537
1.971856342629867	23.740517	4.872424
1.9893857079139496	23.546114	4.8524337
2.006915119755667	23.372942	4.834557
2.0244445785655945	22.917974	4.787272
2.0419740847543175	22.389046	4.7317066
2.0595036387324317	21.722435	4.660733
2.0770332409105414	21.013844	4.584086
2.094562891699263	20.687103	4.548308
2.1120925915092217	20.110664	4.4844913
2.129622340751053	19.735512	4.4424667
2.1471521398354043	187.65196	13.698611
2.1646819891729323	443.97495	21.070713
2.182211889174303	440.40192	20.985756
2.1997418402501974	453.09763	21.28609
2.2172718428113023	433.10837	20.811256
2.234801897268317	320.93433	17.91464
2.2523320040319548	17.420338	4.1737676
2.269862163512935	16.916008	4.1129074
2.287392376121992	16.666418	4.0824523
2.304922642269869	16.453732	4.0563197
2.322452962367322	16.291174	4.0362325
2.3399833368251164	15.810507	3.9762428
2.357513766054032	15.32095	3.9141984
2.3750442504648586	14.9827175	3.8707516
2.3925747904683963	14.678186	3.831212
2.410105386475459	14.551797	3.8146818
2.4276360388968707	14.097567	3.7546725
2.445166748143469	14.09347	3.754127
2.4626975146261025	13.903528	3.7287436
2.4802283387556323	13.660425	3.6960013
2.4977592209429305	13.545588	3.680433
2.5152901615988825	13.051579	3.612697
2.5328211611343865	12.721883	3.5667748
2.5503522199603523	12.556051	3.5434518
2.5678833384877024	12.392348	3.5202768
2.5854145171273712	12.239383	3.498483
2.6029457562903064	12.025881	3.4678352
2.620477056387469	11.854348	3.4430144
2.6380084178298326	11.691409	3.4192703
2.655539841028383	11.350686	3.369078
2.673071326394119	11.217081	3.3491912
2.6906028743380523	11.063416	3.3261714
2.708134485271211	11.079847	3.3286405
2.7256661596046325	10.875548	3.2978096
2.743197897749369	10.569803	3.2511234
2.760729700116486	10.312533	3.2113132
2.778261567117063	10.101584	3.178299
2.795793499162193	10.08882	3.1762903
2.8133254966629817	10.013016	3.164335
2.830857560030551	9.951253	3.1545606
2.8483896896760337	9.785434	3.1281679
2.865921886010578	9.694331	3.1135721
2.883454149445347	9.51937	3.0853477
2.9009864803915177	9.434328	3.071535
2.91851887926028	9.324129	3.0535438
2.9360513464628384	9.280045	3.0463166
2.953583882410413	9.196586	3.0325873
2.9711164875142373	8.92067	2.986749
2.9886491621855606	8.789753	2.9647517
3.0061819068356455	8.635252	2.93858
3.023714721875769	8.569516	2.9273736
3.041247607717225	8.398707	2.8980525
3.0587805647713213	8.187837	2.8614397
3.0763135934493806	8.099053	2.8458836
3.0938466941627407	8.014092	2.8309174
3.1113798673227544	7.9577537	2.820949
3.1289131133407904	7.966185	2.822443
3.1464464326282315	7.9050994	2.811601
3.1639798255964786	7.743953	2.782796
3.1815132926569443	7.564628	2.750387
3.1990468342210603	7.434176	2.7265685
3.216580450700272	7.4593563	2.7311823
3.2341141425060416	7.4653306	2.7322757
3.251647910049847	7.38537	2.7176037
3.2691817537431813	7.2289906	2.6886783
3.286715673997555	7.0884204	2.6624088
3.3042496712244938	7.040682	2.6534283
3.32178374583554	7.076039	2.6600826
3.339317898242251	7.0872955	2.6621976
3.3568521288562034	6.945487	2.6354291
3.3743864380889876	6.872509	2.621547
3.3919208263522127	6.8002234	2.6077237
3.4094552940575023	6.788813	2.605535
3.4269898416164972	6.792278	2.6062
3.444524469440858	6.6712875	2.5828836
3.4620591779422587	6.516523	2.5527482
3.479593967532391	6.350058	2.5199323
3.4971288386229658	6.3156586	2.5130975
3.5146637916257086	6.2802362	2.5060399
3.5321988269523628	6.4049115	2.5307927
3.5497339450146903	6.3285537	2.5156617
3.5672691462244708	6.3985524	2.529536
3.5848044309934988	6.298833	2.5097475
3.60233979973359	6.355756	2.5210624
3.619875252856575	6.321527	2.5142648
3.6374107907743034	6.278681	2.5057297
3.6549464138986427	6.2322583	2.4964492
3.6724821226414788	6.219713	2.4939353
3.690017917414714	6.201906	2.4903626
3.7075537986302702	6.2364936	2.4972973
3.7250897667000857	6.3011723	2.5102136
3.7426258220361235	6.4982266	2.549162
3.7601619650503553	6.8069496	2.609013
3.777698196154779	7.36379	2.7136304
3.7952345157614067	8.379229	2.8946898
3.8127709242822716	9.106142	3.0176384
3.830307422129425	11.3065605	3.3625228
3.847844009714936	30.21269	5.4966073
3.8653806874508954	97.756966	9.887212
3.882917455749409	97.073395	9.852583
3.900454315022606	96.935425	9.845579
3.917991265682631	41.417576	6.435649
3.9355283081416506	10.97797	3.313302
3.9530654428118495	8.623998	2.9366643
3.970602670105433	7.424194	2.7247374
3.9881399904346244	6.5512056	2.5595324
4.005677404211669	6.486686	2.5468974
4.023214911848827	6.418577	2.5334911
4.0407525137583855	6.4045486	2.530721
4.058290210352644	6.4365973	2.537045
4.075828002043927	6.3957076	2.5289736
4.0933658892445814	6.3306813	2.5160844
4.110903872366966	6.182736	2.4865108
4.128441951823468	6.0321827	2.4560502
4.145980128026488	6.0357556	2.4567776
4.163518401388452	6.1339245	2.476676
4.181056772321807	6.212444	2.4924774
4.1985952412390155	6.2575808	2.5015156
4.216133808552567	6.192698	2.4885132
4.233672474674966	6.1824613	2.4864557
4.251211240018741	6.3560305	2.521117
4.268750104996445	6.5802364	2.5651972
4.286289070020643	7.537079	2.745374
4.303828135503928	9.064212	3.010683
4.3213673018589125	29.412874	5.4233637
4.3389065694982305	90.60083	9.518447
4.356445938834537	165.98553	12.883537
4.3739854102805085	171.49045	13.095436
4.391524984248844	172.49881	13.133881
4.409064661152262	136.67079	11.690628
4.426604441403504	96.82941	9.840194
4.444144325415337	75.61078	8.695446
4.461684313600543	21.639418	4.6518188
4.47922440637193	21.893066	4.679003
4.496764604142329	20.365637	4.5128303
4.5143049073245916	18.522324	4.3037567
4.531845316331589	16.630825	4.0780907
4.5493858315762195	13.799541	3.7147734
4.566926453471405	11.427377	3.3804402
4.584467182430081	9.305284	3.0504563
4.602008018865218	8.127439	2.8508663
4.619548963189798	7.431821	2.7261367
4.637090015816834	6.93484	2.6334085
4.654631177159353	6.735447	2.595274
4.672172447630417	6.4980693	2.5491312
4.689713827643102	6.3599358	2.5218914
4.7072553176105085	6.1031933	2.4704642
4.724796917945764	5.9555874	2.4404073
4.742338629062015	5.7842197	2.4050405
4.759880451372434	5.647445	2.3764353
4.777422385290215	5.5800004	2.3622024
4.794964431228581	5.6105876	2.3686678
4.812506589600768	5.6214156	2.3709524
4.830048860820047	5.6215243	2.3709755
4.847591245299709	5.5975585	2.365916
4.8651337434530655	5.621088	2.3708835
4.882676355693457	5.6406503	2.3750052
4.900219082434242	5.615241	2.36965
4.917761924088813	5.6355844	2.3739386
4.935304881070575	5.572179	2.3605464
4.952847953792969	5.4559937	2.3358068
4.970391142669449	5.3165026	2.3057542
4.9879344481135055	5.339212	2.3106735
5.005477870538642	5.317241	2.3059144
5.023021410358394	5.2701664	2.2956843
5.040565067986324	5.3035345	2.3029404
5.05810884383601	5.340844	2.3110266
5.075652738321066	5.373162	2.3180082
5.09319675185512	5.421323	2.3283734
5.110740884851836	5.3972163	2.323191
5.128285137724894	5.3752346	2.3184552
5.145829510888007	5.3415174	2.3111722
5.163374004754908	5.4075317	2.3254101
5.1809186197393595	5.5111012	2.3475735
5.198463356255145	5.4515023	2.3348453
5.216008214716077	5.4492135	2.334355
5.233553195535998	5.385789	2.3207302
5.251098299128764	5.2938366	2.300834
5.268643525908272	5.2603817	2.2935522
5.286188876288432	5.196836	2.279657
5.3037343506831895	5.188713	2.2778747
5.32127994950651	5.2550325	2.2923858
5.3388256731723915	5.296429	2.3013973
5.356371522094851	5.3121653	2.3048134
5.373917496687938	5.290926	2.3002012
5.391463597365729	5.319913	2.3064935
5.40900982454232	5.2955675	2.30121
5.426556178631843	5.265533	2.2946749
5.444102660048449	5.142355	2.267676
5.4616492692063225	5.116133	2.261887
5.479196006519669	5.1450214	2.268264
5.496742872402727	5.19588	2.2794473
5.514289867269756	5.267821	2.2951734
5.531836991535049	5.255985	2.2925935
5.549384245612924	5.155898	2.2706602
5.566931629917724	5.080425	2.2539797
5.584479144863822	5.025786	2.2418265
5.6020267908656205	4.99844	2.235719
5.619574568337545	4.9882526	2.2334397
5.637122477694054	4.98341	2.232355
5.654670519349629	4.9909406	2.2340412
5.672218693718784	4.9829807	2.232259
5.689767001216059	5.057569	2.248904
5.707315442256021	5.137141	2.2665262
5.724864017253266	5.195413	2.2793448
5.7424127266224225	5.1521826	2.269842
5.75996157077814	5.1621532	2.2720373
5.777510550135105	5.150278	2.2694225
5.795059665108022	5.199506	2.2802424
5.812608916111639	5.252695	2.2918758
5.830158303560715	5.3418393	2.3112419
5.847707827870055	5.3232183	2.30721
5.86525748945448	5.2971888	2.3015623
5.8828072887288485	5.353985	2.313868
5.900357226108044	5.458295	2.3362994
5.917907302006979	5.6622443	2.379547
5.9354575168406	6.305736	2.5111225
5.9530078710238765	6.8912	2.6251094
5.970558364971812	7.4523687	2.7299027
5.988108999099438	7.749638	2.7838173
6.005659773821818	8.298109	2.8806438
6.023210689554039	8.129306	2.8511937
6.040761746711227	8.57904	2.9289997
6.058312945708531	7.9579	2.820975
6.075864286961132	7.3060126	2.7029636
6.093415770884244	6.610438	2.571077
6.1109673978931065	6.0276647	2.4551303
6.128519168402993	5.4571357	2.3360512
6.146071082829204	5.31994	2.3064995
6.163623141587075	5.157624	2.2710402
6.181175345091969	5.0927153	2.2567046
6.198727693759281	5.1002264	2.258368
6.216280188004435	5.126325	2.264139
6.233832828242885	5.1252685	2.2639055
6.251385614890126	5.0647016	2.2504892
6.268938548361669	5.013173	2.2390115
6.286491629073067	4.9765973	2.2308288
6.304044857439898	5.0359282	2.2440875
6.321598233877777	4.9773574	2.2309992
6.339151758802344	4.965993	2.2284508
6.356705432629277	4.9908056	2.2340112
6.37425925577428	5.0269237	2.2420802
6.391813228653095	5.0795	2.2537746
6.409367351681486	5.0384483	2.244649
6.426921625275259	4.9805098	2.2317057
6.44447604985025	4.9646626	2.2281523
6.46203062582232	4.926358	2.21954
6.47958535360737	4.990862	2.2340238
6.497140233621328	5.0409975	2.2452166
6.514695266280161	5.0542455	2.248165
6.532250451999859	5.0465846	2.2464604
6.549805791196454	5.050494	2.2473304
6.567361284286002	5.0680485	2.2512326
6.584916931684597	5.093824	2.2569501
6.602472733808367	5.0410256	2.2452228
6.6200286910734665	5.0373254	2.2443986
6.637584803896092	4.9923368	2.2343538
6.655141072692462	5.035648	2.244025
6.672697497878842	5.016143	2.2396748
6.690254079871514	4.986913	2.2331398
6.707810819086808	4.9902706	2.2338912
6.725367715941078	4.9666376	2.2285955
6.742924770850719	4.9658666	2.2284224
6.760481984232151	5.033901	2.2436357
6.778039356501836	5.0639067	2.2503126
6.795596888076266	5.0354743	2.2439864
6.813154579371963	4.961068	2.2273455
6.830712430805492	4.9400077	2.2226129
6.84827044279344	4.970045	2.2293599
6.865828615752445	4.979452	2.2314687
6.883386950099159	5.023831	2.2413905
6.900945446250287	5.0419283	2.2454238
6.918504104622553	5.131277	2.2652323
6.936062925632727	5.1252627	2.2639043
6.953621909697607	5.0896606	2.2560277
6.971181057234028	5.0484543	2.2468765
6.988740368658859	5.033488	2.2435436
7.006299844389007	5.1099753	2.2605255
7.023859484841407	5.2626653	2.29405
7.041419290433036	5.417123	2.3274713
7.058979261580902	5.566601	2.3593645
7.0765393987020495	5.6838827	2.3840895
7.094099702213559	5.9697347	2.443304
7.111660172532549	6.2538085	2.5007615
7.129220810076164	6.604834	2.569987
7.146781615261595	7.0886335	2.662449
7.16434258850606	7.3413935	2.7095006
7.181903730226821	7.8208475	2.796578
7.1994650408411704	8.078195	2.8422165
7.217026520766437	8.284544	2.8782883
7.234588170419983	8.494737	2.9145732
7.252149990219215	8.448182	2.9065757
7.269711980581568	8.362434	2.8917873
7.2872741419245175	8.20555	2.8645332
7.304836474665574	7.8448153	2.8008597
7.322398979222286	7.4693284	2.7330072
7.339961656012233	7.101425	2.66485
7.357524505453039	6.7419367	2.596524
7.375087527962357	6.4675393	2.5431356
7.392650723957886	6.218847	2.4937615
7.410214093857353	5.878046	2.4244683
7.427777638078528	5.684061	2.384127
7.445341357039213	5.471228	2.3390656
7.4629052511572525	5.359412	2.3150403
7.480469320850524	5.273174	2.2963393
7.498033566536948	5.2074494	2.2819836
7.5155979886344735	5.1551576	2.2704973
7.5331625875610975	5.147538	2.2688186
7.550727363734844	5.1816797	2.2763302
7.568292317573788	5.1730866	2.274442
7.585857449496025	5.185032	2.2770665
7.603422759919705	5.245549	2.2903163
7.620988249263007	5.201602	2.280702
7.638553917944147	5.23156	2.2872605
7.656119766381391	5.2091746	2.2823617
7.673685794993023	5.2286897	2.2866328
7.691252004197388	5.2740016	2.2965195
7.70881839441285	5.2216644	2.2850962
7.726384966057826	5.219655	2.2846565
7.743951719550762	5.228258	2.2865384
7.761518655310149	5.265945	2.2947648
7.779085773754511	5.3118362	2.304742
7.796653075302419	5.3632917	2.3158782
7.814220560372475	5.3825455	2.3200314
7.831788229383323	5.316095	2.3056657
7.8493560827536495	5.280806	2.2980003
7.866924120902174	5.311944	2.3047655
7.884492344247663	5.306329	2.303547
7.9020607532089135	5.3224444	2.3070424
7.919629348204771	5.313886	2.3051867
7.937198129654115	5.3394504	2.310725
7.954767097975865	5.3270226	2.3080344
7.972336253588986	5.335549	2.3098807
7.989905596912472	5.3784328	2.3191447
8.007475128365371	5.396476	2.3230317
8.025044848366756	5.4298983	2.3302143
8.042614757335754	5.5387554	2.353456
8.060184855691523	5.602882	2.3670406
8.07775514385327	5.711194	2.3898106
8.095325622240228	5.7538786	2.3987243
8.112896291271687	5.8478093	2.4182243
8.130467151366968	5.8651876	2.421815
8.148038202945436	5.9326496	2.435703
8.165609446426497	5.857136	2.420152
8.183180882229594	5.8467646	2.4180083
8.200752510774217	5.9092145	2.4308877
8.218324332479893	5.9393945	2.4370873
8.235896347766193	5.928037	2.434756
8.253468557052724	5.947841	2.4388196
8.27104096075914	5.9586544	2.4410355
8.288613559305137	6.038862	2.4574096
8.306186353110448	6.1210585	2.4740772
8.32375934259485	6.263713	2.502741
8.341332528178162	6.227053	2.4954064
8.358905910280246	6.231556	2.4963086
8.376479489321003	6.174436	2.4848413
8.394053265720377	6.2489376	2.4997876
8.411627239898356	6.29748	2.509478
8.42920141227497	6.251842	2.5003684
8.44677578327029	6.2041054	2.4908042
8.464350353304427	6.1601048	2.4819558
8.48192512279754	6.1304483	2.4759743
8.499500092169827	6.093931	2.4685888
8.51707526184153	6.1115737	2.4721596
8.534650632232934	6.126833	2.475244
8.552226203764365	6.1856284	2.4870923
8.569801976856192	6.2571235	2.5014243
8.587377951928834	6.2344184	2.4968817
8.60495412940274	6.2700024	2.5039973
8.622530509698416	6.242306	2.4984608
8.6401070932364	6.4367437	2.5370739
8.657683880437283	6.589733	2.5670476
8.675260871721695	6.749685	2.5980155
8.692838067510303	6.8615084	2.6194482
8.710415468223834	6.978702	2.6417234
8.727993074283043	7.1124563	2.666919
8.745570886108737	7.105743	2.66566
8.763148904121765	7.129356	2.6700854
8.78072712874302	7.1218033	2.6686707
8.798305560393441	7.364632	2.7137856
8.815884199494006	7.4914203	2.737046
8.833463046465745	7.685479	2.7722697
8.851042101729728	7.8460016	2.8010714
8.86862136570707	8.293669	2.879873
8.886200838818924	8.473257	2.910886
8.903780521486505	8.408481	2.899738
8.921360414131055	8.385616	2.895793
8.938940517173874	8.417176	2.901237
8.956520831036297	8.634294	2.938417
8.97410135613971	8.950162	2.991682
8.99168209290554	9.064302	3.010698
9.009263041755265	9.372885	3.0615168
9.026844203110405	9.638908	3.104659
9.044425577392525	9.925983	3.150553
9.062007165023239	10.041419	3.16882
9.079588966424197	10.313606	3.2114804
9.097170982017108	10.406794	3.2259562
9.11475321222372	11.408894	3.3777053
9.132335657465825	12.24281	3.4989727
9.149918318165264	12.318344	3.50975
9.167501194743924	12.936034	3.59667
9.18508428762374	12.657427	3.5577278
9.202667597226693	12.577542	3.546483
9.220251123974803	12.210627	3.4943707
9.237834868290143	11.86906	3.4451501
9.255418830594836	11.704594	3.4211977
9.273003011311046	11.1962	3.3460724
9.290587410860985	10.943621	3.3081143
9.308172029666911	10.357682	3.2183354
9.32575686815113	10.041533	3.1688378
9.343341926735997	8.812882	2.9686499
9.360927205843916	8.584217	2.9298835
9.378512705897327	8.367076	2.8925898
9.396098427318728	8.085123	2.843435
9.413684370530664	7.950456	2.8196554
9.431270535955722	7.8553443	2.8027387
9.448856924016539	7.799491	2.7927568
9.466443535135806	7.675528	2.7704744
9.484030369736251	7.666576	2.7688582
9.501617428240658	7.6374397	2.7635918
9.519204711071852	7.63954	2.7639718
9.536792218652714	7.745334	2.783044
9.55437995140617	7.8716097	2.8056388
9.571967909755191	7.9381437	2.8174713
9.589556094122802	7.868411	2.8050687
9.60714450493207	7.858781	2.8033516
9.624733142606116	7.849524	2.8017
9.642322007568108	7.9219975	2.8146043
9.659911100241267	8.009316	2.8300736
9.677500421048851	8.057894	2.8386428
9.695089970414175	8.054345	2.8380177
9.712679748760609	7.9939847	2.8273635
9.730269756511557	8.023009	2.8324916
9.747859994090492	8.132984	2.8518388
9.765450461920915	8.242972	2.8710577
9.78304116042639	8.290375	2.879301
9.800632090030527	8.2304	2.8688674
9.81822325115699	8.203825	2.864232
9.835814644229481	8.229955	2.8687897
9.853406269671762	8.234944	2.8696592
9.870998127907646	8.219391	2.866948
9.888590219360985	8.141882	2.8533983
9.906182544455698	8.122606	2.8500187
9.923775103615734	8.155378	2.8557622
9.941367897265108	8.21016	2.8653376
9.958960925827878	8.221437	2.8673048
9.97655418972816	8.259983	2.8740187
9.994147689390106	8.25091	2.8724396
10.011741425237934	8.1533375	2.8554049
10.029335397695904	8.133548	2.8519375
10.04692960718833	8.144392	2.8538382
10.06452405413958	8.220937	2.8672175
10.082118738974064	8.256465	2.8734064
10.099713662116246	8.282397	2.8779154
10.117308823990651	8.318582	2.884195
10.134904225021844	8.301269	2.8811922
10.152499865634445	8.233357	2.8693829
10.170095746253125	8.181393	2.8603134
10.18769186730261	8.196676	2.8629837
10.205288229207675	8.235794	2.8698072
10.222884832393145	8.136541	2.8524623
10.2404816772839	8.14284	2.8535662
10.258078764304868	8.12414	2.8502877
10.275676093881035	8.1184025	2.849281
10.293273666437438	8.056669	2.8384273
10.310871482399158	8.053142	2.8378057
10.32846954219134	8.068347	2.8404837
10.346067846239173	8.137472	2.8526254
10.363666394967908	8.127025	2.8507936
10.38126518880283	8.143962	2.8537629
10.398864228169298	8.242839	2.8710344
10.416463513492713	8.299053	2.8808076
10.434063045198531	8.2951	2.8801215
10.451662823712262	8.242692	2.8710089
10.469262849459467	8.1986475	2.863328
10.486863122865758	8.063524	2.8396344
10.504463644356806	8.048756	2.8370328
10.522064414358338	8.040443	2.8355675
10.539665433296118	7.9919405	2.827002
10.557266701595987	7.8436	2.8006427
10.574868219683818	7.6720843	2.7698529
10.592469987985552	7.5775304	2.7527313
10.610072006927185	7.4644194	2.732109
10.627674276934751	7.374053	2.7155209
10.64527679843435	7.2873745	2.6995137
10.662879571852143	7.2141914	2.6859248
10.680482597614331	7.1582747	2.6754951
10.698085876147173	7.0137205	2.648343
10.715689407876988	6.8908668	2.625046
10.733293193230146	6.8192916	2.6113772
10.750897232633072	6.704025	2.5892131
10.76850152651225	6.660204	2.580737
10.786106075294207	6.5746317	2.5641046
10.803710879405534	6.511606	2.551785
10.821315939272877	6.408246	2.5314515
10.83892125532294	6.2975893	2.5094998
10.856526827982472	6.229051	2.4958067
10.874132657678285	6.2722073	2.5044374
10.891738744837243	6.2489347	2.4997869
10.909345089886271	6.1970696	2.4893913
10.926951693252343	6.118613	2.473583
10.944558555362494	6.0155745	2.4526668
10.96216567664381	5.9477463	2.4388
10.979773057523436	5.8212595	2.4127285
10.997380698428573	5.7735806	2.4028275
11.014988599786477	5.8246145	2.4134238
11.032596762024461	5.7895374	2.4061458
11.050205185569892	5.74207	2.3962617
11.067813870850198	5.6605067	2.3791819
11.085422818292859	5.572479	2.3606098
11.10303202832541	5.4923854	2.3435838
11.120641501375454	5.419963	2.3280814
11.138251237870636	5.373928	2.3181734
11.155861238238671	5.277772	2.2973402
11.173471502907317	5.1732597	2.27448
11.191082032304402	5.1154084	2.2617269
11.208692826857805	5.080828	2.2540693
11.226303886995465	5.045001	2.246108
11.243915213145371	5.00567	2.2373354
11.261526805735578	4.964205	2.2280495
11.279138665194196	4.924223	2.219059
11.296750791949393	4.8920293	2.2117932
11.314363186429393	4.841317	2.2002993
11.331975849062479	4.7873006	2.1879902
11.34958878027699	4.7475824	2.1788948
11.36720198050133	4.6573734	2.158095
11.384815450163948	4.595836	2.1437902
11.402429189693366	4.567257	2.137114
11.420043199518153	4.5067563	2.1229122
11.437657480066942	63.45743	7.9660172
11.455272031768422	85.15586	9.227993
11.472886855051353	107.54248	10.370269
11.490501950344528	99.1209	9.955948
11.508117318076819	84.47023	9.190769
11.52573295867715	45.82643	6.769522
11.543348872574514	4.1292152	2.032047
11.560965060197946	4.07544	2.018772
11.57858152197655	4.0883975	2.0219786
11.59619825833949	4.0460553	2.0114808
11.613815269715985	4.0328526	2.0081964
11.631432556535323	38.542255	6.208241
11.649050119226837	83.10049	9.115947
11.666667958219929	93.451225	9.667017
11.68428607394406	107.64796	10.375353
11.701904466828756	82.43493	9.079369
11.719523137303586	65.26886	8.078915
11.737142085798196	4.514924	2.124835
11.754761312742286	3.6698463	1.9156843
11.772380818565619	3.6368966	1.9070649
11.790000603698015	3.640446	1.9079952
11.80762066856935	3.6183093	1.9021854
11.825241013609572	3.6129537	1.9007771
11.842861639248683	3.5827117	1.8928052
11.860482545916748	3.5580723	1.8862853
11.878103734043883	3.5282218	1.8783561
11.895725204060282	3.4415834	1.8551505
11.91334695639619	3.369467	1.8356107
11.930968991481919	3.3230088	1.8229122
11.948591309747824	3.3560083	1.8319411
11.966213911624347	3.3645732	1.8342773
11.98383679754198	3.3470373	1.829491
12.001459967931268	3.293339	1.8147559
12.019083423222835	3.2868557	1.8129687
12.036707163847352	3.275999	1.8099722
12.05433119023556	3.271037	1.8086009
12.071955502818259	3.2283225	1.7967533
12.089580102026313	3.2120798	1.7922276
12.107204988290643	3.198327	1.7883867
12.12483016204224	3.1622036	1.7782586
12.142455623712152	3.1144025	1.7647669
12.16008137373149	3.056242	1.748211
12.177707412531431	3.0431707	1.7444686
12.19533374054321	3.059894	1.7492553
12.212960358198126	3.0699527	1.752128
12.230587265927545	3.078567	1.7545846
12.248214464162889	3.0591285	1.7490364
12.265841953335649	3.0353386	1.7422223
12.283469733877375	3.021926	1.7383687
12.301097806219685	3.0338922	1.7418071
12.31872617079425	3.008129	1.7343959
12.336354828032825	2.9865427	1.7281617
12.353983778367205	2.9542296	1.7187872
12.371613022229262	2.9019578	1.7035134
12.389242560050928	2.8733492	1.6950957
12.406872392264201	2.859074	1.6908797
12.424502519301143	2.872088	1.6947236
12.442132941593874	2.8899772	1.6999933
12.459763659574586	2.8633552	1.6921451
12.477394673675532	2.847558	1.6874709
12.49502598432903	2.830161	1.6823083
12.51265759196746	2.8526893	1.6889906
12.530289497023267	2.8631072	1.6920719
12.547921699928967	2.8332572	1.6832283
12.565554201117134	2.8238926	1.6804441
12.583187001020404	2.8189905	1.678985
12.600820100071486	2.80086	1.673577
12.618453498703152	2.7962596	1.672202
12.636087197348235	2.8067985	1.6753503
12.65372119643964	2.8100965	1.6763343
12.671355496410326	2.7989902	1.6730183
12.68899009769333	2.7919867	1.670924
12.706625000721749	2.8632843	1.6921242
12.724260205928752	2.9505417	1.7177141
12.741895713747551	2.9827905	1.7270757
12.759531524611454	2.9875414	1.7284505
12.777167638953818	2.9571936	1.7196493
12.794804057208072	2.9519386	1.7181207
12.812440779807702	3.0045671	1.7333688
12.830077807186271	3.230692	1.7974125
12.847715139777405	3.3251584	1.8235017
12.865352778014795	3.5310752	1.8791156
12.882990722332197	3.600576	1.8975184
12.90062897316344	3.6537776	1.9114857
12.918267530942412	3.7309036	1.9315547
12.935906396103071	3.5956464	1.896219
12.953545569079449	3.7448018	1.9351491
12.971185050305628	3.5329404	1.8796117
12.988824840215775	3.5573535	1.8860948
13.006464939244115	3.5592756	1.8866043
13.024105347824943	3.4115307	1.8470329
13.041746066392617	3.5052981	1.8722441
13.05938709538157	3.2979517	1.8160263
13.077028435226296	3.354661	1.8315734
13.094670086361363	3.280079	1.8110988
13.112312049221401	3.1939473	1.7871618
13.129954324241112	3.0631838	1.7501954
13.147596911855258	2.8847036	1.6984415
13.165239812498685	2.8814538	1.6974845
13.182883026606293	2.811918	1.6768775
13.200526554613058	2.7829244	1.6682099
13.218170396954017	2.755633	1.66001
13.235814554064284	2.751518	1.6587701
13.253459026379034	2.732987	1.6531748
13.271103814333523	2.6807058	1.6372861
13.288748918363058	2.6629531	1.6318557
13.306394338903031	2.6848073	1.6385381
13.32404007638889	2.6716938	1.6345316
13.341686131256164	2.6992068	1.6429263
13.359332503940449	2.6691842	1.6337638
13.376979194877402	2.677837	1.6364098
13.394626204502751	2.723478	1.6502963
13.412273533252307	2.761667	1.6618264
13.429921181561937	2.743039	1.6562122
13.447569149867581	2.6877756	1.6394436
13.465217438605247	2.665557	1.6326534
13.482866048211022	2.6583216	1.6304361
13.500514979121052	2.6848304	1.6385453
13.518164231771568	2.6431255	1.6257693
13.535813806598844	2.6496856	1.6277854
13.553463704039254	2.667869	1.6333613
13.571113924529229	2.685868	1.6388618
13.588764468505275	2.6838443	1.6382443
13.606415336403956	2.7035122	1.6442361
13.624066528661917	2.732305	1.6529685
13.641718045715882	2.8280206	1.681672
13.659369888002635	2.8379853	1.6846321
13.67702205595903	2.9033754	1.7039294
13.694674550021993	2.9654617	1.7220516
13.712327370628532	3.0377078	1.7429022
13.729980518215713	3.0999126	1.7606568
13.747633993220681	3.1440425	1.7731448
13.765287796080647	3.2151616	1.7930871
13.7829419272329	3.292022	1.814393
13.800596387114801	3.310189	1.8193924
13.818251176163775	3.2973905	1.8158718
13.835906294817324	3.3250272	1.8234657
13.853561743513023	3.4154122	1.8480834
13.871217522688525	3.4280603	1.8515022
13.888873632781538	3.4365914	1.8538046
13.906530074229858	3.4404497	1.8548449
13.92418684747135	3.4708264	1.8630154
13.941843952943948	3.5262988	1.8778442
13.959501391085665	3.5256383	1.8776684
13.977159162334578	3.4124775	1.8472892
13.994817267128846	3.3461351	1.8292444
14.012475705906693	3.2622528	1.8061707
14.030134479106424	3.1941361	1.7872146
14.047793587166414	3.122531	1.7670685
14.065453030525108	3.0486119	1.7460275
14.083112809621026	2.958558	1.7200459
14.100772924892766	2.8859937	1.6988213
14.118433376778997	2.8616297	1.6916353
14.136094165718458	2.8130493	1.6772147
14.153755292149969	2.7568552	1.6603781
14.171416756512416	2.705506	1.6448423
14.189078559244768	2.667397	1.6332167
14.20674070078606	2.6290674	1.6214399
14.224403181575408	2.5971653	1.6115723
14.242066002051999	2.5433042	1.594774
14.259729162655093	2.483006	1.5757557
14.277392663824022	2.439599	1.5619216
14.295056505998208	2.3815658	1.5432322
14.312720689617128	2.3636432	1.5374144
14.330385215120348	2.3563437	1.5350387
14.348050082947497	2.3937242	1.5471665
14.3657152935383	2.4070485	1.5514666
14.383380847332528	2.4164023	1.5544782
14.401046744770051	2.445193	1.5637113
14.418712986290798	2.4293737	1.5586449
14.436379572334793	2.3897736	1.5458893
14.454046503342123	2.3627164	1.5371131
14.471713779752946	2.3609354	1.5365336
14.489381402007504	2.3601353	1.5362732
14.507049370546113	2.3664827	1.5383377
14.524717685809168	2.3605566	1.5364103
14.542386348237134	2.3907285	1.5461981
14.560055358270553	2.4177876	1.5549237
14.577724716350051	2.4423232	1.5627934
14.595394422916325	2.4158838	1.5543114
14.61306447841015	2.4458897	1.5639341
14.63073488327237	2.4524462	1.5660288
14.648405637943917	2.4953985	1.5796831
14.6660767428658	2.5124621	1.5850748
14.683748198479094	2.5316477	1.5911152
14.701420005224954	2.5514462	1.5973247
14.719092163544628	2.588025	1.608734
14.73676467387942	2.6452847	1.6264331
14.754437536670727	2.6736112	1.6351181
14.772110752360014	2.6759238	1.6358252
14.78978432138882	2.6765077	1.6360036
14.807458244198777	2.6626222	1.6317543
14.82513252123159	2.6446521	1.6262387
14.842807152929028	2.6790028	1.636766
14.860482139732962	2.6414526	1.6252546
14.87815748208531	2.5939183	1.6105646
14.8958331804281	2.5678902	1.6024637
14.91350923520342	2.598176	1.6118859
14.931185646853438	2.6242867	1.619965
14.948862415820408	2.6405501	1.624977
14.966539542546656	2.661836	1.6315134
14.98421702747459	2.6268532	1.620757
15.001894871046696	2.6280844	1.6211368
15.019573073705542	2.6297548	1.6216519
15.037251635893766	2.6360233	1.6235834
15.054930558054092	2.6532416	1.6288774
15.072609840629323	2.6923187	1.6408286
15.090289484062351	2.8379912	1.6846339
15.107969488796124	3.106831	1.7626206
15.125649855273691	3.5301526	1.87887
15.14333058393817	4.026273	2.0065575
15.161011675232768	5.0022655	2.2365744
15.17869312960076	6.3357353	2.5170887
15.196374947485506	8.13181	2.8516328
15.214057129330447	11.151409	3.3393726
15.231739675579114	15.880324	3.9850125
15.249422586675102	20.855057	4.566734
15.267105863062092	24.036196	4.9026723
15.284789505183847	24.479322	4.947658
15.302473513484218	22.528439	4.746413
15.320157888407127	18.982569	4.356899
15.337842630396578	14.738419	3.8390648
15.355527739896656	11.5004635	3.3912334
15.37321321735153	8.934069	2.9889913
15.39089906320545	6.4972825	2.5489767
15.408585277902748	4.819995	2.1954486
15.42627186188783	3.745654	1.9353693
15.443958815605198	3.2128491	1.7924422
15.461646139499424	2.9543896	1.7188338
15.479333834015168	2.790823	1.6705756
15.497021899597165	2.712922	1.6470951
15.514710336690234	2.6463811	1.6267701
15.53239914573928	2.638441	1.6243279
15.550088327189297	2.5855489	1.6079642
15.567777881485336	2.5185041	1.5869795
15.58546780907256	2.4687207	1.5712163
15.6031581103962	2.483089	1.5757821
15.620848785901568	2.4709623	1.5719295
15.638539836034063	2.4667978	1.5706043
15.656231261239173	2.445725	1.5638814
15.673923061962451	2.431892	1.5594524
15.691615238649552	2.4226418	1.5564837
15.709307791746202	2.4109623	1.5527273
15.727000721698221	2.4223015	1.5563744
15.744694028951498	2.440071	1.5620728
15.76238771395202	2.4351413	1.560494
15.780081777145844	2.404575	1.5506692
15.797776218979125	2.347568	1.5321776
15.815471039898094	2.367579	1.5386939
15.833166240349064	2.3795133	1.5425671
15.850861820778437	2.3599968	1.5362281
15.868557781632699	2.3476844	1.5322155
15.886254123358412	2.3667042	1.5384096
15.903950846402232	2.4013574	1.5496314
15.921647951210897	2.4244742	1.5570723
15.939345438231225	2.430747	1.5590854
15.957043307910133	2.4060876	1.5511569
15.974741560694602	2.373139	1.5404996
15.992440197031714	2.3446865	1.5312369
16.01013921736862	2.3542204	1.5343469
16.02783862215259	2.3952022	1.547644
16.045538411830933	2.4176028	1.5548643
16.06323858685107	2.3681755	1.5388877
16.080939147660512	2.3281574	1.52583
16.09864009470684	2.330935	1.52674
16.11634142843774	2.3874753	1.5451458
16.134043149300954	2.379256	1.5424837
16.15174525774433	2.3806453	1.542934
16.169447754215817	2.3944845	1.5474122
16.18715063916342	2.428532	1.5583748
16.204853913035244	2.416008	1.5543513
16.222557576279478	2.4345064	1.5602905
16.240261629344403	22.436419	4.7367096
16.257966072678386	43.042194	6.560655
16.275670906729868	38.163555	6.1776657
16.293376131947387	2.545881	1.5955818
16.31108174877957	2.5144556	1.5857035
16.328787757675133	2.5094087	1.5841113
16.34649415908287	2.5483477	1.5963545
16.364200953451657	2.596277	1.6112967
16.38190814123048	2.6181116	1.618058
16.39961572286839	2.6160173	1.6174107
16.41732369881455	2.6296427	1.6216173
16.43503206951817	2.6584997	1.6304907
16.45274083542859	2.748317	1.6578048
16.47044999699522	2.7831864	1.6682885
16.488159554667558	2.8097925	1.6762435
16.505869508895184	2.8664832	1.6930692
16.523579860127786	2.9265637	1.7107202
16.541290608815117	2.9417453	1.7151517
16.559001755407035	2.9771683	1.7254473
16.57671330035348	3.0192018	1.7375851
16.59442524410448	3.106939	1.7626512
16.61213758711015	3.2110403	1.7919376
16.629850329820705	3.2652788	1.8070083
16.647563472686436	3.3366816	1.8266586
16.665277016157724	3.3825104	1.8391602
16.682990960685053	3.423995	1.850404
16.70070530671898	3.4684927	1.862389
16.718420054710155	3.4745183	1.8640059
16.736135205109335	3.4905465	1.8683004
16.753850758367335	3.5412505	1.881821
16.771566714935087	3.6182418	1.9021677
16.789283075263597	3.6733203	1.9165908
16.80699983980398	3.7307115	1.931505
16.82471700900741	3.7598534	1.9390341
16.84243458332518	3.8244684	1.9556248
16.860152563208665	3.9031746	1.9756454
16.87787094910932	4.0011797	2.000295
16.89558974147871	4.116484	2.028912
16.913308940768466	4.2068906	2.0510707
16.931028547430333	4.2834115	2.0696404
16.94874856191613	4.3274775	2.080259
16.966468984677785	4.3820214	2.0933278
16.98418981616729	4.460493	2.1119878
17.00191105683676	4.4748225	2.1153777
17.019632707138374	4.512538	2.1242735
17.03735476752442	4.542877	2.1314027
17.05507723844728	4.5946712	2.1435184
17.072800120359403	4.6587157	2.1584058
17.090523413713353	4.6738563	2.1619103
17.108247118961785	4.7005672	2.1680791
17.125971236557437	4.643347	2.1548426
17.143695766953133	4.620806	2.149606
17.161420710601806	4.6242766	2.150413
17.179146067956477	4.6280103	2.151281
17.19687183947025	4.618851	2.1491513
17.21459802559634	4.599335	2.144606
17.232324626788028	4.6297927	2.1516953
17.25005164349871	4.6607537	2.1588778
17.267779076181863	4.674158	2.1619802
17.285506925291074	4.663786	2.15958
17.30323519127999	4.642954	2.1547515
17.320963874602384	4.6162453	2.148545
17.33869297571211	4.5545044	2.1341286
17.356422495063114	4.543415	2.1315289
17.37415243310944	4.4944873	2.1200206
17.391882790305218	4.4954176	2.12024
17.40961356710468	4.479721	2.1165352
17.42734476396215	4.521501	2.126382
17.445076381332044	4.4997377	2.1212585
17.462808419668868	4.562413	2.1359806
17.48054087942723	4.6288	2.1514647
17.498273761061835	4.901913	2.2140265
17.51600706502747	5.3834186	2.3202195
17.533740791779024	6.1106577	2.4719744
17.551474941771485	7.5275784	2.7436433
17.56920951545993	8.6519785	2.9414246
17.586944513299528	10.887417	3.2996087
17.60467993574556	12.52777	3.539459
17.622415783253373	14.127411	3.7586448
17.64015205627843	15.513115	3.9386692
17.657888755276293	16.662472	4.0819693
17.675625880702604	17.301695	4.1595306
17.69336343301311	17.17428	4.1441865
17.71110141266366	16.308022	4.038319
17.728839820110178	15.243266	3.9042625
17.746578655808705	14.234162	3.7728188
17.764317920215372	12.813982	3.5796623
17.7820576137864	11.320683	3.364622
17.79979773697811	9.328756	3.0543013
17.81753829024692	7.4762597	2.734275
17.835279274049356	5.8794627	2.4247603
17.85302068884201	4.9072576	2.215233
17.870762535081607	4.2658253	2.0653875
17.888504813224934	3.9461298	1.9864868
17.90624752372891	3.7215145	1.9291227
17.923990667050536	3.6057806	1.8988893
17.941734243646895	3.5167828	1.8753088
17.959478253975185	3.4513485	1.8577806
17.9772226984927	3.409488	1.8464799
17.994967577656833	3.3820195	1.8390268
18.01271289192506	3.354882	1.8316337
18.030458641754965	3.3200405	1.8220978
18.04820482760425	3.3162851	1.821067
18.06595144993067	3.3098416	1.8192971
18.083698509192125	3.3037145	1.8176123
18.101446005846576	3.2349753	1.7986038
18.119193940352105	3.1999156	1.7888308
18.136942313166887	3.1911345	1.7863747
18.1546911247492	3.1768417	1.7823697
18.1724403755574	3.1236749	1.7673922
18.19019006604997	3.1275263	1.7684814
18.207940196685467	3.1592329	1.7774231
18.225690767922575	3.1552172	1.776293
18.243441780220046	3.1402965	1.7720882
18.261193234036764	3.1307652	1.7693969
18.278945129831676	3.0842586	1.7562057
18.29669746806386	3.0293581	1.7405051
18.314450249192483	3.0076945	1.7342706
18.3322034736768	3.0406427	1.7437439
18.349957141976184	3.0612118	1.7496319
18.3677112545501	3.0885856	1.7574372
18.385465811858108	3.1082656	1.7630274
18.403220814359884	3.11321	1.7644291
18.420976262515172	3.095325	1.7593535
18.43873215678387	3.0543678	1.747675
18.456488497625923	3.117316	1.7655922
18.474245285501407	3.253462	1.8037356
18.492002520870486	3.2944653	1.8150662
18.50976020419343	3.3530295	1.8311279
18.527518335930615	3.5871482	1.8939768
18.545276916542516	4.181949	2.0449815
18.563035946489688	4.36605	2.0895095
18.580795426232832	4.852391	2.2028143
18.598555356232698	4.7345214	2.1758955
18.616315736950185	5.033421	2.2435286
18.63407656884626	4.7197456	2.1724975
18.65183785238201	4.981522	2.2319324
18.669599588018617	4.78272	2.186943
18.68736177621737	4.7577767	2.181233
18.705124417439652	4.6617875	2.1591172
18.72288751214696	4.4652395	2.1131113
18.740651060800886	4.583885	2.141001
18.758415063863115	4.29991	2.0736225
18.77617952179546	4.471165	2.114513
18.793944435059814	4.2511687	2.0618362
18.811709804118184	4.2851553	2.0700617
18.829475629432675	4.2280197	2.0562148
18.8472419114655	3.9890523	1.9972612
18.86500865067897	4.026576	2.006633
18.88277584753551	3.7215774	1.929139
18.90054350249763	3.8003523	1.9494492
18.918311616027957	3.496189	1.8698099
18.936080188589226	3.3396962	1.8274835
18.953849220644265	2.9850788	1.727738
18.971618712656007	2.8361177	1.6840777
18.9893886650875	2.811948	1.6768864
19.007159078401887	8.013663	2.8308415
19.024929953062408	32.919735	5.737572
19.042701289532435	32.87703	5.7338495
19.060473088275405	25.355518	5.035426
19.07824534975489	2.6113114	1.6159552
19.096018074434568	2.5899763	1.6093403
19.113791262778197	2.5885108	1.6088849
19.13156491524966	2.5712142	1.6035006
19.149339032312945	2.54932	1.5966591
19.167113614432136	2.5432622	1.5947609
19.184888662071433	2.5300617	1.5906168
19.202664175695123	2.5337832	1.5917861
19.220440155767623	2.5578651	1.5993327
19.238216602753447	2.559551	1.5998597
19.2559935171172	2.5720522	1.6037619
19.27377089932361	2.5818558	1.6068155
19.291548749837514	2.5861545	1.6081525
19.309327069123835	2.518473	1.5869697
19.32710585764763	2.4868777	1.5769837
19.344885115874032	2.4787016	1.5743892
19.362664844268313	2.4913967	1.5784159
19.380445043295822	2.4938893	1.5792053
19.39822571342203	2.4948545	1.5795108
19.41600685511252	2.467681	1.5708854
19.43378846883297	2.4455261	1.5638179
19.451570555049173	2.4261036	1.5575955
19.469353114227037	2.4458838	1.5639322
19.48713614683254	2.4376872	1.5613095
19.50491965333182	2.4682915	1.5710797
19.52270363419109	2.5219276	1.5880578
19.540488089876686	2.504059	1.5824219
19.55827302085503	2.4335184	1.5599738
19.576058427592674	2.4086998	1.5519986
19.593844310556282	2.4477658	1.5645337
19.611630670212598	2.4865642	1.5768843
19.629417507028506	2.5000434	1.5811526
19.64720482147098	2.4905164	1.578137
19.6649926140071	2.4621859	1.5691354
19.682780885104084	2.493962	1.5792283
19.70056963522921	2.4550722	1.566867
19.718358864849908	2.4671392	1.5707129
19.7361485744337	2.481009	1.5751219
19.753938764448215	2.5022295	1.5818437
19.771729435361202	2.4725053	1.5724202
19.789520587640506	2.4834075	1.575883
19.807312221754092	2.4996672	1.5810336
19.825104338170043	2.5149877	1.5858712
19.842896937356517	2.4652395	1.5701082
19.860690019781824	2.4391305	1.5617716
19.87848358591436	2.4474251	1.5644249
19.896277636222635	2.4904888	1.5781282
19.914072171175278	2.532322	1.5913271
19.931867191241015	2.544732	1.5952216
19.94966269688869	2.526896	1.5896213
19.967458688587264	2.4832532	1.5758342
19.985255166805807	2.464223	1.5697844
20.00305213201348	2.4601223	1.5684777
20.020849584679578	2.458602	1.5679929
20.038647525273507	2.459704	1.5683444
20.05644595426477	2.4260142	1.5575668
20.07424487212299	2.3994179	1.5490054
20.092044279317903	2.3575459	1.5354302
20.109844176319353	2.3187344	1.5227392
20.127644563597304	2.3445685	1.5311984
20.145445441621817	2.3861525	1.5447177
20.16324681086307	2.406185	1.5511882
20.181048671791373	2.3993402	1.5489804
20.198851024877122	2.4205012	1.555796
20.216653870590836	2.4270225	1.5578904
20.234457209403146	2.40848	1.5519278
20.252261041784802	2.4009368	1.5494957
20.270065368206662	2.4081388	1.5518179
20.287870189139685	2.398242	1.5486258
20.305675505054968	2.4122136	1.5531303
20.323481316423702	2.4126465	1.5532696
20.341287623717207	2.422927	1.5565754
20.359094427406884	2.392001	1.5466095
20.376901727964288	2.3708012	1.5397407
20.39470952586107	2.3841138	1.5440576
20.41251782156899	2.3687925	1.5390882
20.430326615559935	2.326741	1.5253658
20.448135908305886	2.3165026	1.5220062
20.465945700278965	2.3263621	1.5252416
20.483755991951384	2.337326	1.5288316
20.50156678379548	2.329279	1.5261976
20.519378076283708	2.339026	1.5293875
20.537189869888635	2.3273826	1.5255761
20.55500216508294	2.318159	1.5225502
20.572814962339415	2.3229785	1.524132
20.59062826213098	2.337229	1.5287999
20.60844206493066	2.3269486	1.5254339
20.626256371211593	2.3372555	1.5288085
20.644071181447032	2.3798282	1.5426692
20.66188649611036	2.3923306	1.5467161
20.67970231567506	2.3581722	1.5356342
20.697518640614742	2.3223524	1.5239266
20.715335471403122	2.2926764	1.5141586
20.73315280851404	2.2960906	1.5152856
20.750970652421447	2.2978404	1.515863
20.768789003599412	2.3156333	1.5217205
20.786607862522136	2.320928	1.5234592
20.8044272296639	2.3402672	1.5297931
20.82224710549913	2.3294444	1.5262518
20.84006749050237	2.3084738	1.5193663
20.857888385148268	3.858762	1.9643732
20.8757097899116	45.97581	6.7805467
20.893531705267254	64.820015	8.051087
20.911354131690224	83.83862	9.156343
20.92917706965566	69.124916	8.314139
20.94700051963877	50.200584	7.085237
20.96482448211493	29.427689	5.4247293
20.982648957559622	4.123365	2.030607
21.00047394644843	2.218111	1.4893324
21.01829944925707	2.2435808	1.4978588
21.036125466461375	2.241716	1.4972361
21.053951998537297	2.2291038	1.4930184
21.071779045960906	2.2348807	1.4949517
21.089606609208378	2.255136	1.501711
21.10743468875603	2.2583969	1.5027963
21.12526328508028	2.2760215	1.5086489
21.143092398657675	2.2888012	1.5128784
21.16092202996488	2.246549	1.4988492
21.17875217947867	2.2166293	1.4888349
21.19658284767596	2.248998	1.499666
21.21441403503377	2.2559736	1.5019898
21.232245742029225	2.203157	1.4843035
21.2500779691396	2.1725366	1.4739528
21.26791071684227	2.171625	1.4736434
21.28574398561475	2.1770747	1.4754913
21.30357777593465	2.1531005	1.4673448
21.321412088279704	2.159329	1.4694655
21.339246923127792	2.1533792	1.4674397
21.357082280956888	2.1531298	1.4673547
21.3749181622451	2.166024	1.4717418
21.392754567470647	2.1638713	1.4710103
21.41059149711187	2.1567018	1.4685713
21.42842895164726	2.110026	1.4525928
21.446266931555378	2.1057377	1.451116
21.464105437314945	2.1025326	1.4500113
21.481944469404798	2.099223	1.4488695
21.49978402830388	2.0634322	1.4364651
21.51762411449127	2.0671546	1.4377602
21.53546472844617	2.0789914	1.4418708
21.553305870647876	2.083163	1.4433167
21.571147541575865	2.0980082	1.4484502
21.58898974170967	2.1052608	1.4509517
21.60683247152899	2.1063716	1.4513345
21.62467573151363	2.0882545	1.4450794
21.642519522143523	2.0619323	1.435943
21.660363843898722	2.027473	1.4238936
21.6782086972594	2.054291	1.4332798
21.696054082705864	2.035337	1.4266523
21.713900000718535	2.0108624	1.4180487
21.73174645177795	2.0109432	1.4180772
21.749593436364794	2.0370998	1.42727
21.767440954959845	2.0504384	1.4319352
21.785289008044032	2.0067117	1.4165845
21.803137596098388	1.9608059	1.4002877
21.820986719604086	1.9604397	1.400157
21.838836379042412	1.9936596	1.4119701
21.85668657489478	2.0026903	1.4151645
21.87453730764273	2.0071206	1.4167289
21.892388577767914	1.9718299	1.4042186
21.91024038575213	1.9727815	1.4045575
21.928092732077285	1.9518466	1.3970851
21.945945617225426	1.9572315	1.3990109
21.963799041678694	1.9605174	1.4001848
21.981653005919398	31.295633	5.59425
21.999507510429943	78.08688	8.8366785
22.01736255569286	73.02956	8.545733
22.035218142190818	4.1018977	2.0253143
22.05307427040661	1.9301908	1.3893131
22.07093094082315	1.9710093	1.4039264
22.088788153923474	2.009619	1.4176103
22.106645910190746	1.9993219	1.4139738
22.12450421010827	1.9966711	1.4130361
22.142363054159464	2.0095181	1.4175748
22.16022244282787	1.9975505	1.4133472
22.178082376597164	1.9861768	1.4093179
22.195942855951145	1.9534289	1.3976512
22.213803881373742	1.9425999	1.3937718
22.231665453349002	1.938348	1.3922457
22.24952757236111	1.9789509	1.4067519
22.26739023889438	1.9737122	1.4048886
22.28525345343323	1.9680632	1.4028767
22.30311721646225	1.9727244	1.4045371
22.320981528466113	1.9643508	1.401553
22.33884638992964	1.9846668	1.408782
22.356711801337788	1.9774429	1.4062158
22.37457776317561	2.01845	1.4207217
22.392444275928337	2.0297155	1.4246808
22.410311340081282	2.0160358	1.4198718
22.428178956119904	1.97541	1.4054928
22.446047124529805	1.9606673	1.4002383
22.46391584579669	2.0008066	1.4144987
22.481785120406414	2.005048	1.4159971
22.49965494884496	2.0394602	1.4280967
22.51752533159841	2.0381584	1.4276409
22.53539626915302	2.0199978	1.4212663
22.553267761995137	1.9895625	1.4105185
22.571139810611264	1.9568334	1.3988686
22.589012415488025	1.9586511	1.3995181
22.60688557711216	1.9763181	1.4058158
22.624759295970566	1.9932983	1.4118421
22.642633572550263	1.9686044	1.4030696
22.660508407338362	1.9480166	1.3957137
22.67838380082217	1.9151525	1.3838904
22.696259753489077	1.9306816	1.3894897
22.714136265826614	1.9228348	1.3866632
22.73201333832246	1.946423	1.3951427
22.74989097146439	1.9438545	1.3942218
22.76776916574035	1.9148184	1.3837696
22.785647921638393	1.8967332	1.3772193
22.803527239646712	1.8866733	1.3735623
22.82140712025363	1.9012866	1.3788714
22.839287563947593	1.8742287	1.3690248
22.85716857121719	1.8662056	1.3660914
22.875050142551135	1.88605	1.3733354
22.892932278438277	1.8902255	1.3748547
22.910814979367604	1.905103	1.3802546
22.928698245828222	1.9245238	1.3872721
22.946582078309387	1.9056305	1.3804457
22.96446647730047	1.8814744	1.3716685
22.98235144329098	1.894854	1.376537
23.000236976770562	1.9177444	1.3848265
23.018123078229	1.9179198	1.3848898
23.03600974815619	1.8841646	1.3726487
23.053896987042194	1.8605002	1.3640015
23.071784795377173	1.8554242	1.3621396
23.08967317365145	1.8676512	1.3666204
23.10756212235546	1.8778962	1.3703635
23.125451641979787	1.8799189	1.3711014
23.143341733015134	1.9307775	1.3895242
23.161232395952357	1.9501927	1.396493
23.179123631282426	1.962967	1.4010593
23.197015439496468	1.9272951	1.3882705
23.214907821085717	1.9114239	1.3825426
23.23280077654157	1.904965	1.3802047
23.250694306355538	1.9313964	1.3897469
23.268588411019277	1.9235792	1.3869315
23.28648309102458	1.9355931	1.391256
23.304378346863356	1.9279882	1.3885201
23.322274179027676	1.927077	1.388192
23.340170588009723	1.9134042	1.3832586
23.358067574301852	1.9366504	1.3916359
23.37596513839651	1.9553627	1.3983428
23.39386328078629	1.9456171	1.3948538
23.411762001963947	1.9613183	1.4004707
23.429661302422353	1.979934	1.4071013
23.4475611826545	1.9701056	1.4036045
23.46546164315356	1.9388213	1.3924156
23.48336268441279	1.9204158	1.3857907
23.501264306925638	1.903282	1.3795949
23.51916651118564	1.917936	1.3848957
23.537069297686497	1.9520969	1.3971746
23.554972666922037	1.957198	1.398999
23.57287661938623	1.9182172	1.3849971
23.59078115557318	1.8607168	1.3640809
23.608686275977128	1.8490342	1.359792
23.62659198109246	1.8729233	1.3685479
23.6444982714137	1.8648728	1.3656034
23.66240514743549	1.8922316	1.3755841
23.68031260965263	1.9103373	1.3821496
23.698220658560068	1.9379023	1.3920856
23.716129294652845	1.9103242	1.3821448
23.7340385184262	1.8838495	1.3725339
23.75194833037546	1.864146	1.3653374
23.769858730996123	1.8865895	1.3735318
23.78776972078382	1.8960624	1.3769758
23.80568130023431	1.8975972	1.377533
23.823593469843495	1.8938597	1.3761758
23.841506230107424	1.9060172	1.3805858
23.859419581522275	1.8914461	1.3752985
23.87733352458438	1.9106655	1.3822682
23.89524805979019	1.910491	1.3822051
23.913163187636318	1.8902426	1.3748609
23.931078908619508	1.9036634	1.3797331
23.948995223236633	1.947736	1.3956132
23.966912131984735	1.9592502	1.3997322
23.98482963536096	2.0143416	1.419275
24.002747733862616	2.0434318	1.4294865
24.020666427987155	2.0727234	1.4396956
24.038585718232156	2.043627	1.4295548
24.056505605095353	2.0507407	1.4320408
24.074426089074617	2.0430088	1.4293386
24.092347170667946	2.0562422	1.4339603
24.110268850373515	2.0472777	1.4308311
24.128191128689586	2.0444043	1.4298266
24.146114006114626	2.060139	1.4353185
24.164037483147187	2.128163	1.4588225
24.181961560286005	2.1496775	1.4661778
24.199886238029926	2.1187363	1.455588
24.21781151687797	2.08746	1.4448045
24.235737397329274	2.0554774	1.4336936
24.253663879883135	2.0110595	1.4181184
24.271590965038975	2.0103014	1.417851
24.289518653296376	2.0397003	1.4281808
24.30744694515505	2.0800862	1.4422504
24.32537584111486	2.0496633	1.4316645
24.34330534167581	1.9873569	1.4097365
24.361235447338046	1.9962572	1.4128896
24.379166158601876	1.9883852	1.4101012
24.39709747596772	1.977346	1.4061813
24.41502939993615	1.9515194	1.3969679
24.432961931007917	1.9695182	1.4033952
24.450895069683856	1.9985362	1.4136959
24.468828816465	1.9709749	1.4039141
24.4867631718525	1.952243	1.3972269
24.504698136347656	1.9606887	1.4002459
24.52263371045192	1.9717207	1.4041797
24.540569894666874	1.9860617	1.409277
24.558506689494266	1.9799823	1.4071184
24.57644409543597	1.9800491	1.4071422
24.594382112994012	1.9775144	1.4062412
24.61232074267057	1.9688574	1.4031597
24.630259984967953	1.9440053	1.3942759
24.64819984038863	1.9247782	1.3873638
24.66614030943522	1.9327325	1.3902274
24.684081392610462	1.934157	1.3907397
24.702023090417274	1.989674	1.410558
24.7199654033587	2.0270815	1.4237561
24.737908331937927	2.0136003	1.4190139
24.755851876658305	1.9720311	1.4042902
24.773796038023324	1.9859686	1.409244
24.79174081653661	2.0546987	1.433422
24.809686212701962	2.0496712	1.4316673
24.827632227023294	2.0486996	1.4313279
24.8455788600047	2.0423799	1.4291185
24.8635261121504	2.0921109	1.4464132
24.88147398396475	2.1439133	1.4642107
24.899422475952303	2.1757576	1.475045
24.917371588617698	2.1553915	1.4681251
24.935321322465768	2.1699252	1.4730666
24.953271678001478	2.2667975	1.5055888
24.97122265572994	2.4647567	1.5699544
24.989174256156414	2.749757	1.6582391
25.00712647978632	3.1333234	1.7701197
25.02507932712521	3.692418	1.9215666
25.043032798678798	4.312148	2.0765712
25.060986894952933	5.0460777	2.2463477
25.078941616453637	5.7917924	2.4066143
25.096896963687055	6.816453	2.610834
25.114852937159508	8.036696	2.8349068
25.132809537377444	8.511851	2.9175076
25.150766764847468	8.454313	2.9076302
25.168724620076347	7.8079405	2.7942693
25.186683103570985	6.735562	2.5952961
25.204642215838426	5.56682	2.359411
25.222601957385894	4.191489	2.0473127
25.24056232872074	3.1852403	1.7847241
25.25852333035048	2.5799084	1.6062093
25.276484962782778	2.240339	1.4967762
25.294447226525435	2.0072627	1.416779
25.312410122086423	1.9144114	1.3836225
25.330373649973843	1.8547009	1.3618741
25.348337810695988	1.8678602	1.3666968
25.366302604761245	1.9267354	1.3880689
25.384268032678207	1.9900607	1.4106951
25.40223409495558	1.966772	1.4024165
25.420200792102257	1.910296	1.3821346
25.438168124627246	1.9151721	1.3838974
25.45613609303974	1.8965576	1.3771557
25.474104697849057	1.865311	1.3657639
25.492073939564698	1.853003	1.3612505
25.510043818696285	1.833196	1.3539557
25.528014335753614	1.8690276	1.3671238
25.54598549124664	1.8959593	1.3769383
25.56395728568544	1.9084281	1.3814586
25.58192971958028	1.8462573	1.3587705
25.59990279344156	1.8532884	1.3613553
25.617876507779833	1.8876837	1.3739301
25.635850863105826	1.864562	1.3654897
25.653825859930386	1.841716	1.3570983
25.671801498764548	1.825172	1.3509892
25.68977778011949	1.8620613	1.3645736
25.707754704506524	1.8695949	1.3673313
25.725732272437153	1.893334	1.3759848
25.743710484423012	1.8557299	1.3622518
25.761689340975888	1.843704	1.3578306
25.77966884260774	1.8148931	1.3471797
25.797648989830662	1.8329786	1.3538754
25.815629783156922	1.8456249	1.3585378
25.83361122309895	1.84486	1.3582562
25.85159331016929	1.8541324	1.3616654
25.869576044880695	1.8413093	1.3569485
25.887559427746034	1.8144176	1.3470032
25.90554345927836	1.7654995	1.328721
25.92352813999086	1.7861218	1.3364587
25.94151347039689	1.8287854	1.3523259
25.959499451009965	1.8429692	1.35756
25.97748608234374	1.821139	1.3494958
25.995473364912062	1.8012686	1.3421135
26.013461299228904	1.8276211	1.3518953
26.03144988580839	1.8568261	1.3626541
26.04943912516483	1.8468765	1.3589983
26.067429017812675	1.8181784	1.3483984
26.085419564266537	1.7862709	1.3365145
26.103410765041186	1.7768129	1.3329715
26.12140262065155	1.8382047	1.3558041
26.139395131612723	1.8620976	1.364587
26.157388298439948	1.8484107	1.3595628
26.17538212164861	1.8178906	1.3482918
26.193376601754295	1.8279462	1.3520156
26.211371739272714	1.8175292	1.3481578
26.229367534719746	1.7953382	1.3399023
26.247363988611433	1.7525954	1.3238562
26.26536110146397	1.8029613	1.342744
26.283358873793727	1.8178344	1.3482709
26.301357306117204	1.7986299	1.34113
26.319356398951104	1.7587472	1.3261777
26.33735615281224	1.7810926	1.3345758
26.35535656821762	1.7792155	1.3338723
26.373357645684404	1.7786885	1.3336748
26.39135938572991	1.7998852	1.341598
26.409361788871614	1.8289614	1.352391
26.427364855627165	1.8692673	1.3672116
26.445368586514352	1.8557669	1.3622653
26.46337298205115	1.8134348	1.3466383
26.48137804275568	1.8202454	1.3491647
26.499383769146217	1.887413	1.3738315
26.517390161741215	1.9195473	1.3854773
26.53539722105928	1.8456028	1.3585297
26.553404947619182	1.8105701	1.3455743
26.571413341939856	1.8447996	1.358234
26.589422404540397	1.8461796	1.3587419
26.60743213594006	1.7915565	1.3384904
26.62544253665827	1.7431631	1.320289
26.64345360721459	1.7715871	1.3310099
26.66146534812879	1.7916534	1.3385266
26.679477759920758	1.8058711	1.343827
26.69749084311057	1.8180751	1.3483602
26.71550459821847	1.8065054	1.344063
26.733519025764842	1.7853583	1.336173
26.751534126270258	1.7888486	1.3374785
26.769549900255434	1.7944844	1.3395836
26.787566348241267	1.7698859	1.3303705
26.80558347074881	1.7257913	1.3136938
26.823601268299267	1.771355	1.3309226
26.841619741414036	1.7910895	1.338316
26.85963889061465	1.7860442	1.3364297
26.877658716422832	1.7659409	1.3288871
26.89567921936045	1.7756114	1.3325207
26.913700399949544	1.80965	1.3452322
26.93172225871233	1.8283436	1.3521626
26.949744796171174	1.8364664	1.3551629
26.967768012848605	1.8338475	1.3541963
26.98579190926733	1.8021327	1.3424354
27.003816485950225	1.7674004	1.3294361
27.021841743420318	1.8092811	1.3450952
27.039867682200814	1.8212106	1.3495224
27.057894302815072	1.7847731	1.335954
27.07592160578664	1.7355394	1.3173988
27.0939495916392	1.6846159	1.2979275
27.111978260896635	1.6936775	1.3014137
27.13000761408296	1.7046498	1.3056223
27.148037651722397	1.7206836	1.3117483
27.166068374339304	1.747039	1.321756
27.184099782458215	1.7776538	1.3332869
27.20213187660384	1.8475676	1.3592526
27.22016465730105	1.8367183	1.3552558
27.23819812507487	1.8197187	1.3489695
27.256232280450533	1.82558	1.3511403
27.274267123953383	1.8287715	1.3523208
27.292302656108987	1.854437	1.3617772
27.31033887744306	1.8286985	1.3522938
27.32837578848146	1.7622217	1.327487
27.34641338975026	1.7467389	1.3216425
27.364451681775673	1.7861516	1.3364699
27.382490665084074	1.809883	1.3453189
27.400530340202046	1.822067	1.3498397
27.41857070765629	1.8041701	1.343194
27.436611767973726	1.7606428	1.3268921
27.454653521681404	1.7458495	1.321306
27.472695969306564	1.7711853	1.3308588
27.490739111376627	1.7850189	1.336046
27.508782948419153	1.7886331	1.3373979
27.526827480961902	1.7991747	1.3413332
27.54487270953279	1.8187461	1.348609
27.562918634659898	1.8348888	1.3545806
27.580965256871508	1.8494699	1.3599522
27.599012576696026	1.8376498	1.3555994
27.617060594662068	1.8159002	1.3475534
27.63510931129842	1.8281704	1.3520985
27.65315872713401	1.8454844	1.358486
27.67120884269797	1.8971708	1.3773782
27.68925965851958	1.8988544	1.3779893
27.707311175128307	1.8791221	1.3708107
27.725363393053787	1.8673255	1.3665012
27.74341631282583	1.8896048	1.374629
27.7614699349744	1.8697144	1.367375
27.77952426002968	2.030345	1.4249017
27.797579288521973	2.075751	1.4407467
27.815635020981784	2.504365	1.5825186
27.83369145793979	2.6022592	1.6131519
27.85174859992682	2.4554517	1.5669881
27.869806447473923	2.2757454	1.5085574
27.887865001112267	2.004419	1.4157751
27.905924261373233	1.9368857	1.3917204
27.92398422878836	1.9156935	1.3840858
27.94204490388936	1.8943686	1.3763607
27.96010628720813	1.8895947	1.3746253
27.978168379276728	1.8937577	1.3761387
27.9962311806274	1.8918389	1.3754413
28.014294691792568	1.8500638	1.3601705
28.0323589133048	1.813568	1.3466878
28.050423845696887	1.8146356	1.3470842
28.068489489501758	1.8550484	1.3620017
28.086555845252523	1.8950459	1.3766067
28.104622913482487	1.8912592	1.3752306
28.122690694725115	1.8540995	1.3616532
28.14075918951405	1.8518821	1.3608388
28.15882839838312	1.8634316	1.3650757
28.176898321866304	1.8461906	1.3587459
28.1949689604978	1.8402613	1.3565624
28.213040314811945	1.9195044	1.3854618
28.23111238534327	1.9573933	1.3990687
28.249185172626493	1.9240329	1.3870951
28.267258677196473	1.9137176	1.3833718
28.285332899588294	1.9797682	1.4070424
28.303407840337172	1.9706656	1.403804
28.321483499978545	1.9182768	1.3850187
28.33955987904799	1.8777415	1.3703071
28.357636978081285	1.8711065	1.3678839
28.37571479761439	1.879895	1.3710927
28.393793338183425	1.8978235	1.3776151
28.41187260032469	1.9136233	1.3833377
28.429952584574686	1.9313681	1.3897367
28.448033291470065	1.9359379	1.3913798
28.46611472154769	1.9457563	1.3949037
28.484196875344566	1.9059736	1.38057
28.502279753397914	1.9177386	1.3848244
28.52036335624511	1.958673	1.399526
28.538447684423716	1.995181	1.4125087
28.556532738471482	2.0543637	1.4333051
28.574618518926325	2.0602086	1.4353427
28.59270502632635	2.0006301	1.4144363
28.61079226120985	1.9331961	1.3903942
28.628880224115274	1.9225628	1.3865651
28.646968915581287	1.9848119	1.4088335
28.66505833614671	2.0615327	1.4358039
28.68314848635055	2.117997	1.455334
28.701239366732004	2.1320434	1.4601518
28.71933097783044	2.14104	1.4632293
28.737423320185403	2.129687	1.4593447
28.75551639433665	2.074996	1.4404846
28.773610200824074	2.083013	1.4432647
28.791704740187793	2.1187687	1.4555991
28.80980001296809	2.1627517	1.4706297
28.827896019705413	2.1837485	1.4777511
28.845992760940433	2.1707056	1.4733315
28.86409023721397	2.1613438	1.470151
28.88218844906704	2.2067645	1.4855182
28.900287397040845	2.2159557	1.4886086
28.918387081676755	2.220993	1.4902997
28.936487503516343	2.2159154	1.4885951
28.954588663101365	2.2661273	1.5053662
28.97269056097374	2.3121054	1.5205609
28.990793197675597	2.3647435	1.5377723
29.00889657374923	2.3471246	1.5320328
29.027000689737125	2.2989173	1.5162181
29.04510554618196	2.334945	1.5280527
29.06321114362659	2.3832216	1.5437686
29.08131748261405	2.4654078	1.5701617
29.099424563687567	2.4809813	1.5751132
29.11753238739057	2.4970257	1.580198
29.13564095426663	2.4942148	1.5793083
29.15375026485954	2.5128934	1.5852108
29.171860319713275	2.5418913	1.594331
29.18997111937199	2.6166031	1.6175917
29.20808266438002	2.6829867	1.6379825
29.226194955281898	2.6941252	1.641379
29.244307992622335	2.7450953	1.6568329
29.26242177694624	2.8580542	1.6905781
29.2805363087987	2.9344375	1.71302
29.29865158872498	2.9115915	1.7063386
29.316767617270557	2.8735237	1.6951472
29.334884394981064	2.967006	1.7225
29.353001922402367	3.0135698	1.7359637
29.37112020008047	3.0512228	1.746775
29.389239228561596	3.1455197	1.7735614
29.407359008392152	3.365113	1.8344245
29.42547954011872	3.6802905	1.9184083
29.44360082428809	4.2522955	2.0621095
29.46172286144722	5.323777	2.307331
29.479845652143283	6.8325267	2.6139102
29.497969196923606	8.929375	2.988206
29.516093496335728	11.477476	3.3878424
29.5342185509274	14.478833	3.8051062
29.55234436124651	16.958723	4.118097
29.570470927841175	18.093155	4.253605
29.588598251259686	17.714563	4.208867
29.60672633205055	16.488688	4.0606265
29.624855170762405	14.524604	3.8111157
29.642984767944146	11.783044	3.432644
29.66111512414481	9.02675	3.0044549
29.67924623991366	6.716415	2.5916047
29.697378115800138	5.1479135	2.2689013
29.71551075235387	4.155275	2.038449
29.733644150124675	3.6615524	1.9135183
29.751778309662576	3.4923573	1.868785
29.769913231517766	3.460025	1.8601142
29.78804891624066	3.4338934	1.8530767
29.806185364381818	3.4122212	1.8472198
29.82432257649206	3.4003642	1.8440076
29.842460553122333	3.3107624	1.81955
29.86059929482382	3.2474666	1.8020729
29.878738802147872	3.2309914	1.7974958
29.896879075646048	3.2285345	1.7968123
29.915020115870114	3.2462122	1.8017248
29.933161923371976	3.280809	1.8113004
29.951304498703777	3.2709599	1.8085796
29.969447842417857	3.212553	1.7923596
29.987591955066733	3.1589048	1.7773308
30.005736837203123	3.1595802	1.7775208
30.023882489379943	3.1798134	1.7832031
30.04202891215028	3.156923	1.7767732
30.060176106067455	3.193619	1.7870699
30.078324071684946	3.1250327	1.7677763
30.09647280955646	3.0464764	1.7454158
30.114622320235863	3.0433912	1.7445318
30.132772604277257	3.0892668	1.7576311
30.1509236622349	3.075707	1.7537694
30.16907549466328	3.046901	1.7455374
30.18722810211705	3.0725615	1.7528723
30.205381485151097	3.127824	1.7685655
30.22353564432045	3.0844686	1.7562655
30.241690580180403	2.9905536	1.7293217
30.25984629328638	2.9047897	1.7043444
30.278002784194037	2.9604428	1.7205937
30.296160053459246	2.98751	1.7284415
30.314318101638033	2.9957156	1.7308136
30.332476929286646	2.9904556	1.7292933
30.35063653696153	3.000783	1.7322768
30.368796925219307	2.9840539	1.7274414
30.386958094616844	2.8987803	1.7025805
30.40512004571115	2.8891084	1.6997378
30.423282779059463	2.8853438	1.69863
30.441446295219233	2.83047	1.6824001
30.459610594748067	2.763857	1.6624851
30.47777567820382	2.7172315	1.6484027
30.495941546144504	2.7519634	1.6589043
30.51410819912835	2.8588066	1.6908005
30.532275637713795	2.8639634	1.6923249
30.55044386245946	2.8479118	1.6875757
30.56861287392416	2.8219624	1.6798698
30.586782672666956	2.7868042	1.6693724
30.604953259247047	2.8499398	1.6881765
30.623124634223885	2.8589637	1.690847
30.641296798157075	2.787941	1.6697129
30.659469751606462	2.735871	1.6540469
30.677643495132074	2.7340996	1.6535113
30.695818029294152	2.8051918	1.6748706
30.713993354653116	2.8026302	1.6741058
30.73216947176962	2.753074	1.6592389
30.75034638120448	2.781673	1.6678348
30.768524083518756	2.7982776	1.6728053
30.786702579273673	2.794713	1.6717396
30.80488186903069	2.8086312	1.6758971
30.82306195335144	2.9109087	1.7061385
30.841242832797782	3.0910501	1.7581383
30.85942450793176	3.4040716	1.8450127
30.877606979315637	3.7485993	1.9361299
30.895790247511883	4.1652956	2.0409055
30.913974313083134	4.4966674	2.1205347
30.932159176592283	4.7893443	2.188457
30.95034483860237	4.887268	2.2107167
30.968531299676698	4.7007413	2.1681192
30.98671856037873	4.3151546	2.077295
31.00490662127215	3.9689553	1.9922237
31.023095482920848	3.5252693	1.87757
31.04128514588892	3.0951872	1.7593144
31.059475610740662	2.7780957	1.666762
31.07766687804056	2.5624774	1.6007739
31.09585894835335	2.4602225	1.5685096
31.11405182224393	2.4415708	1.5625527
31.132245500277417	2.4715908	1.5721294
31.15043998301914	2.494885	1.5795205
31.168635271034628	2.468214	1.571055
31.18683136488964	2.4959865	1.5798692
31.20502826515008	2.470411	1.5717541
31.223225972382135	2.421398	1.5560842
31.241424487152155	2.4078553	1.5517266
31.259623810026692	2.3817954	1.5433066
31.27782394157253	2.302188	1.5172962
31.296024882356644	2.279656	1.509853
31.314226632946237	2.3630235	1.5372128
31.332429193908684	2.4711287	1.5719824
31.350632565811598	2.5105624	1.5844754
31.368836749222787	2.4953802	1.5796772
31.387041744710295	2.5095773	1.5841645
31.40524755284232	2.5683725	1.6026143
31.423454174187317	2.5910816	1.6096838
31.441661609313922	2.539546	1.5935953
31.459869858791002	2.46069	1.5686587
31.478078923187628	2.3870308	1.5450019
31.496288803073064	2.3820639	1.5433936
31.514499499016807	2.3328857	1.5273787
31.532711011588546	2.26911	1.5063565
31.550923341358178	2.2372055	1.4957291
31.56913648889584	2.2653408	1.5051049
31.587350454771844	2.297395	1.515716
31.605565239556732	2.2410386	1.4970099
31.62378084382127	2.2015586	1.483765
31.641997268136382	2.2364957	1.4954919
31.660214513073274	2.247153	1.4990507
31.67843257920331	2.184776	1.4780988
31.6966514670981	2.2120237	1.4872874
31.71487117732944	2.2880702	1.5126368
31.733091710469346	2.3148646	1.5214679
31.751313067090052	2.2986143	1.5161182
31.769535247764008	2.291506	1.5137721
31.787758253063878	2.280877	1.5102572
31.805982083562526	2.2625139	1.5041655
31.824206739833024	2.292789	1.5141958
31.84243222244869	2.298213	1.5159858
31.860658531983013	2.2380087	1.4959975
31.878885669009737	2.2087233	1.4861774
31.897113634102784	2.1999965	1.4832385
31.91534242783632	2.180768	1.4767424
31.933572050784694	2.232782	1.4942496
31.951802503522508	2.291323	1.5137117
31.970033786624548	2.2663007	1.5054238
31.988265900665834	2.212629	1.4874909
32.006498846221575	2.094167	1.4471236
32.02473262386724	2.0685709	1.4382527
32.04296723417845	2.1993473	1.4830196
32.0612026777311	2.277988	1.5093005
32.07943895510129	2.2091808	1.4863313
32.097676066865304	2.1460617	1.4649442
32.115914013599685	2.1680102	1.4724165
32.13415279588115	2.110969	1.4529175
32.152392414286666	2.0504284	1.4319317
32.1706328693934	2.0583155	1.4346831
32.18887416177875	2.077065	1.4412026
32.20711629202032	2.0876946	1.4448857
32.225359260695924	2.0910711	1.4460536
32.243603068383614	2.08625	1.4443856
32.26184771566166	2.0535002	1.4330039
32.28009320310852	2.0838456	1.4435531
32.2983395313029	2.1260056	1.4580829
32.31658670082372	2.2056735	1.4851509
32.33483471225012	2.2256112	1.4918482
32.35308356616143	2.2235665	1.4911628
32.371333263137245	2.1573663	1.4687976
32.38958380375734	2.2241797	1.4913684
32.407835188601744	2.21577	1.4885463
32.42608741825067	2.116431	1.4547958
32.444340493284585	2.0723767	1.4395752
32.46259441428416	2.0800068	1.4422228
32.48084918183028	2.1205988	1.4562275
32.49910479650405	2.160398	1.4698292
32.51736125888683	2.1225011	1.4568806
32.53561856956014	1.996088	1.4128298
32.5538767291058	1.9308429	1.3895477
32.572135738105764	1.9266617	1.3880424
32.59039559714228	1.9864919	1.4094297
32.608656306797776	2.131568	1.4599891
32.62691786765491	2.1264107	1.4582218
32.645180280296586	2.0545642	1.4333751
32.663443545305896	2.072262	1.4395354
32.68170766326619	2.0073166	1.416798
32.69997263476099	2.0109093	1.4180653
32.7182384603741	1.9483769	1.3958427
32.7365051406895	1.9482279	1.3957894
32.75477267629144	1.9277632	1.3884392
32.77304106776434	1.8836005	1.3724432
32.79131031569289	1.9226056	1.3865806
32.809580420661966	1.9898068	1.4106051
32.827851383256714	2.0699697	1.438739
32.84612320406245	2.0559003	1.4338411
32.86439588366476	2.0265057	1.423554
32.88266942264945	2.0899708	1.4456731
32.9009438216025	2.1196039	1.4558859
32.9192190811102	1.9736866	1.4048796
32.937495201758985	1.9446379	1.3945028
32.95577218413556	1.9220217	1.38637
32.974050028826866	1.9692034	1.4032831
32.992328736420035	1.9897515	1.4105855
33.010608307502444	2.0380096	1.4275887
33.02888874266169	2.023673	1.4225587
33.047170042485604	1.9645864	1.4016371
33.06545220756225	1.9856625	1.4091353
33.083735238479896	1.988974	1.4103099
33.10201913582707	2.0238843	1.4226329
33.12030390019248	2.0524414	1.4326344
33.138589532165135	2.0492663	1.4315258
33.15687603233419	1.9861053	1.4092925
33.17516340128909	1.944623	1.3944974
33.19345163961947	1.9888129	1.4102528
33.211740747915215	2.0590346	1.4349337
33.23003072676643	1.9814017	1.4076227
33.248321576763466	1.9275874	1.3883758
33.266613298496885	1.9614662	1.4005235
33.28490589255747	1.8902515	1.3748642
33.30319935953626	1.8218242	1.3497497
33.32149370002451	1.8050427	1.3435187
33.339788914613706	1.8024863	1.3425671
33.358085003895575	1.8353642	1.3547561
33.376381968462034	1.9622864	1.4008163
33.39467980890529	2.01929	1.4210173
33.41297852581774	1.9593819	1.3997792
33.43127811979204	1.8951733	1.376653
33.44957859142105	1.993065	1.4117595
33.467879941297866	2.0389383	1.4279139
33.486182170015844	1.9648808	1.4017421
33.50448527816853	1.8871938	1.3737518
33.522789266349754	1.9105065	1.3822107
33.541094135153514	1.9198061	1.3855706
33.55939988517411	1.9471234	1.3953936
33.57770651700602	2.0039394	1.4156057
33.59601403124398	2.0068953	1.4166493
33.61432242848296	1.9287694	1.3888015
33.632631709318154	1.9563811	1.3987069
33.650941874344994	1.9777144	1.4063123
33.66925292415916	1.8913794	1.3752743
33.68756485935654	1.8352742	1.354723
33.70587768053328	1.8821722	1.3719229
33.724191388285746	1.8362197	1.3550718
33.74250598321054	1.832702	1.3537732
33.760821465904506	1.8881403	1.3740962
33.77913783696474	1.9272119	1.3882406
33.79745509698852	2.0788693	1.4418285
33.815773246573414	2.1377661	1.4621102
33.8340922863172	2.1288612	1.4590617
33.852412216817896	2.0732985	1.4398953
33.87073303867377	1.8975824	1.3775276
33.889054752483304	1.8556123	1.3622086
33.907377358845245	1.9475635	1.3955513
33.92570085835853	2.0490935	1.4314655
33.94402525162239	2.0039842	1.4156215
33.96235053923627	1.9503101	1.396535
33.980676721799824	1.9275897	1.3883766
33.999003799912984	1.8733438	1.3687015
34.01733177417592	1.7747842	1.3322103
34.03566064518901	1.7703104	1.3305302
34.0539904135529	1.9630831	1.4011006
34.07232107986846	1.9895217	1.4105041
34.090652644736785	1.8302249	1.3528581
34.108985108759235	1.8522109	1.3609595
34.12731847253742	1.9669046	1.4024638
34.14565273667313	1.9067178	1.3808395
34.16398790176847	1.770203	1.3304898
34.18232396842574	1.758096	1.3259321
34.20066093724749	1.8201624	1.349134
34.21899880883651	2.0185637	1.4207617
34.23733758379583	2.1047027	1.4507594
34.25567726272874	2.0351229	1.4265773
34.27401784623872	2.0064714	1.4164997
34.29235933492957	2.0392501	1.4280231
34.31070172940526	2.0326245	1.4257014
34.32904503027003	1.9924504	1.4115418
34.347389238128386	1.953522	1.3976845
34.36573435358502	1.8589052	1.3634168
34.38408037724492	1.7898993	1.3378712
34.402427309713296	1.7632272	1.3278657
34.42077515159559	1.865938	1.3659934
34.43912390349752	1.9041983	1.3799269
34.45747356602499	1.9119332	1.3827267
34.47582413978423	1.9017148	1.3790268
34.49417562538163	1.8288618	1.3523542
34.51252802342388	1.7614496	1.3271961
34.53088133451789	1.8518418	1.360824
34.54923555927084	1.9535921	1.3977096
34.567590698290104	2.041704	1.428882
34.58594675218336	2.0082061	1.4171119
34.6043037215585	1.9587344	1.3995479
34.62266160702365	1.9038184	1.3797892
34.641020409187234	1.9528042	1.3974277
34.65938012865785	2.0879862	1.4449866
34.677740766044394	2.0616627	1.4358491
34.69610232195598	1.920921	1.385973
34.714464797002016	1.823572	1.350397
34.73282819179208	1.8139538	1.346831
34.751192506936064	2.0320334	1.4254941
34.76955774304408	2.060712	1.435518
34.7879239007265	1.822996	1.3501837
34.80629098059391	1.8905833	1.3749849
34.824658983257194	2.2307494	1.4935694
34.843027909327446	2.1323373	1.4602525
34.86139775941603	2.1258972	1.4580457
34.879768534134534	2.0370908	1.4272668
34.89814023409483	1.8677275	1.3666483
34.91651285990901	1.8652934	1.3657575
34.93488641218944	1.936793	1.391687
34.95326089154871	1.9989445	1.4138403
34.97163629859967	2.122277	1.4568037
34.99001263395542	2.042988	1.4293313
35.00838989822934	1.9737287	1.4048946
35.02676809203499	1.878388	1.370543
35.04514721598624	1.8564543	1.3625176
35.063527270697215	2.0698037	1.4386812
35.081908256782256	2.309496	1.5197026
35.10029017485597	1.9861957	1.4093245
35.11867302553321	1.9395772	1.3926871
35.137056809429104	2.2993057	1.5163462
35.155441527159006	2.2541227	1.5013736
35.173827179338524	1.9080431	1.3813194
35.19221376658354	1.7474539	1.321913
35.21060128951017	1.8289343	1.352381
35.2289897487348	1.9582304	1.3993678
35.24737914487405	2.1207464	1.4562782
35.26576947854479	2.0399957	1.4282842
35.28416075036418	1.9385473	1.3923172
35.30255296094958	1.8515754	1.360726
35.32094611091867	2.2041173	1.484627
35.33934020088932	2.6212747	1.6190351
35.35773523147969	2.6908143	1.6403701
35.3761312033082	2.4403243	1.5621537
35.394528116993506	2.037395	1.4273734
35.41292597315452	2.0135908	1.4190105
35.431324772410434	1.9177157	1.3848162
35.449724515380666	2.0833046	1.4433657
35.46812520268491	2.4508014	1.5655036
35.486526834943106	2.5023303	1.5818756
35.504929412775454	2.246039	1.498679
35.52333293680242	2.3910208	1.5462925
35.54173740764471	2.4388094	1.5616688
35.560142825923286	2.625572	1.6203617
35.5785491922594	2.6898901	1.6400884
35.59695650727454	2.4655256	1.5701993
35.61536477159042	1.8038257	1.3430657
