0.008763373481513119	0.0	0.0
0.026290120649546365	0.0	0.0
0.043816868432600686	0.13170215	0.36290792
0.06134361724069026	0.15542738	0.3942428
0.07887036748382949	0.217841	0.4667344
0.0963971195720331	0.11966147	0.3459212
0.11392387391531617	0.13772783	0.371117
0.1314506309236943	0.12974443	0.36020052
0.1489773910071836	0.13541844	0.36799246
0.16650415457580078	0.2222534	0.47143757
0.18403092203956356	0.22284941	0.4720693
0.20155769380849	0.20106336	0.44840088
0.2190844702925996	0.13729703	0.37053615
0.2366112519019124	0.070033155	0.26463777
0.2541380390464497	0.03485825	0.18670364
0.27166483213623416	0.059648067	0.24422954
0.28919163158128947	0.09044283	0.30073714
0.3067184377916406	0.10972397	0.33124608
0.324245251177314	0.075504825	0.2747814
0.34177207214833777	0.05589307	0.23641716
0.3592989011147415	0.10203829	0.31943431
0.37682573848655654	0.20470646	0.45244497
0.39435258467381573	0.2668252	0.51655126
0.41187944008655414	0.24194543	0.4918795
0.42940630513480854	0.1701486	0.41249073
0.446933180228618	0.14938307	0.38650104
0.4644600657780234	0.12120083	0.3481391
0.48198696219306775	0.10880908	0.3298622
0.49951386988379676	0.12136942	0.34838113
0.5170407892602581	0.16719808	0.40889862
0.5345677207325025	0.2155633	0.46428794
0.5520946647105822	0.24995926	0.49995926
0.5696216216045534	0.23050514	0.4801095
0.5871485918244737	0.18062691	0.42500225
0.6046755757804043	0.12558995	0.35438672
0.6222025738824094	0.1322203	0.3636211
0.6397295865405557	0.14092755	0.3754032
0.6572566141649129	0.15909933	0.39887255
0.6747836571655547	0.17470412	0.41797623
0.6923107159525568	0.17333874	0.4163397
0.7098377909359992	0.20314021	0.45071077
0.7273648825259653	0.20143606	0.4488163
0.7448919911325411	0.20755845	0.45558584
0.762419117165817	0.19707103	0.44392684
0.7799462610358868	0.16302568	0.4037644
0.7974734231528482	0.15957232	0.39946505
0.8150006039268024	0.15076564	0.38828552
0.8325278037678551	0.17070514	0.4131648
0.8500550230861152	0.14948674	0.38663515
0.8675822622916969	0.136721	0.36975804
0.8851095217947171	0.12991285	0.36043426
0.9026368020052984	0.17177278	0.4144548
0.9201641033335665	0.18028273	0.42459714
0.9376914261896523	0.18361855	0.42850736
0.9552187709836915	0.15885149	0.39856178
0.9727461381258234	0.17314476	0.41610667
0.990273528026193	0.22118767	0.47030592
1.0078009410949496	0.27667862	0.52600247
1.0253283777422473	0.2997326	0.5474784
1.0428558383782454	0.3154017	0.56160635
1.0603833234131086	0.31998602	0.56567305
1.0779108332570058	0.34740862	0.5894138
1.0954383683201119	0.39353156	0.62732095
1.112965929012607	0.4147732	0.6440289
1.1304935157446763	0.5223141	0.722713
1.1480211289265108	0.55130017	0.7424959
1.1655487689683062	1.2718381	1.127758
1.1830764362802655	1.5395852	1.2408003
1.200604131272596	1.9519763	1.3971314
1.2181318543555117	2.3403363	1.5298158
1.235659605939232	2.3704903	1.5396397
1.253187386433982	3.7787476	1.9439001
1.270715196249994	5.8629346	2.4213498
1.2882430357975057	11.229138	3.3509908
1.3057709054867608	16.091318	4.0113983
1.3232988057280106	21.838675	4.673187
1.3408267369315112	26.36602	5.134785
1.358354699507526	29.662365	5.4463167
1.3758826938663256	33.92497	5.8245144
1.3934107204181858	36.24894	6.020709
1.410938779573391	36.882236	6.073075
1.4284668717422309	37.395584	6.115193
1.4459949973350033	37.133507	6.0937266
1.4635231567620117	37.4133	6.116641
1.4810513504335687	36.76938	6.063776
1.4985795787599925	36.211155	6.0175705
1.5161078421516088	35.43806	5.9529877
1.5336361410187505	34.24133	5.851609
1.5511644757717598	33.829365	5.816302
1.5686928468209842	34.555584	5.8784
1.58622125457678	35.338478	5.9446177
1.6037496994495108	36.777596	6.0644536
1.621278181849548	36.929623	6.076975
1.6388067021872719	37.573685	6.129738
1.6563352608730693	36.64558	6.0535593
1.673863858317336	35.53581	5.9611917
1.6913924949304753	34.844498	5.9029226
1.7089211711228998	34.085304	5.838262
1.7264498873050296	33.377014	5.777284
1.7439786438872935	32.373917	5.6898084
1.7615074412801288	31.4816	5.6108465
1.779036279893981	30.342718	5.5084224
1.796565160139305	29.650732	5.4452486
1.814094082426564	29.029486	5.387902
1.8316230471662298	28.78069	5.3647637
1.849152054768784	28.116003	5.3024526
1.8666811056447168	27.695364	5.2626386
1.8842102002045273	26.733173	5.1704135
1.901739338858724	26.107746	5.109574
1.9192685220178245	25.411425	5.0409746
1.9367977500923557	24.769257	4.976872
1.9543270234928547	24.060238	4.9051237
1.971856342629867	23.3293	4.8300414
1.9893857079139496	22.889841	4.7843328
2.006915119755667	22.574965	4.751312
2.0244445785655945	22.057611	4.696553
2.0419740847543175	21.592207	4.6467414
2.0595036387324317	21.003128	4.582917
2.0770332409105414	20.571615	4.5355945
2.094562891699263	20.282942	4.503659
2.1120925915092217	19.982548	4.4701843
2.129622340751053	19.805523	4.45034
2.1471521398354043	187.9314	13.708807
2.1646819891729323	444.35428	21.079712
2.182211889174303	440.55673	20.989443
2.1997418402501974	452.85788	21.280458
2.2172718428113023	432.51184	20.796919
2.234801897268317	320.3914	17.89948
2.2523320040319548	16.769709	4.095083
2.269862163512935	16.631807	4.0782113
2.287392376121992	16.365088	4.0453787
2.304922642269869	16.18631	4.0232215
2.322452962367322	15.816146	3.9769518
2.3399833368251164	15.397818	3.9240053
2.357513766054032	15.136162	3.890522
2.3750442504648586	14.874169	3.8567045
2.3925747904683963	14.624512	3.8242009
2.410105386475459	14.401511	3.7949324
2.4276360388968707	14.228952	3.7721283
2.445166748143469	13.93102	3.732428
2.4626975146261025	13.564428	3.6829917
2.4802283387556323	13.366879	3.6560743
2.4977592209429305	12.999754	3.6055171
2.5152901615988825	12.754933	3.571405
2.5328211611343865	12.746574	3.5702345
2.5503522199603523	12.531161	3.539938
2.5678833384877024	12.4004135	3.5214221
2.5854145171273712	12.168353	3.4883165
2.6029457562903064	11.906443	3.4505713
2.620477056387469	11.715025	3.4227219
2.6380084178298326	11.61289	3.4077692
2.655539841028383	11.569378	3.4013789
2.673071326394119	11.400237	3.3764236
2.6906028743380523	11.060971	3.3258038
2.708134485271211	10.638472	3.261667
2.7256661596046325	10.324838	3.2132285
2.743197897749369	10.218324	3.1966112
2.760729700116486	10.16787	3.1887097
2.778261567117063	10.110469	3.1796963
2.795793499162193	9.964231	3.156617
2.8133254966629817	9.923007	3.1500804
2.830857560030551	9.842261	3.1372378
2.8483896896760337	9.855967	3.1394215
2.865921886010578	9.674353	3.110362
2.883454149445347	9.40414	3.066617
2.9009864803915177	9.179019	3.0296896
2.91851887926028	9.136151	3.0226066
2.9360513464628384	9.13697	3.022742
2.953583882410413	9.103557	3.01721
2.9711164875142373	8.87979	2.9798977
2.9886491621855606	8.745799	2.9573298
3.0061819068356455	8.421123	2.901917
3.023714721875769	8.3705435	2.8931892
3.041247607717225	8.170786	2.8584588
3.0587805647713213	8.128022	2.8509686
3.0763135934493806	8.083519	2.843153
3.0938466941627407	8.034479	2.8345156
3.1113798673227544	7.9889803	2.8264785
3.1289131133407904	7.9166	2.8136454
3.1464464326282315	7.8497634	2.801743
3.1639798255964786	7.867947	2.804986
3.1815132926569443	7.8184743	2.7961535
3.1990468342210603	7.729462	2.780191
3.216580450700272	7.5280995	2.7437382
3.2341141425060416	7.3739767	2.7155068
3.251647910049847	7.3916245	2.7187543
3.2691817537431813	7.2084785	2.684861
3.286715673997555	7.139516	2.6719873
3.3042496712244938	6.971805	2.6404176
3.32178374583554	6.852969	2.6178176
3.339317898242251	6.807424	2.6091042
3.3568521288562034	6.7529964	2.5986528
3.3743864380889876	6.7251935	2.5932977
3.3919208263522127	6.6961446	2.587691
3.4094552940575023	6.6834755	2.5852418
3.4269898416164972	6.722182	2.5927172
3.444524469440858	6.6739435	2.5833976
3.4620591779422587	6.5063415	2.550753
3.479593967532391	6.3543973	2.520793
3.4971288386229658	6.2173166	2.4934547
3.5146637916257086	6.1379027	2.4774792
3.5321988269523628	6.2424097	2.4984815
3.5497339450146903	6.275208	2.5050366
3.5672691462244708	6.3255057	2.515056
3.5848044309934988	6.2640815	2.5028148
3.60233979973359	6.165133	2.4829686
3.619875252856575	6.1689167	2.4837303
3.6374107907743034	6.197373	2.4894524
3.6549464138986427	6.2289743	2.4957914
3.6724821226414788	6.17152	2.4842544
3.690017917414714	6.114145	2.4726796
3.7075537986302702	6.129044	2.4756906
3.7250897667000857	6.2443056	2.4988608
3.7426258220361235	6.4801035	2.5456047
3.7601619650503553	6.89268	2.6253915
3.777698196154779	7.4614234	2.7315607
3.7952345157614067	8.443576	2.9057832
3.8127709242822716	9.212016	3.0351303
3.830307422129425	11.4210005	3.379497
3.847844009714936	30.23762	5.498874
3.8653806874508954	97.64191	9.881392
3.882917455749409	96.69929	9.83358
3.900454315022606	96.32641	9.814602
3.917991265682631	40.861824	6.3923254
3.9355283081416506	10.550269	3.2481177
3.9530654428118495	8.527184	2.920134
3.970602670105433	7.291176	2.7002177
3.9881399904346244	6.4506054	2.5398042
4.005677404211669	6.426103	2.534976
4.023214911848827	6.434914	2.5367134
4.0407525137583855	6.4106297	2.531922
4.058290210352644	6.341841	2.5183012
4.075828002043927	6.2085853	2.4917033
4.0933658892445814	6.2201376	2.4940205
4.110903872366966	6.129858	2.475855
4.128441951823468	6.0606556	2.46184
4.145980128026488	6.019274	2.4534209
4.163518401388452	5.9950004	2.448469
4.181056772321807	5.980886	2.445585
4.1985952412390155	5.9942346	2.4483125
4.216133808552567	6.0243397	2.454453
4.233672474674966	6.0778785	2.4653354
4.251211240018741	6.3165483	2.5132744
4.268750104996445	6.5907693	2.5672493
4.286289070020643	7.507803	2.740037
4.303828135503928	9.104332	3.0173385
4.3213673018589125	29.305424	5.4134483
4.3389065694982305	90.43872	9.509928
4.356445938834537	165.69513	12.872262
4.3739854102805085	170.74593	13.066978
4.391524984248844	171.62558	13.1005945
4.409064661152262	135.54608	11.642426
4.426604441403504	95.81366	9.788445
4.444144325415337	74.95024	8.657381
4.461684313600543	21.132	4.5969553
4.47922440637193	21.814709	4.670622
4.496764604142329	20.333992	4.5093226
4.5143049073245916	18.410444	4.2907395
4.531845316331589	16.100908	4.0125937
4.5493858315762195	12.979634	3.602726
4.566926453471405	10.727678	3.2753134
4.584467182430081	8.807548	2.9677513
4.602008018865218	7.8749714	2.806238
4.619548963189798	7.278825	2.6979296
4.637090015816834	6.7842293	2.6046553
4.654631177159353	6.507439	2.5509682
4.672172447630417	6.24379	2.4987578
4.689713827643102	6.223116	2.4946175
4.7072553176105085	6.0212293	2.4538193
4.724796917945764	5.9294267	2.4350414
4.742338629062015	5.8466268	2.41798
4.759880451372434	5.7817307	2.404523
4.777422385290215	5.6353936	2.3738985
4.794964431228581	5.5538845	2.356668
4.812506589600768	5.482126	2.3413942
4.830048860820047	5.5895963	2.3642328
4.847591245299709	5.607689	2.3680558
4.8651337434530655	5.6191216	2.3704686
4.882676355693457	5.6578426	2.378622
4.900219082434242	5.638441	2.37454
4.917761924088813	5.6140404	2.3693967
4.935304881070575	5.56743	2.3595402
4.952847953792969	5.5147805	2.348357
4.970391142669449	5.42571	2.3293154
4.9879344481135055	5.3865576	2.320896
5.005477870538642	5.315878	2.3056188
5.023021410358394	5.306453	2.303574
5.040565067986324	5.2749653	2.2967293
5.05810884383601	5.280431	2.2979188
5.075652738321066	5.3067975	2.3036487
5.09319675185512	5.282693	2.298411
5.110740884851836	5.343563	2.3116148
5.128285137724894	5.407184	2.3253353
5.145829510888007	5.4184046	2.3277466
5.163374004754908	5.3771787	2.3188744
5.1809186197393595	5.267395	2.2950807
5.198463356255145	5.2420397	2.28955
5.216008214716077	5.291622	2.3003526
5.233553195535998	5.2726326	2.2962213
5.251098299128764	5.2371755	2.2884877
5.268643525908272	5.1909165	2.2783582
5.286188876288432	5.1661572	2.2729182
5.3037343506831895	5.1847334	2.277001
5.32127994950651	5.0876956	2.255592
5.3388256731723915	5.0755424	2.2528965
5.356371522094851	5.1365795	2.2664022
5.373917496687938	5.1757383	2.275025
5.391463597365729	5.2328167	2.287535
5.40900982454232	5.206181	2.2817056
5.426556178631843	5.1494546	2.2692409
5.444102660048449	5.164249	2.2724984
5.4616492692063225	5.079796	2.2538402
5.479196006519669	5.142687	2.2677493
5.496742872402727	5.191236	2.2784283
5.514289867269756	5.2250185	2.28583
5.531836991535049	5.198774	2.280082
5.549384245612924	5.136302	2.2663412
5.566931629917724	5.073396	2.2524202
5.584479144863822	5.107401	2.259956
5.6020267908656205	5.081893	2.2543054
5.619574568337545	5.0981665	2.257912
5.637122477694054	5.049928	2.2472045
5.654670519349629	5.114337	2.26149
5.672218693718784	5.1056333	2.2595649
5.689767001216059	5.1322913	2.2654562
5.707315442256021	5.145349	2.2683363
5.724864017253266	5.197443	2.2797902
5.7424127266224225	5.190187	2.2781982
5.75996157077814	5.156962	2.2708945
5.777510550135105	5.15439	2.270328
5.795059665108022	5.1508245	2.2695427
5.812608916111639	5.1119514	2.2609625
5.830158303560715	5.2406125	2.2892385
5.847707827870055	5.2626624	2.2940493
5.86525748945448	5.375978	2.3186154
5.8828072887288485	5.480035	2.3409474
5.900357226108044	5.5946493	2.3653011
5.917907302006979	5.7223496	2.3921432
5.9354575168406	6.384184	2.5266943
5.9530078710238765	7.016721	2.6489093
5.970558364971812	7.5841403	2.7539318
5.988108999099438	7.887154	2.8084078
6.005659773821818	8.496627	2.9148974
6.023210689554039	8.129798	2.85128
6.040761746711227	8.608931	2.934098
6.058312945708531	7.881256	2.8073575
6.075864286961132	7.3862205	2.71776
6.093415770884244	6.674846	2.5835724
6.1109673978931065	6.101183	2.4700572
6.128519168402993	5.406899	2.325274
6.146071082829204	5.217283	2.2841372
6.163623141587075	5.090952	2.2563138
6.181175345091969	5.0461645	2.246367
6.198727693759281	5.106919	2.2598493
6.216280188004435	5.124802	2.2638025
6.233832828242885	5.103225	2.259032
6.251385614890126	5.0393414	2.2448478
6.268938548361669	4.9736857	2.2301762
6.286491629073067	4.9472775	2.2242477
6.304044857439898	5.057709	2.2489352
6.321598233877777	5.0465736	2.246458
6.339151758802344	5.0130396	2.2389817
6.356705432629277	4.9301357	2.2203908
6.37425925577428	4.8778667	2.2085893
6.391813228653095	4.9223056	2.218627
6.409367351681486	4.9354253	2.2215817
6.426921625275259	4.882259	2.2095835
6.44447604985025	4.8411665	2.2002652
6.46203062582232	4.8058176	2.1922176
6.47958535360737	4.8590174	2.2043178
6.497140233621328	4.952343	2.2253861
6.514695266280161	4.9671826	2.2287178
6.532250451999859	4.9592857	2.2269454
6.549805791196454	4.9644866	2.2281127
6.567361284286002	5.0038757	2.2369344
6.584916931684597	5.000153	2.236102
6.602472733808367	4.951845	2.225274
6.6200286910734665	4.949136	2.2246654
6.637584803896092	4.939202	2.2224314
6.655141072692462	4.9620323	2.227562
6.672697497878842	4.9543424	2.2258353
6.690254079871514	4.950605	2.2249954
6.707810819086808	5.0284557	2.2424219
6.725367715941078	5.013649	2.2391179
6.742924770850719	4.9350348	2.2214937
6.760481984232151	4.897962	2.213134
6.778039356501836	4.923658	2.2189317
6.795596888076266	4.9270363	2.219693
6.813154579371963	4.921509	2.2184474
6.830712430805492	4.8975024	2.21303
6.84827044279344	4.946297	2.2240272
6.865828615752445	4.9908423	2.2340193
6.883386950099159	5.030589	2.2428975
6.900945446250287	4.987568	2.2332864
6.918504104622553	4.9918933	2.2342546
6.936062925632727	5.0180483	2.2401001
6.953621909697607	5.0410795	2.245235
6.971181057234028	5.058069	2.249015
6.988740368658859	5.074346	2.252631
7.006299844389007	5.1694603	2.2736447
7.023859484841407	5.2500267	2.2912936
7.041419290433036	5.3077316	2.3038514
7.058979261580902	5.356375	2.3143845
7.0765393987020495	5.529067	2.3513968
7.094099702213559	5.9022455	2.4294538
7.111660172532549	6.305319	2.5110395
7.129220810076164	6.6026783	2.5695677
7.146781615261595	7.084566	2.6616848
7.16434258850606	7.2585793	2.694175
7.181903730226821	7.576093	2.7524705
7.1994650408411704	7.793408	2.7916677
7.217026520766437	8.029454	2.8336291
7.234588170419983	8.366454	2.8924823
7.252149990219215	8.463553	2.9092188
7.269711980581568	8.39083	2.896693
7.2872741419245175	8.273263	2.876328
7.304836474665574	7.913277	2.8130548
7.322398979222286	7.5227513	2.7427635
7.339961656012233	7.2375836	2.6902757
7.357524505453039	6.856763	2.6185422
7.375087527962357	6.5307584	2.5555348
7.392650723957886	6.194423	2.48886
7.410214093857353	5.815783	2.4115934
7.427777638078528	5.6182857	2.3702924
7.445341357039213	5.4475083	2.3339899
7.4629052511572525	5.305952	2.3034651
7.480469320850524	5.2464294	2.2905085
7.498033566536948	5.1722174	2.274251
7.5155979886344735	5.0941443	2.2570212
7.5331625875610975	5.05706	2.2487907
7.550727363734844	5.0432053	2.2457082
7.568292317573788	5.0812244	2.254157
7.585857449496025	5.0641932	2.2503762
7.603422759919705	5.06076	2.2496133
7.620988249263007	5.101367	2.2586205
7.638553917944147	5.1873784	2.2775817
7.656119766381391	5.219379	2.284596
7.673685794993023	5.2005115	2.280463
7.691252004197388	5.15996	2.2715545
7.70881839441285	5.1078763	2.260061
7.726384966057826	5.1110406	2.260761
7.743951719550762	5.120284	2.2628045
7.761518655310149	5.1501775	2.2694004
7.779085773754511	5.2058854	2.281641
7.796653075302419	5.2756257	2.296873
7.814220560372475	5.347823	2.312536
7.831788229383323	5.2977314	2.30168
7.8493560827536495	5.2880483	2.2995756
7.866924120902174	5.2609525	2.2936766
7.884492344247663	5.290849	2.3001845
7.9020607532089135	5.24725	2.2906878
7.919629348204771	5.1959696	2.2794669
7.937198129654115	5.2162843	2.2839186
7.954767097975865	5.3672104	2.316724
7.972336253588986	5.4418845	2.3327847
7.989905596912472	5.4414234	2.332686
8.007475128365371	5.426744	2.3295374
8.025044848366756	5.4562497	2.3358617
8.042614757335754	5.528982	2.3513787
8.060184855691523	5.5503983	2.3559284
8.07775514385327	5.583934	2.363035
8.095325622240228	5.61684	2.3699872
8.112896291271687	5.6349	2.3737946
8.130467151366968	5.667151	2.3805778
8.148038202945436	5.7088895	2.3893282
8.165609446426497	5.713437	2.3902798
8.183180882229594	5.8047833	2.4093118
8.200752510774217	5.778264	2.403802
8.218324332479893	5.7954874	2.4073818
8.235896347766193	5.7833824	2.4048665
8.253468557052724	5.8244643	2.4133928
8.27104096075914	5.8511634	2.418918
8.288613559305137	5.976558	2.4447
8.306186353110448	6.106757	2.4711854
8.32375934259485	6.171716	2.484294
8.341332528178162	6.172365	2.4844246
8.358905910280246	6.1800456	2.4859698
8.376479489321003	6.171664	2.4842834
8.394053265720377	6.1968327	2.489344
8.411627239898356	6.1812196	2.4862058
8.42920141227497	6.239415	2.4978821
8.44677578327029	6.2320485	2.496407
8.464350353304427	6.197704	2.489519
8.48192512279754	6.145956	2.4791038
8.499500092169827	6.0800896	2.4657838
8.51707526184153	6.0905504	2.467904
8.534650632232934	6.1093283	2.4717054
8.552226203764365	6.206889	2.4913628
8.569801976856192	6.209044	2.4917953
8.587377951928834	6.2240305	2.4948008
8.60495412940274	6.220259	2.4940448
8.622530509698416	6.27322	2.5046396
8.6401070932364	6.4569287	2.5410488
8.657683880437283	6.521687	2.5537593
8.675260871721695	6.6064715	2.5703058
8.692838067510303	6.670729	2.5827756
8.710415468223834	6.7846317	2.6047325
8.727993074283043	7.0063186	2.6469452
8.745570886108737	7.0323114	2.6518505
8.763148904121765	7.1067953	2.6658573
8.78072712874302	7.091686	2.663022
8.798305560393441	7.3057013	2.7029061
8.815884199494006	7.501141	2.738821
8.833463046465745	7.7091193	2.77653
8.851042101729728	7.83728	2.7995143
8.86862136570707	8.091322	2.8445249
8.886200838818924	8.198521	2.8633058
8.903780521486505	8.215928	2.866344
8.921360414131055	8.3663025	2.892456
8.938940517173874	8.519994	2.9189029
8.956520831036297	8.721868	2.953281
8.97410135613971	8.875294	2.9791431
8.99168209290554	8.977744	2.9962883
9.009263041755265	9.202325	3.0335333
9.026844203110405	9.422891	3.0696728
9.044425577392525	9.656873	3.1075509
9.062007165023239	9.845021	3.1376777
9.079588966424197	10.167611	3.1886692
9.097170982017108	10.303428	3.2098954
9.11475321222372	11.404549	3.377062
9.132335657465825	12.29949	3.507063
9.149918318165264	12.416669	3.5237293
9.167501194743924	13.087957	3.6177282
9.18508428762374	12.821513	3.580714
9.202667597226693	12.7637	3.572632
9.220251123974803	12.369743	3.5170646
9.237834868290143	12.031255	3.4686098
9.255418830594836	11.953047	3.4573178
9.273003011311046	11.325376	3.3653195
9.290587410860985	10.974802	3.3128238
9.308172029666911	10.209954	3.195302
9.32575686815113	9.951595	3.154615
9.343341926735997	8.677581	2.9457734
9.360927205843916	8.495527	2.9147089
9.378512705897327	8.283828	2.878164
9.396098427318728	8.040141	2.8355143
9.413684370530664	7.9268265	2.815462
9.431270535955722	7.844789	2.8008552
9.448856924016539	7.801901	2.7931883
9.466443535135806	7.6908135	2.7732315
9.484030369736251	7.6760063	2.7705607
9.501617428240658	7.686695	2.772489
9.519204711071852	7.8210406	2.7966123
9.536792218652714	7.843315	2.800592
9.55437995140617	7.918303	2.813948
9.571967909755191	7.8223453	2.7968457
9.589556094122802	7.7988467	2.7926416
9.60714450493207	7.7561827	2.7849925
9.624733142606116	7.829138	2.7980597
9.642322007568108	7.8971796	2.810192
9.659911100241267	7.9196925	2.814195
9.677500421048851	7.9130583	2.813016
9.695089970414175	7.989222	2.8265212
9.712679748760609	8.0582485	2.8387055
9.730269756511557	8.123052	2.8500967
9.747859994090492	8.1216545	2.8498516
9.765450461920915	8.116692	2.848981
9.78304116042639	8.075728	2.8417826
9.800632090030527	7.9937944	2.8273299
9.81822325115699	8.03733	2.8350184
9.835814644229481	8.082665	2.8430028
9.853406269671762	8.205581	2.8645384
9.870998127907646	8.284557	2.8782907
9.888590219360985	8.290634	2.8793461
9.906182544455698	8.278821	2.877294
9.923775103615734	8.308689	2.8824797
9.941367897265108	8.290138	2.87926
9.958960925827878	8.263934	2.874706
9.97655418972816	8.27277	2.8762424
9.994147689390106	8.334123	2.886888
10.011741425237934	8.352658	2.8900967
10.029335397695904	8.337971	2.8875544
10.04692960718833	8.284999	2.8783674
10.06452405413958	8.279492	2.8774107
10.082118738974064	8.211563	2.8655825
10.099713662116246	8.126492	2.8507001
10.117308823990651	8.166938	2.8577855
10.134904225021844	8.135517	2.8522828
10.152499865634445	8.202758	2.8640456
10.170095746253125	8.194569	2.8626156
10.18769186730261	8.208788	2.8650982
10.205288229207675	8.189398	2.8617125
10.222884832393145	8.070892	2.8409317
10.2404816772839	7.992696	2.8271356
10.258078764304868	7.9328465	2.816531
10.275676093881035	7.9988923	2.8282313
10.293273666437438	8.040888	2.835646
10.310871482399158	8.11505	2.8486927
10.32846954219134	8.060211	2.839051
10.346067846239173	8.011966	2.8305416
10.363666394967908	8.021445	2.8322155
10.38126518880283	8.046941	2.836713
10.398864228169298	8.055034	2.838139
10.416463513492713	8.043174	2.836049
10.434063045198531	7.9794717	2.824796
10.451662823712262	8.075782	2.841792
10.469262849459467	8.071666	2.8410678
10.486863122865758	8.011164	2.8304
10.504463644356806	7.910509	2.8125627
10.522064414358338	7.8781404	2.8068025
10.539665433296118	7.886963	2.8083737
10.557266701595987	7.8664675	2.8047223
10.574868219683818	7.7640214	2.7863994
10.592469987985552	7.602085	2.7571878
10.610072006927185	7.4347644	2.7266765
10.627674276934751	7.2869253	2.6994305
10.64527679843435	7.242003	2.691097
10.662879571852143	7.201426	2.6835473
10.680482597614331	7.1616783	2.6761312
10.698085876147173	6.9776173	2.6415179
10.715689407876988	6.843943	2.6160932
10.733293193230146	6.6546497	2.579661
10.750897232633072	6.59419	2.5679154
10.76850152651225	6.485699	2.5467036
10.786106075294207	6.4007835	2.529977
10.803710879405534	6.342747	2.518481
10.821315939272877	6.256112	2.5012221
10.83892125532294	6.2924767	2.508481
10.856526827982472	6.2304187	2.4960806
10.874132657678285	6.182305	2.4864242
10.891738744837243	6.096285	2.4690657
10.909345089886271	6.0068607	2.4508898
10.926951693252343	5.9181247	2.4327197
10.944558555362494	5.890106	2.426954
10.96216567664381	5.8429146	2.4172122
10.979773057523436	5.8325157	2.4150603
10.997380698428573	5.8144917	2.4113257
11.014988599786477	5.6635	2.3798108
11.032596762024461	5.5777993	2.3617365
11.050205185569892	5.556618	2.357248
11.067813870850198	5.513654	2.348117
11.085422818292859	5.545368	2.3548605
11.10303202832541	5.437947	2.3319407
11.120641501375454	5.344804	2.3118832
11.138251237870636	5.254597	2.292291
11.155861238238671	5.2267256	2.2862034
11.173471502907317	5.188375	2.2778006
11.191082032304402	5.067096	2.2510211
11.208692826857805	5.000581	2.236198
11.226303886995465	4.978151	2.231177
11.243915213145371	5.016635	2.2397845
11.261526805735578	4.9318027	2.2207663
11.279138665194196	4.820634	2.1955943
11.296750791949393	4.709298	2.1700916
11.314363186429393	4.678195	2.1629136
11.331975849062479	4.6295257	2.1516333
11.34958878027699	4.6176066	2.1488616
11.36720198050133	4.6005716	2.1448944
11.384815450163948	4.5401554	2.130764
11.402429189693366	4.4678597	2.1137311
11.420043199518153	4.3830914	2.0935833
11.437657480066942	63.35138	7.9593577
11.455272031768422	85.07032	9.223357
11.472886855051353	107.49798	10.368123
11.490501950344528	99.147606	9.957289
11.508117318076819	84.46814	9.190655
11.52573295867715	45.815475	6.768713
11.543348872574514	4.1027136	2.0255156
11.560965060197946	4.0393424	2.0098116
11.57858152197655	4.040029	2.0099823
11.59619825833949	3.998461	1.9996152
11.613815269715985	3.9866736	1.9966656
11.631432556535323	38.492023	6.204194
11.649050119226837	82.98229	9.109462
11.666667958219929	93.378654	9.663263
11.68428607394406	107.63348	10.374656
11.701904466828756	82.472374	9.08143
11.719523137303586	65.328354	8.082596
11.737142085798196	4.5593147	2.135255
11.754761312742286	3.6632771	1.9139689
11.772380818565619	3.6709924	1.9159834
11.790000603698015	3.6608603	1.9133375
11.80762066856935	3.6298795	1.9052242
11.825241013609572	3.5613441	1.8871524
11.842861639248683	3.4875658	1.8675026
11.860482545916748	3.3996494	1.8438138
11.878103734043883	3.3413863	1.827946
11.895725204060282	3.3414433	1.8279616
11.91334695639619	3.3494558	1.8301519
11.930968991481919	3.3557384	1.8318675
11.948591309747824	3.300181	1.81664
11.966213911624347	3.2692242	1.8080996
11.98383679754198	3.2292285	1.7970054
12.001459967931268	3.2423944	1.800665
12.019083423222835	3.2385678	1.7996022
12.036707163847352	3.2396421	1.7999007
12.05433119023556	3.2054324	1.7903721
12.071955502818259	3.1781478	1.7827361
12.089580102026313	3.1356354	1.7707726
12.107204988290643	3.1400714	1.7720246
12.12483016204224	3.160993	1.7779182
12.142455623712152	3.1291826	1.7689496
12.16008137373149	3.1041083	1.761848
12.177707412531431	3.0293725	1.7405093
12.19533374054321	3.0203555	1.737917
12.212960358198126	2.9922345	1.7298076
12.230587265927545	2.9872797	1.7283748
12.248214464162889	3.0072215	1.7341342
12.265841953335649	3.0122998	1.7355978
12.283469733877375	2.9959874	1.7308921
12.301097806219685	2.9817889	1.7267857
12.31872617079425	2.9314923	1.7121601
12.336354828032825	2.9080064	1.7052878
12.353983778367205	2.8696651	1.6940086
12.371613022229262	2.8467252	1.6872241
12.389242560050928	2.8404608	1.6853666
12.406872392264201	2.820636	1.679475
12.424502519301143	2.8437684	1.6863476
12.442132941593874	2.8431935	1.6861773
12.459763659574586	2.8303692	1.6823701
12.477394673675532	2.815531	1.6779544
12.49502598432903	2.7823224	1.6680295
12.51265759196746	2.770815	1.6645765
12.530289497023267	2.7444463	1.6566371
12.547921699928967	2.76179	1.6618634
12.565554201117134	2.7650375	1.6628402
12.583187001020404	2.7645023	1.6626792
12.600820100071486	2.7901258	1.670367
12.618453498703152	2.7681916	1.6637883
12.636087197348235	2.7520506	1.6589305
12.65372119643964	2.7202635	1.6493222
12.671355496410326	2.7221038	1.6498799
12.68899009769333	2.753938	1.6594993
12.706625000721749	2.779171	1.6670846
12.724260205928752	2.831355	1.6826631
12.741895713747551	2.8434227	1.6862451
12.759531524611454	2.8878732	1.6993743
12.777167638953818	2.8959596	1.701752
12.794804057208072	2.9106865	1.7060734
12.812440779807702	2.9800947	1.7262951
12.830077807186271	3.1981726	1.7883435
12.847715139777405	3.268025	1.807768
12.865352778014795	3.4967785	1.8699675
12.882990722332197	3.6133628	1.9008847
12.90062897316344	3.6679335	1.915185
12.918267530942412	3.771358	1.9419985
12.935906396103071	3.621561	1.9030399
12.953545569079449	3.7897425	1.9467261
12.971185050305628	3.593313	1.8956035
12.988824840215775	3.602726	1.8980849
13.006464939244115	3.5804799	1.8922156
13.024105347824943	3.4088705	1.8463126
13.041746066392617	3.5273995	1.8781372
13.05938709538157	3.3385928	1.8271817
13.077028435226296	3.3631074	1.8338777
13.094670086361363	3.2441304	1.801147
13.112312049221401	3.145186	1.7734672
13.129954324241112	3.0821176	1.755596
13.147596911855258	2.8928306	1.7008324
13.165239812498685	2.8394828	1.6850765
13.182883026606293	2.7307432	1.6524961
13.200526554613058	2.7194293	1.6490692
13.218170396954017	2.7122488	1.6468906
13.235814554064284	2.7041914	1.6444426
13.253459026379034	2.6611378	1.6312994
13.271103814333523	2.6210423	1.6189634
13.288748918363058	2.6303935	1.6218488
13.306394338903031	2.6742706	1.6353197
13.32404007638889	2.66273	1.6317873
13.341686131256164	2.660434	1.6310837
13.359332503940449	2.6425085	1.6255795
13.376979194877402	2.6204324	1.618775
13.394626204502751	2.6464593	1.6267942
13.412273533252307	2.6537519	1.629034
13.429921181561937	2.6629765	1.6318629
13.447569149867581	2.6609235	1.6312337
13.465217438605247	2.6729777	1.6349244
13.482866048211022	2.6747909	1.6354787
13.500514979121052	2.700578	1.6433436
13.518164231771568	2.6724935	1.6347762
13.535813806598844	2.6900182	1.6401275
13.553463704039254	2.6695955	1.6338897
13.571113924529229	2.63077	1.6219648
13.588764468505275	2.6261501	1.62054
13.606415336403956	2.6730776	1.6349549
13.624066528661917	2.6930811	1.641061
13.641718045715882	2.7278495	1.6516203
13.659369888002635	2.7735448	1.6653963
13.67702205595903	2.8575861	1.6904396
13.694674550021993	2.926741	1.710772
13.712327370628532	2.963008	1.721339
13.729980518215713	3.045132	1.7450306
13.747633993220681	3.1565788	1.7766763
13.765287796080647	3.207146	1.7908506
13.7829419272329	3.2720015	1.8088675
13.800596387114801	3.305523	1.8181098
13.818251176163775	3.3272512	1.8240755
13.835906294817324	3.3685274	1.8353548
13.853561743513023	3.4127946	1.847375
13.871217522688525	3.4583917	1.8596752
13.888873632781538	3.5261545	1.8778058
13.906530074229858	3.5374222	1.8808036
13.92418684747135	3.519511	1.8760359
13.941843952943948	3.5245998	1.8773917
13.959501391085665	3.47782	1.8648914
13.977159162334578	3.4390006	1.8544543
13.994817267128846	3.3650303	1.8344018
14.012475705906693	3.2758486	1.8099306
14.030134479106424	3.212594	1.792371
14.047793587166414	3.1510465	1.7751187
14.065453030525108	3.0794418	1.7548338
14.083112809621026	3.015577	1.7365417
14.100772924892766	2.9697697	1.723302
14.118433376778997	2.9237306	1.709892
14.136094165718458	2.842862	1.6860789
14.153755292149969	2.774606	1.6657149
14.171416756512416	2.7160676	1.6480496
14.189078559244768	2.6641693	1.6322284
14.20674070078606	2.5929418	1.6102614
14.224403181575408	2.5314121	1.5910412
14.242066002051999	2.5182045	1.5868851
14.259729162655093	2.4800243	1.5748093
14.277392663824022	2.4194074	1.5554445
14.295056505998208	2.3867853	1.5449225
14.312720689617128	2.4180727	1.5550153
14.330385215120348	2.4553213	1.5669465
14.348050082947497	2.4023936	1.5499656
14.3657152935383	2.373893	1.5407443
14.383380847332528	2.3487935	1.5325774
14.401046744770051	2.3878126	1.5452548
14.418712986290798	2.372965	1.5404432
14.436379572334793	2.3610647	1.5365757
14.454046503342123	2.3612754	1.5366442
14.471713779752946	2.3866415	1.5448759
14.489381402007504	2.4410145	1.5623746
14.507049370546113	2.4363856	1.5608926
14.524717685809168	2.432312	1.5595871
14.542386348237134	2.4174771	1.5548239
14.560055358270553	2.4288652	1.5584817
14.577724716350051	2.4152362	1.554103
14.595394422916325	2.3896482	1.5458487
14.61306447841015	2.4273336	1.5579902
14.63073488327237	2.4680984	1.5710182
14.648405637943917	2.4976447	1.5803938
14.6660767428658	2.4837265	1.5759842
14.683748198479094	2.4975598	1.580367
14.701420005224954	2.5198886	1.5874157
14.719092163544628	2.6271622	1.6208524
14.73676467387942	2.6966226	1.6421397
14.754437536670727	2.7067719	1.645227
14.772110752360014	2.6467874	1.6268951
14.78978432138882	2.6293702	1.6215333
14.807458244198777	2.6661022	1.6328204
14.82513252123159	2.685274	1.6386806
14.842807152929028	2.71029	1.6462958
14.860482139732962	2.691743	1.6406531
14.87815748208531	2.6779127	1.6364329
14.8958331804281	2.6888232	1.6397631
14.91350923520342	2.6483173	1.6273651
14.931185646853438	2.6779444	1.6364427
14.948862415820408	2.656109	1.6297574
14.966539542546656	2.6730819	1.6349562
14.98421702747459	2.631904	1.6223143
15.001894871046696	2.6240041	1.6198778
15.019573073705542	2.6315327	1.6221999
15.037251635893766	2.654856	1.6293728
15.054930558054092	2.6981008	1.6425897
15.072609840629323	2.829557	1.6821287
15.090289484062351	3.0202143	1.7378764
15.107969488796124	3.47911	1.8652372
15.125649855273691	4.242528	2.0597398
15.14333058393817	5.4088545	2.3256943
15.161011675232768	6.971908	2.6404371
15.17869312960076	9.429704	3.0707822
15.196374947485506	13.401842	3.6608527
15.214057129330447	18.130669	4.2580123
15.231739675579114	22.613483	4.7553635
15.249422586675102	25.380465	5.037903
15.267105863062092	24.88147	4.988133
15.284789505183847	21.936245	4.6836147
15.302473513484218	17.946468	4.236327
15.320157888407127	14.724587	3.837263
15.337842630396578	10.936928	3.3071027
15.355527739896656	7.9730573	2.8236604
15.37321321735153	5.7094307	2.3894415
15.39089906320545	4.2291627	2.0564928
15.408585277902748	3.360345	1.8331244
15.42627186188783	2.9328048	1.7125434
15.443958815605198	2.748362	1.6578184
15.461646139499424	2.688055	1.6395289
15.479333834015168	2.668449	1.6335387
15.497021899597165	2.6246717	1.6200838
15.514710336690234	2.5780873	1.6056423
15.53239914573928	2.539225	1.5934947
15.550088327189297	2.4917216	1.5785189
15.567777881485336	2.465415	1.570164
15.58546780907256	2.4847136	1.5762974
15.6031581103962	2.4945192	1.5794047
15.620848785901568	2.4985971	1.5806952
15.638539836034063	2.4575453	1.567656
15.656231261239173	2.4779644	1.5741551
15.673923061962451	2.443076	1.5630342
15.691615238649552	2.4232016	1.5566636
15.709307791746202	2.4143994	1.5538337
15.727000721698221	2.4321537	1.5595363
15.744694028951498	2.440836	1.5623175
15.76238771395202	2.4238195	1.5568621
15.780081777145844	2.4214208	1.5560915
15.797776218979125	2.3610365	1.5365665
15.815471039898094	2.335716	1.5283049
15.833166240349064	2.356598	1.5351214
15.850861820778437	2.3702586	1.5395644
15.868557781632699	2.3943934	1.5473828
15.886254123358412	2.426262	1.5576463
15.903950846402232	2.4775677	1.5740291
15.921647951210897	2.4449866	1.5636452
15.939345438231225	2.4022422	1.5499169
15.957043307910133	2.3614774	1.5367099
15.974741560694602	2.356073	1.5349505
15.992440197031714	2.3914244	1.5464231
16.01013921736862	2.4050531	1.5508233
16.02783862215259	2.4084847	1.5519294
16.045538411830933	2.3702145	1.5395501
16.06323858685107	2.3513591	1.5334142
16.080939147660512	2.3605838	1.5364192
16.09864009470684	2.3744164	1.5409142
16.11634142843774	2.35745	1.535399
16.134043149300954	2.3814664	1.5432
16.15174525774433	2.3769827	1.5417466
16.169447754215817	2.4399412	1.5620311
16.18715063916342	2.4374533	1.5612346
16.204853913035244	2.4476001	1.5644808
16.222557576279478	2.4409235	1.5623455
16.240261629344403	22.437088	4.73678
16.257966072678386	42.986076	6.556377
16.275670906729868	38.118725	6.1740365
16.293376131947387	2.561041	1.6003253
16.31108174877957	2.5361912	1.5925424
16.328787757675133	2.517866	1.5867785
16.34649415908287	2.5162892	1.5862815
16.364200953451657	2.5323021	1.5913209
16.38190814123048	2.5925105	1.6101274
16.39961572286839	2.6242573	1.619956
16.41732369881455	2.6456277	1.6265386
16.43503206951817	2.6932778	1.6411209
16.45274083542859	2.7309928	1.6525716
16.47044999699522	2.7771702	1.6664844
16.488159554667558	2.8231156	1.680213
16.505869508895184	2.8682618	1.6935943
16.523579860127786	2.9015934	1.7034065
16.541290608815117	2.9235153	1.709829
16.559001755407035	2.9617124	1.7209626
16.57671330035348	2.977292	1.7254832
16.59442524410448	3.105664	1.7622894
16.61213758711015	3.1866307	1.7851137
16.629850329820705	3.2706585	1.8084962
16.647563472686436	3.3096852	1.819254
16.665277016157724	3.3994277	1.8437537
16.682990960685053	3.4783454	1.8650323
16.70070530671898	3.5067856	1.8726413
16.718420054710155	3.5234904	1.8770963
16.736135205109335	3.5251377	1.877535
16.753850758367335	3.5599322	1.8867782
16.771566714935087	3.6110423	1.9002743
16.789283075263597	3.6766794	1.9174669
16.80699983980398	3.7398767	1.933876
16.82471700900741	3.8086529	1.9515771
16.84243458332518	3.9007823	1.9750398
16.860152563208665	4.027687	2.0069098
16.87787094910932	4.081447	2.0202591
16.89558974147871	4.1248693	2.0309775
16.913308940768466	4.150811	2.037354
16.931028547430333	4.2430215	2.0598595
16.94874856191613	4.3021836	2.0741706
16.966468984677785	4.338649	2.0829422
16.98418981616729	4.358669	2.0877426
17.00191105683676	4.376459	2.0919988
17.019632707138374	4.4270797	2.1040626
17.03735476752442	4.4537125	2.110382
17.05507723844728	4.49535	2.120224
17.072800120359403	4.5516963	2.1334705
17.090523413713353	4.592015	2.1428988
17.108247118961785	4.612485	2.1476696
17.125971236557437	4.5971665	2.1441004
17.143695766953133	4.6331716	2.1524804
17.161420710601806	4.655911	2.157756
17.179146067956477	4.666111	2.1601183
17.19687183947025	4.668938	2.1607726
17.21459802559634	4.6984324	2.1675868
17.232324626788028	4.64839	2.1560125
17.25005164349871	4.5658393	2.1367824
17.267779076181863	4.559941	2.1354017
17.285506925291074	4.6024957	2.1453428
17.30323519127999	4.601328	2.1450706
17.320963874602384	4.607086	2.1464124
17.33869297571211	4.623296	2.150185
17.356422495063114	4.628805	2.151466
17.37415243310944	4.5906105	2.142571
17.391882790305218	4.5219564	2.1264892
17.40961356710468	4.5197654	2.125974
17.42734476396215	4.5990644	2.144543
17.445076381332044	4.695597	2.1669326
17.462808419668868	4.953385	2.22562
17.48054087942723	5.340006	2.3108454
17.498273761061835	6.16433	2.482807
17.51600706502747	7.385881	2.7176976
17.533740791779024	8.931489	2.9885597
17.551474941771485	11.807553	3.436212
17.56920951545993	14.310812	3.7829633
17.586944513299528	16.793219	4.097953
17.60467993574556	18.590145	4.311629
17.622415783253373	19.629536	4.4305234
17.64015205627843	19.939571	4.465375
17.657888755276293	19.016422	4.360782
17.675625880702604	17.315172	4.1611505
17.69336343301311	15.664977	3.9579005
17.71110141266366	13.722149	3.704342
17.728839820110178	11.94793	3.4565778
17.746578655808705	10.296704	3.2088478
17.764317920215372	8.596221	2.9319313
17.7820576137864	7.0597067	2.6570108
17.79979773697811	5.718884	2.391419
17.81753829024692	4.815742	2.19448
17.835279274049356	4.1709957	2.0423017
17.85302068884201	3.8884299	1.9719102
17.870762535081607	3.7359712	1.9328661
17.888504813224934	3.6112504	1.900329
17.90624752372891	3.5401855	1.881538
17.923990667050536	3.5070627	1.8727154
17.941734243646895	3.4799662	1.8654667
17.959478253975185	3.4470267	1.856617
17.9772226984927	3.4621222	1.8606778
17.994967577656833	3.4534028	1.8583333
18.01271289192506	3.444562	1.8559531
18.030458641754965	3.3807979	1.8386946
18.04820482760425	3.3272607	1.8240781
18.06595144993067	3.2754135	1.8098104
18.083698509192125	3.2730343	1.809153
18.101446005846576	3.271897	1.8088386
18.119193940352105	3.2811213	1.8113866
18.136942313166887	3.2520087	1.8033327
18.1546911247492	3.2046204	1.7901454
18.1724403755574	3.1704857	1.7805858
18.19019006604997	3.127588	1.7684988
18.207940196685467	3.0842283	1.7561971
18.225690767922575	3.0792348	1.7547748
18.243441780220046	3.1200676	1.7663713
18.261193234036764	3.137588	1.7713238
18.278945129831676	3.099047	1.760411
18.29669746806386	3.047148	1.7456082
18.314450249192483	3.0218625	1.7383505
18.3322034736768	3.0707455	1.7523543
18.349957141976184	3.1244144	1.7676014
18.3677112545501	3.1109598	1.7637913
18.385465811858108	3.0686047	1.7517433
18.403220814359884	3.0082667	1.7344356
18.420976262515172	3.0695872	1.7520237
18.43873215678387	3.1082594	1.7630256
18.456488497625923	3.174826	1.7818041
18.474245285501407	3.2501667	1.8028219
18.492002520870486	3.3219252	1.8226149
18.50976020419343	3.343338	1.8284796
18.527518335930615	3.5891666	1.8945096
18.545276916542516	4.1422467	2.0352511
18.563035946489688	4.3199425	2.078447
18.580795426232832	4.813856	2.19405
18.598555356232698	4.7441053	2.1780968
18.616315736950185	5.0685554	2.2513452
18.63407656884626	4.7026415	2.1685574
18.65183785238201	4.844489	2.20102
18.669599588018617	4.5951633	2.1436331
18.68736177621737	4.552172	2.133582
18.705124417439652	4.535022	2.129559
18.72288751214696	4.4177203	2.1018374
18.740651060800886	4.6367664	2.1533153
18.758415063863115	4.390736	2.0954084
18.77617952179546	4.524582	2.1271064
18.793944435059814	4.2013073	2.049709
18.811709804118184	4.206576	2.050994
18.829475629432675	4.1651177	2.040862
18.8472419114655	3.9789336	1.9947264
18.86500865067897	4.0326147	2.0081372
18.88277584753551	3.6962552	1.9225647
18.90054350249763	3.7154484	1.9275498
18.918311616027957	3.4270527	1.85123
18.936080188589226	3.3370373	1.826756
18.953849220644265	3.0456314	1.7451737
18.971618712656007	2.889615	1.6998868
18.9893886650875	2.837567	1.684508
19.007159078401887	8.014879	2.831056
19.024929953062408	32.847336	5.7312593
19.042701289532435	32.793983	5.726603
19.060473088275405	25.363535	5.0362225
19.07824534975489	2.652808	1.6287442
19.096018074434568	2.6396759	1.6247079
19.113791262778197	2.6461062	1.6266856
19.13156491524966	2.6121144	1.6162037
19.149339032312945	2.5628057	1.6008766
19.167113614432136	2.5436044	1.5948682
19.184888662071433	2.5689173	1.6027843
19.202664175695123	2.5960276	1.6112193
19.220440155767623	2.5696104	1.6030004
19.238216602753447	2.5509362	1.5971651
19.2559935171172	2.5440137	1.5949965
19.27377089932361	2.531745	1.5911458
19.291548749837514	2.4921021	1.5786394
19.309327069123835	2.5171528	1.5865537
19.32710585764763	2.5304923	1.5907521
19.344885115874032	2.5174525	1.5866482
19.362664844268313	2.5157437	1.5861096
19.380445043295822	2.5236795	1.5886093
19.39822571342203	2.5183806	1.5869406
19.41600685511252	2.5105536	1.5844727
19.43378846883297	2.5284023	1.590095
19.451570555049173	2.5060039	1.5830363
19.469353114227037	2.4991968	1.5808848
19.48713614683254	2.4959733	1.579865
19.50491965333182	2.50654	1.5832056
19.52270363419109	2.5227704	1.5883231
19.540488089876686	2.5340905	1.5918827
19.55827302085503	2.543428	1.5948129
19.576058427592674	2.5608056	1.6002517
19.593844310556282	2.5432336	1.594752
19.611630670212598	2.5175395	1.5866756
19.629417507028506	2.468186	1.5710461
19.64720482147098	2.4520125	1.5658903
19.6649926140071	2.4605286	1.5686072
19.682780885104084	2.4809818	1.5751133
19.70056963522921	2.4978359	1.5804543
19.718358864849908	2.4812293	1.5751919
19.7361485744337	2.470502	1.5717831
19.753938764448215	2.495003	1.5795579
19.771729435361202	2.541732	1.5942811
19.789520587640506	2.5231936	1.5884564
19.807312221754092	2.5013018	1.5815505
19.825104338170043	2.492948	1.5789073
19.842896937356517	2.5172346	1.5865796
19.860690019781824	2.5055466	1.5828918
19.87848358591436	2.5378475	1.5930623
19.896277636222635	2.5315819	1.5910946
19.914072171175278	2.5174596	1.5866505
19.931867191241015	2.4525735	1.5660695
19.94966269688869	2.4638596	1.5696687
19.967458688587264	2.509301	1.5840774
19.985255166805807	2.506968	1.5833408
20.00305213201348	2.4739933	1.5728933
20.020849584679578	2.4125535	1.5532397
20.038647525273507	2.4313684	1.5592846
20.05644595426477	2.4604735	1.5685897
20.07424487212299	2.4643881	1.569837
20.092044279317903	2.424283	1.5570109
20.109844176319353	2.4522696	1.5659724
20.127644563597304	2.421542	1.5561304
20.145445441621817	2.4067795	1.5513799
20.16324681086307	2.3844588	1.5441693
20.181048671791373	2.4101532	1.5524668
20.198851024877122	2.410357	1.5525324
20.216653870590836	2.3757544	1.5413482
20.234457209403146	2.3585427	1.5357548
20.252261041784802	2.3562224	1.5349991
20.270065368206662	2.3715477	1.539983
20.287870189139685	2.3619218	1.5368545
20.305675505054968	2.3663988	1.5383104
20.323481316423702	2.3425076	1.5305253
20.341287623717207	2.315677	1.5217348
20.359094427406884	2.3313136	1.5268639
20.376901727964288	2.349401	1.5327756
20.39470952586107	2.3484325	1.5324596
20.41251782156899	2.3766887	1.5416512
20.430326615559935	2.3875897	1.5451827
20.448135908305886	2.362053	1.5368972
20.465945700278965	2.3074818	1.5190398
20.483755991951384	2.2739403	1.507959
20.50156678379548	2.264215	1.5047308
20.519378076283708	2.270461	1.506805
20.537189869888635	2.2843318	1.5114006
20.55500216508294	2.32187	1.5237684
20.572814962339415	2.339825	1.5296487
20.59062826213098	2.3459897	1.5316623
20.60844206493066	2.3382735	1.5291414
20.626256371211593	2.3182185	1.5225697
20.644071181447032	2.3097708	1.519793
20.66188649611036	2.28085	1.5102483
20.67970231567506	2.262904	1.5042951
20.697518640614742	2.2946413	1.5148073
20.715335471403122	2.2895522	1.5131266
20.73315280851404	2.3142078	1.521252
20.750970652421447	2.3060186	1.518558
20.768789003599412	2.313476	1.5210116
20.786607862522136	2.2967377	1.5154991
20.8044272296639	2.2708669	1.5069395
20.82224710549913	2.2478418	1.4992805
20.84006749050237	2.274448	1.5081273
20.857888385148268	3.8383038	1.9591589
20.8757097899116	45.87465	6.7730827
20.893531705267254	64.70418	8.043891
20.911354131690224	83.72445	9.150106
20.92917706965566	69.01589	8.30758
20.94700051963877	50.10875	7.0787535
20.96482448211493	29.440157	5.4258785
20.982648957559622	4.189462	2.0468175
21.00047394644843	2.2939167	1.5145682
21.01829944925707	2.2773259	1.5090811
21.036125466461375	2.2544498	1.5014826
21.053951998537297	2.247112	1.499037
21.071779045960906	2.2198353	1.4899112
21.089606609208378	2.2165546	1.4888098
21.10743468875603	2.216954	1.4889439
21.12526328508028	2.2356555	1.4952109
21.143092398657675	2.191233	1.4802814
21.16092202996488	2.1986647	1.4827895
21.17875217947867	2.216975	1.488951
21.19658284767596	2.2186759	1.489522
21.21441403503377	2.1820848	1.4771881
21.232245742029225	2.1341922	1.4608874
21.2500779691396	2.1327777	1.4604032
21.26791071684227	2.1407065	1.4631153
21.28574398561475	2.1776175	1.4756753
21.30357777593465	2.173956	1.4744341
21.321412088279704	2.1499135	1.4662584
21.339246923127792	2.123836	1.4573387
21.357082280956888	2.1282809	1.4588629
21.3749181622451	2.1234457	1.4572048
21.392754567470647	2.1130443	1.4536314
21.41059149711187	2.1043448	1.450636
21.42842895164726	2.107946	1.4518766
21.446266931555378	2.085666	1.4441835
21.464105437314945	2.1190329	1.4556898
21.481944469404798	2.1487646	1.4658664
21.49978402830388	2.1529427	1.4672909
21.51762411449127	2.1018813	1.4497867
21.53546472844617	2.0642917	1.4367644
21.553305870647876	2.068656	1.4382823
21.571147541575865	2.0906951	1.4459237
21.58898974170967	2.1039367	1.4504954
21.60683247152899	2.1132162	1.4536905
21.62467573151363	2.125015	1.4577432
21.642519522143523	2.1065109	1.4513824
21.660363843898722	2.0552454	1.4336127
21.6782086972594	2.013599	1.4190134
21.696054082705864	1.999878	1.4141705
21.713900000718535	1.9678174	1.4027891
21.73174645177795	1.988609	1.4101804
21.749593436364794	2.0094962	1.417567
21.767440954959845	2.042124	1.4290291
21.785289008044032	2.0538716	1.4331335
21.803137596098388	2.0781705	1.4415861
21.820986719604086	2.0680933	1.4380866
21.838836379042412	2.0452473	1.4301214
21.85668657489478	2.0065026	1.4165107
21.87453730764273	1.979023	1.4067775
21.892388577767914	1.9632612	1.4011643
21.91024038575213	1.9698242	1.4035043
21.928092732077285	1.9870139	1.4096148
21.945945617225426	1.9724952	1.4044554
21.963799041678694	1.9849789	1.4088928
21.981653005919398	31.32562	5.5969296
21.999507510429943	78.12148	8.838635
22.01736255569286	73.07902	8.548627
22.035218142190818	4.2008514	2.049598
22.05307427040661	2.032091	1.4255142
22.07093094082315	2.0158532	1.4198074
22.088788153923474	1.9777818	1.4063363
22.106645910190746	1.9822022	1.407907
22.12450421010827	1.9847301	1.4088045
22.142363054159464	1.9748552	1.4052954
22.16022244282787	1.9625312	1.4009037
22.178082376597164	1.9270476	1.3881814
22.195942855951145	1.9175621	1.3847606
22.213803881373742	1.9298674	1.3891966
22.231665453349002	1.9688276	1.4031491
22.24952757236111	1.9912931	1.4111319
22.26739023889438	1.9763889	1.405841
22.28525345343323	1.9200271	1.3856504
22.30311721646225	1.892484	1.3756758
22.320981528466113	1.9148868	1.3837943
22.33884638992964	1.9370224	1.3917695
22.356711801337788	1.9542879	1.3979585
22.37457776317561	1.9296211	1.3891081
22.392444275928337	1.9448341	1.3945731
22.410311340081282	1.9515244	1.3969697
22.428178956119904	1.9862878	1.4093572
22.446047124529805	2.0020843	1.4149503
22.46391584579669	1.9901226	1.410717
22.481785120406414	1.9672722	1.4025948
22.49965494884496	1.936463	1.3915685
22.51752533159841	1.9370095	1.3917649
22.53539626915302	1.9267251	1.3880652
22.553267761995137	1.9085659	1.3815086
22.571139810611264	1.91343	1.3832679
22.589012415488025	1.9630346	1.4010834
22.60688557711216	1.9838781	1.4085021
22.624759295970566	2.0091765	1.4174542
22.642633572550263	1.9465698	1.3951952
22.660508407338362	1.9261158	1.3878458
22.67838380082217	1.9231638	1.3867818
22.696259753489077	1.9254793	1.3876164
22.714136265826614	1.9241148	1.3871247
22.73201333832246	1.9339538	1.3906666
22.74989097146439	1.9327868	1.390247
22.76776916574035	1.9069847	1.3809361
22.785647921638393	1.9131036	1.3831499
22.803527239646712	1.8967257	1.3772166
22.82140712025363	1.9167863	1.3844805
22.839287563947593	1.9045851	1.3800671
22.85716857121719	1.930225	1.3893254
22.875050142551135	1.971931	1.4042546
22.892932278438277	2.0240853	1.4227035
22.910814979367604	1.9782336	1.4064969
22.928698245828222	1.9500139	1.396429
22.946582078309387	1.9263347	1.3879247
22.96446647730047	1.9479077	1.3956746
22.98235144329098	1.8949437	1.3765695
23.000236976770562	1.9058459	1.3805238
23.018123078229	1.9269401	1.3881427
23.03600974815619	1.9720933	1.4043124
23.053896987042194	1.9244624	1.38725
23.071784795377173	1.8903123	1.3748863
23.08967317365145	1.909121	1.3817095
23.10756212235546	1.9317433	1.3898717
23.125451641979787	1.9387194	1.392379
23.143341733015134	1.9207039	1.3858947
23.161232395952357	1.9408892	1.393158
23.179123631282426	1.9265188	1.387991
23.197015439496468	1.9310709	1.3896297
23.214907821085717	1.9360621	1.3914245
23.23280077654157	1.9548256	1.3981508
23.250694306355538	1.9594781	1.3998137
23.268588411019277	1.9477688	1.3956249
23.28648309102458	1.9447092	1.3945283
23.304378346863356	1.9303114	1.3893565
23.322274179027676	1.944611	1.3944931
23.340170588009723	1.9570024	1.398929
23.358067574301852	1.9523773	1.397275
23.37596513839651	1.938056	1.3921407
23.39386328078629	1.9067047	1.3808348
23.411762001963947	1.904048	1.3798724
23.429661302422353	1.8947808	1.3765104
23.4475611826545	1.8894112	1.3745586
23.46546164315356	1.8835298	1.3724174
23.48336268441279	1.8978572	1.3776274
23.501264306925638	1.9178168	1.3848526
23.51916651118564	1.9170512	1.3845762
23.537069297686497	1.9392364	1.3925647
23.554972666922037	1.9195704	1.3854856
23.57287661938623	1.9555718	1.3984176
23.59078115557318	1.9572539	1.3990189
23.608686275977128	1.9810498	1.4074976
23.62659198109246	2.0039675	1.4156156
23.6444982714137	2.0032177	1.4153507
23.66240514743549	1.9725718	1.4044827
23.68031260965263	1.9452906	1.3947368
23.698220658560068	1.9296235	1.3891089
23.716129294652845	1.9344469	1.390844
23.7340385184262	1.9643794	1.4015632
23.75194833037546	1.9963822	1.412934
23.769858730996123	2.0283802	1.4242121
23.78776972078382	2.0073211	1.4167995
23.80568130023431	1.9635687	1.401274
23.823593469843495	1.9747521	1.4052588
23.841506230107424	1.9709288	1.4038978
23.859419581522275	1.9592874	1.3997455
23.87733352458438	1.9533256	1.3976142
23.89524805979019	1.9567628	1.3988434
23.913163187636318	1.9660335	1.4021531
23.931078908619508	1.9654845	1.4019574
23.948995223236633	1.9353741	1.3911773
23.966912131984735	1.9309229	1.3895766
23.98482963536096	1.995488	1.4126174
24.002747733862616	2.0677817	1.4379784
24.020666427987155	2.107491	1.45172
24.038585718232156	2.055108	1.4335648
24.056505605095353	2.072176	1.4395055
24.074426089074617	2.1311746	1.4598542
24.092347170667946	2.1505687	1.4664818
24.110268850373515	2.1534333	1.4674581
24.128191128689586	2.1358392	1.461451
24.146114006114626	2.1199138	1.4559923
24.164037483147187	2.1126115	1.4534825
24.181961560286005	2.1110356	1.4529403
24.199886238029926	2.0822146	1.442988
24.21781151687797	2.052303	1.4325862
24.235737397329274	2.0359023	1.4268504
24.253663879883135	2.0202544	1.4213566
24.271590965038975	2.0249631	1.423012
24.289518653296376	2.0114865	1.4182688
24.30744694515505	2.0290093	1.424433
24.32537584111486	2.0522044	1.4325517
24.34330534167581	2.1015391	1.4496686
24.361235447338046	2.1189444	1.4556594
24.379166158601876	2.0981557	1.4485012
24.39709747596772	2.0721018	1.4394797
24.41502939993615	2.1044972	1.4506885
24.432961931007917	2.0399776	1.4282779
24.450895069683856	1.9954971	1.4126207
24.468828816465	1.9406633	1.3930769
24.4867631718525	1.9414122	1.3933457
24.504698136347656	1.9497482	1.3963338
24.52263371045192	1.9578291	1.3992245
24.540569894666874	1.9796557	1.4070024
24.558506689494266	1.9530405	1.3975122
24.57644409543597	1.9508591	1.3967316
24.594382112994012	1.9892032	1.4103912
24.61232074267057	2.008546	1.4172318
24.630259984967953	1.9530122	1.3975022
24.64819984038863	1.9403125	1.392951
24.66614030943522	1.9795681	1.4069712
24.684081392610462	2.0505655	1.4319795
24.702023090417274	2.078852	1.4418224
24.7199654033587	2.0461433	1.4304347
24.737908331937927	2.0093143	1.4175029
24.755851876658305	2.0157504	1.4197712
24.773796038023324	2.049389	1.4315686
24.79174081653661	2.1131268	1.4536598
24.809686212701962	2.1483269	1.4657172
24.827632227023294	2.1023426	1.4499457
24.8455788600047	2.0453868	1.4301702
24.8635261121504	2.1093662	1.4523658
24.88147398396475	2.1717825	1.4736968
24.899422475952303	2.2565525	1.5021826
24.917371588617698	2.388759	1.5455611
24.935321322465768	2.6397998	1.6247461
24.953271678001478	3.0110986	1.7352518
24.97122265572994	3.537489	1.8808213
24.989174256156414	4.0864267	2.0214913
25.00712647978632	4.647385	2.1557794
25.02507932712521	5.3335867	2.3094559
25.043032798678798	6.2622805	2.502455
25.060986894952933	7.535266	2.745044
25.078941616453637	8.204788	2.8644001
25.096896963687055	8.563154	2.9262867
25.114852937159508	8.201667	2.8638551
25.132809537377444	7.377901	2.7162292
25.150766764847468	6.224981	2.494991
25.168724620076347	4.7774787	2.1857445
25.186683103570985	3.6727867	1.9164516
25.204642215838426	2.93745	1.713899
25.222601957385894	2.444121	1.5633684
25.24056232872074	2.1927564	1.4807959
25.25852333035048	2.1184292	1.4554825
25.276484962782778	2.0362175	1.426961
25.294447226525435	1.952626	1.3973639
25.312410122086423	1.8997365	1.3783092
25.330373649973843	1.9226658	1.3866023
25.348337810695988	1.9101833	1.3820938
25.366302604761245	1.916078	1.3842247
25.384268032678207	1.9069006	1.3809057
25.40223409495558	1.9332646	1.3904189
25.420200792102257	1.906048	1.380597
25.438168124627246	1.8695897	1.3673294
25.45613609303974	1.8771029	1.370074
25.474104697849057	1.893414	1.3760139
25.492073939564698	1.906829	1.3808798
25.510043818696285	1.9036905	1.3797429
25.528014335753614	1.9054871	1.3803939
25.54598549124664	1.8839804	1.3725816
25.56395728568544	1.902388	1.3792708
25.58192971958028	1.903826	1.379792
25.59990279344156	1.8932717	1.3759621
25.617876507779833	1.8707545	1.3677553
25.635850863105826	1.8698671	1.3674308
25.653825859930386	1.9073291	1.3810608
25.671801498764548	1.9115303	1.382581
25.68977778011949	1.904931	1.3801924
25.707754704506524	1.905395	1.3803605
25.725732272437153	1.9164244	1.3843498
25.743710484423012	1.9328525	1.3902707
25.761689340975888	1.8933237	1.375981
25.77966884260774	1.8958663	1.3769046
25.797648989830662	1.8962636	1.3770489
25.815629783156922	1.8947377	1.3764948
25.83361122309895	1.8539253	1.3615893
25.85159331016929	1.8812305	1.3715795
25.869576044880695	1.9357946	1.3913283
25.887559427746034	1.9185969	1.3851342
25.90554345927836	1.8612565	1.3642788
25.92352813999086	1.8430932	1.3576057
25.94151347039689	1.8403376	1.3565904
25.959499451009965	1.858953	1.3634343
25.97748608234374	1.8683141	1.3668629
25.995473364912062	1.8668454	1.3663255
26.013461299228904	1.8602953	1.3639264
26.03144988580839	1.8873131	1.3737952
26.04943912516483	1.9212416	1.3860886
26.067429017812675	1.919882	1.3855981
26.085419564266537	1.8471768	1.3591088
26.103410765041186	1.791073	1.3383098
26.12140262065155	1.7865502	1.3366189
26.139395131612723	1.8259013	1.3512591
26.157388298439948	1.8544385	1.3617777
26.17538212164861	1.8113695	1.3458713
26.193376601754295	1.8425142	1.3573924
26.211371739272714	1.8780961	1.3704364
26.229367534719746	1.9032438	1.379581
26.247363988611433	1.8918467	1.3754442
26.26536110146397	1.8785545	1.3706037
26.283358873793727	1.8656167	1.3658758
26.301357306117204	1.852207	1.3609581
26.319356398951104	1.8251243	1.3509716
26.33735615281224	1.8273774	1.3518052
26.35535656821762	1.864123	1.3653289
26.373357645684404	1.8777258	1.3703014
26.39135938572991	1.8399982	1.3564653
26.409361788871614	1.8430477	1.3575889
26.427364855627165	1.8740298	1.368952
26.445368586514352	1.8341981	1.3543257
26.46337298205115	1.7771693	1.3331052
26.48137804275568	1.7807215	1.3344368
26.499383769146217	1.8013062	1.3421276
26.517390161741215	1.8263524	1.351426
26.53539722105928	1.8444654	1.3581109
26.553404947619182	1.8548867	1.3619423
26.571413341939856	1.8602378	1.3639053
26.589422404540397	1.8254558	1.3510942
26.60743213594006	1.7947552	1.3396847
26.62544253665827	1.7988715	1.3412201
26.64345360721459	1.876729	1.3699375
26.66146534812879	1.9121382	1.3828008
26.679477759920758	1.8572391	1.3628056
26.69749084311057	1.8032093	1.3428363
26.71550459821847	1.8343365	1.3543768
26.733519025764842	1.8705654	1.3676862
26.751534126270258	1.8568059	1.3626467
26.769549900255434	1.7959554	1.3401326
26.787566348241267	1.7834213	1.335448
26.80558347074881	1.7998925	1.3416008
26.823601268299267	1.817419	1.3481169
26.841619741414036	1.7963079	1.3402641
26.85963889061465	1.7655988	1.3287584
26.877658716422832	1.7468733	1.3216933
26.89567921936045	1.7875602	1.3369967
26.913700399949544	1.8441714	1.3580028
26.93172225871233	1.8445648	1.3581475
26.949744796171174	1.8451661	1.3583689
26.967768012848605	1.8267752	1.3515825
26.98579190926733	1.8462344	1.3587621
27.003816485950225	1.8546585	1.3618585
27.021841743420318	1.8614545	1.3643513
27.039867682200814	1.8075535	1.3444529
27.057894302815072	1.7713175	1.3309085
27.07592160578664	1.7858492	1.3363566
27.0939495916392	1.7902511	1.3380027
27.111978260896635	1.8182856	1.3484381
27.13000761408296	1.8430256	1.3575808
27.148037651722397	1.8542961	1.3617254
27.166068374339304	1.8183342	1.3484563
27.184099782458215	1.8006402	1.3418794
27.20213187660384	1.7961063	1.3401889
27.22016465730105	1.7643088	1.3282728
27.23819812507487	1.7760473	1.3326843
27.256232280450533	1.8105274	1.3455584
27.274267123953383	1.8523941	1.3610269
27.292302656108987	1.8379098	1.3556954
27.31033887744306	1.8386819	1.35598
27.32837578848146	1.8703308	1.3676004
27.34641338975026	1.824215	1.350635
27.364451681775673	1.7993371	1.3413937
27.382490665084074	1.8174001	1.3481098
27.400530340202046	1.8428363	1.357511
27.41857070765629	1.8120993	1.3461424
27.436611767973726	1.7778497	1.3333603
27.454653521681404	1.8430336	1.3575838
27.472695969306564	1.8870338	1.3736935
27.490739111376627	1.8924001	1.3756454
27.508782948419153	1.8811097	1.3715355
27.526827480961902	1.861186	1.3642529
27.54487270953279	1.8250589	1.3509474
27.562918634659898	1.8244048	1.3507053
27.580965256871508	1.8217465	1.3497208
27.599012576696026	1.8216196	1.3496739
27.617060594662068	1.8519357	1.3608584
27.63510931129842	1.8340414	1.3542678
27.65315872713401	1.8217697	1.3497295
27.67120884269797	1.8480258	1.3594211
27.68925965851958	1.8818697	1.3718126
27.707311175128307	1.9083986	1.381448
27.725363393053787	1.9014385	1.3789265
27.74341631282583	1.8985418	1.3778758
27.7614699349744	1.878169	1.370463
27.77952426002968	2.032485	1.4256525
27.797579288521973	2.1110566	1.4529475
27.815635020981784	2.4391656	1.5617828
27.83369145793979	2.5482824	1.5963341
27.85174859992682	2.473066	1.5725985
27.869806447473923	2.3190472	1.5228418
27.887865001112267	2.086944	1.444626
27.905924261373233	2.0039053	1.4155936
27.92398422878836	1.924923	1.3874159
27.94204490388936	1.8687199	1.3670113
27.96010628720813	1.8908725	1.37509
27.978168379276728	1.8914732	1.3753084
27.9962311806274	1.8626118	1.3647753
28.014294691792568	1.8449736	1.3582981
28.0323589133048	1.8616426	1.3644203
28.050423845696887	1.8910681	1.3751612
28.068489489501758	1.9478679	1.3956604
28.086555845252523	1.937652	1.3919957
28.104622913482487	1.8812065	1.3715708
28.122690694725115	1.8832263	1.372307
28.14075918951405	1.9494466	1.3962258
28.15882839838312	1.9864979	1.4094318
28.176898321866304	1.9498932	1.3963858
28.1949689604978	1.9110042	1.3823907
28.213040314811945	1.9479032	1.395673
28.23111238534327	2.0147524	1.4194198
28.249185172626493	2.0234365	1.4224755
28.267258677196473	1.9771308	1.4061048
28.285332899588294	1.946838	1.3952913
28.303407840337172	1.9759667	1.4056908
28.321483499978545	2.0602186	1.4353461
28.33955987904799	2.0381694	1.4276447
28.357636978081285	1.9252888	1.3875477
28.37571479761439	1.9165217	1.384385
28.393793338183425	1.9632416	1.4011573
28.41187260032469	1.9835385	1.4083815
28.429952584574686	1.9491514	1.3961201
28.448033291470065	1.9937034	1.4119856
28.46611472154769	2.0461924	1.4304519
28.484196875344566	2.034419	1.4263307
28.502279753397914	1.9919505	1.4113648
28.52036335624511	2.0176105	1.4204261
28.538447684423716	2.028024	1.424087
28.556532738471482	2.0169857	1.4202062
28.574618518926325	2.048743	1.4313431
28.59270502632635	2.0528696	1.4327838
28.61079226120985	2.011925	1.4184234
28.628880224115274	2.0166857	1.4201006
28.646968915581287	2.044954	1.4300189
28.66505833614671	2.073509	1.4399683
28.68314848635055	2.0674706	1.4378701
28.701239366732004	2.1035697	1.4503689
28.71933097783044	2.1162126	1.4547209
28.737423320185403	2.1847072	1.4780755
28.75551639433665	2.1765265	1.4753056
28.773610200824074	2.1403215	1.4629837
28.791704740187793	2.1452143	1.464655
28.80980001296809	2.1678925	1.4723765
28.827896019705413	2.1980405	1.482579
28.845992760940433	2.2169096	1.488929
28.86409023721397	2.2194307	1.4897754
28.88218844906704	2.2235005	1.4911407
28.900287397040845	2.2451584	1.4983853
28.918387081676755	2.29535	1.5150412
28.936487503516343	2.3191772	1.5228845
28.954588663101365	2.3417432	1.5302756
28.97269056097374	2.4208817	1.5559183
28.990793197675597	2.46775	1.5709074
29.00889657374923	2.4390247	1.5617377
29.027000689737125	2.4175527	1.5548481
29.04510554618196	2.3696964	1.5393819
29.06321114362659	2.3821075	1.5434078
29.08131748261405	2.482188	1.5754961
29.099424563687567	2.550415	1.5970019
29.11753238739057	2.5616188	1.6005058
29.13564095426663	2.55376	1.5980488
29.15375026485954	2.5891886	1.6090956
29.171860319713275	2.6537542	1.6290348
29.18997111937199	2.7435977	1.6563809
29.20808266438002	2.841403	1.6856462
29.226194955281898	2.8716452	1.694593
29.244307992622335	2.8910837	1.7003187
29.26242177694624	2.8984685	1.7024889
29.2805363087987	2.9071612	1.70504
29.29865158872498	2.973779	1.7244649
29.316767617270557	3.0478804	1.745818
29.334884394981064	3.19183	1.7865694
29.353001922402367	3.2975254	1.815909
29.37112020008047	3.6511729	1.9108043
29.389239228561596	4.243114	2.059882
29.407359008392152	5.238657	2.2888112
29.42547954011872	6.7807865	2.6039944
29.44360082428809	8.810404	2.9682324
29.46172286144722	11.361916	3.370744
29.479845652143283	14.367927	3.7905047
29.497969196923606	17.267254	4.1553884
29.516093496335728	18.738283	4.328774
29.5342185509274	18.676716	4.3216567
29.55234436124651	17.236937	4.151739
29.570470927841175	14.910328	3.8613894
29.588598251259686	12.068807	3.4740188
29.60672633205055	9.077584	3.012903
29.624855170762405	6.7439237	2.5969067
29.642984767944146	5.0925674	2.2566717
29.66111512414481	4.2073936	2.0511932
29.67924623991366	3.7812042	1.9445319
29.697378115800138	3.5740747	1.8905224
29.71551075235387	3.4293826	1.8518592
29.733644150124675	3.3087828	1.819006
29.751778309662576	3.3099427	1.8193249
29.769913231517766	3.3896327	1.8410956
29.78804891624066	3.4477425	1.8568097
29.806185364381818	3.4109488	1.8468754
29.82432257649206	3.3844326	1.8396827
29.842460553122333	3.35859	1.8326457
29.86059929482382	3.3175464	1.8214133
29.878738802147872	3.3185077	1.8216772
29.896879075646048	3.256278	1.804516
29.915020115870114	3.2319665	1.797767
29.933161923371976	3.206171	1.7905784
29.951304498703777	3.2786248	1.8106973
29.969447842417857	3.2874005	1.8131189
29.987591955066733	3.2772167	1.8103085
30.005736837203123	3.2163231	1.793411
30.023882489379943	3.2768795	1.8102154
30.04202891215028	3.3503928	1.8304079
30.060176106067455	3.2836986	1.8120978
30.078324071684946	3.152887	1.7756371
30.09647280955646	3.1278157	1.7685632
30.114622320235863	3.186651	1.7851193
30.132772604277257	3.1292543	1.7689699
30.1509236622349	3.0185876	1.7374083
30.16907549466328	2.9908469	1.7294065
30.18722810211705	2.9928484	1.7299851
30.205381485151097	3.0645096	1.7505741
30.22353564432045	3.143513	1.7729955
30.241690580180403	3.1737018	1.7814887
30.25984629328638	3.0087755	1.7345822
30.278002784194037	2.9635673	1.7215015
30.296160053459246	2.9812007	1.7266154
30.314318101638033	2.983685	1.7273346
30.332476929286646	3.01152	1.7353731
30.35063653696153	3.0076678	1.734263
30.368796925219307	3.0049274	1.7334726
30.386958094616844	2.957295	1.7196788
30.40512004571115	2.884367	1.6983424
30.423282779059463	2.8410034	1.6855277
30.441446295219233	2.8315773	1.6827291
30.459610594748067	2.7891731	1.6700817
30.47777567820382	2.7825537	1.6680988
30.495941546144504	2.8071313	1.6754496
30.51410819912835	2.8045456	1.6746777
30.532275637713795	2.7967112	1.672337
30.55044386245946	2.8178873	1.6786563
30.56861287392416	2.8717997	1.6946385
30.586782672666956	2.901681	1.7034321
30.604953259247047	2.8342023	1.6835089
30.623124634223885	2.8043633	1.6746234
30.641296798157075	2.7979972	1.6727215
30.659469751606462	2.8332958	1.6832397
30.677643495132074	2.8855906	1.6987026
30.695818029294152	2.8281417	1.681708
30.713993354653116	2.8190627	1.6790065
30.73216947176962	2.8456116	1.686894
30.75034638120448	2.874322	1.6953825
30.768524083518756	2.974771	1.7247524
30.786702579273673	3.2080846	1.7911127
30.80488186903069	3.4810283	1.8657514
30.82306195335144	3.793557	1.9477055
30.841242832797782	4.207807	2.051294
30.85942450793176	4.6453123	2.1552987
30.877606979315637	5.014145	2.2392287
30.895790247511883	5.0854645	2.2550974
30.913974313083134	4.7581463	2.1813176
30.932159176592283	4.3615246	2.0884264
30.95034483860237	3.9407148	1.9851234
30.968531299676698	3.4855013	1.8669497
30.98671856037873	3.1028454	1.7614895
31.00490662127215	2.8450778	1.6867359
31.023095482920848	2.6790574	1.6367826
31.04128514588892	2.5944808	1.6107392
31.059475610740662	2.4965148	1.5800363
31.07766687804056	2.4689894	1.5713018
31.09585894835335	2.4188483	1.5552647
31.11405182224393	2.432776	1.5597359
31.132245500277417	2.4544487	1.566668
31.15043998301914	2.4366405	1.5609742
31.168635271034628	2.4610898	1.5687861
31.18683136488964	2.5247126	1.5889344
31.20502826515008	2.5500476	1.5968869
31.223225972382135	2.467936	1.5709666
31.241424487152155	2.411565	1.5529214
31.259623810026692	2.4250484	1.5572567
31.27782394157253	2.472979	1.5725708
31.296024882356644	2.5071018	1.583383
31.314226632946237	2.547199	1.5959947
31.332429193908684	2.4786186	1.5743629
31.350632565811598	2.44372	1.5632403
31.368836749222787	2.5075562	1.5835265
31.387041744710295	2.5433388	1.5947849
31.40524755284232	2.5713494	1.6035428
31.423454174187317	2.565836	1.6018227
31.441661609313922	2.5867937	1.6083512
31.459869858791002	2.6465652	1.6268268
31.478078923187628	2.5593188	1.5997871
31.496288803073064	2.3510342	1.5333083
31.514499499016807	2.250383	1.5001277
31.532711011588546	2.2829466	1.5109423
31.550923341358178	2.4040148	1.5504886
31.56913648889584	2.444984	1.5636444
31.587350454771844	2.3938994	1.5472231
31.605565239556732	2.347023	1.5319997
31.62378084382127	2.3082864	1.5193046
31.641997268136382	2.28945	1.5130929
31.660214513073274	2.2859063	1.5119214
31.67843257920331	2.2646062	1.5048609
31.6966514670981	2.268009	1.505991
31.71487117732944	2.3070817	1.518908
31.733091710469346	2.3014555	1.5170549
31.751313067090052	2.2619126	1.5039656
31.769535247764008	2.3292174	1.5261774
31.787758253063878	2.4239535	1.5569052
31.805982083562526	2.382815	1.5436369
31.824206739833024	2.3660004	1.5381808
31.84243222244869	2.3939614	1.5472431
31.860658531983013	2.3771503	1.541801
31.878885669009737	2.4199607	1.5556223
31.897113634102784	2.4174726	1.5548223
31.91534242783632	2.3123448	1.5206397
31.933572050784694	2.2986357	1.5161252
31.951802503522508	2.2693017	1.5064201
31.970033786624548	2.2186694	1.4895198
31.988265900665834	2.1741667	1.4745055
32.006498846221575	2.2269554	1.4922987
32.02473262386724	2.2959998	1.5152557
32.04296723417845	2.2404976	1.4968292
32.0612026777311	2.1430926	1.4639305
32.07943895510129	2.1028137	1.4501082
32.097676066865304	2.2325463	1.4941708
32.115914013599685	2.3209484	1.5234659
32.13415279588115	2.2996008	1.5164435
32.152392414286666	2.2543328	1.5014436
32.1706328693934	2.248678	1.4995593
32.18887416177875	2.1026282	1.4500443
32.20711629202032	2.0043643	1.4157557
32.225359260695924	2.1053686	1.4509889
32.243603068383614	2.161244	1.470117
32.26184771566166	2.141893	1.4635208
32.28009320310852	2.1182988	1.4554377
32.2983395313029	2.241887	1.4972932
32.31658670082372	2.2684426	1.506135
32.33483471225012	2.1913264	1.480313
32.35308356616143	2.0340877	1.4262145
32.371333263137245	2.0412552	1.428725
32.38958380375734	2.1066427	1.4514278
32.407835188601744	2.1367524	1.4617635
32.42608741825067	2.0417237	1.428889
32.444340493284585	2.076823	1.4411187
32.46259441428416	2.1046402	1.4507378
32.48084918183028	2.0492914	1.4315346
32.49910479650405	1.9709243	1.4038961
32.51736125888683	1.9902196	1.4107515
32.53561856956014	2.0414479	1.4287925
32.5538767291058	2.0942214	1.4471425
32.572135738105764	2.1060455	1.4512221
32.59039559714228	2.062689	1.4362065
32.608656306797776	2.0221636	1.422028
32.62691786765491	2.0011108	1.4146062
32.645180280296586	2.020827	1.421558
32.663443545305896	2.059451	1.4350787
32.68170766326619	2.068489	1.4382243
32.69997263476099	2.0547519	1.4334406
32.7182384603741	1.9772784	1.4061573
32.7365051406895	1.9337853	1.390606
32.75477267629144	1.9233086	1.386834
32.77304106776434	1.9508616	1.3967324
32.79131031569289	1.9425852	1.3937665
32.809580420661966	2.0649607	1.4369972
32.827851383256714	2.2029278	1.4842263
32.84612320406245	2.1750956	1.4748205
32.86439588366476	2.1462493	1.4650083
32.88266942264945	2.0732224	1.4398689
32.9009438216025	2.0405989	1.4284953
32.9192190811102	2.0235837	1.4225272
32.937495201758985	2.034777	1.4264561
32.95577218413556	2.028702	1.4243251
32.974050028826866	1.9665422	1.4023346
32.992328736420035	1.9493747	1.3962001
33.010608307502444	2.0013084	1.4146761
33.02888874266169	2.0634189	1.4364605
33.047170042485604	2.1253896	1.4578716
33.06545220756225	2.1564136	1.4684732
33.083735238479896	2.0828097	1.4431943
33.10201913582707	2.0027199	1.4151748
33.12030390019248	1.9261358	1.3878529
33.138589532165135	1.986037	1.4092683
33.15687603233419	2.0479527	1.431067
33.17516340128909	1.9918624	1.4113336
33.19345163961947	1.9509157	1.3967519
33.211740747915215	2.011575	1.4183
33.23003072676643	2.084401	1.4437455
33.248321576763466	2.084972	1.4439431
33.266613298496885	2.0017095	1.4148178
33.28490589255747	2.0321922	1.4255497
33.30319935953626	2.0104208	1.417893
33.32149370002451	1.9332249	1.3904046
33.339788914613706	1.905134	1.380266
33.358085003895575	1.9463537	1.3951178
33.376381968462034	1.9626483	1.4009455
33.39467980890529	1.9957017	1.412693
33.41297852581774	1.9913207	1.4111416
33.43127811979204	2.057942	1.4345529
33.44957859142105	2.0794811	1.4420406
33.467879941297866	1.9991999	1.4139307
33.486182170015844	1.9939464	1.4120717
33.50448527816853	2.0165043	1.4200367
33.522789266349754	2.0936053	1.4469296
33.541094135153514	2.019773	1.4211872
33.55939988517411	1.8664463	1.3661795
33.57770651700602	1.8362266	1.3550744
33.59601403124398	1.9117842	1.3826728
33.61432242848296	1.9372975	1.3918684
33.632631709318154	1.9332613	1.3904177
33.650941874344994	1.9406294	1.3930647
33.66925292415916	1.9288038	1.3888139
33.68756485935654	1.9921014	1.4114182
33.70587768053328	2.0517106	1.4323794
33.724191388285746	1.958363	1.3994153
33.74250598321054	1.9640349	1.4014403
33.760821465904506	2.0611846	1.4356827
33.77913783696474	2.0584342	1.4347245
33.79745509698852	2.0595222	1.4351035
33.815773246573414	1.9889264	1.410293
33.8340922863172	1.9447931	1.3945584
33.852412216817896	1.9430991	1.3939509
33.87073303867377	1.9365157	1.3915875
33.889054752483304	1.9361651	1.3914615
33.907377358845245	1.9910145	1.4110332
33.92570085835853	2.0346463	1.4264103
33.94402525162239	2.1003945	1.4492738
33.96235053923627	2.2122808	1.4873738
33.980676721799824	2.299778	1.5165019
33.999003799912984	2.1767259	1.4753731
34.01733177417592	2.0297837	1.4247048
34.03566064518901	2.0167816	1.4201343
34.0539904135529	2.018831	1.4208558
34.07232107986846	2.040815	1.428571
34.090652644736785	2.0838604	1.4435582
34.108985108759235	2.067599	1.4379148
34.12731847253742	2.0996585	1.4490198
34.14565273667313	2.1150575	1.4543238
34.16398790176847	1.9784288	1.4065664
34.18232396842574	1.8909513	1.3751186
34.20066093724749	1.8814998	1.3716778
34.21899880883651	2.0634782	1.4364812
34.23733758379583	2.0894039	1.445477
34.25567726272874	1.9600116	1.4000041
34.27401784623872	2.0282247	1.4241575
34.29235933492957	2.0525453	1.4326707
34.31070172940526	2.0264688	1.423541
34.32904503027003	1.967081	1.4025266
34.347389238128386	1.868332	1.3668694
34.36573435358502	1.8142728	1.3469495
34.38408037724492	1.9082066	1.3813785
34.402427309713296	2.0233562	1.4224472
34.42077515159559	1.9172279	1.38464
34.43912390349752	1.8518912	1.3608421
34.45747356602499	1.9090397	1.38168
34.47582413978423	1.940999	1.3931974
34.49417562538163	1.9450366	1.3946457
34.51252802342388	1.9226921	1.3866117
34.53088133451789	2.0323515	1.4256057
34.54923555927084	2.1289494	1.459092
34.567590698290104	2.030915	1.4251018
34.58594675218336	1.8595703	1.3636606
34.6043037215585	1.7741108	1.3319575
34.62266160702365	1.8956275	1.376818
34.641020409187234	2.0673678	1.4378344
34.65938012865785	1.8414265	1.3569916
34.677740766044394	1.648566	1.283965
34.69610232195598	1.8178308	1.3482696
34.714464797002016	1.967245	1.4025851
34.73282819179208	1.9364327	1.3915577
34.751192506936064	2.0644295	1.4368123
34.76955774304408	2.1425467	1.463744
34.7879239007265	1.9983112	1.4136163
34.80629098059391	2.0581229	1.434616
34.824658983257194	2.0392032	1.4280068
34.843027909327446	1.9466494	1.3952237
34.86139775941603	1.9131118	1.3831528
34.879768534134534	2.0411868	1.428701
34.89814023409483	2.0154033	1.419649
34.91651285990901	1.9940788	1.4121186
34.93488641218944	1.9850597	1.4089215
34.95326089154871	1.8428153	1.3575033
34.97163629859967	1.9484316	1.3958623
34.99001263395542	2.133222	1.4605554
35.00838989822934	2.1940002	1.4812158
35.02676809203499	2.033564	1.4260309
35.04514721598624	1.864912	1.3656179
35.063527270697215	1.7956578	1.3400215
35.081908256782256	1.7889507	1.3375167
35.10029017485597	1.8811496	1.3715501
35.11867302553321	1.8587402	1.3633562
35.137056809429104	1.7921263	1.3387032
35.155441527159006	1.8597314	1.3637197
35.173827179338524	1.9730214	1.4046428
35.19221376658354	1.941855	1.3935045
35.21060128951017	2.2309742	1.4936446
35.2289897487348	2.3767667	1.5416766
35.24737914487405	2.139268	1.4626236
35.26576947854479	1.8887873	1.3743316
35.28416075036418	1.7548988	1.324726
35.30255296094958	1.9934195	1.4118851
35.32094611091867	2.0948703	1.4473667
35.33934020088932	2.2934408	1.5144111
35.35773523147969	2.4523888	1.5660105
35.3761312033082	2.4505537	1.5654244
35.394528116993506	2.0940204	1.447073
35.41292597315452	1.8807287	1.3713967
35.431324772410434	1.9427816	1.393837
35.449724515380666	1.9486225	1.3959306
35.46812520268491	1.8594191	1.3636051
35.486526834943106	1.9539199	1.3978268
35.504929412775454	2.070096	1.4387828
35.52333293680242	1.9126557	1.382988
35.54173740764471	2.2834723	1.5111163
35.560142825923286	2.2454832	1.4984937
35.5785491922594	1.5750294	1.2550018
35.59695650727454	1.3644599	1.168101
35.61536477159042	1.1140177	1.0554703
