0.008763373481513119	0.56609195	0.7523908
0.026290120649546365	0.18888974	0.43461448
0.043816868432600686	0.22719696	0.47665182
0.06134361724069026	0.18301807	0.4278061
0.07887036748382949	0.14296983	0.3781135
0.0963971195720331	0.057759125	0.24033128
0.11392387391531617	0.0443932	0.21069694
0.1314506309236943	0.08104955	0.28469202
0.1489773910071836	0.1954091	0.44205102
0.16650415457580078	0.25311688	0.50310725
0.18403092203956356	0.25389457	0.5038795
0.20155769380849	0.23062877	0.48023826
0.2190844702925996	0.21222667	0.46068066
0.2366112519019124	0.13939355	0.37335446
0.2541380390464497	0.09411323	0.3067788
0.27166483213623416	0.13500752	0.3674337
0.28919163158128947	0.18912596	0.43488613
0.3067184377916406	0.22503933	0.47438312
0.324245251177314	0.19675775	0.44357383
0.34177207214833777	0.16235642	0.40293476
0.3592989011147415	0.14952156	0.3866802
0.37682573848655654	0.1722771	0.41506276
0.39435258467381573	0.1685728	0.41057616
0.41187944008655414	0.1510286	0.38862398
0.42940630513480854	0.12801376	0.3577901
0.446933180228618	0.1316824	0.36288068
0.4644600657780234	0.12065309	0.34735155
0.48198696219306775	0.14711915	0.38356113
0.49951386988379676	0.1528894	0.39101073
0.5170407892602581	0.21222298	0.46067664
0.5345677207325025	0.2122229	0.46067658
0.5520946647105822	0.19349949	0.43988577
0.5696216216045534	0.1375398	0.3708636
0.5871485918244737	0.1227584	0.35036895
0.6046755757804043	0.122942746	0.35063192
0.6222025738824094	0.14658804	0.38286817
0.6397295865405557	0.15267526	0.39073682
0.6572566141649129	0.16434222	0.40539145
0.6747836571655547	0.18751942	0.43303514
0.6923107159525568	0.1719184	0.41463044
0.7098377909359992	0.18230167	0.426968
0.7273648825259653	0.18764827	0.43318388
0.7448919911325411	0.23751812	0.4873583
0.762419117165817	0.24081624	0.49073032
0.7799462610358868	0.20957747	0.45779634
0.7974734231528482	0.19162098	0.43774533
0.8150006039268024	0.15345286	0.3917306
0.8325278037678551	0.16992831	0.4122236
0.8500550230861152	0.16797177	0.4098436
0.8675822622916969	0.1880676	0.4336676
0.8851095217947171	0.1949577	0.44154015
0.9026368020052984	0.19012482	0.43603304
0.9201641033335665	0.17698684	0.42069805
0.9376914261896523	0.17391153	0.417027
0.9552187709836915	0.19616288	0.44290277
0.9727461381258234	0.22285548	0.4720757
0.990273528026193	0.23259543	0.48228148
1.0078009410949496	0.26041818	0.51031184
1.0253283777422473	0.29232806	0.54067373
1.0428558383782454	0.31094128	0.55762106
1.0603833234131086	0.29123664	0.53966343
1.0779108332570058	0.30856326	0.5554847
1.0954383683201119	0.3122454	0.55878925
1.112965929012607	0.37476546	0.6121809
1.1304935157446763	0.5029634	0.70919913
1.1480211289265108	0.5745295	0.75797725
1.1655487689683062	1.4124588	1.188469
1.1830764362802655	1.6741052	1.2938721
1.200604131272596	2.0200267	1.4212765
1.2181318543555117	2.3717818	1.5400591
1.235659605939232	2.4381115	1.5614454
1.253187386433982	4.1772065	2.0438216
1.270715196249994	6.5188174	2.5531974
1.2882430357975057	11.711956	3.4222736
1.3057709054867608	16.150694	4.0187926
1.3232988057280106	21.907986	4.680597
1.3408267369315112	26.780258	5.1749644
1.358354699507526	30.676699	5.538655
1.3758826938663256	34.825993	5.9013553
1.3934107204181858	36.844418	6.06996
1.410938779573391	37.28084	6.105804
1.4284668717422309	37.758327	6.1447806
1.4459949973350033	37.505592	6.124181
1.4635231567620117	37.39957	6.115519
1.4810513504335687	36.798332	6.066163
1.4985795787599925	36.133457	6.0111113
1.5161078421516088	36.005074	6.000423
1.5336361410187505	35.155983	5.9292483
1.5511644757717598	35.20006	5.932964
1.5686928468209842	35.668068	5.972275
1.58622125457678	36.090645	6.007549
1.6037496994495108	37.35367	6.111765
1.621278181849548	37.120476	6.0926576
1.6388067021872719	37.773514	6.146016
1.6563352608730693	37.489662	6.12288
1.673863858317336	36.457233	6.0379825
1.6913924949304753	35.84235	5.986848
1.7089211711228998	34.383015	5.8637033
1.7264498873050296	33.421547	5.781137
1.7439786438872935	32.4899	5.699991
1.7615074412801288	31.664848	5.627153
1.779036279893981	31.09912	5.5766582
1.796565160139305	30.202297	5.4956617
1.814094082426564	29.710009	5.450689
1.8316230471662298	28.961285	5.381569
1.849152054768784	28.11568	5.302422
1.8666811056447168	27.494183	5.2434897
1.8842102002045273	26.68464	5.165718
1.901739338858724	26.038027	5.102747
1.9192685220178245	25.345268	5.0344086
1.9367977500923557	24.718803	4.971801
1.9543270234928547	24.183844	4.917707
1.971856342629867	23.698874	4.868149
1.9893857079139496	23.393965	4.836731
2.006915119755667	23.238993	4.820684
2.0244445785655945	22.697018	4.7641387
2.0419740847543175	22.184422	4.7100344
2.0595036387324317	21.542593	4.6414
2.0770332409105414	20.908396	4.57257
2.094562891699263	20.49457	4.527093
2.1120925915092217	20.070103	4.4799666
2.129622340751053	19.94622	4.4661193
2.1471521398354043	188.13228	13.716132
2.1646819891729323	444.40933	21.081018
2.182211889174303	440.38425	20.985334
2.1997418402501974	452.66525	21.27593
2.2172718428113023	432.714	20.801779
2.234801897268317	320.87604	17.913013
2.2523320040319548	17.325853	4.1624336
2.269862163512935	17.006723	4.123921
2.287392376121992	16.754887	4.093273
2.304922642269869	16.571991	4.070871
2.322452962367322	16.354582	4.04408
2.3399833368251164	15.914324	3.9892762
2.357513766054032	15.485567	3.9351704
2.3750442504648586	15.121203	3.8885992
2.3925747904683963	14.816209	3.8491828
2.410105386475459	14.585785	3.819134
2.4276360388968707	14.393087	3.7938223
2.445166748143469	14.176543	3.765175
2.4626975146261025	13.877633	3.7252696
2.4802283387556323	13.568745	3.6835778
2.4977592209429305	13.341492	3.6526008
2.5152901615988825	13.100449	3.6194541
2.5328211611343865	12.885141	3.589588
2.5503522199603523	12.66702	3.5590756
2.5678833384877024	12.539004	3.5410457
2.5854145171273712	12.143235	3.4847145
2.6029457562903064	11.935152	3.4547288
2.620477056387469	11.616513	3.4083006
2.6380084178298326	11.519894	3.3940969
2.655539841028383	11.522354	3.3944592
2.673071326394119	11.540481	3.3971283
2.6906028743380523	11.432469	3.3811934
2.708134485271211	11.214286	3.3487737
2.7256661596046325	10.918203	3.3042705
2.743197897749369	10.496859	3.2398856
2.760729700116486	10.325023	3.2132573
2.778261567117063	10.069943	3.1733174
2.795793499162193	10.179068	3.1904652
2.8133254966629817	10.172783	3.18948
2.830857560030551	10.093338	3.1770015
2.8483896896760337	9.91606	3.1489778
2.865921886010578	9.785223	3.128134
2.883454149445347	9.603831	3.099005
2.9009864803915177	9.354881	3.0585752
2.91851887926028	9.098616	3.0163913
2.9360513464628384	9.02731	3.0045483
2.953583882410413	8.977568	2.996259
2.9711164875142373	8.963767	2.9939551
2.9886491621855606	8.853235	2.9754386
3.0061819068356455	8.74059	2.9564488
3.023714721875769	8.591283	2.931089
3.041247607717225	8.500026	2.9154804
3.0587805647713213	8.352336	2.8900409
3.0763135934493806	8.24501	2.8714125
3.0938466941627407	8.072902	2.8412852
3.1113798673227544	8.078349	2.8422437
3.1289131133407904	8.050122	2.8372738
3.1464464326282315	7.920647	2.8143644
3.1639798255964786	7.827866	2.7978325
3.1815132926569443	7.7706814	2.787594
3.1990468342210603	7.7351756	2.7812183
3.216580450700272	7.646516	2.7652335
3.2341141425060416	7.4610257	2.7314878
3.251647910049847	7.347876	2.7106967
3.2691817537431813	7.291013	2.7001874
3.286715673997555	7.1830497	2.6801212
3.3042496712244938	7.247034	2.6920316
3.32178374583554	7.079177	2.6606722
3.339317898242251	6.9701285	2.6401
3.3568521288562034	6.801198	2.6079106
3.3743864380889876	6.821298	2.6117616
3.3919208263522127	6.7714663	2.602204
3.4094552940575023	6.749863	2.5980499
3.4269898416164972	6.6926727	2.5870202
3.444524469440858	6.6968036	2.5878184
3.4620591779422587	6.6784334	2.5842664
3.479593967532391	6.554218	2.5601206
3.4971288386229658	6.4617815	2.5420034
3.5146637916257086	6.354198	2.5207534
3.5321988269523628	6.2618995	2.5023787
3.5497339450146903	6.2083592	2.491658
3.5672691462244708	6.2942924	2.508843
3.5848044309934988	6.329656	2.5158808
3.60233979973359	6.4001946	2.5298605
3.619875252856575	6.395631	2.5289586
3.6374107907743034	6.3920245	2.5282454
3.6549464138986427	6.4034595	2.530506
3.6724821226414788	6.3556914	2.5210497
3.690017917414714	6.291679	2.508322
3.7075537986302702	6.177875	2.4855332
3.7250897667000857	6.217426	2.4934766
3.7426258220361235	6.518178	2.5530722
3.7601619650503553	6.9299917	2.6324878
3.777698196154779	7.5030904	2.739177
3.7952345157614067	8.562157	2.9261162
3.8127709242822716	9.295803	3.048902
3.830307422129425	11.534452	3.396241
3.847844009714936	30.34399	5.508538
3.8653806874508954	97.78834	9.888799
3.882917455749409	97.0104	9.849385
3.900454315022606	96.79143	9.8382635
3.917991265682631	41.290478	6.4257665
3.9355283081416506	10.819077	3.2892365
3.9530654428118495	8.612059	2.9346309
3.970602670105433	7.506456	2.7397912
3.9881399904346244	6.665389	2.5817416
4.005677404211669	6.574129	2.5640066
4.023214911848827	6.509176	2.5513086
4.0407525137583855	6.4331026	2.5363562
4.058290210352644	6.4774733	2.545088
4.075828002043927	6.455977	2.5408614
4.0933658892445814	6.3382297	2.517584
4.110903872366966	6.2767944	2.5053532
4.128441951823468	6.079647	2.465694
4.145980128026488	6.0755854	2.4648702
4.163518401388452	6.091144	2.4680243
4.181056772321807	6.1400566	2.4779139
4.1985952412390155	6.1248217	2.4748378
4.216133808552567	6.1778436	2.4855268
4.233672474674966	6.2721176	2.5044196
4.251211240018741	6.492644	2.5480666
4.268750104996445	6.6422224	2.577251
4.286289070020643	7.591305	2.7552323
4.303828135503928	9.210775	3.034926
4.3213673018589125	29.512838	5.432572
4.3389065694982305	90.70996	9.524178
4.356445938834537	165.90018	12.880224
4.3739854102805085	171.47447	13.094826
4.391524984248844	172.39978	13.13011
4.409064661152262	136.49562	11.683134
4.426604441403504	96.71686	9.834473
4.444144325415337	75.74607	8.703222
4.461684313600543	21.757277	4.6644697
4.47922440637193	22.078972	4.698827
4.496764604142329	20.43933	4.5209875
4.5143049073245916	18.604395	4.313281
4.531845316331589	16.35228	4.043795
4.5493858315762195	13.337895	3.6521084
4.566926453471405	11.043732	3.323211
4.584467182430081	9.1822605	3.0302246
4.602008018865218	8.157841	2.8561933
4.619548963189798	7.4583383	2.730996
4.637090015816834	6.874768	2.6219778
4.654631177159353	6.663895	2.5814521
4.672172447630417	6.4619126	2.5420291
4.689713827643102	6.295256	2.5090349
4.7072553176105085	6.029036	2.4554095
4.724796917945764	5.901138	2.4292257
4.742338629062015	5.8276463	2.4140518
4.759880451372434	5.7937703	2.407025
4.777422385290215	5.7649927	2.4010398
4.794964431228581	5.710364	2.3896368
4.812506589600768	5.7418056	2.3962064
4.830048860820047	5.648994	2.3767612
4.847591245299709	5.5059123	2.346468
4.8651337434530655	5.445649	2.3335915
4.882676355693457	5.5227056	2.3500438
4.900219082434242	5.624493	2.3716013
4.917761924088813	5.690884	2.3855574
4.935304881070575	5.668144	2.3807864
4.952847953792969	5.565534	2.3591385
4.970391142669449	5.4103737	2.326021
4.9879344481135055	5.391089	2.3218718
5.005477870538642	5.3827243	2.3200698
5.023021410358394	5.480612	2.3410707
5.040565067986324	5.404901	2.3248444
5.05810884383601	5.473695	2.339593
5.075652738321066	5.457081	2.3360395
5.09319675185512	5.4440155	2.3332415
5.110740884851836	5.347402	2.3124452
5.128285137724894	5.303149	2.3028567
5.145829510888007	5.2954907	2.3011932
5.163374004754908	5.2656617	2.294703
5.1809186197393595	5.2285814	2.2866092
5.198463356255145	5.1967826	2.2796452
5.216008214716077	5.3047867	2.3032122
5.233553195535998	5.2676935	2.2951458
5.251098299128764	5.30112	2.302416
5.268643525908272	5.3797407	2.3194268
5.286188876288432	5.440645	2.332519
5.3037343506831895	5.412061	2.3263838
5.32127994950651	5.3576183	2.314653
5.3388256731723915	5.3466177	2.3122754
5.356371522094851	5.264429	2.2944343
5.373917496687938	5.2381887	2.288709
5.391463597365729	5.223862	2.285577
5.40900982454232	5.236464	2.2883322
5.426556178631843	5.2943673	2.3009493
5.444102660048449	5.263738	2.2942839
5.4616492692063225	5.2590904	2.2932706
5.479196006519669	5.213132	2.2832284
5.496742872402727	5.1917067	2.2785318
5.514289867269756	5.235707	2.2881668
5.531836991535049	5.1852145	2.2771065
5.549384245612924	5.1983495	2.279989
5.566931629917724	5.1748543	2.2748306
5.584479144863822	5.16967	2.273691
5.6020267908656205	5.1031613	2.2590177
5.619574568337545	5.034748	2.2438245
5.637122477694054	5.0299835	2.2427626
5.654670519349629	5.013511	2.239087
5.672218693718784	5.095061	2.257224
5.689767001216059	5.12397	2.2636187
5.707315442256021	5.181595	2.2763116
5.724864017253266	5.183783	2.2767923
5.7424127266224225	5.1760807	2.2751002
5.75996157077814	5.136464	2.266377
5.777510550135105	5.1228356	2.2633681
5.795059665108022	5.065742	2.2507203
5.812608916111639	5.058972	2.2492158
5.830158303560715	5.219678	2.2846615
5.847707827870055	5.2544966	2.2922688
5.86525748945448	5.3994617	2.3236742
5.8828072887288485	5.4389987	2.3321662
5.900357226108044	5.548376	2.355499
5.917907302006979	5.662694	2.3796415
5.9354575168406	6.3116007	2.51229
5.9530078710238765	6.87868	2.6227238
5.970558364971812	7.412452	2.7225819
5.988108999099438	7.8357086	2.7992337
6.005659773821818	8.495902	2.914773
6.023210689554039	8.249098	2.8721242
6.040761746711227	8.58729	2.9304078
6.058312945708531	7.893747	2.8095813
6.075864286961132	7.327716	2.7069755
6.093415770884244	6.6946464	2.5874014
6.1109673978931065	6.106221	2.471077
6.128519168402993	5.546572	2.3551161
6.146071082829204	5.472256	2.3392854
6.163623141587075	5.350607	2.313138
6.181175345091969	5.267577	2.2951202
6.198727693759281	5.2361226	2.2882576
6.216280188004435	5.2448907	2.2901726
6.233832828242885	5.2332954	2.2876396
6.251385614890126	5.2402544	2.2891603
6.268938548361669	5.2385874	2.288796
6.286491629073067	5.124797	2.2638013
6.304044857439898	5.121407	2.2630527
6.321598233877777	4.9964404	2.235272
6.339151758802344	5.0080214	2.237861
6.356705432629277	5.022045	2.240992
6.37425925577428	5.0617824	2.2498405
6.391813228653095	5.0392704	2.244832
6.409367351681486	5.0512652	2.247502
6.426921625275259	5.041254	2.2452738
6.44447604985025	4.9597163	2.227042
6.46203062582232	4.9603214	2.2271779
6.47958535360737	4.973816	2.2302053
6.497140233621328	5.006103	2.2374322
6.514695266280161	5.0463715	2.246413
6.532250451999859	5.0206685	2.2406847
6.549805791196454	5.0552187	2.2483814
6.567361284286002	5.044967	2.2461004
6.584916931684597	5.1167817	2.2620304
6.602472733808367	5.128842	2.2646947
6.6200286910734665	5.1327415	2.2655554
6.637584803896092	5.069842	2.251631
6.655141072692462	5.0448294	2.2460697
6.672697497878842	4.9790115	2.23137
6.690254079871514	4.929742	2.220302
6.707810819086808	4.9254193	2.2193286
6.725367715941078	4.9377704	2.2221096
6.742924770850719	4.967209	2.2287235
6.760481984232151	5.021118	2.2407851
6.778039356501836	4.9319863	2.2208076
6.795596888076266	4.9168825	2.2174044
6.813154579371963	4.943314	2.2233565
6.830712430805492	5.01908	2.2403305
6.84827044279344	5.071908	2.2520897
6.865828615752445	5.0896792	2.2560318
6.883386950099159	5.0776997	2.253375
6.900945446250287	5.0608187	2.2496264
6.918504104622553	5.009126	2.2381077
6.936062925632727	4.990967	2.2340472
6.953621909697607	5.033025	2.2434404
6.971181057234028	5.0617204	2.2498267
6.988740368658859	5.1898837	2.2781317
7.006299844389007	5.252683	2.2918732
7.023859484841407	5.3093815	2.3042095
7.041419290433036	5.3887596	2.3213701
7.058979261580902	5.519124	2.3492815
7.0765393987020495	5.712847	2.3901563
7.094099702213559	6.027561	2.4551091
7.111660172532549	6.320566	2.5140736
7.129220810076164	6.6914043	2.5867748
7.146781615261595	7.233646	2.6895437
7.16434258850606	7.4531207	2.7300403
7.181903730226821	7.8978024	2.810303
7.1994650408411704	8.060077	2.8390274
7.217026520766437	8.23255	2.869242
7.234588170419983	8.465199	2.9095016
7.252149990219215	8.467961	2.9099762
7.269711980581568	8.396044	2.8975928
7.2872741419245175	8.225632	2.8680363
7.304836474665574	7.8231335	2.7969866
7.322398979222286	7.4539614	2.7301943
7.339961656012233	7.205828	2.6843674
7.357524505453039	6.871059	2.6212704
7.375087527962357	6.682122	2.58498
7.392650723957886	6.3248096	2.5149174
7.410214093857353	5.9522834	2.4397302
7.427777638078528	5.6725845	2.3817189
7.445341357039213	5.502393	2.345718
7.4629052511572525	5.4309697	2.330444
7.480469320850524	5.3509893	2.3132205
7.498033566536948	5.3044243	2.3031335
7.5155979886344735	5.224064	2.2856212
7.5331625875610975	5.210902	2.28274
7.550727363734844	5.1973114	2.2797613
7.568292317573788	5.165012	2.2726662
7.585857449496025	5.1972036	2.2797377
7.603422759919705	5.1643863	2.2725286
7.620988249263007	5.1601233	2.2715905
7.638553917944147	5.128927	2.2647135
7.656119766381391	5.1480255	2.2689261
7.673685794993023	5.14661	2.268614
7.691252004197388	5.18639	2.2773647
7.70881839441285	5.240138	2.2891347
7.726384966057826	5.300722	2.3023298
7.743951719550762	5.319672	2.3064415
7.761518655310149	5.2626324	2.2940428
7.779085773754511	5.273782	2.2964716
7.796653075302419	5.310401	2.3044307
7.814220560372475	5.332991	2.309327
7.831788229383323	5.3341074	2.3095686
7.8493560827536495	5.331473	2.3089983
7.866924120902174	5.2826347	2.2983983
7.884492344247663	5.2443056	2.2900448
7.9020607532089135	5.2355146	2.2881248
7.919629348204771	5.271163	2.2959013
7.937198129654115	5.316334	2.3057177
7.954767097975865	5.388172	2.3212438
7.972336253588986	5.501657	2.345561
7.989905596912472	5.463418	2.3373957
8.007475128365371	5.50618	2.346525
8.025044848366756	5.5175543	2.3489475
8.042614757335754	5.5899444	2.3643062
8.060184855691523	5.6338525	2.3735738
8.07775514385327	5.7772746	2.4035962
8.095325622240228	5.8503346	2.4187465
8.112896291271687	5.925932	2.4343238
8.130467151366968	5.9443636	2.4381065
8.148038202945436	5.94358	2.4379458
8.165609446426497	5.9575925	2.440818
8.183180882229594	5.9327574	2.4357252
8.200752510774217	5.9414015	2.437499
8.218324332479893	5.896589	2.4282892
8.235896347766193	5.8878427	2.4264877
8.253468557052724	5.8887267	2.4266698
8.27104096075914	5.919847	2.4330735
8.288613559305137	6.000387	2.4495687
8.306186353110448	6.0889616	2.4675822
8.32375934259485	6.2269697	2.4953897
8.341332528178162	6.277906	2.505575
8.358905910280246	6.3053627	2.511048
8.376479489321003	6.278704	2.5057342
8.394053265720377	6.262707	2.50254
8.411627239898356	6.2600713	2.5020134
8.42920141227497	6.288907	2.5077693
8.44677578327029	6.332833	2.516512
8.464350353304427	6.2984447	2.5096703
8.48192512279754	6.2349157	2.4969814
8.499500092169827	6.164565	2.4828541
8.51707526184153	6.150792	2.4800792
8.534650632232934	6.2168565	2.4933624
8.552226203764365	6.262729	2.5025446
8.569801976856192	6.2870917	2.5074074
8.587377951928834	6.220825	2.4941583
8.60495412940274	6.1536956	2.4806643
8.622530509698416	6.18459	2.4868836
8.6401070932364	6.343617	2.5186539
8.657683880437283	6.4790096	2.54539
8.675260871721695	6.704413	2.589288
8.692838067510303	6.847016	2.6166804
8.710415468223834	7.024177	2.6503165
8.727993074283043	7.1417336	2.6724021
8.745570886108737	7.1477666	2.6735308
8.763148904121765	7.1808453	2.67971
8.78072712874302	7.180473	2.6796405
8.798305560393441	7.466616	2.732511
8.815884199494006	7.684528	2.772098
8.833463046465745	7.848886	2.8015864
8.851042101729728	7.9126315	2.8129401
8.86862136570707	8.106408	2.8471754
8.886200838818924	8.225455	2.8680055
8.903780521486505	8.264525	2.8748088
8.921360414131055	8.335002	2.8870404
8.938940517173874	8.463376	2.9091883
8.956520831036297	8.721335	2.9531908
8.97410135613971	9.024108	3.0040152
8.99168209290554	9.215567	3.035715
9.009263041755265	9.481055	3.0791323
9.026844203110405	9.683006	3.111753
9.044425577392525	9.84974	3.1384296
9.062007165023239	9.924226	3.150274
9.079588966424197	10.261292	3.2033253
9.097170982017108	10.3953	3.2241743
9.11475321222372	11.405425	3.3771918
9.132335657465825	12.4065	3.5222862
9.149918318165264	12.519623	3.538308
9.167501194743924	13.118591	3.6219597
9.18508428762374	12.717992	3.5662293
9.202667597226693	12.724362	3.5671225
9.220251123974803	12.399868	3.5213447
9.237834868290143	12.161616	3.487351
9.255418830594836	11.961011	3.4584694
9.273003011311046	11.399531	3.3763192
9.290587410860985	11.111725	3.3334253
9.308172029666911	10.514799	3.2426531
9.32575686815113	10.2643385	3.2038007
9.343341926735997	8.878272	2.9796429
9.360927205843916	8.473872	2.9109917
9.378512705897327	8.188773	2.8616033
9.396098427318728	8.015026	2.831082
9.413684370530664	7.9484096	2.8192923
9.431270535955722	7.8994017	2.8105874
9.448856924016539	7.795527	2.792047
9.466443535135806	7.6338754	2.7629468
9.484030369736251	7.6603985	2.7677424
9.501617428240658	7.7247186	2.779338
9.519204711071852	7.8018236	2.7931745
9.536792218652714	7.9061418	2.8117862
9.55437995140617	7.9642396	2.8220985
9.571967909755191	7.9582195	2.8210316
9.589556094122802	7.937266	2.8173153
9.60714450493207	7.9344316	2.8168123
9.624733142606116	7.9634585	2.82196
9.642322007568108	7.993622	2.8272994
9.659911100241267	7.991622	2.8269458
9.677500421048851	7.9732275	2.8236904
9.695089970414175	8.01618	2.831286
9.712679748760609	8.043468	2.8361008
9.730269756511557	8.130745	2.8514462
9.747859994090492	8.163505	2.8571846
9.765450461920915	8.23654	2.8699372
9.78304116042639	8.228188	2.8684816
9.800632090030527	8.225069	2.867938
9.81822325115699	8.241262	2.87076
9.835814644229481	8.227523	2.868366
9.853406269671762	8.237079	2.870031
9.870998127907646	8.267355	2.875301
9.888590219360985	8.278326	2.877208
9.906182544455698	8.291205	2.8794453
9.923775103615734	8.249668	2.8722236
9.941367897265108	8.276073	2.8768165
9.958960925827878	8.269498	2.8756735
9.97655418972816	8.2827015	2.8779683
9.994147689390106	8.348187	2.889323
10.011741425237934	8.383096	2.8953576
10.029335397695904	8.373771	2.8937469
10.04692960718833	8.338081	2.8875737
10.06452405413958	8.2697115	2.8757107
10.082118738974064	8.286792	2.8786788
10.099713662116246	8.277343	2.877037
10.117308823990651	8.374401	2.8938558
10.134904225021844	8.37123	2.893308
10.152499865634445	8.371298	2.8933196
10.170095746253125	8.292849	2.8797307
10.18769186730261	8.276993	2.8769763
10.205288229207675	8.272433	2.8761837
10.222884832393145	8.260898	2.8741777
10.2404816772839	8.174866	2.859172
10.258078764304868	8.09859	2.845802
10.275676093881035	8.076182	2.8418624
10.293273666437438	8.128639	2.8510768
10.310871482399158	8.252929	2.872791
10.32846954219134	8.2910795	2.8794234
10.346067846239173	8.299445	2.8808758
10.363666394967908	8.232526	2.869238
10.38126518880283	8.174633	2.8591316
10.398864228169298	8.164776	2.857407
10.416463513492713	8.154826	2.8556657
10.434063045198531	8.124783	2.8504004
10.451662823712262	8.135343	2.8522522
10.469262849459467	8.248346	2.8719935
10.486863122865758	8.181228	2.8602846
10.504463644356806	8.185023	2.860948
10.522064414358338	8.029868	2.833702
10.539665433296118	7.979175	2.8247433
10.557266701595987	7.927424	2.8155682
10.574868219683818	7.899305	2.8105702
10.592469987985552	7.8294215	2.7981102
10.610072006927185	7.704745	2.7757423
10.627674276934751	7.5995517	2.7567284
10.64527679843435	7.4578195	2.7309008
10.662879571852143	7.388428	2.7181664
10.680482597614331	7.3098493	2.7036734
10.698085876147173	7.1612477	2.6760507
10.715689407876988	7.0238495	2.6502547
10.733293193230146	6.855435	2.6182885
10.750897232633072	6.7781405	2.6034863
10.76850152651225	6.653772	2.5794907
10.786106075294207	6.582463	2.5656312
10.803710879405534	6.472283	2.544068
10.821315939272877	6.47889	2.5453663
10.83892125532294	6.4016786	2.5301538
10.856526827982472	6.366644	2.523221
10.874132657678285	6.2342095	2.49684
10.891738744837243	6.2040544	2.490794
10.909345089886271	6.1675696	2.4834592
10.926951693252343	6.1319847	2.4762845
10.944558555362494	6.108115	2.47146
10.96216567664381	6.0094085	2.4514096
10.979773057523436	5.87747	2.4243493
10.997380698428573	5.7623296	2.4004853
11.014988599786477	5.712595	2.3901036
11.032596762024461	5.7089167	2.389334
11.050205185569892	5.648797	2.3767197
11.067813870850198	5.6305842	2.3728852
11.085422818292859	5.6174107	2.3701077
11.10303202832541	5.5604763	2.3580663
11.120641501375454	5.5444546	2.3546665
11.138251237870636	5.472293	2.3392932
11.155861238238671	5.407135	2.3253248
11.173471502907317	5.292436	2.3005295
11.191082032304402	5.1321883	2.2654333
11.208692826857805	5.0668344	2.250963
11.226303886995465	4.9868565	2.233127
11.243915213145371	4.95061	2.2249966
11.261526805735578	4.9083195	2.2154727
11.279138665194196	4.8561907	2.2036767
11.296750791949393	4.882883	2.2097247
11.314363186429393	4.858288	2.2041523
11.331975849062479	4.8142276	2.1941347
11.34958878027699	4.741678	2.1775396
11.36720198050133	4.673751	2.161886
11.384815450163948	4.6378293	2.153562
11.402429189693366	4.548289	2.1326718
11.420043199518153	4.4981027	2.120873
11.437657480066942	63.41183	7.963155
11.455272031768422	85.10903	9.225455
11.472886855051353	107.54306	10.370297
11.490501950344528	99.14283	9.957049
11.508117318076819	84.519356	9.19344
11.52573295867715	45.85168	6.771387
11.543348872574514	4.1122966	2.0278797
11.560965060197946	4.0655575	2.0163229
11.57858152197655	4.0591946	2.0147443
11.59619825833949	4.053095	2.0132298
11.613815269715985	4.0130787	2.003267
11.631432556535323	38.539116	6.2079883
11.649050119226837	83.05902	9.113672
11.666667958219929	93.418884	9.665344
11.68428607394406	107.66353	10.376103
11.701904466828756	82.48017	9.08186
11.719523137303586	65.34364	8.083542
11.737142085798196	4.5877604	2.1419058
11.754761312742286	3.7199745	1.9287236
11.772380818565619	3.6674323	1.9150541
11.790000603698015	3.664896	1.9143918
11.80762066856935	3.6395469	1.9077597
11.825241013609572	3.6255803	1.9040956
11.842861639248683	3.5935948	1.8956779
11.860482545916748	3.5926414	1.8954264
11.878103734043883	3.5400739	1.8815084
11.895725204060282	3.4808605	1.8657064
11.91334695639619	3.3999794	1.8439033
11.930968991481919	3.3451285	1.8289692
11.948591309747824	3.3092773	1.8191419
11.966213911624347	3.2676797	1.8076725
11.98383679754198	3.2040672	1.7899909
12.001459967931268	3.1759887	1.7821304
12.019083423222835	3.1894307	1.7858977
12.036707163847352	3.2134259	1.7926031
12.05433119023556	3.2241592	1.7955945
12.071955502818259	3.229954	1.7972072
12.089580102026313	3.231484	1.7976328
12.107204988290643	3.16537	1.7791487
12.12483016204224	3.1073625	1.7627712
12.142455623712152	3.0546968	1.7477691
12.16008137373149	3.0600753	1.749307
12.177707412531431	3.064473	1.7505636
12.19533374054321	3.0510473	1.7467247
12.212960358198126	3.025954	1.739527
12.230587265927545	3.0573292	1.748522
12.248214464162889	3.0643375	1.7505249
12.265841953335649	3.0580454	1.7487268
12.283469733877375	3.0321262	1.7413001
12.301097806219685	2.965012	1.7219211
12.31872617079425	2.947017	1.7166878
12.336354828032825	2.9245026	1.7101177
12.353983778367205	2.9214766	1.7092328
12.371613022229262	2.8860314	1.6988324
12.389242560050928	2.8765898	1.6960512
12.406872392264201	2.8717532	1.6946248
12.424502519301143	2.865997	1.6929256
12.442132941593874	2.853608	1.6892625
12.459763659574586	2.85548	1.6898166
12.477394673675532	2.857591	1.690441
12.49502598432903	2.833562	1.6833187
12.51265759196746	2.8435807	1.686292
12.530289497023267	2.8535845	1.6892556
12.547921699928967	2.849152	1.6879431
12.565554201117134	2.830675	1.6824609
12.583187001020404	2.8104546	1.6764411
12.600820100071486	2.7741635	1.6655821
12.618453498703152	2.7551131	1.6598533
12.636087197348235	2.7403095	1.655388
12.65372119643964	2.7263992	1.6511811
12.671355496410326	2.7267222	1.651279
12.68899009769333	2.7610848	1.6616513
12.706625000721749	2.7858288	1.6690803
12.724260205928752	2.914538	1.7072017
12.741895713747551	2.971369	1.723766
12.759531524611454	3.018115	1.7372723
12.777167638953818	2.9675403	1.722655
12.794804057208072	2.9821503	1.7268903
12.812440779807702	3.0518606	1.7469575
12.830077807186271	3.2601027	1.8055755
12.847715139777405	3.3284066	1.8243921
12.865352778014795	3.52909	1.8785872
12.882990722332197	3.6188889	1.9023378
12.90062897316344	3.6738355	1.9167252
12.918267530942412	3.7265546	1.9304286
12.935906396103071	3.5891967	1.8945175
12.953545569079449	3.816608	1.9536141
12.971185050305628	3.694518	1.922113
12.988824840215775	3.7190561	1.9284854
13.006464939244115	3.6724057	1.9163522
13.024105347824943	3.5006325	1.8709978
13.041746066392617	3.5884502	1.8943205
13.05938709538157	3.398788	1.8435802
13.077028435226296	3.4217699	1.8498026
13.094670086361363	3.3461525	1.8292491
13.112312049221401	3.2792127	1.8108597
13.129954324241112	3.1490138	1.774546
13.147596911855258	2.911941	1.706441
13.165239812498685	2.835478	1.6838878
13.182883026606293	2.7724738	1.6650747
13.200526554613058	2.7203765	1.6493564
13.218170396954017	2.7057219	1.6449078
13.235814554064284	2.7178636	1.6485944
13.253459026379034	2.7334175	1.653305
13.271103814333523	2.6836696	1.638191
13.288748918363058	2.6424332	1.6255562
13.306394338903031	2.6400552	1.6248246
13.32404007638889	2.6851492	1.6386424
13.341686131256164	2.7424908	1.6560467
13.359332503940449	2.7403579	1.6554027
13.376979194877402	2.7476358	1.6575994
13.394626204502751	2.791427	1.6707563
13.412273533252307	2.817081	1.6784163
13.429921181561937	2.7796495	1.6672281
13.447569149867581	2.7504196	1.6584389
13.465217438605247	2.7421305	1.6559379
13.482866048211022	2.7592623	1.6611028
13.500514979121052	2.7570107	1.6604248
13.518164231771568	2.736527	1.6542451
13.535813806598844	2.6875439	1.6393731
13.553463704039254	2.6624246	1.6316937
13.571113924529229	2.645957	1.6266398
13.588764468505275	2.6610823	1.6312824
13.606415336403956	2.6752603	1.6356223
13.624066528661917	2.7055626	1.6448594
13.641718045715882	2.749192	1.6580688
13.659369888002635	2.8211734	1.6796349
13.67702205595903	2.874724	1.6955011
13.694674550021993	2.9592366	1.7202432
13.712327370628532	3.0218785	1.7383552
13.729980518215713	3.1400177	1.7720095
13.747633993220681	3.2321327	1.7978133
13.765287796080647	3.2945077	1.8150779
13.7829419272329	3.3225136	1.8227763
13.800596387114801	3.2952821	1.8152912
13.818251176163775	3.3016355	1.8170403
13.835906294817324	3.3835785	1.8394506
13.853561743513023	3.4769151	1.8646488
13.871217522688525	3.5562658	1.8858064
13.888873632781538	3.5536835	1.8851216
13.906530074229858	3.556829	1.8859557
13.92418684747135	3.514183	1.8746154
13.941843952943948	3.474149	1.8639069
13.959501391085665	3.441952	1.8552499
13.977159162334578	3.36902	1.835489
13.994817267128846	3.3232603	1.8229811
14.012475705906693	3.21489	1.7930114
14.030134479106424	3.139939	1.7719873
14.047793587166414	3.0662584	1.7510735
14.065453030525108	3.0041993	1.7332627
14.083112809621026	2.9825866	1.7270167
14.100772924892766	2.9374666	1.7139039
14.118433376778997	2.8921707	1.7006383
14.136094165718458	2.8190603	1.6790057
14.153755292149969	2.7753134	1.6659272
14.171416756512416	2.74621	1.6571693
14.189078559244768	2.6638973	1.632145
14.20674070078606	2.5890768	1.6090609
14.224403181575408	2.543369	1.5947944
14.242066002051999	2.519581	1.5873188
14.259729162655093	2.4776287	1.5740485
14.277392663824022	2.4692264	1.5713772
14.295056505998208	2.4557002	1.5670674
14.312720689617128	2.4525905	1.5660748
14.330385215120348	2.4289963	1.5585238
14.348050082947497	2.4314275	1.5593035
14.3657152935383	2.411312	1.55284
14.383380847332528	2.3921773	1.5466665
14.401046744770051	2.3689628	1.5391436
14.418712986290798	2.4042463	1.5505632
14.436379572334793	2.40798	1.5517668
14.454046503342123	2.3959558	1.5478876
14.471713779752946	2.3674734	1.5386596
14.489381402007504	2.3589547	1.5358889
14.507049370546113	2.4106295	1.5526202
14.524717685809168	2.412197	1.5531249
14.542386348237134	2.383755	1.5439414
14.560055358270553	2.3552408	1.5346794
14.577724716350051	2.3756037	1.5412993
14.595394422916325	2.384776	1.5442721
14.61306447841015	2.4149714	1.5540178
14.63073488327237	2.415084	1.554054
14.648405637943917	2.4605253	1.5686061
14.6660767428658	2.4787886	1.5744169
14.683748198479094	2.5217192	1.5879922
14.701420005224954	2.5766225	1.6051861
14.719092163544628	2.6129355	1.6164577
14.73676467387942	2.684178	1.6383462
14.754437536670727	2.664018	1.632182
14.772110752360014	2.6832473	1.6380621
14.78978432138882	2.6713266	1.6344193
14.807458244198777	2.6946797	1.6415479
14.82513252123159	2.6671312	1.6331354
14.842807152929028	2.6884418	1.6396469
14.860482139732962	2.6588042	1.630584
14.87815748208531	2.6420765	1.6254466
14.8958331804281	2.6626747	1.6317704
14.91350923520342	2.701466	1.6436137
14.931185646853438	2.7822196	1.6679987
14.948862415820408	2.755123	1.6598563
14.966539542546656	2.7290409	1.6519809
14.98421702747459	2.6568935	1.629998
15.001894871046696	2.673095	1.6349603
15.019573073705542	2.6520455	1.6285102
15.037251635893766	2.6533875	1.6289222
15.054930558054092	2.6826499	1.6378797
15.072609840629323	2.7660153	1.6631342
15.090289484062351	2.9074502	1.7051247
15.107969488796124	3.1161218	1.765254
15.125649855273691	3.488628	1.8677869
15.14333058393817	3.9499617	1.9874511
15.161011675232768	4.912773	2.2164776
15.17869312960076	6.2015243	2.4902859
15.196374947485506	8.081249	2.842754
15.214057129330447	11.242187	3.352937
15.231739675579114	16.0155	4.001937
15.249422586675102	21.151325	4.599057
15.267105863062092	24.422401	4.9419026
15.284789505183847	24.866581	4.9866405
15.302473513484218	22.887718	4.784111
15.320157888407127	19.241747	4.3865414
15.337842630396578	15.005269	3.8736634
15.355527739896656	11.644306	3.4123755
15.37321321735153	9.066382	3.0110433
15.39089906320545	6.5777397	2.5647104
15.408585277902748	4.933743	2.221203
15.42627186188783	3.8159118	1.9534359
15.443958815605198	3.2515054	1.8031931
15.461646139499424	2.9458547	1.7163492
15.479333834015168	2.793714	1.6714407
15.497021899597165	2.7378292	1.6546386
15.514710336690234	2.7170956	1.6483614
15.53239914573928	2.6342013	1.6230223
15.550088327189297	2.5657825	1.601806
15.567777881485336	2.5097308	1.584213
15.58546780907256	2.4808674	1.5750769
15.6031581103962	2.4371405	1.5611343
15.620848785901568	2.4329898	1.5598044
15.638539836034063	2.442724	1.5629216
15.656231261239173	2.455894	1.5671293
15.673923061962451	2.4309504	1.5591506
15.691615238649552	2.4391866	1.5617895
15.709307791746202	2.4455109	1.563813
15.727000721698221	2.444697	1.5635526
15.744694028951498	2.425953	1.5575471
15.76238771395202	2.403881	1.5504454
15.780081777145844	2.401288	1.549609
15.797776218979125	2.3944855	1.5474125
15.815471039898094	2.406886	1.5514143
15.833166240349064	2.3915462	1.5464625
15.850861820778437	2.4253073	1.5573398
15.868557781632699	2.4330816	1.5598339
15.886254123358412	2.4252644	1.5573261
15.903950846402232	2.3848338	1.5442907
15.921647951210897	2.3773582	1.5418684
15.939345438231225	2.4092877	1.552188
15.957043307910133	2.4611294	1.5687988
15.974741560694602	2.4498162	1.5651889
15.992440197031714	2.4221833	1.5563365
16.01013921736862	2.3519442	1.533605
16.02783862215259	2.3435457	1.5308644
16.045538411830933	2.3443923	1.5311408
16.06323858685107	2.4045136	1.5506494
16.080939147660512	2.4227967	1.5565336
16.09864009470684	2.4230442	1.5566131
16.11634142843774	2.3902018	1.5460278
16.134043149300954	2.354284	1.5343677
16.15174525774433	2.3706567	1.5396937
16.169447754215817	2.3726008	1.5403249
16.18715063916342	2.4130397	1.5533962
16.204853913035244	2.440257	1.5621322
16.222557576279478	2.4531364	1.5662491
16.240261629344403	22.452642	4.738422
16.257966072678386	42.96849	6.5550356
16.275670906729868	38.090336	6.1717367
16.293376131947387	2.520329	1.5875545
16.31108174877957	2.5364704	1.59263
16.328787757675133	2.5439422	1.594974
16.34649415908287	2.5667882	1.6021199
16.364200953451657	2.577554	1.6054763
16.38190814123048	2.5863228	1.6082048
16.39961572286839	2.6194038	1.6184572
16.41732369881455	2.674828	1.6354902
16.43503206951817	2.7483423	1.6578125
16.45274083542859	2.810893	1.6765718
16.47044999699522	2.823318	1.6802732
16.488159554667558	2.8325963	1.6830319
16.505869508895184	2.8358674	1.6840034
16.523579860127786	2.8625436	1.6919053
16.541290608815117	2.9095957	1.7057537
16.559001755407035	2.9970272	1.7311924
16.57671330035348	3.0487688	1.7460724
16.59442524410448	3.1494763	1.7746764
16.61213758711015	3.218621	1.7940515
16.629850329820705	3.307799	1.8187356
16.647563472686436	3.3656318	1.8345659
16.665277016157724	3.4422462	1.8553292
16.682990960685053	3.470179	1.8628417
16.70070530671898	3.508967	1.8732237
16.718420054710155	3.5203485	1.8762592
16.736135205109335	3.5594954	1.8866625
16.753850758367335	3.6112819	1.9003373
16.771566714935087	3.6589847	1.9128473
16.789283075263597	3.7468643	1.9356818
16.80699983980398	3.8352242	1.9583728
16.82471700900741	3.8463752	1.9612178
16.84243458332518	3.8809843	1.9700214
16.860152563208665	3.9121697	1.9779205
16.87787094910932	3.98898	1.9972432
16.89558974147871	4.021235	2.0053017
16.913308940768466	4.123264	2.0305822
16.931028547430333	4.226444	2.0558317
16.94874856191613	4.2942758	2.0722635
16.966468984677785	4.310487	2.0761712
16.98418981616729	4.29642	2.0727808
17.00191105683676	4.3304095	2.0809636
17.019632707138374	4.432882	2.105441
17.03735476752442	4.487559	2.1183858
17.05507723844728	4.5212207	2.1263163
17.072800120359403	4.544701	2.1318305
17.090523413713353	4.5878377	2.141924
17.108247118961785	4.619618	2.1493297
17.125971236557437	4.6458054	2.1554132
17.143695766953133	4.664543	2.1597552
17.161420710601806	4.642058	2.1545436
17.179146067956477	4.6238675	2.150318
17.19687183947025	4.643818	2.154952
17.21459802559634	4.668981	2.1607826
17.232324626788028	4.6609807	2.1589305
17.25005164349871	4.644383	2.155083
17.267779076181863	4.6282406	2.1513345
17.285506925291074	4.6547217	2.1574805
17.30323519127999	4.6251693	2.1506207
17.320963874602384	4.606159	2.1461964
17.33869297571211	4.577863	2.139594
17.356422495063114	4.5432663	2.1314938
17.37415243310944	4.5192823	2.1258605
17.391882790305218	4.5032105	2.122077
17.40961356710468	4.446582	2.108692
17.42734476396215	4.510296	2.1237457
17.445076381332044	4.5272155	2.1277254
17.462808419668868	4.6023088	2.1452992
17.48054087942723	4.735884	2.1762087
17.498273761061835	5.036498	2.2442143
17.51600706502747	5.5065546	2.3466048
17.533740791779024	6.1793866	2.4858372
17.551474941771485	7.5900884	2.7550116
17.56920951545993	8.680738	2.9463093
17.586944513299528	10.9712105	3.3122818
17.60467993574556	12.724099	3.5670855
17.622415783253373	14.536156	3.8126311
17.64015205627843	15.993904	3.999238
17.657888755276293	17.236206	4.151651
17.675625880702604	17.800169	4.2190247
17.69336343301311	17.603855	4.195695
17.71110141266366	16.613428	4.0759573
17.728839820110178	15.501151	3.9371502
17.746578655808705	14.384069	3.7926335
17.764317920215372	12.91075	3.5931532
17.7820576137864	11.438025	3.382015
17.79979773697811	9.42262	3.0696287
17.81753829024692	7.509252	2.7403014
17.835279274049356	5.8320246	2.4149585
17.85302068884201	4.805535	2.192153
17.870762535081607	4.2011776	2.0496774
17.888504813224934	3.8972445	1.974144
17.90624752372891	3.7293	1.9311396
17.923990667050536	3.6058893	1.8989179
17.941734243646895	3.540457	1.8816103
17.959478253975185	3.4937272	1.8691515
17.9772226984927	3.4724946	1.863463
17.994967577656833	3.4429471	1.855518
18.01271289192506	3.3963857	1.8429285
18.030458641754965	3.3227215	1.8228334
18.04820482760425	3.304486	1.8178245
18.06595144993067	3.2809896	1.8113502
18.083698509192125	3.2734518	1.8092684
18.101446005846576	3.263605	1.806545
18.119193940352105	3.281362	1.811453
18.136942313166887	3.223453	1.7953978
18.1546911247492	3.1811402	1.783575
18.1724403755574	3.1727612	1.7812246
18.19019006604997	3.2075205	1.7909552
18.207940196685467	3.2161112	1.7933519
18.225690767922575	3.1608386	1.7778747
18.243441780220046	3.1195872	1.7662354
18.261193234036764	3.1213617	1.7667376
18.278945129831676	3.1473546	1.7740785
18.29669746806386	3.124649	1.7676677
18.314450249192483	3.0821302	1.7555996
18.3322034736768	3.03218	1.7413156
18.349957141976184	3.0052679	1.7335708
18.3677112545501	3.0218828	1.7383564
18.385465811858108	3.0421517	1.7441765
18.403220814359884	3.0590343	1.7490095
18.420976262515172	3.0484934	1.7459935
18.43873215678387	3.065192	1.750769
18.456488497625923	3.1222744	1.7669959
18.474245285501407	3.198945	1.7885594
18.492002520870486	3.3062532	1.8183105
18.50976020419343	3.3670557	1.8349539
18.527518335930615	3.6768532	1.9175122
18.545276916542516	4.267677	2.0658357
18.563035946489688	4.437637	2.10657
18.580795426232832	4.8721046	2.2072845
18.598555356232698	4.7239304	2.1734605
18.616315736950185	5.01645	2.2397432
18.63407656884626	4.691565	2.166002
18.65183785238201	4.900705	2.2137535
18.669599588018617	4.657514	2.1581275
18.68736177621737	4.598518	2.1444156
18.705124417439652	4.588738	2.142134
18.72288751214696	4.4386196	2.1068032
18.740651060800886	4.5646944	2.1365147
18.758415063863115	4.276697	2.0680177
18.77617952179546	4.4508476	2.1097033
18.793944435059814	4.190291	2.04702
18.811709804118184	4.215802	2.053242
18.829475629432675	4.2143884	2.0528975
18.8472419114655	4.0928674	2.0230837
18.86500865067897	4.1300726	2.032258
18.88277584753551	3.7466054	1.935615
18.90054350249763	3.7915616	1.9471933
18.918311616027957	3.5107286	1.8736938
18.936080188589226	3.43722	1.8539741
18.953849220644265	3.0956686	1.7594512
18.971618712656007	2.86923	1.6938802
18.9893886650875	2.8105612	1.6764728
19.007159078401887	7.996882	2.8278759
19.024929953062408	32.86555	5.7328486
19.042701289532435	32.784966	5.725816
19.060473088275405	25.374418	5.0373025
19.07824534975489	2.694495	1.6414917
19.096018074434568	2.7098122	1.6461507
19.113791262778197	2.659965	1.63094
19.13156491524966	2.6404908	1.6249588
19.149339032312945	2.5679994	1.6024978
19.167113614432136	2.5659273	1.6018512
19.184888662071433	2.5604374	1.6001366
19.202664175695123	2.5771008	1.6053351
19.220440155767623	2.5916824	1.6098703
19.238216602753447	2.551231	1.5972573
19.2559935171172	2.5333316	1.5916443
19.27377089932361	2.506523	1.5832002
19.291548749837514	2.5244236	1.5888435
19.309327069123835	2.5202503	1.5875297
19.32710585764763	2.504421	1.5825362
19.344885115874032	2.4871018	1.5770547
19.362664844268313	2.4820976	1.5754675
19.380445043295822	2.4854891	1.5765435
19.39822571342203	2.4732068	1.5726433
19.41600685511252	2.4792507	1.5745636
19.43378846883297	2.5061347	1.5830777
19.451570555049173	2.513513	1.5854063
19.469353114227037	2.516851	1.5864586
19.48713614683254	2.4752133	1.573281
19.50491965333182	2.4282105	1.5582716
19.52270363419109	2.4409704	1.5623605
19.540488089876686	2.471148	1.5719886
19.55827302085503	2.4703481	1.5717341
19.576058427592674	2.438721	1.5616405
19.593844310556282	2.440078	1.5620749
19.611630670212598	2.4744146	1.5730273
19.629417507028506	2.458084	1.5678278
19.64720482147098	2.4473941	1.564415
19.6649926140071	2.4831324	1.5757958
19.682780885104084	2.4816606	1.5753287
19.70056963522921	2.4697227	1.5715351
19.718358864849908	2.4693244	1.5714084
19.7361485744337	2.4837368	1.5759876
19.753938764448215	2.500649	1.581344
19.771729435361202	2.5035017	1.5822457
19.789520587640506	2.4951074	1.5795909
19.807312221754092	2.49415	1.5792878
19.825104338170043	2.4785511	1.5743415
19.842896937356517	2.4975653	1.5803688
19.860690019781824	2.4958267	1.5798186
19.87848358591436	2.4731743	1.5726329
19.896277636222635	2.4828494	1.575706
19.914072171175278	2.502874	1.5820473
19.931867191241015	2.537679	1.5930094
19.94966269688869	2.5413368	1.5941571
19.967458688587264	2.568385	1.6026181
19.985255166805807	2.5304904	1.5907515
20.00305213201348	2.4613926	1.5688826
20.020849584679578	2.427946	1.5581868
20.038647525273507	2.4452553	1.5637312
20.05644595426477	2.4454067	1.5637796
20.07424487212299	2.4614804	1.5689106
20.092044279317903	2.4703143	1.5717233
20.109844176319353	2.4971817	1.5802473
20.127644563597304	2.4568012	1.5674186
20.145445441621817	2.4503744	1.5653672
20.16324681086307	2.4570339	1.5674928
20.181048671791373	2.4419885	1.5626863
20.198851024877122	2.362153	1.5369297
20.216653870590836	2.3306582	1.5266494
20.234457209403146	2.3268607	1.525405
20.252261041784802	2.3485062	1.5324837
20.270065368206662	2.374784	1.5410334
20.287870189139685	2.3543515	1.5343896
20.305675505054968	2.3190198	1.5228329
20.323481316423702	2.352022	1.5336304
20.341287623717207	2.35454	1.5344511
20.359094427406884	2.3500347	1.5329823
20.376901727964288	2.3022022	1.517301
20.39470952586107	2.3107827	1.5201259
20.41251782156899	2.3138926	1.5211484
20.430326615559935	2.322288	1.5239055
20.448135908305886	2.3686764	1.5390505
20.465945700278965	2.3519757	1.5336152
20.483755991951384	2.3085675	1.5193971
20.50156678379548	2.2867105	1.5121874
20.519378076283708	2.3220491	1.5238272
20.537189869888635	2.352814	1.5338885
20.55500216508294	2.3487976	1.5325787
20.572814962339415	2.3177688	1.5224221
20.59062826213098	2.3292851	1.5261996
20.60844206493066	2.319297	1.5229238
20.626256371211593	2.343873	1.5309713
20.644071181447032	2.3629196	1.5371791
20.66188649611036	2.402035	1.54985
20.67970231567506	2.407007	1.5514532
20.697518640614742	2.397402	1.5483546
20.715335471403122	2.3707442	1.5397221
20.73315280851404	2.3601243	1.5362697
20.750970652421447	2.3791153	1.5424381
20.768789003599412	2.363274	1.5372944
20.786607862522136	2.306023	1.5185595
20.8044272296639	2.2523854	1.5007949
20.82224710549913	2.2531416	1.5010469
20.84006749050237	2.2684114	1.5061246
20.857888385148268	3.8279338	1.9565107
20.8757097899116	45.936787	6.777668
20.893531705267254	64.811516	8.05056
20.911354131690224	83.85239	9.157095
20.92917706965566	69.09973	8.312625
20.94700051963877	50.162586	7.0825553
20.96482448211493	29.43624	5.4255176
20.982648957559622	4.15799	2.039115
21.00047394644843	2.2540588	1.5013523
21.01829944925707	2.2417798	1.4972575
21.036125466461375	2.2415998	1.4971973
21.053951998537297	2.2359483	1.4953088
21.071779045960906	2.2464945	1.498831
21.089606609208378	2.22657	1.4921695
21.10743468875603	2.1858737	1.4784701
21.12526328508028	2.1933286	1.4809891
21.143092398657675	2.2160757	1.4886489
21.16092202996488	2.195642	1.4817699
21.17875217947867	2.1867929	1.4787809
21.19658284767596	2.2031038	1.4842856
21.21441403503377	2.2139363	1.4879302
21.232245742029225	2.2001379	1.4832861
21.2500779691396	2.1744921	1.4746159
21.26791071684227	2.1593707	1.4694797
21.28574398561475	2.1670496	1.4720902
21.30357777593465	2.1726604	1.4739947
21.321412088279704	2.1552243	1.4680682
21.339246923127792	2.154969	1.4679812
21.357082280956888	2.159279	1.4694486
21.3749181622451	2.1714463	1.4735829
21.392754567470647	2.1250596	1.4577584
21.41059149711187	2.1205196	1.4562004
21.42842895164726	2.1085353	1.4520797
21.446266931555378	2.1440368	1.464253
21.464105437314945	2.1281722	1.4588256
21.481944469404798	2.133741	1.460733
21.49978402830388	2.1176088	1.4552006
21.51762411449127	2.090514	1.445861
21.53546472844617	2.0678155	1.4379901
21.553305870647876	2.0619898	1.435963
21.571147541575865	2.0589554	1.4349061
21.58898974170967	2.0766375	1.4410543
21.60683247152899	2.0678406	1.4379988
21.62467573151363	2.0434005	1.4294757
21.642519522143523	2.0255983	1.4232352
21.660363843898722	2.0637512	1.4365762
21.6782086972594	2.081744	1.442825
21.696054082705864	2.111892	1.453235
21.713900000718535	2.0785637	1.4417225
21.73174645177795	2.0646188	1.4368782
21.749593436364794	2.0371468	1.4272865
21.767440954959845	2.0264602	1.4235379
21.785289008044032	1.9798526	1.4070723
21.803137596098388	1.9978745	1.4134619
21.820986719604086	2.03906	1.4279566
21.838836379042412	2.060311	1.4353784
21.85668657489478	2.0433905	1.4294721
21.87453730764273	2.0220685	1.4219946
21.892388577767914	2.019236	1.4209982
21.91024038575213	2.0104346	1.4178979
21.928092732077285	1.99389	1.4120517
21.945945617225426	2.015769	1.4197778
21.963799041678694	2.0335987	1.426043
21.981653005919398	31.34579	5.598731
21.999507510429943	78.141136	8.839747
22.01736255569286	73.12156	8.551114
22.035218142190818	4.2424264	2.059715
22.05307427040661	2.0682747	1.4381498
22.07093094082315	2.0131676	1.4188614
22.088788153923474	2.0160623	1.4198811
22.106645910190746	2.025171	1.4230851
22.12450421010827	2.0239725	1.4226639
22.142363054159464	2.0080602	1.4170604
22.16022244282787	1.965593	1.401996
22.178082376597164	1.9498765	1.3963798
22.195942855951145	1.940125	1.3928837
22.213803881373742	1.9530644	1.3975208
22.231665453349002	1.961895	1.4006766
22.24952757236111	1.9959753	1.41279
22.26739023889438	2.0169332	1.4201877
22.28525345343323	2.0006158	1.4144313
22.30311721646225	1.980863	1.4074314
22.320981528466113	1.9706022	1.4037814
22.33884638992964	1.9665743	1.402346
22.356711801337788	1.9434614	1.3940809
22.37457776317561	1.9349958	1.3910413
22.392444275928337	1.9664592	1.4023049
22.410311340081282	2.013947	1.419136
22.428178956119904	2.0339904	1.4261804
22.446047124529805	2.0187347	1.4208218
22.46391584579669	1.9484391	1.395865
22.481785120406414	1.9331474	1.3903767
22.49965494884496	1.9258505	1.3877501
22.51752533159841	1.9352739	1.3911412
22.53539626915302	1.9489716	1.3960557
22.553267761995137	1.9621627	1.4007722
22.571139810611264	1.9321667	1.390024
22.589012415488025	1.9155453	1.3840322
22.60688557711216	1.9418086	1.3934879
22.624759295970566	1.9652619	1.401878
22.642633572550263	1.9590404	1.3996572
22.660508407338362	1.9579324	1.3992614
22.67838380082217	1.9377903	1.3920454
22.696259753489077	1.9424806	1.393729
22.714136265826614	1.933005	1.3903255
22.73201333832246	1.9176117	1.3847786
22.74989097146439	1.9071759	1.3810054
22.76776916574035	1.9052371	1.3803033
22.785647921638393	1.9058951	1.3805416
22.803527239646712	1.9074801	1.3811156
22.82140712025363	1.9091378	1.3817155
22.839287563947593	1.8902129	1.3748502
22.85716857121719	1.8963146	1.3770674
22.875050142551135	1.9102881	1.3821317
22.892932278438277	1.9239459	1.3870637
22.910814979367604	1.9412266	1.3932791
22.928698245828222	1.9377815	1.3920422
22.946582078309387	1.9089915	1.3816626
22.96446647730047	1.8683469	1.3668749
22.98235144329098	1.8529097	1.3612163
23.000236976770562	1.8712361	1.3679314
23.018123078229	1.8732759	1.3686767
23.03600974815619	1.8957734	1.3768709
23.053896987042194	1.8748354	1.3692462
23.071784795377173	1.852654	1.3611224
23.08967317365145	1.8437897	1.3578622
23.10756212235546	1.8822249	1.371942
23.125451641979787	1.9150579	1.3838562
23.143341733015134	1.8936108	1.3760853
23.161232395952357	1.9036614	1.3797324
23.179123631282426	1.9306791	1.3894888
23.197015439496468	1.9269202	1.3881356
23.214907821085717	1.9281386	1.3885744
23.23280077654157	1.9372791	1.3918618
23.250694306355538	1.9302313	1.3893276
23.268588411019277	1.9328451	1.390268
23.28648309102458	1.925729	1.3877064
23.304378346863356	1.9374946	1.3919392
23.322274179027676	1.9349407	1.3910215
23.340170588009723	1.9309396	1.3895825
23.358067574301852	1.9087969	1.3815922
23.37596513839651	1.90668	1.3808259
23.39386328078629	1.9293169	1.3889985
23.411762001963947	1.9424535	1.3937193
23.429661302422353	1.9434658	1.3940824
23.4475611826545	1.9416454	1.3934294
23.46546164315356	1.9461415	1.3950417
23.48336268441279	1.9539425	1.3978349
23.501264306925638	1.9321922	1.3900331
23.51916651118564	1.9041829	1.3799213
23.537069297686497	1.9081348	1.3813525
23.554972666922037	1.9381443	1.3921726
23.57287661938623	1.9400519	1.3928574
23.59078115557318	1.9299479	1.3892256
23.608686275977128	1.9614565	1.4005201
23.62659198109246	1.9711769	1.4039861
23.6444982714137	1.9702626	1.4036604
23.66240514743549	1.9142953	1.3835806
23.68031260965263	1.9091594	1.3817234
23.698220658560068	1.9056982	1.3804703
23.716129294652845	1.9023724	1.3792652
23.7340385184262	1.8994232	1.3781956
23.75194833037546	1.8919262	1.375473
23.769858730996123	1.9234195	1.386874
23.78776972078382	1.9305501	1.3894423
23.80568130023431	1.8989967	1.3780409
23.823593469843495	1.9140468	1.3834908
23.841506230107424	1.9326882	1.3902116
23.859419581522275	1.9145926	1.3836881
23.87733352458438	1.9281266	1.38857
23.89524805979019	1.9542613	1.397949
23.913163187636318	1.9920516	1.4114006
23.931078908619508	1.9489033	1.3960313
23.948995223236633	1.9189897	1.3852761
23.966912131984735	1.9588081	1.3995743
23.98482963536096	1.9731729	1.4046967
24.002747733862616	1.9626734	1.4009545
24.020666427987155	1.9484785	1.3958791
24.038585718232156	1.9550761	1.3982403
24.056505605095353	1.9875926	1.4098201
24.074426089074617	2.059423	1.435069
24.092347170667946	2.098737	1.4487019
24.110268850373515	2.0784197	1.4416726
24.128191128689586	2.0731978	1.4398603
24.146114006114626	2.0732617	1.4398825
24.164037483147187	2.0556693	1.4337605
24.181961560286005	2.0734258	1.4399395
24.199886238029926	2.077972	1.4415172
24.21781151687797	2.0553555	1.4336511
24.235737397329274	2.0690484	1.4384187
24.253663879883135	2.0522559	1.4325696
24.271590965038975	2.073299	1.4398955
24.289518653296376	2.0533602	1.432955
24.30744694515505	2.0388572	1.4278855
24.32537584111486	2.0145478	1.4193476
24.34330534167581	2.0352743	1.4266304
24.361235447338046	2.0636892	1.4365547
24.379166158601876	2.0856519	1.4441786
24.39709747596772	2.0985377	1.4486331
24.41502939993615	2.0725884	1.4396487
24.432961931007917	2.025911	1.4233451
24.450895069683856	1.9650868	1.4018155
24.468828816465	1.898241	1.3777667
24.4867631718525	1.9093323	1.3817859
24.504698136347656	1.9488543	1.3960137
24.52263371045192	1.9921845	1.4114476
24.540569894666874	2.017947	1.4205446
24.558506689494266	1.9951087	1.4124832
24.57644409543597	2.0123992	1.4185905
24.594382112994012	1.9939567	1.4120753
24.61232074267057	1.9664509	1.402302
24.630259984967953	1.9227465	1.3866314
24.64819984038863	1.9412526	1.3932884
24.66614030943522	1.9851402	1.4089501
24.684081392610462	2.0113368	1.4182161
24.702023090417274	2.0026069	1.4151349
24.7199654033587	2.0083127	1.4171495
24.737908331937927	2.0249343	1.4230019
24.755851876658305	2.007367	1.4168158
24.773796038023324	2.043094	1.4293684
24.79174081653661	2.0448544	1.4299841
24.809686212701962	2.0595994	1.4351305
24.827632227023294	2.0356596	1.4267654
24.8455788600047	2.0284603	1.4242402
24.8635261121504	2.078464	1.441688
24.88147398396475	2.1107285	1.4528346
24.899422475952303	2.1032746	1.4502671
24.917371588617698	2.0637896	1.4365896
24.935321322465768	2.1522737	1.467063
24.953271678001478	2.2914245	1.5137452
24.97122265572994	2.4947941	1.5794917
24.989174256156414	2.7751582	1.6658806
25.00712647978632	3.1983454	1.7883918
25.02507932712521	3.8317084	1.9574751
25.043032798678798	4.5084243	2.123305
25.060986894952933	5.191942	2.2785833
25.078941616453637	5.888589	2.4266415
25.096896963687055	6.779043	2.6036596
25.114852937159508	7.963205	2.8219151
25.132809537377444	8.451959	2.9072251
25.150766764847468	8.464864	2.9094439
25.168724620076347	7.846019	2.8010745
25.186683103570985	6.7746515	2.602816
25.204642215838426	5.5845246	2.36316
25.222601957385894	4.213537	2.0526903
25.24056232872074	3.236903	1.7991395
25.25852333035048	2.645788	1.6265879
25.276484962782778	2.289695	1.5131738
25.294447226525435	2.1096423	1.4524608
25.312410122086423	1.9861958	1.4093246
25.330373649973843	1.8859916	1.3733141
25.348337810695988	1.8892926	1.3745154
25.366302604761245	1.915657	1.3840727
25.384268032678207	1.931268	1.3897007
25.40223409495558	1.9254242	1.3875966
25.420200792102257	1.9462026	1.3950636
25.438168124627246	1.9297341	1.3891487
25.45613609303974	1.9174149	1.3847076
25.474104697849057	1.900539	1.3786004
25.492073939564698	1.8828508	1.3721701
25.510043818696285	1.8922493	1.3755906
25.528014335753614	1.8591529	1.3635076
25.54598549124664	1.856409	1.362501
25.56395728568544	1.8570062	1.3627201
25.58192971958028	1.8863988	1.3734623
25.59990279344156	1.883174	1.3722879
25.617876507779833	1.8840309	1.3726001
25.635850863105826	1.8213125	1.3495601
25.653825859930386	1.8134054	1.3466275
25.671801498764548	1.8137848	1.3467683
25.68977778011949	1.836392	1.3551354
25.707754704506524	1.840174	1.3565301
25.725732272437153	1.8239862	1.3505503
25.743710484423012	1.8181344	1.3483821
25.761689340975888	1.8449415	1.3582863
25.77966884260774	1.8669835	1.366376
25.797648989830662	1.9208969	1.3859643
25.815629783156922	1.9204915	1.385818
25.83361122309895	1.8855586	1.3731564
25.85159331016929	1.8363446	1.3551179
25.869576044880695	1.837255	1.3554538
25.887559427746034	1.8628485	1.3648621
25.90554345927836	1.877104	1.3700745
25.92352813999086	1.8893892	1.3745506
25.94151347039689	1.8896601	1.374649
25.959499451009965	1.8952413	1.3766776
25.97748608234374	1.8649317	1.365625
25.995473364912062	1.8369243	1.3553318
26.013461299228904	1.8577381	1.3629887
26.03144988580839	1.8658029	1.3659439
26.04943912516483	1.8419144	1.3571715
26.067429017812675	1.7879635	1.3371475
26.085419564266537	1.8053707	1.3436408
26.103410765041186	1.8104609	1.3455337
26.12140262065155	1.782081	1.334946
26.139395131612723	1.7851033	1.3360776
26.157388298439948	1.7988199	1.341201
26.17538212164861	1.7892413	1.3376253
26.193376601754295	1.806144	1.3439286
26.211371739272714	1.8552172	1.3620636
26.229367534719746	1.8256572	1.3511689
26.247363988611433	1.8468283	1.3589807
26.26536110146397	1.8153621	1.3473537
26.283358873793727	1.8364012	1.3551388
26.301357306117204	1.7978793	1.3408502
26.319356398951104	1.7969106	1.3404889
26.33735615281224	1.8285743	1.3522478
26.35535656821762	1.8657758	1.365934
26.373357645684404	1.8228533	1.3501308
26.39135938572991	1.7448702	1.3209354
26.409361788871614	1.7538934	1.3243464
26.427364855627165	1.7963111	1.3402653
26.445368586514352	1.8523644	1.3610159
26.46337298205115	1.8064233	1.3440325
26.48137804275568	1.7576046	1.3257468
26.499383769146217	1.7524672	1.3238078
26.517390161741215	1.7869285	1.3367605
26.53539722105928	1.7858365	1.3363519
26.553404947619182	1.7500432	1.322892
26.571413341939856	1.7812837	1.3346474
26.589422404540397	1.8293175	1.3525226
26.60743213594006	1.8035283	1.3429551
26.62544253665827	1.7858788	1.3363677
26.64345360721459	1.7951431	1.3398296
26.66146534812879	1.7912239	1.3383662
26.679477759920758	1.7870941	1.3368224
26.69749084311057	1.741294	1.319581
26.71550459821847	1.7443258	1.3207293
26.733519025764842	1.7580936	1.3259312
26.751534126270258	1.7663616	1.3290454
26.769549900255434	1.8171312	1.3480101
26.787566348241267	1.8414984	1.3570182
26.80558347074881	1.808788	1.3449118
26.823601268299267	1.8094199	1.3451468
26.841619741414036	1.7663872	1.3290551
26.85963889061465	1.7634609	1.3279537
26.877658716422832	1.7776357	1.3332801
26.89567921936045	1.7872052	1.336864
26.913700399949544	1.8211942	1.3495163
26.93172225871233	1.8389187	1.3560674
26.949744796171174	1.8263526	1.3514261
26.967768012848605	1.8414054	1.3569839
26.98579190926733	1.8455003	1.3584919
27.003816485950225	1.8701272	1.3675259
27.021841743420318	1.867252	1.3664743
27.039867682200814	1.8754742	1.3694795
27.057894302815072	1.8604726	1.3639914
27.07592160578664	1.8467462	1.3589504
27.0939495916392	1.7913407	1.3384098
27.111978260896635	1.8131251	1.3465234
27.13000761408296	1.8481869	1.3594804
27.148037651722397	1.8070365	1.3442606
27.166068374339304	1.7966324	1.3403852
27.184099782458215	1.8135566	1.3466835
27.20213187660384	1.8443011	1.3580505
27.22016465730105	1.8673258	1.3665013
27.23819812507487	1.8466331	1.3589088
27.256232280450533	1.8166747	1.3478408
27.274267123953383	1.7937516	1.3393102
27.292302656108987	1.7878935	1.3371214
27.31033887744306	1.7817448	1.3348202
27.32837578848146	1.7554598	1.3249377
27.34641338975026	1.75807	1.3259224
27.364451681775673	1.7553314	1.3248892
27.382490665084074	1.7513604	1.3233898
27.400530340202046	1.7994118	1.3414216
27.41857070765629	1.8073362	1.344372
27.436611767973726	1.7537717	1.3243004
27.454653521681404	1.7401923	1.3191634
27.472695969306564	1.7907449	1.3381872
27.490739111376627	1.7847495	1.3359451
27.508782948419153	1.775918	1.3326358
27.526827480961902	1.817927	1.3483052
27.54487270953279	1.818818	1.3486356
27.562918634659898	1.7655362	1.3287348
27.580965256871508	1.7567397	1.3254206
27.599012576696026	1.7993135	1.3413849
27.617060594662068	1.8291667	1.3524668
27.63510931129842	1.8170007	1.3479617
27.65315872713401	1.8185395	1.3485323
27.67120884269797	1.840362	1.3565995
27.68925965851958	1.8829904	1.372221
27.707311175128307	1.8983139	1.3777931
27.725363393053787	1.888495	1.3742253
27.74341631282583	1.9155349	1.3840284
27.7614699349744	1.8939776	1.3762186
27.77952426002968	1.9985954	1.4137169
27.797579288521973	2.0428536	1.4292843
27.815635020981784	2.463743	1.5696315
27.83369145793979	2.5480568	1.5962634
27.85174859992682	2.4311793	1.5592239
27.869806447473923	2.3127131	1.5207607
27.887865001112267	2.0403726	1.4284161
27.905924261373233	1.954364	1.3979857
27.92398422878836	1.9688516	1.4031577
27.94204490388936	1.9712019	1.4039949
27.96010628720813	1.916052	1.3842154
27.978168379276728	1.843905	1.3579047
27.9962311806274	1.8593389	1.3635758
28.014294691792568	1.8816464	1.3717312
28.0323589133048	1.9162127	1.3842733
28.050423845696887	1.917346	1.3846827
28.068489489501758	1.8821138	1.3719015
28.086555845252523	1.8090091	1.3449941
28.104622913482487	1.8177502	1.3482397
28.122690694725115	1.8357327	1.3548921
28.14075918951405	1.8765011	1.3698545
28.15882839838312	1.8977734	1.377597
28.176898321866304	1.9247729	1.3873619
28.1949689604978	1.9339777	1.3906753
28.213040314811945	1.9070519	1.3809605
28.23111238534327	1.8936148	1.3760867
28.249185172626493	1.8808564	1.3714432
28.267258677196473	1.8475432	1.3592436
28.285332899588294	1.8413988	1.3569815
28.303407840337172	1.8711138	1.3678867
28.321483499978545	1.9230645	1.386746
28.33955987904799	1.928924	1.3888571
28.357636978081285	1.886312	1.3734307
28.37571479761439	1.8790758	1.3707938
28.393793338183425	1.8933777	1.3760006
28.41187260032469	1.9716027	1.4041377
28.429952584574686	1.9879422	1.409944
28.448033291470065	1.9514698	1.3969501
28.46611472154769	1.9528763	1.3974535
28.484196875344566	1.9527068	1.3973929
28.502279753397914	1.9529189	1.3974687
28.52036335624511	1.9219248	1.386335
28.538447684423716	1.9226997	1.3866144
28.556532738471482	1.9758806	1.4056602
28.574618518926325	2.0111983	1.4181672
28.59270502632635	1.9971547	1.4132073
28.61079226120985	1.9873388	1.4097301
28.628880224115274	2.0288653	1.4243824
28.646968915581287	2.0267975	1.4236563
28.66505833614671	2.0110526	1.4181159
28.68314848635055	2.0025752	1.4151237
28.701239366732004	2.0693843	1.4385355
28.71933097783044	2.1218967	1.4566731
28.737423320185403	2.1516654	1.4668556
28.75551639433665	2.1441877	1.4643046
28.773610200824074	2.123164	1.457108
28.791704740187793	2.0856986	1.4441948
28.80980001296809	2.0892408	1.4454206
28.827896019705413	2.1292996	1.459212
28.845992760940433	2.1539361	1.4676294
28.86409023721397	2.2280557	1.4926673
28.88218844906704	2.2404344	1.496808
28.900287397040845	2.2546678	1.5015551
28.918387081676755	2.2236936	1.4912055
28.936487503516343	2.2242403	1.4913887
28.954588663101365	2.2303424	1.4934331
28.97269056097374	2.3201385	1.5232
28.990793197675597	2.3448627	1.5312945
29.00889657374923	2.3608065	1.5364916
29.027000689737125	2.4367154	1.5609982
29.04510554618196	2.4202437	1.5557133
29.06321114362659	2.4003117	1.549294
29.08131748261405	2.4580665	1.5678222
29.099424563687567	2.51566	1.5860833
29.11753238739057	2.5296698	1.5904936
29.13564095426663	2.499656	1.58103
29.15375026485954	2.5437515	1.5949142
29.171860319713275	2.6177108	1.6179341
29.18997111937199	2.6531143	1.6288383
29.20808266438002	2.688797	1.6397551
29.226194955281898	2.732676	1.6530808
29.244307992622335	2.7735946	1.6654112
29.26242177694624	2.7335002	1.6533301
29.2805363087987	2.8216333	1.6797718
29.29865158872498	2.8772707	1.696252
29.316767617270557	2.953559	1.7185922
29.334884394981064	2.995074	1.7306283
29.353001922402367	2.975919	1.7250853
29.37112020008047	3.0388205	1.7432213
29.389239228561596	3.1331034	1.7700574
29.407359008392152	3.3590157	1.8327618
29.42547954011872	3.7148585	1.9273968
29.44360082428809	4.3557777	2.08705
29.46172286144722	5.3757186	2.3185596
29.479845652143283	6.8437586	2.6160579
29.497969196923606	8.841145	2.9734063
29.516093496335728	11.452576	3.3841655
29.5342185509274	14.572463	3.8173895
29.55234436124651	17.351377	4.1654983
29.570470927841175	18.856207	4.3423734
29.588598251259686	18.442986	4.29453
29.60672633205055	16.913204	4.1125665
29.624855170762405	14.590036	3.8196907
29.642984767944146	11.835292	3.4402459
29.66111512414481	9.108722	3.018066
29.67924623991366	6.7820673	2.6042402
29.697378115800138	5.1958933	2.2794502
29.71551075235387	4.210069	2.0518453
29.733644150124675	3.7352605	1.9326822
29.751778309662576	3.4965713	1.8699121
29.769913231517766	3.4058287	1.8454888
29.78804891624066	3.359097	1.8327839
29.806185364381818	3.3447156	1.8288563
29.82432257649206	3.404151	1.8450341
29.842460553122333	3.4254446	1.8507956
29.86059929482382	3.3759785	1.8373836
29.878738802147872	3.3397377	1.8274949
29.896879075646048	3.3486493	1.8299315
29.915020115870114	3.2477427	1.8021494
29.933161923371976	3.1977718	1.7882315
29.951304498703777	3.1925182	1.786762
29.969447842417857	3.175845	1.7820901
29.987591955066733	3.2047124	1.790171
30.005736837203123	3.2324667	1.7979062
30.023882489379943	3.2098358	1.7916014
30.04202891215028	3.2564309	1.8045584
30.060176106067455	3.2491488	1.8025396
30.078324071684946	3.1748524	1.7818116
30.09647280955646	3.098979	1.7603917
30.114622320235863	3.1111586	1.7638477
30.132772604277257	3.1427834	1.7727897
30.1509236622349	3.1141956	1.7647084
30.16907549466328	3.0956357	1.7594419
30.18722810211705	3.0777137	1.7543414
30.205381485151097	3.0751195	1.7536019
30.22353564432045	3.0252423	1.7393224
30.241690580180403	2.9970272	1.7311924
30.25984629328638	3.0588357	1.7489527
30.278002784194037	3.1340988	1.7703387
30.296160053459246	3.1258793	1.7680156
30.314318101638033	3.0317214	1.7411839
30.332476929286646	2.9728868	1.7242061
30.35063653696153	2.9627068	1.7212515
30.368796925219307	2.9655616	1.7220806
30.386958094616844	2.9068995	1.7049632
30.40512004571115	2.8719761	1.6946906
30.423282779059463	2.883603	1.6981175
30.441446295219233	2.8725932	1.6948726
30.459610594748067	2.8677428	1.6934412
30.47777567820382	2.827006	1.6813703
30.495941546144504	2.8668046	1.6931641
30.51410819912835	2.9331148	1.7126338
30.532275637713795	2.9289854	1.7114279
30.55044386245946	2.9130292	1.7067598
30.56861287392416	2.8451917	1.6867696
30.586782672666956	2.828236	1.681736
30.604953259247047	2.7925017	1.671078
30.623124634223885	2.7758236	1.6660804
30.641296798157075	2.7530525	1.6592325
30.659469751606462	2.7957215	1.6720412
30.677643495132074	2.8693874	1.6939266
30.695818029294152	2.8330207	1.6831579
30.713993354653116	2.7875228	1.6695876
30.73216947176962	2.7924836	1.6710726
30.75034638120448	2.6910408	1.6404392
30.768524083518756	2.672999	1.6349308
30.786702579273673	2.6645474	1.6323441
30.80488186903069	2.7136693	1.6473218
30.82306195335144	2.8554647	1.6898121
30.841242832797782	3.030317	1.7407806
30.85942450793176	3.3334713	1.8257797
30.877606979315637	3.7303486	1.931411
30.895790247511883	4.0810676	2.0201652
30.913974313083134	4.445002	2.1083174
30.932159176592283	4.7765956	2.1855423
30.95034483860237	4.943987	2.223508
30.968531299676698	4.838581	2.1996775
30.98671856037873	4.4571605	2.111199
31.00490662127215	3.9400227	1.984949
31.023095482920848	3.49999	1.870826
31.04128514588892	3.1310506	1.7694775
31.059475610740662	2.8605266	1.6913091
31.07766687804056	2.7346888	1.6536894
31.09585894835335	2.615414	1.6172241
31.11405182224393	2.5337203	1.5917664
31.132245500277417	2.5026124	1.5819647
31.15043998301914	2.433158	1.5598583
31.168635271034628	2.3858964	1.5446347
31.18683136488964	2.331986	1.5270841
31.20502826515008	2.3757744	1.5413548
31.223225972382135	2.4247835	1.5571716
31.241424487152155	2.3858953	1.5446343
31.259623810026692	2.3593972	1.5360329
31.27782394157253	2.414057	1.5537236
31.296024882356644	2.439201	1.5617942
31.314226632946237	2.4179912	1.5549891
31.332429193908684	2.3743925	1.5409064
31.350632565811598	2.3615842	1.5367447
31.368836749222787	2.383509	1.5438617
31.387041744710295	2.4999201	1.5811136
31.40524755284232	2.610815	1.6158017
31.423454174187317	2.633567	1.6228269
31.441661609313922	2.5490775	1.5965831
31.459869858791002	2.4578102	1.5677404
31.478078923187628	2.4244246	1.5570564
31.496288803073064	2.405301	1.5509033
31.514499499016807	2.3553796	1.5347246
31.532711011588546	2.3721075	1.5401647
31.550923341358178	2.4092114	1.5521635
31.56913648889584	2.4136171	1.5535821
31.587350454771844	2.3664548	1.5383285
31.605565239556732	2.2898016	1.513209
31.62378084382127	2.2573872	1.5024604
31.641997268136382	2.3077738	1.5191358
31.660214513073274	2.391037	1.5462978
31.67843257920331	2.3974686	1.5483761
31.6966514670981	2.3942547	1.5473379
31.71487117732944	2.361071	1.5365777
31.733091710469346	2.3665063	1.5383453
31.751313067090052	2.3239138	1.5244389
31.769535247764008	2.266382	1.5054507
31.787758253063878	2.2457788	1.4985923
31.805982083562526	2.2857337	1.5118643
31.824206739833024	2.231013	1.4936576
31.84243222244869	2.1463656	1.465048
31.860658531983013	2.2594883	1.5031594
31.878885669009737	2.322298	1.5239089
31.897113634102784	2.3200529	1.523172
31.91534242783632	2.226915	1.4922851
31.933572050784694	2.2504086	1.5001363
31.951802503522508	2.242301	1.4974315
31.970033786624548	2.117886	1.4552959
31.988265900665834	2.093101	1.4467553
32.006498846221575	2.120904	1.4563323
32.02473262386724	2.1178584	1.4552864
32.04296723417845	2.1569037	1.4686401
32.0612026777311	2.2294252	1.493126
32.07943895510129	2.2265344	1.4921576
32.097676066865304	2.1853805	1.4783032
32.115914013599685	2.1434274	1.4640448
32.13415279588115	2.1154244	1.4544499
32.152392414286666	2.136159	1.4615605
32.1706328693934	2.176791	1.4753952
32.18887416177875	2.1965227	1.482067
32.20711629202032	2.2149823	1.4882816
32.225359260695924	2.1642919	1.4711533
32.243603068383614	2.0862663	1.4443914
32.26184771566166	2.0905037	1.4458574
32.28009320310852	2.1663067	1.4718379
32.2983395313029	2.187674	1.4790788
32.31658670082372	2.1831357	1.4775438
32.33483471225012	2.162008	1.4703768
32.35308356616143	2.1778655	1.4757593
32.371333263137245	2.1600544	1.4697124
32.38958380375734	2.1129947	1.4536144
32.407835188601744	2.0838718	1.4435622
32.42608741825067	2.0436432	1.4295605
32.444340493284585	2.0374262	1.4273844
32.46259441428416	2.0459926	1.430382
32.48084918183028	2.0834444	1.4434141
32.49910479650405	2.087478	1.4448106
32.51736125888683	2.1243708	1.4575222
32.53561856956014	2.1719315	1.4737475
32.5538767291058	2.1441915	1.4643058
32.572135738105764	2.1017838	1.449753
32.59039559714228	2.1175911	1.4551946
32.608656306797776	2.121752	1.4566236
32.62691786765491	2.1112318	1.4530078
32.645180280296586	2.0941486	1.4471173
32.663443545305896	2.0553854	1.4336615
32.68170766326619	1.9616364	1.4005843
32.69997263476099	1.9049771	1.3802091
32.7182384603741	1.9301927	1.3893137
32.7365051406895	2.0128205	1.4187391
32.75477267629144	2.0170424	1.4202262
32.77304106776434	1.9881164	1.4100058
32.79131031569289	1.9769477	1.4060397
32.809580420661966	1.9435228	1.3941028
32.827851383256714	1.9012184	1.3788468
32.84612320406245	1.957845	1.3992301
32.86439588366476	2.0100834	1.4177741
32.88266942264945	2.0661833	1.4374225
32.9009438216025	2.0270813	1.423756
32.9192190811102	2.0265234	1.4235601
32.937495201758985	2.0185847	1.4207691
32.95577218413556	2.017895	1.4205263
32.974050028826866	2.017913	1.4205327
32.992328736420035	1.9780897	1.4064457
33.010608307502444	1.9565573	1.3987699
33.02888874266169	2.0317636	1.4253994
33.047170042485604	2.0525815	1.4326833
33.06545220756225	1.9467448	1.395258
33.083735238479896	1.911833	1.3826905
33.10201913582707	1.9484655	1.3958745
33.12030390019248	1.9381253	1.3921657
33.138589532165135	1.926194	1.3878739
33.15687603233419	1.9877995	1.4098934
33.17516340128909	2.0156958	1.419752
33.19345163961947	1.9893408	1.41044
33.211740747915215	1.9796727	1.4070084
33.23003072676643	1.9382073	1.3921951
33.248321576763466	1.7663323	1.3290343
33.266613298496885	1.6970421	1.3027056
33.28490589255747	1.7536697	1.3242619
33.30319935953626	1.8250617	1.3509485
33.32149370002451	1.9038198	1.3797897
33.339788914613706	1.985562	1.4090997
33.358085003895575	1.9883587	1.4100918
33.376381968462034	1.9217201	1.3862612
33.39467980890529	1.9732114	1.4047104
33.41297852581774	1.940617	1.3930603
33.43127811979204	1.9419831	1.3935505
33.44957859142105	1.9817543	1.407748
33.467879941297866	1.9169071	1.3845241
33.486182170015844	1.8874662	1.3738508
33.50448527816853	1.9185331	1.3851112
33.522789266349754	1.9425569	1.3937564
33.541094135153514	1.9488066	1.3959967
33.55939988517411	1.985435	1.4090546
33.57770651700602	1.9785811	1.4066205
33.59601403124398	1.8804039	1.3712782
33.61432242848296	1.8471109	1.3590846
33.632631709318154	1.9467446	1.3952578
33.650941874344994	1.9095072	1.3818492
33.66925292415916	1.8234895	1.3503665
33.68756485935654	1.876977	1.3700281
33.70587768053328	1.9016378	1.3789989
33.724191388285746	1.8495569	1.3599842
33.74250598321054	2.011762	1.418366
33.760821465904506	2.0550957	1.4335605
33.77913783696474	1.9858017	1.4091848
33.79745509698852	1.9343837	1.3908212
33.815773246573414	1.8810433	1.3715113
33.8340922863172	1.8795043	1.3709501
33.852412216817896	2.0251348	1.4230723
33.87073303867377	1.971522	1.404109
33.889054752483304	1.8539399	1.3615946
33.907377358845245	1.8913776	1.3752736
33.92570085835853	2.0602767	1.4353664
33.94402525162239	1.9502009	1.3964959
33.96235053923627	1.8204159	1.3492279
33.980676721799824	1.8679892	1.366744
33.999003799912984	1.9320188	1.3899708
34.01733177417592	1.8270234	1.3516743
34.03566064518901	1.7712971	1.3309009
34.0539904135529	1.8255756	1.3511386
34.07232107986846	1.893158	1.3759208
34.090652644736785	1.9501656	1.3964833
34.108985108759235	1.9006456	1.3786391
34.12731847253742	1.8707733	1.3677622
34.14565273667313	1.7972994	1.340634
34.16398790176847	1.7700504	1.3304324
34.18232396842574	1.8298935	1.3527355
34.20066093724749	1.9587765	1.399563
34.21899880883651	2.0850186	1.4439594
34.23733758379583	2.0176296	1.4204329
34.25567726272874	1.8939176	1.3761967
34.27401784623872	1.8234022	1.350334
34.29235933492957	1.8945553	1.3764285
34.31070172940526	1.8867112	1.373576
34.32904503027003	1.9464056	1.3951365
34.347389238128386	2.0975769	1.4483013
34.36573435358502	2.0738099	1.4400729
34.38408037724492	1.987923	1.4099373
34.402427309713296	2.0586822	1.4348109
34.42077515159559	2.232095	1.4940197
34.43912390349752	2.2546191	1.5015389
34.45747356602499	2.210629	1.4868184
34.47582413978423	2.2963567	1.5153735
34.49417562538163	2.3057647	1.5184745
34.51252802342388	2.3351796	1.5281295
34.53088133451789	2.3183634	1.5226173
34.54923555927084	2.135847	1.4614538
34.567590698290104	2.0515037	1.4323071
34.58594675218336	2.0000033	1.4142147
34.6043037215585	1.8842316	1.3726732
34.62266160702365	1.9792582	1.4068611
34.641020409187234	1.9122959	1.3828579
34.65938012865785	1.9189802	1.3852726
34.677740766044394	2.0885427	1.4451791
34.69610232195598	2.1552212	1.4680672
34.714464797002016	2.014735	1.4194136
34.73282819179208	1.9599588	1.3999853
34.751192506936064	1.9613279	1.4004742
34.76955774304408	1.9492799	1.3961661
34.7879239007265	1.6792777	1.2958695
34.80629098059391	1.7029319	1.3049643
34.824658983257194	1.7946866	1.3396591
34.843027909327446	1.8232255	1.3502687
34.86139775941603	1.9307252	1.3895054
34.879768534134534	2.0574136	1.4343687
34.89814023409483	1.8966244	1.3771799
34.91651285990901	1.8746278	1.3691705
34.93488641218944	1.9094507	1.3818288
34.95326089154871	1.8948944	1.3765516
34.97163629859967	1.8680291	1.3667586
34.99001263395542	2.048686	1.4313232
35.00838989822934	2.1522462	1.4670535
35.02676809203499	2.08321	1.4433329
35.04514721598624	2.022663	1.4222037
35.063527270697215	2.0061142	1.4163736
35.081908256782256	2.1219945	1.4567068
35.10029017485597	2.0766845	1.4410706
35.11867302553321	1.9761844	1.4057683
35.137056809429104	1.9734739	1.4048039
35.155441527159006	2.1389863	1.4625274
35.173827179338524	2.0487847	1.4313576
35.19221376658354	1.7377479	1.3182367
35.21060128951017	1.6110717	1.26928
35.2289897487348	2.008489	1.4172117
35.24737914487405	2.0906332	1.4459022
35.26576947854479	1.9522877	1.3972429
35.28416075036418	1.969096	1.4032447
35.30255296094958	2.0108805	1.4180552
35.32094611091867	2.1201763	1.4560826
35.33934020088932	2.011948	1.4184315
35.35773523147969	1.8559778	1.3623427
35.3761312033082	2.0155826	1.4197122
35.394528116993506	2.147192	1.46533
35.41292597315452	2.3250663	1.5248169
35.431324772410434	2.2480476	1.499349
35.449724515380666	2.0500793	1.4318098
35.46812520268491	2.0588772	1.4348788
35.486526834943106	2.1614852	1.470199
35.504929412775454	2.5686557	1.6027026
35.52333293680242	2.4450665	1.5636709
35.54173740764471	1.9225985	1.386578
35.560142825923286	1.6829959	1.2973033
35.5785491922594	2.1435	1.4640697
35.59695650727454	2.3977356	1.5484624
35.61536477159042	2.5998158	1.6123945
