0.008763373481513119	0.0	0.0
0.026290120649546365	0.0	0.0
0.043816868432600686	0.0	0.0
0.06134361724069026	0.0	0.0
0.07887036748382949	0.00063309097	0.0251613
0.0963971195720331	0.055701267	0.23601116
0.11392387391531617	0.11794674	0.34343374
0.1314506309236943	0.14529456	0.38117525
0.1489773910071836	0.15510222	0.3938302
0.16650415457580078	0.20944409	0.45765063
0.18403092203956356	0.22987133	0.47944897
0.20155769380849	0.2691938	0.5188389
0.2190844702925996	0.28027692	0.52941185
0.2366112519019124	0.20798783	0.45605683
0.2541380390464497	0.1596678	0.39958453
0.27166483213623416	0.1082757	0.32905272
0.28919163158128947	0.099807516	0.31592327
0.3067184377916406	0.10158611	0.31872576
0.324245251177314	0.12970999	0.36015272
0.34177207214833777	0.10156038	0.31868538
0.3592989011147415	0.1447575	0.3804701
0.37682573848655654	0.19288324	0.43918476
0.39435258467381573	0.18349981	0.42836878
0.41187944008655414	0.12875497	0.35882443
0.42940630513480854	0.08512124	0.29175544
0.446933180228618	0.089554325	0.2992563
0.4644600657780234	0.13169561	0.36289892
0.48198696219306775	0.16909592	0.41121274
0.49951386988379676	0.14981854	0.387064
0.5170407892602581	0.13018341	0.3608094
0.5345677207325025	0.14281133	0.37790385
0.5520946647105822	0.13773572	0.37112764
0.5696216216045534	0.14989276	0.38715985
0.5871485918244737	0.13734217	0.37059703
0.6046755757804043	0.15655597	0.39567155
0.6222025738824094	0.20992716	0.45817807
0.6397295865405557	0.2277222	0.47720248
0.6572566141649129	0.22215703	0.47133538
0.6747836571655547	0.16530445	0.4065765
0.6923107159525568	0.101962775	0.31931612
0.7098377909359992	0.08049635	0.2837188
0.7273648825259653	0.09504714	0.30829716
0.7448919911325411	0.12781091	0.3575065
0.762419117165817	0.16082583	0.40103096
0.7799462610358868	0.16687644	0.4085051
0.7974734231528482	0.13723014	0.37044588
0.8150006039268024	0.13750927	0.37082243
0.8325278037678551	0.14736876	0.3838864
0.8500550230861152	0.15800005	0.3974922
0.8675822622916969	0.1710321	0.41356027
0.8851095217947171	0.18345584	0.42831746
0.9026368020052984	0.20244132	0.44993478
0.9201641033335665	0.23144703	0.4810894
0.9376914261896523	0.2104704	0.4587705
0.9552187709836915	0.2129158	0.461428
0.9727461381258234	0.19816265	0.44515464
0.990273528026193	0.22013274	0.46918306
1.0078009410949496	0.23678133	0.48660183
1.0253283777422473	0.26412392	0.5139299
1.0428558383782454	0.28937444	0.5379354
1.0603833234131086	0.28684497	0.5355791
1.0779108332570058	0.30499628	0.5522647
1.0954383683201119	0.2841858	0.5330908
1.112965929012607	0.33449864	0.5783586
1.1304935157446763	0.43453732	0.65919447
1.1480211289265108	0.4709028	0.68622357
1.1655487689683062	1.4206203	1.1918977
1.1830764362802655	1.719167	1.3111701
1.200604131272596	2.1480634	1.4656273
1.2181318543555117	2.5041282	1.5824437
1.235659605939232	2.5016623	1.5816644
1.253187386433982	4.0791125	2.0196812
1.270715196249994	6.308167	2.5116065
1.2882430357975057	12.081712	3.4758756
1.3057709054867608	16.947952	4.116789
1.3232988057280106	23.03883	4.799878
1.3408267369315112	27.731407	5.266062
1.358354699507526	31.52798	5.6149783
1.3758826938663256	35.37419	5.947621
1.3934107204181858	37.578823	6.130157
1.410938779573391	37.8117	6.1491218
1.4284668717422309	38.016357	6.1657405
1.4459949973350033	37.530724	6.1262326
1.4635231567620117	37.62043	6.1335497
1.4810513504335687	37.087723	6.089969
1.4985795787599925	36.183464	6.0152693
1.5161078421516088	35.765892	5.980459
1.5336361410187505	34.896988	5.907367
1.5511644757717598	35.15315	5.929009
1.5686928468209842	35.771584	5.980935
1.58622125457678	36.34006	6.0282717
1.6037496994495108	37.366917	6.1128483
1.621278181849548	37.00387	6.0830803
1.6388067021872719	37.394684	6.1151195
1.6563352608730693	36.8112	6.0672235
1.673863858317336	36.228954	6.019049
1.6913924949304753	35.540375	5.961575
1.7089211711228998	34.627014	5.8844724
1.7264498873050296	33.842533	5.8174334
1.7439786438872935	32.91124	5.7368317
1.7615074412801288	31.700111	5.6302853
1.779036279893981	31.095642	5.576347
1.796565160139305	30.190971	5.4946313
1.814094082426564	29.701853	5.4499407
1.8316230471662298	28.801685	5.36672
1.849152054768784	27.875975	5.2797704
1.8666811056447168	27.27942	5.2229705
1.8842102002045273	26.740904	5.1711607
1.901739338858724	26.310759	5.129401
1.9192685220178245	25.631609	5.062767
1.9367977500923557	24.793049	4.979262
1.9543270234928547	24.450851	4.9447803
1.971856342629867	23.950178	4.893892
1.9893857079139496	23.600447	4.858029
2.006915119755667	23.02418	4.798352
2.0244445785655945	22.377785	4.7305164
2.0419740847543175	21.754375	4.664159
2.0595036387324317	21.140245	4.597852
2.0770332409105414	20.699553	4.549676
2.094562891699263	20.58319	4.53687
2.1120925915092217	20.073997	4.4804015
2.129622340751053	19.837769	4.453961
2.1471521398354043	187.95747	13.709759
2.1646819891729323	444.46738	21.082396
2.182211889174303	440.79953	20.995226
2.1997418402501974	453.30432	21.290945
2.2172718428113023	433.33786	20.816769
2.234801897268317	321.2126	17.922405
2.2523320040319548	17.428421	4.174736
2.269862163512935	16.988544	4.121716
2.287392376121992	16.546198	4.067702
2.304922642269869	16.390406	4.0485067
2.322452962367322	16.177118	4.022079
2.3399833368251164	15.783087	3.9727933
2.357513766054032	15.430417	3.9281569
2.3750442504648586	15.071286	3.8821754
2.3925747904683963	14.909005	3.861218
2.410105386475459	14.676629	3.831009
2.4276360388968707	14.35166	3.7883584
2.445166748143469	14.396762	3.7943065
2.4626975146261025	14.152687	3.7620058
2.4802283387556323	13.824177	3.7180877
2.4977592209429305	13.500326	3.674279
2.5152901615988825	13.040495	3.6111627
2.5328211611343865	12.894814	3.590935
2.5503522199603523	12.462166	3.5301793
2.5678833384877024	12.305904	3.5079772
2.5854145171273712	12.257762	3.5011086
2.6029457562903064	12.0286045	3.4682279
2.620477056387469	11.907037	3.4506574
2.6380084178298326	11.808402	3.4363356
2.655539841028383	11.697879	3.420216
2.673071326394119	11.678353	3.4173605
2.6906028743380523	11.275795	3.357945
2.708134485271211	10.909007	3.3028786
2.7256661596046325	10.7883215	3.284558
2.743197897749369	10.616211	3.2582529
2.760729700116486	10.677954	3.2677138
2.778261567117063	10.5841465	3.2533286
2.795793499162193	10.486938	3.2383542
2.8133254966629817	10.351974	3.2174482
2.830857560030551	10.005102	3.1630843
2.8483896896760337	9.743389	3.1214402
2.865921886010578	9.383949	3.0633233
2.883454149445347	9.261446	3.0432625
2.9009864803915177	9.331699	3.054783
2.91851887926028	9.225909	3.0374181
2.9360513464628384	9.1087055	3.0180633
2.953583882410413	8.938966	2.9898102
2.9711164875142373	8.780275	2.963153
2.9886491621855606	8.755392	2.9589512
3.0061819068356455	8.613153	2.9348176
3.023714721875769	8.554228	2.924761
3.041247607717225	8.460948	2.9087708
3.0587805647713213	8.396384	2.8976514
3.0763135934493806	8.258467	2.8737547
3.0938466941627407	8.16181	2.856888
3.1113798673227544	8.06034	2.839074
3.1289131133407904	7.9605002	2.821436
3.1464464326282315	7.890303	2.8089683
3.1639798255964786	7.815367	2.7955978
3.1815132926569443	7.6919737	2.7734408
3.1990468342210603	7.504374	2.7394114
3.216580450700272	7.4437	2.7283144
3.2341141425060416	7.354714	2.7119577
3.251647910049847	7.375799	2.7158422
3.2691817537431813	7.243722	2.6914163
3.286715673997555	7.172521	2.6781564
3.3042496712244938	7.1512213	2.6741767
3.32178374583554	7.150724	2.6740837
3.339317898242251	7.2066917	2.684528
3.3568521288562034	7.0999737	2.6645775
3.3743864380889876	6.969506	2.6399822
3.3919208263522127	6.7965693	2.607023
3.4094552940575023	6.647301	2.578236
3.4269898416164972	6.6685433	2.5823524
3.444524469440858	6.589594	2.5670204
3.4620591779422587	6.5214906	2.553721
3.479593967532391	6.4316654	2.5360727
3.4971288386229658	6.3034935	2.510676
3.5146637916257086	6.2852607	2.5070422
3.5321988269523628	6.2514634	2.5002928
3.5497339450146903	6.336034	2.517148
3.5672691462244708	6.304075	2.5107918
3.5848044309934988	6.2724323	2.5044825
3.60233979973359	6.1743245	2.4848187
3.619875252856575	6.165245	2.4829912
3.6374107907743034	6.197074	2.4893923
3.6549464138986427	6.2808776	2.506168
3.6724821226414788	6.3506155	2.5200427
3.690017917414714	6.2552295	2.5010457
3.7075537986302702	6.170707	2.4840908
3.7250897667000857	6.268993	2.5037956
3.7426258220361235	6.593208	2.5677242
3.7601619650503553	6.918679	2.6303382
3.777698196154779	7.4530897	2.7300348
3.7952345157614067	8.569942	2.9274464
3.8127709242822716	9.402579	3.0663626
3.830307422129425	11.78712	3.4332376
3.847844009714936	30.570536	5.5290627
3.8653806874508954	97.930664	9.895992
3.882917455749409	97.12347	9.8551235
3.900454315022606	96.71975	9.8346195
3.917991265682631	41.46882	6.4396286
3.9355283081416506	11.085069	3.3294246
3.9530654428118495	8.878479	2.9796777
3.970602670105433	7.58257	2.7536466
3.9881399904346244	6.5435576	2.5580378
4.005677404211669	6.475703	2.5447402
4.023214911848827	6.3633075	2.5225596
4.0407525137583855	6.4358425	2.5368962
4.058290210352644	6.476151	2.5448282
4.075828002043927	6.502071	2.5499158
4.0933658892445814	6.4194384	2.5336611
4.110903872366966	6.427043	2.5351613
4.128441951823468	6.333208	2.5165865
4.145980128026488	6.3188534	2.513733
4.163518401388452	6.280597	2.5061119
4.181056772321807	6.166933	2.483331
4.1985952412390155	6.167794	2.4835045
4.216133808552567	6.154674	2.4808617
4.233672474674966	6.1756635	2.485088
4.251211240018741	6.342534	2.5184388
4.268750104996445	6.5237694	2.554167
4.286289070020643	7.485024	2.7358773
4.303828135503928	9.19982	3.0331204
4.3213673018589125	29.551857	5.436162
4.3389065694982305	90.669464	9.522052
4.356445938834537	165.88162	12.879504
4.3739854102805085	171.21358	13.084861
4.391524984248844	172.13594	13.120059
4.409064661152262	136.15105	11.668378
4.426604441403504	96.49093	9.82298
4.444144325415337	75.5183	8.690126
4.461684313600543	21.61833	4.6495514
4.47922440637193	22.21852	4.7136526
4.496764604142329	20.524408	4.5303874
4.5143049073245916	18.793903	4.3351936
4.531845316331589	16.60166	4.0745134
4.5493858315762195	13.561049	3.682533
4.566926453471405	11.394915	3.3756354
4.584467182430081	9.170219	3.028237
4.602008018865218	8.10662	2.8472126
4.619548963189798	7.431024	2.7259905
4.637090015816834	6.981345	2.6422236
4.654631177159353	6.7856665	2.604931
4.672172447630417	6.5438848	2.558102
4.689713827643102	6.2966104	2.5093048
4.7072553176105085	6.039551	2.4575498
4.724796917945764	5.883471	2.4255867
4.742338629062015	5.8707743	2.4229681
4.759880451372434	5.833604	2.4152853
4.777422385290215	5.785247	2.4052541
4.794964431228581	5.715309	2.3906713
4.812506589600768	5.7116256	2.3899007
4.830048860820047	5.6107383	2.3686998
4.847591245299709	5.571068	2.360311
4.8651337434530655	5.5061235	2.346513
4.882676355693457	5.624514	2.3716059
4.900219082434242	5.7217946	2.3920274
4.917761924088813	5.693542	2.3861144
4.935304881070575	5.6459513	2.376121
4.952847953792969	5.5363407	2.352943
4.970391142669449	5.4670906	2.338181
4.9879344481135055	5.4415708	2.3327174
5.005477870538642	5.4248357	2.3291276
5.023021410358394	5.4928546	2.343684
5.040565067986324	5.4488654	2.3342805
5.05810884383601	5.370234	2.3173766
5.075652738321066	5.369804	2.3172836
5.09319675185512	5.38387	2.3203168
5.110740884851836	5.4632545	2.3373606
5.128285137724894	5.489158	2.3428953
5.145829510888007	5.425436	2.3292565
5.163374004754908	5.4336553	2.33102
5.1809186197393595	5.388652	2.321347
5.198463356255145	5.428636	2.3299434
5.216008214716077	5.4630194	2.3373103
5.233553195535998	5.455779	2.3357608
5.251098299128764	5.4003015	2.323855
5.268643525908272	5.3040657	2.3030558
5.286188876288432	5.2964168	2.3013945
5.3037343506831895	5.2929773	2.3006473
5.32127994950651	5.32035	2.3065884
5.3388256731723915	5.309856	2.3043125
5.356371522094851	5.318261	2.3061357
5.373917496687938	5.355524	2.3142006
5.391463597365729	5.3985853	2.3234856
5.40900982454232	5.3582697	2.3147936
5.426556178631843	5.276192	2.2969964
5.444102660048449	5.237961	2.288659
5.4616492692063225	5.2162824	2.2839181
5.479196006519669	5.2163925	2.2839422
5.496742872402727	5.206671	2.2818131
5.514289867269756	5.1235514	2.2635262
5.531836991535049	5.0738306	2.2525165
5.549384245612924	5.1238422	2.2635906
5.566931629917724	5.172348	2.2742796
5.584479144863822	5.217736	2.2842364
5.6020267908656205	5.1816125	2.2763155
5.619574568337545	5.130144	2.2649822
5.637122477694054	5.1570334	2.2709103
5.654670519349629	5.170639	2.2739038
5.672218693718784	5.1738105	2.2746012
5.689767001216059	5.1236806	2.2635548
5.707315442256021	5.049102	2.2470207
5.724864017253266	5.0733714	2.2524145
5.7424127266224225	5.1611085	2.2718074
5.75996157077814	5.211886	2.2829554
5.777510550135105	5.237511	2.2885609
5.795059665108022	5.271819	2.2960443
5.812608916111639	5.301788	2.302561
5.830158303560715	5.454617	2.3355122
5.847707827870055	5.3895507	2.3215406
5.86525748945448	5.422298	2.3285828
5.8828072887288485	5.4923186	2.3435695
5.900357226108044	5.5914288	2.3646202
5.917907302006979	5.7144074	2.3904827
5.9354575168406	6.4272003	2.5351923
5.9530078710238765	7.082818	2.6613564
5.970558364971812	7.6385903	2.7638
5.988108999099438	7.9436417	2.8184466
6.005659773821818	8.4570875	2.9081073
6.023210689554039	8.114139	2.8485327
6.040761746711227	8.517529	2.9184806
6.058312945708531	7.877543	2.8066962
6.075864286961132	7.3539433	2.7118156
6.093415770884244	6.7359676	2.5953743
6.1109673978931065	6.195485	2.489073
6.128519168402993	5.5731606	2.3607543
6.146071082829204	5.393559	2.3224037
6.163623141587075	5.295212	2.3011327
6.181175345091969	5.233809	2.287752
6.198727693759281	5.1898456	2.2781231
6.216280188004435	5.15009	2.269381
6.233832828242885	5.1624384	2.2721
6.251385614890126	5.1636653	2.2723699
6.268938548361669	5.174852	2.27483
6.286491629073067	5.0736127	2.252468
6.304044857439898	5.0038686	2.2369328
6.321598233877777	4.965965	2.2284446
6.339151758802344	5.0199327	2.2405207
6.356705432629277	5.1269474	2.2642763
6.37425925577428	5.1539845	2.2702389
6.391813228653095	5.0977917	2.257829
6.409367351681486	4.998298	2.2356875
6.426921625275259	4.966054	2.2284646
6.44447604985025	5.0031934	2.2367818
6.46203062582232	5.038157	2.2445838
6.47958535360737	5.0676064	2.2511344
6.497140233621328	5.1146984	2.26157
6.514695266280161	5.1434817	2.2679245
6.532250451999859	5.16979	2.2737172
6.549805791196454	5.1144547	2.261516
6.567361284286002	5.0359607	2.2440946
6.584916931684597	5.0098815	2.2382765
6.602472733808367	4.9834824	2.2323716
6.6200286910734665	5.016422	2.239737
6.637584803896092	5.0308733	2.242961
6.655141072692462	5.0245814	2.2415578
6.672697497878842	4.9802384	2.2316449
6.690254079871514	4.917267	2.2174911
6.707810819086808	4.93693	2.2219205
6.725367715941078	4.933569	2.221164
6.742924770850719	4.997237	2.23545
6.760481984232151	5.02508	2.2416692
6.778039356501836	5.0475454	2.2466743
6.795596888076266	4.9879446	2.2333708
6.813154579371963	4.9871387	2.2331903
6.830712430805492	5.0456123	2.246244
6.84827044279344	5.087427	2.2555325
6.865828615752445	5.109477	2.2604153
6.883386950099159	5.077943	2.2534292
6.900945446250287	5.0825167	2.2544436
6.918504104622553	5.0988035	2.258053
6.936062925632727	5.1027126	2.2589185
6.953621909697607	5.1216507	2.2631063
6.971181057234028	5.108016	2.260092
6.988740368658859	5.129438	2.2648263
7.006299844389007	5.174867	2.2748334
7.023859484841407	5.247002	2.2906337
7.041419290433036	5.3685594	2.3170152
7.058979261580902	5.462416	2.3371813
7.0765393987020495	5.7250466	2.3927069
7.094099702213559	6.100452	2.4699092
7.111660172532549	6.4075165	2.5313072
7.129220810076164	6.7416253	2.596464
7.146781615261595	7.185191	2.6805208
7.16434258850606	7.444278	2.7284205
7.181903730226821	7.8541765	2.8025303
7.1994650408411704	8.101165	2.8462546
7.217026520766437	8.209265	2.8651814
7.234588170419983	8.453226	2.9074433
7.252149990219215	8.396022	2.897589
7.269711980581568	8.316281	2.8837965
7.2872741419245175	8.16784	2.8579433
7.304836474665574	7.750603	2.7839906
7.322398979222286	7.4746485	2.7339804
7.339961656012233	7.257167	2.693913
7.357524505453039	6.9408436	2.6345482
7.375087527962357	6.609304	2.5708566
7.392650723957886	6.2898865	2.5079646
7.410214093857353	5.95661	2.4406168
7.427777638078528	5.6930795	2.3860176
7.445341357039213	5.5229826	2.3501027
7.4629052511572525	5.403257	2.3244908
7.480469320850524	5.3644557	2.3161294
7.498033566536948	5.3476033	2.3124886
7.5155979886344735	5.2546706	2.292307
7.5331625875610975	5.2476835	2.2907822
7.550727363734844	5.239268	2.2889447
7.568292317573788	5.2506623	2.2914324
7.585857449496025	5.20518	2.2814865
7.603422759919705	5.221498	2.2850597
7.620988249263007	5.204755	2.2813933
7.638553917944147	5.2521863	2.291765
7.656119766381391	5.2663884	2.2948613
7.673685794993023	5.278179	2.2974288
7.691252004197388	5.2905993	2.3001304
7.70881839441285	5.3114753	2.304664
7.726384966057826	5.2589035	2.2932298
7.743951719550762	5.236924	2.2884326
7.761518655310149	5.2235274	2.2855039
7.779085773754511	5.2220583	2.2851822
7.796653075302419	5.2642107	2.2943869
7.814220560372475	5.318389	2.3061633
7.831788229383323	5.357676	2.3146653
7.8493560827536495	5.4181128	2.327684
7.866924120902174	5.3873487	2.3210664
7.884492344247663	5.3997245	2.3237307
7.9020607532089135	5.405981	2.3250766
7.919629348204771	5.3936577	2.322425
7.937198129654115	5.3631186	2.3158407
7.954767097975865	5.365971	2.3164566
7.972336253588986	5.3845534	2.3204641
7.989905596912472	5.4198565	2.3280585
8.007475128365371	5.459656	2.3365905
8.025044848366756	5.5374126	2.3531709
8.042614757335754	5.605167	2.3675234
8.060184855691523	5.6773973	2.382729
8.07775514385327	5.8069806	2.4097679
8.095325622240228	5.915079	2.4320936
8.112896291271687	5.9610567	2.4415276
8.130467151366968	5.960355	2.4413838
8.148038202945436	5.93521	2.4362288
8.165609446426497	5.9178047	2.432654
8.183180882229594	5.948788	2.4390137
8.200752510774217	5.9862757	2.4466867
8.218324332479893	5.9760065	2.4445872
8.235896347766193	5.993894	2.4482431
8.253468557052724	5.983137	2.4460452
8.27104096075914	5.983731	2.4461665
8.288613559305137	6.0437117	2.4583962
8.306186353110448	6.110428	2.471928
8.32375934259485	6.169976	2.4839437
8.341332528178162	6.153174	2.480559
8.358905910280246	6.1000957	2.4698372
8.376479489321003	6.144956	2.478902
8.394053265720377	6.282208	2.5064332
8.411627239898356	6.3276186	2.5154757
8.42920141227497	6.287349	2.5074587
8.44677578327029	6.2463355	2.499267
8.464350353304427	6.199152	2.4898095
8.48192512279754	6.2249637	2.4949877
8.499500092169827	6.1726108	2.484474
8.51707526184153	6.1844544	2.4868562
8.534650632232934	6.237224	2.4974434
8.552226203764365	6.235063	2.497011
8.569801976856192	6.2440443	2.4988086
8.587377951928834	6.207658	2.491517
8.60495412940274	6.2164416	2.4932792
8.622530509698416	6.297458	2.5094738
8.6401070932364	6.46245	2.542135
8.657683880437283	6.548396	2.5589833
8.675260871721695	6.647949	2.5783617
8.692838067510303	6.696115	2.5876853
8.710415468223834	6.8301697	2.6134593
8.727993074283043	6.985163	2.642946
8.745570886108737	7.020578	2.6496372
8.763148904121765	7.1489434	2.6737509
8.78072712874302	7.2214727	2.6872797
8.798305560393441	7.4910636	2.7369807
8.815884199494006	7.6486354	2.7656167
8.833463046465745	7.746105	2.7831826
8.851042101729728	7.9039927	2.811404
8.86862136570707	8.14749	2.8543808
8.886200838818924	8.302141	2.8813436
8.903780521486505	8.249899	2.8722637
8.921360414131055	8.319211	2.8843043
8.938940517173874	8.461664	2.908894
8.956520831036297	8.719384	2.9528604
8.97410135613971	8.9922	2.9986997
8.99168209290554	9.111405	3.0185103
9.009263041755265	9.333562	3.0550878
9.026844203110405	9.570639	3.0936449
9.044425577392525	9.862796	3.140509
9.062007165023239	10.010779	3.1639817
9.079588966424197	10.305677	3.2102456
9.097170982017108	10.362183	3.2190344
9.11475321222372	11.450019	3.3837876
9.132335657465825	12.472362	3.5316231
9.149918318165264	12.542678	3.5415642
9.167501194743924	13.03314	3.6101441
9.18508428762374	12.665395	3.5588474
9.202667597226693	12.729275	3.567811
9.220251123974803	12.432233	3.525937
9.237834868290143	12.039842	3.4698474
9.255418830594836	11.8170805	3.437598
9.273003011311046	11.365502	3.3712761
9.290587410860985	11.179808	3.343622
9.308172029666911	10.387257	3.2229266
9.32575686815113	10.06342	3.1722894
9.343341926735997	8.809822	2.9681344
9.360927205843916	8.629965	2.9376802
9.378512705897327	8.427695	2.9030492
9.396098427318728	8.166836	2.8577676
9.413684370530664	8.121462	2.8498178
9.431270535955722	7.9958205	2.8276882
9.448856924016539	7.89187	2.8092473
9.466443535135806	7.735061	2.7811978
9.484030369736251	7.745365	2.7830496
9.501617428240658	7.828578	2.7979596
9.519204711071852	7.8947644	2.8097622
9.536792218652714	7.8953424	2.8098652
9.55437995140617	7.94113	2.818001
9.571967909755191	7.966731	2.8225398
9.589556094122802	7.9797034	2.824837
9.60714450493207	7.9965196	2.8278117
9.624733142606116	8.034407	2.834503
9.642322007568108	8.0793295	2.842416
9.659911100241267	8.1084	2.8475254
9.677500421048851	8.106131	2.8471267
9.695089970414175	8.122519	2.8500032
9.712679748760609	8.06868	2.840542
9.730269756511557	8.15564	2.855808
9.747859994090492	8.102381	2.8464682
9.765450461920915	8.153246	2.8553889
9.78304116042639	8.142972	2.8535893
9.800632090030527	8.178212	2.8597574
9.81822325115699	8.307827	2.8823302
9.835814644229481	8.37459	2.8938885
9.853406269671762	8.392326	2.8969512
9.870998127907646	8.352647	2.8900945
9.888590219360985	8.254096	2.8729942
9.906182544455698	8.2526455	2.8727417
9.923775103615734	8.265263	2.874937
9.941367897265108	8.306353	2.8820744
9.958960925827878	8.39166	2.896836
9.97655418972816	8.380626	2.894931
9.994147689390106	8.3160305	2.8837528
10.011741425237934	8.301174	2.8811758
10.029335397695904	8.323906	2.885118
10.04692960718833	8.310804	2.8828466
10.06452405413958	8.296113	2.8802974
10.082118738974064	8.280676	2.8776164
10.099713662116246	8.349469	2.8895447
10.117308823990651	8.350553	2.8897324
10.134904225021844	8.4186535	2.9014916
10.152499865634445	8.353018	2.890159
10.170095746253125	8.2756815	2.8767483
10.18769186730261	8.198391	2.8632832
10.205288229207675	8.143972	2.8537645
10.222884832393145	8.132747	2.851797
10.2404816772839	8.047214	2.836761
10.258078764304868	7.9893684	2.8265471
10.275676093881035	7.8932343	2.80949
10.293273666437438	7.95333	2.820165
10.310871482399158	8.0858555	2.8435638
10.32846954219134	8.189291	2.8616936
10.346067846239173	8.157745	2.8561766
10.363666394967908	8.189764	2.8617764
10.38126518880283	8.182851	2.8605683
10.398864228169298	8.248531	2.8720257
10.416463513492713	8.273117	2.8763027
10.434063045198531	8.275214	2.8766673
10.451662823712262	8.227181	2.8683064
10.469262849459467	8.200161	2.8635924
10.486863122865758	8.088487	2.8440266
10.504463644356806	8.060704	2.839138
10.522064414358338	8.006917	2.8296497
10.539665433296118	7.9691668	2.8229713
10.557266701595987	7.9648967	2.8222148
10.574868219683818	7.834665	2.7990472
10.592469987985552	7.7051616	2.7758174
10.610072006927185	7.5921955	2.755394
10.627674276934751	7.5150204	2.7413538
10.64527679843435	7.415057	2.7230604
10.662879571852143	7.3413568	2.7094939
10.680482597614331	7.2905793	2.7001073
10.698085876147173	7.2115717	2.685437
10.715689407876988	7.066656	2.6583183
10.733293193230146	6.9012885	2.6270304
10.750897232633072	6.7494936	2.5979788
10.76850152651225	6.7299585	2.5942163
10.786106075294207	6.6725526	2.5831285
10.803710879405534	6.6106586	2.57112
10.821315939272877	6.5259566	2.5545952
10.83892125532294	6.4045124	2.5307138
10.856526827982472	6.3414674	2.518227
10.874132657678285	6.368101	2.5235097
10.891738744837243	6.3291125	2.5157728
10.909345089886271	6.244579	2.4989154
10.926951693252343	6.073488	2.4644449
10.944558555362494	6.011601	2.4518566
10.96216567664381	5.9564962	2.4405935
10.979773057523436	5.987548	2.4469466
10.997380698428573	5.9685907	2.44307
11.014988599786477	5.917071	2.432503
11.032596762024461	5.795705	2.407427
11.050205185569892	5.6826134	2.3838232
11.067813870850198	5.6370263	2.3742423
11.085422818292859	5.595924	2.3655705
11.10303202832541	5.532495	2.3521256
11.120641501375454	5.396402	2.3230157
11.138251237870636	5.3016453	2.3025303
11.155861238238671	5.225662	2.2859707
11.173471502907317	5.194695	2.2791874
11.191082032304402	5.1645966	2.272575
11.208692826857805	5.12271	2.2633405
11.226303886995465	5.032475	2.2433178
11.243915213145371	5.0091143	2.238105
11.261526805735578	4.929136	2.2201657
11.279138665194196	4.8925595	2.211913
11.296750791949393	4.82495	2.1965768
11.314363186429393	4.823205	2.1961796
11.331975849062479	4.785639	2.1876104
11.34958878027699	4.745531	2.178424
11.36720198050133	4.6552	2.1575913
11.384815450163948	4.5760474	2.1391697
11.402429189693366	4.4824505	2.1171799
11.420043199518153	4.4672213	2.1135802
11.437657480066942	63.403084	7.9626055
11.455272031768422	85.13638	9.226938
11.472886855051353	107.5275	10.369547
11.490501950344528	99.135284	9.956671
11.508117318076819	84.517136	9.19332
11.52573295867715	45.880592	6.7735214
11.543348872574514	4.2089224	2.051566
11.560965060197946	4.168974	2.0418065
11.57858152197655	4.160735	2.039788
11.59619825833949	4.1073666	2.026664
11.613815269715985	4.072726	2.0180995
11.631432556535323	38.552	6.2090254
11.649050119226837	83.04742	9.113035
11.666667958219929	93.44286	9.666585
11.68428607394406	107.737305	10.379658
11.701904466828756	82.57652	9.087163
11.719523137303586	65.388824	8.086336
11.737142085798196	4.560089	2.1354365
11.754761312742286	3.6691442	1.915501
11.772380818565619	3.6447852	1.909132
11.790000603698015	3.657373	1.9124259
11.80762066856935	3.612084	1.9005483
11.825241013609572	3.5704646	1.8895673
11.842861639248683	3.5765111	1.8911666
11.860482545916748	3.591688	1.8951749
11.878103734043883	3.594953	1.8960361
11.895725204060282	3.5744236	1.8906146
11.91334695639619	3.4925768	1.8688437
11.930968991481919	3.3753822	1.8372213
11.948591309747824	3.3331082	1.8256803
11.966213911624347	3.3355823	1.8263576
11.98383679754198	3.3607025	1.8332219
12.001459967931268	3.3547046	1.8315853
12.019083423222835	3.2986124	1.8162082
12.036707163847352	3.2306113	1.7973901
12.05433119023556	3.1582382	1.7771432
12.071955502818259	3.16457	1.7789239
12.089580102026313	3.1571913	1.7768487
12.107204988290643	3.1398852	1.7719721
12.12483016204224	3.1568153	1.7767429
12.142455623712152	3.1358669	1.7708379
12.16008137373149	3.1148944	1.7649063
12.177707412531431	3.1225755	1.767081
12.19533374054321	3.1170375	1.7655134
12.212960358198126	3.0987287	1.7603207
12.230587265927545	3.105924	1.7623632
12.248214464162889	3.1286592	1.7688017
12.265841953335649	3.0909314	1.7581044
12.283469733877375	3.0431638	1.7444667
12.301097806219685	3.0204098	1.7379327
12.31872617079425	3.002001	1.7326283
12.336354828032825	2.9857814	1.7279414
12.353983778367205	2.9645312	1.7217814
12.371613022229262	2.956211	1.7193636
12.389242560050928	2.9625962	1.7212194
12.406872392264201	2.9581637	1.7199314
12.424502519301143	2.940783	1.7148712
12.442132941593874	2.9078	1.7052273
12.459763659574586	2.8509102	1.6884638
12.477394673675532	2.8472383	1.6873761
12.49502598432903	2.8619733	1.6917368
12.51265759196746	2.8993979	1.7027619
12.530289497023267	2.859255	1.6909332
12.547921699928967	2.7863708	1.6692426
12.565554201117134	2.7554216	1.6599463
12.583187001020404	2.7540262	1.6595259
12.600820100071486	2.776984	1.6664286
12.618453498703152	2.7604325	1.6614549
12.636087197348235	2.7724726	1.6650743
12.65372119643964	2.7711031	1.6646631
12.671355496410326	2.7961223	1.672161
12.68899009769333	2.8242407	1.6805477
12.706625000721749	2.8929129	1.7008566
12.724260205928752	2.9662569	1.7222824
12.741895713747551	2.9721408	1.7239898
12.759531524611454	2.9806402	1.7264531
12.777167638953818	2.9590423	1.7201867
12.794804057208072	2.9971645	1.731232
12.812440779807702	3.0388691	1.7432352
12.830077807186271	3.1704593	1.7805784
12.847715139777405	3.190673	1.7862456
12.865352778014795	3.4192197	1.8491132
12.882990722332197	3.5685291	1.8890551
12.90062897316344	3.647953	1.9099616
12.918267530942412	3.7397017	1.9338309
12.935906396103071	3.6630995	1.9139225
12.953545569079449	3.8392613	1.9594033
12.971185050305628	3.6386087	1.9075137
12.988824840215775	3.5852518	1.8934761
13.006464939244115	3.5994356	1.8972179
13.024105347824943	3.4628255	1.8608669
13.041746066392617	3.619123	1.9023993
13.05938709538157	3.3897395	1.8411245
13.077028435226296	3.4186358	1.8489554
13.094670086361363	3.2876072	1.813176
13.112312049221401	3.229895	1.7971909
13.129954324241112	3.1199856	1.7663481
13.147596911855258	2.9100785	1.7058952
13.165239812498685	2.883221	1.698005
13.182883026606293	2.8186646	1.6788878
13.200526554613058	2.7688715	1.6639926
13.218170396954017	2.7182937	1.6487249
13.235814554064284	2.7165017	1.6481813
13.253459026379034	2.7230015	1.650152
13.271103814333523	2.6908681	1.6403866
13.288748918363058	2.7196238	1.6491282
13.306394338903031	2.7164795	1.6481746
13.32404007638889	2.6936092	1.6412219
13.341686131256164	2.6851258	1.6386354
13.359332503940449	2.6313715	1.6221503
13.376979194877402	2.6209743	1.6189424
13.394626204502751	2.6424675	1.6255668
13.412273533252307	2.722121	1.6498852
13.429921181561937	2.77239	1.6650496
13.447569149867581	2.747406	1.6575301
13.465217438605247	2.7176886	1.6485413
13.482866048211022	2.673493	1.6350819
13.500514979121052	2.7040246	1.6443919
13.518164231771568	2.7057717	1.644923
13.535813806598844	2.688571	1.6396862
13.553463704039254	2.6516764	1.6283969
13.571113924529229	2.6404805	1.6249555
13.588764468505275	2.6305044	1.6218829
13.606415336403956	2.694488	1.6414896
13.624066528661917	2.719784	1.6491767
13.641718045715882	2.8334773	1.6832936
13.659369888002635	2.898975	1.7026377
13.67702205595903	2.959062	1.7201924
13.694674550021993	2.9974978	1.7313284
13.712327370628532	3.0091002	1.7346758
13.729980518215713	3.0351164	1.7421585
13.747633993220681	3.1179738	1.7657785
13.765287796080647	3.1709166	1.7807068
13.7829419272329	3.2412672	1.800352
13.800596387114801	3.3302317	1.8248923
13.818251176163775	3.3910894	1.8414911
13.835906294817324	3.455568	1.8589158
13.853561743513023	3.4794192	1.8653201
13.871217522688525	3.5265794	1.8779188
13.888873632781538	3.5475857	1.8835036
13.906530074229858	3.5693014	1.8892595
13.92418684747135	3.5210464	1.8764452
13.941843952943948	3.5294676	1.8786877
13.959501391085665	3.468402	1.8623646
13.977159162334578	3.4331467	1.8528752
13.994817267128846	3.332763	1.8255856
14.012475705906693	3.214521	1.7929085
14.030134479106424	3.172027	1.7810186
14.047793587166414	3.1803098	1.7833424
14.065453030525108	3.1939836	1.787172
14.083112809621026	3.1355884	1.7707592
14.100772924892766	3.0555198	1.7480046
14.118433376778997	2.950685	1.7177558
14.136094165718458	2.8954477	1.7016015
14.153755292149969	2.813618	1.6773843
14.171416756512416	2.7746048	1.6657145
14.189078559244768	2.706178	1.6450465
14.20674070078606	2.6597424	1.6308717
14.224403181575408	2.5895607	1.6092112
14.242066002051999	2.5432267	1.5947497
14.259729162655093	2.4827814	1.5756844
14.277392663824022	2.4254687	1.5573916
14.295056505998208	2.400482	1.5493488
14.312720689617128	2.4014657	1.5496663
14.330385215120348	2.416726	1.5545822
14.348050082947497	2.4215927	1.5561467
14.3657152935383	2.387588	1.5451822
14.383380847332528	2.37094	1.5397857
14.401046744770051	2.3914366	1.546427
14.418712986290798	2.3757799	1.5413564
14.436379572334793	2.400231	1.5492679
14.454046503342123	2.4146502	1.5539144
14.471713779752946	2.415823	1.5542918
14.489381402007504	2.3743312	1.5408865
14.507049370546113	2.3445337	1.531187
14.524717685809168	2.3630838	1.5372325
14.542386348237134	2.3896286	1.5458424
14.560055358270553	2.3914893	1.546444
14.577724716350051	2.389006	1.545641
14.595394422916325	2.3579483	1.5355612
14.61306447841015	2.4007814	1.5494455
14.63073488327237	2.4140425	1.5537189
14.648405637943917	2.4762123	1.5735985
14.6660767428658	2.4702275	1.5716957
14.683748198479094	2.535136	1.592211
14.701420005224954	2.6078959	1.6148981
14.719092163544628	2.691355	1.640535
14.73676467387942	2.7183914	1.6487545
14.754437536670727	2.6718228	1.6345711
14.772110752360014	2.6357338	1.6234944
14.78978432138882	2.6081483	1.6149763
14.807458244198777	2.643042	1.6257435
14.82513252123159	2.6255646	1.6203594
14.842807152929028	2.6769407	1.6361359
14.860482139732962	2.6697948	1.6339507
14.87815748208531	2.6889281	1.6397952
14.8958331804281	2.668307	1.6334953
14.91350923520342	2.676518	1.6360067
14.931185646853438	2.7167957	1.6482705
14.948862415820408	2.714864	1.6476845
14.966539542546656	2.7046027	1.6445676
14.98421702747459	2.6423588	1.6255333
15.001894871046696	2.6544518	1.6292489
15.019573073705542	2.6748133	1.6354856
15.037251635893766	2.6994324	1.6429949
15.054930558054092	2.7250676	1.6507779
15.072609840629323	2.7661648	1.6631792
15.090289484062351	2.8689573	1.6937996
15.107969488796124	3.1174846	1.76564
15.125649855273691	3.5421846	1.8820692
15.14333058393817	4.034295	2.0085554
15.161011675232768	4.962106	2.2275786
15.17869312960076	6.2521267	2.5004253
15.196374947485506	8.169004	2.8581471
15.214057129330447	11.187035	3.3447025
15.231739675579114	16.09714	4.012124
15.249422586675102	21.410255	4.627122
15.267105863062092	24.880903	4.988076
15.284789505183847	25.257238	5.025658
15.302473513484218	23.081747	4.8043466
15.320157888407127	19.448566	4.410053
15.337842630396578	15.171256	3.8950295
15.355527739896656	11.801695	3.4353595
15.37321321735153	9.135731	3.0225372
15.39089906320545	6.6205006	2.5730333
15.408585277902748	4.924263	2.219068
15.42627186188783	3.7716901	1.942084
15.443958815605198	3.2213182	1.7948031
15.461646139499424	2.9560332	1.7193118
15.479333834015168	2.815934	1.6780745
15.497021899597165	2.7324684	1.653018
15.514710336690234	2.6604676	1.631094
15.53239914573928	2.58058	1.6064184
15.550088327189297	2.5194137	1.5872661
15.567777881485336	2.487068	1.577044
15.58546780907256	2.4931781	1.5789801
15.6031581103962	2.4937253	1.5791533
15.620848785901568	2.4916916	1.5785093
15.638539836034063	2.4908922	1.578256
15.656231261239173	2.4807599	1.5750428
15.673923061962451	2.4364285	1.5609063
15.691615238649552	2.4252508	1.5573217
15.709307791746202	2.38826	1.5453995
15.727000721698221	2.4171593	1.5547216
15.744694028951498	2.421049	1.5559721
15.76238771395202	2.4171102	1.5547059
15.780081777145844	2.422627	1.556479
15.797776218979125	2.4107864	1.5526707
15.815471039898094	2.451173	1.5656222
15.833166240349064	2.431732	1.5594012
15.850861820778437	2.4313583	1.5592813
15.868557781632699	2.3874388	1.545134
15.886254123358412	2.3959603	1.547889
15.903950846402232	2.4056287	1.5510089
15.921647951210897	2.3852572	1.5444278
15.939345438231225	2.3892326	1.5457143
15.957043307910133	2.3898432	1.5459118
15.974741560694602	2.414241	1.5537828
15.992440197031714	2.4120817	1.5530878
16.01013921736862	2.4173837	1.5547937
16.02783862215259	2.4059138	1.5511009
16.045538411830933	2.436311	1.5608686
16.06323858685107	2.4159193	1.5543228
16.080939147660512	2.4260945	1.5575925
16.09864009470684	2.3924088	1.5467414
16.11634142843774	2.4201186	1.555673
16.134043149300954	2.4419272	1.5626667
16.15174525774433	2.3959398	1.5478823
16.169447754215817	2.3771675	1.5418066
16.18715063916342	2.4139357	1.5536846
16.204853913035244	2.4446642	1.5635422
16.222557576279478	2.4577165	1.5677106
16.240261629344403	22.436413	4.736709
16.257966072678386	42.977	6.5556846
16.275670906729868	38.112118	6.1735015
16.293376131947387	2.5386465	1.5933131
16.31108174877957	2.5278387	1.5899178
16.328787757675133	2.5079403	1.5836477
16.34649415908287	2.519254	1.5872158
16.364200953451657	2.5821378	1.6069032
16.38190814123048	2.6672847	1.6331824
16.39961572286839	2.7135391	1.6472824
16.41732369881455	2.718918	1.6489142
16.43503206951817	2.6992965	1.6429536
16.45274083542859	2.7298572	1.652228
16.47044999699522	2.7792876	1.6671195
16.488159554667558	2.8347254	1.6836643
16.505869508895184	2.8879497	1.6993968
16.523579860127786	2.945245	1.7161716
16.541290608815117	3.020157	1.73786
16.559001755407035	3.0711417	1.7524673
16.57671330035348	3.1013365	1.7610612
16.59442524410448	3.11608	1.7652422
16.61213758711015	3.1930451	1.7869093
16.629850329820705	3.2921515	1.8144287
16.647563472686436	3.4196126	1.8492194
16.665277016157724	3.4332938	1.8529149
16.682990960685053	3.461482	1.8605058
16.70070530671898	3.484918	1.8667935
16.718420054710155	3.549753	1.8840789
16.736135205109335	3.5430434	1.8822974
16.753850758367335	3.5694814	1.8893071
16.771566714935087	3.6303499	1.9053477
16.789283075263597	3.752681	1.9371837
16.80699983980398	3.853839	1.9631197
16.82471700900741	3.9246244	1.9810665
16.84243458332518	3.958204	1.9895235
16.860152563208665	3.9714983	1.9928619
16.87787094910932	4.0104284	2.0026054
16.89558974147871	4.07282	2.018123
16.913308940768466	4.149277	2.0369775
16.931028547430333	4.2410393	2.0593784
16.94874856191613	4.328672	2.0805461
16.966468984677785	4.383615	2.0937085
16.98418981616729	4.404299	2.098642
17.00191105683676	4.4501624	2.1095407
17.019632707138374	4.469333	2.1140797
17.03735476752442	4.4900365	2.1189706
17.05507723844728	4.504168	2.1223025
17.072800120359403	4.516441	2.125192
17.090523413713353	4.5398874	2.130701
17.108247118961785	4.5624866	2.1359978
17.125971236557437	4.625354	2.1506636
17.143695766953133	4.6784315	2.1629682
17.161420710601806	4.6779943	2.162867
17.179146067956477	4.68278	2.163973
17.19687183947025	4.665321	2.1599355
17.21459802559634	4.6692934	2.1608548
17.232324626788028	4.680623	2.1634748
17.25005164349871	4.7205276	2.1726775
17.267779076181863	4.718481	2.1722064
17.285506925291074	4.6838374	2.1642175
17.30323519127999	4.646673	2.1556144
17.320963874602384	4.6083417	2.146705
17.33869297571211	4.5967207	2.1439965
17.356422495063114	4.5936117	2.1432712
17.37415243310944	4.5885444	2.142089
17.391882790305218	4.5252614	2.1272662
17.40961356710468	4.4646254	2.112966
17.42734476396215	4.4598694	2.1118402
17.445076381332044	4.4886875	2.1186523
17.462808419668868	4.588802	2.142149
17.48054087942723	4.7057624	2.169277
17.498273761061835	4.9700465	2.22936
17.51600706502747	5.423365	2.328812
17.533740791779024	6.1821012	2.4863832
17.551474941771485	7.6667585	2.768891
17.56920951545993	8.751988	2.958376
17.586944513299528	10.9444895	3.3082457
17.60467993574556	12.660864	3.5582108
17.622415783253373	14.599189	3.8208885
17.64015205627843	16.271923	4.0338473
17.657888755276293	17.500387	4.1833463
17.675625880702604	18.046566	4.248125
17.69336343301311	17.85416	4.2254186
17.71110141266366	16.927872	4.1143494
17.728839820110178	15.889267	3.9861343
17.746578655808705	14.862005	3.855127
17.764317920215372	13.289688	3.6455026
17.7820576137864	11.63376	3.4108298
17.79979773697811	9.482812	3.0794175
17.81753829024692	7.482162	2.7353542
17.835279274049356	5.7805643	2.4042804
17.85302068884201	4.81909	2.1952426
17.870762535081607	4.2351594	2.0579503
17.888504813224934	3.9141262	1.978415
17.90624752372891	3.722696	1.9294289
17.923990667050536	3.5987437	1.8970355
17.941734243646895	3.5266497	1.8779377
17.959478253975185	3.4947472	1.8694243
17.9772226984927	3.4696822	1.8627083
17.994967577656833	3.4197948	1.8492687
18.01271289192506	3.3839962	1.8395642
18.030458641754965	3.3535235	1.8312628
18.04820482760425	3.3646603	1.834301
18.06595144993067	3.3782325	1.8379968
18.083698509192125	3.3650603	1.8344101
18.101446005846576	3.3031042	1.8174444
18.119193940352105	3.2585578	1.8051475
18.136942313166887	3.265108	1.806961
18.1546911247492	3.2701256	1.8083489
18.1724403755574	3.2177289	1.7938029
18.19019006604997	3.195127	1.7874918
18.207940196685467	3.1492753	1.7746198
18.225690767922575	3.1418164	1.772517
18.243441780220046	3.1044884	1.7619559
18.261193234036764	3.078511	1.7545686
18.278945129831676	3.0679054	1.7515438
18.29669746806386	3.0526414	1.7471809
18.314450249192483	3.0686343	1.7517518
18.3322034736768	3.053304	1.7473706
18.349957141976184	3.0619686	1.7498481
18.3677112545501	3.1218996	1.7668898
18.385465811858108	3.1477346	1.7741857
18.403220814359884	3.1219485	1.7669036
18.420976262515172	3.0935252	1.758842
18.43873215678387	3.105458	1.762231
18.456488497625923	3.1833296	1.7841887
18.474245285501407	3.272458	1.8089937
18.492002520870486	3.3170147	1.8212674
18.50976020419343	3.360805	1.8332498
18.527518335930615	3.6777391	1.9177432
18.545276916542516	4.24483	2.0602984
18.563035946489688	4.383304	2.0936341
18.580795426232832	4.8497753	2.2022204
18.598555356232698	4.7681737	2.1836147
18.616315736950185	5.073582	2.2524614
18.63407656884626	4.69744	2.167358
18.65183785238201	4.8783336	2.208695
18.669599588018617	4.693245	2.16639
18.68736177621737	4.747042	2.1787708
18.705124417439652	4.727978	2.1743915
18.72288751214696	4.5170918	2.125345
18.740651060800886	4.5944214	2.14346
18.758415063863115	4.3226275	2.079093
18.77617952179546	4.4750695	2.115436
18.793944435059814	4.2168326	2.0534928
18.811709804118184	4.194758	2.0481107
18.829475629432675	4.1773663	2.0438607
18.8472419114655	3.999029	1.9997572
18.86500865067897	4.0725803	2.0180635
18.88277584753551	3.7423778	1.9345226
18.90054350249763	3.749554	1.9363765
18.918311616027957	3.4357405	1.8535751
18.936080188589226	3.314358	1.8205378
18.953849220644265	3.0525808	1.7471637
18.971618712656007	2.9018977	1.7034957
18.9893886650875	2.8347235	1.6836637
19.007159078401887	8.005004	2.8293116
19.024929953062408	32.876488	5.7338023
19.042701289532435	32.850353	5.7315226
19.060473088275405	25.399284	5.03977
19.07824534975489	2.6949897	1.6416423
19.096018074434568	2.6986902	1.6427691
19.113791262778197	2.6412728	1.6251993
19.13156491524966	2.6334147	1.62278
19.149339032312945	2.6121128	1.6162032
19.167113614432136	2.5881531	1.6087738
19.184888662071433	2.5544248	1.5982568
19.202664175695123	2.5119739	1.5849208
19.220440155767623	2.5133066	1.5853412
19.238216602753447	2.5495405	1.5967281
19.2559935171172	2.5528042	1.5977497
19.27377089932361	2.5695672	1.6029869
19.291548749837514	2.514483	1.5857122
19.309327069123835	2.553561	1.5979866
19.32710585764763	2.523902	1.5886793
19.344885115874032	2.5223236	1.5881824
19.362664844268313	2.494914	1.5795296
19.380445043295822	2.4814796	1.5752712
19.39822571342203	2.4980085	1.580509
19.41600685511252	2.504295	1.5824965
19.43378846883297	2.5452712	1.5953906
19.451570555049173	2.5320148	1.5912306
19.469353114227037	2.509939	1.5842787
19.48713614683254	2.4850795	1.5764135
19.50491965333182	2.541672	1.5942622
19.52270363419109	2.5136418	1.5854468
19.540488089876686	2.4984167	1.580638
19.55827302085503	2.4761431	1.5735766
19.576058427592674	2.504966	1.5827085
19.593844310556282	2.5118005	1.584866
19.611630670212598	2.5201993	1.5875136
19.629417507028506	2.4657679	1.5702764
19.64720482147098	2.4624803	1.5692292
19.6649926140071	2.4609802	1.5687511
19.682780885104084	2.474516	1.5730594
19.70056963522921	2.4946027	1.5794312
19.718358864849908	2.5102973	1.5843918
19.7361485744337	2.5218945	1.5880474
19.753938764448215	2.5114536	1.5847566
19.771729435361202	2.5207653	1.5876918
19.789520587640506	2.5237837	1.5886421
19.807312221754092	2.5555267	1.5986015
19.825104338170043	2.534809	1.5921084
19.842896937356517	2.5223627	1.5881948
19.860690019781824	2.5376976	1.5930152
19.87848358591436	2.5482395	1.5963206
19.896277636222635	2.546925	1.5959089
19.914072171175278	2.5325024	1.5913838
19.931867191241015	2.4947674	1.5794833
19.94966269688869	2.5088134	1.5839235
19.967458688587264	2.5317326	1.5911419
19.985255166805807	2.5428386	1.5946281
20.00305213201348	2.5185869	1.5870056
20.020849584679578	2.4797523	1.5747229
20.038647525273507	2.5067928	1.5832855
20.05644595426477	2.4951866	1.579616
20.07424487212299	2.4939668	1.5792298
20.092044279317903	2.4830534	1.5757707
20.109844176319353	2.5122628	1.585012
20.127644563597304	2.4919727	1.5785984
20.145445441621817	2.443051	1.5630263
20.16324681086307	2.411628	1.5529417
20.181048671791373	2.401468	1.5496671
20.198851024877122	2.3687038	1.5390594
20.216653870590836	2.3379614	1.5290394
20.234457209403146	2.3262372	1.5252007
20.252261041784802	2.3285198	1.5259489
20.270065368206662	2.3451898	1.5314013
20.287870189139685	2.3980663	1.5485691
20.305675505054968	2.4337583	1.5600507
20.323481316423702	2.424756	1.5571628
20.341287623717207	2.3925893	1.5467997
20.359094427406884	2.3485532	1.532499
20.376901727964288	2.3444338	1.5311544
20.39470952586107	2.3595355	1.536078
20.41251782156899	2.3617318	1.5367926
20.430326615559935	2.3427877	1.5306168
20.448135908305886	2.329779	1.5263613
20.465945700278965	2.3547997	1.5345356
20.483755991951384	2.335354	1.5281866
20.50156678379548	2.3407552	1.5299526
20.519378076283708	2.2987118	1.5161504
20.537189869888635	2.3176067	1.5223688
20.55500216508294	2.338267	1.5291393
20.572814962339415	2.3194337	1.5229686
20.59062826213098	2.2971034	1.5156198
20.60844206493066	2.301579	1.5170956
20.626256371211593	2.3396428	1.529589
20.644071181447032	2.3412077	1.5301006
20.66188649611036	2.3793995	1.5425303
20.67970231567506	2.3821962	1.5434365
20.697518640614742	2.3593125	1.5360054
20.715335471403122	2.3026922	1.5174624
20.73315280851404	2.2277756	1.4925735
20.750970652421447	2.2079155	1.4859056
20.768789003599412	2.233399	1.494456
20.786607862522136	2.2961068	1.515291
20.8044272296639	2.3211067	1.5235178
20.82224710549913	2.2991529	1.5162958
20.84006749050237	2.2670386	1.5056688
20.857888385148268	3.8294587	1.9569002
20.8757097899116	45.936867	6.777674
20.893531705267254	64.82883	8.051635
20.911354131690224	83.84445	9.156662
20.92917706965566	69.092125	8.312167
20.94700051963877	50.13267	7.080443
20.96482448211493	29.37669	5.420027
20.982648957559622	4.1244783	2.0308812
21.00047394644843	2.2476375	1.4992123
21.01829944925707	2.2412226	1.4970714
21.036125466461375	2.271579	1.5071758
21.053951998537297	2.2475057	1.4991683
21.071779045960906	2.2506735	1.5002245
21.089606609208378	2.2511954	1.5003984
21.10743468875603	2.2781737	1.509362
21.12526328508028	2.2520752	1.5006915
21.143092398657675	2.2231536	1.4910244
21.16092202996488	2.203897	1.4845527
21.17875217947867	2.2233999	1.491107
21.19658284767596	2.2008796	1.4835361
21.21441403503377	2.18178	1.477085
21.232245742029225	2.17906	1.476164
21.2500779691396	2.2044792	1.4847488
21.26791071684227	2.2044628	1.4847434
21.28574398561475	2.1778083	1.47574
21.30357777593465	2.1260457	1.4580966
21.321412088279704	2.140574	1.46307
21.339246923127792	2.1509228	1.4666024
21.357082280956888	2.1323571	1.4602593
21.3749181622451	2.1149096	1.4542729
21.392754567470647	2.1593695	1.4694793
21.41059149711187	2.160858	1.4699857
21.42842895164726	2.1364202	1.4616499
21.446266931555378	2.0953693	1.4475391
21.464105437314945	2.1036177	1.4503853
21.481944469404798	2.12767	1.4586535
21.49978402830388	2.1140046	1.4539617
21.51762411449127	2.0923147	1.4464836
21.53546472844617	2.1014895	1.4496515
21.553305870647876	2.1047409	1.4507725
21.571147541575865	2.0631495	1.4363668
21.58898974170967	2.0432215	1.429413
21.60683247152899	2.0317137	1.4253819
21.62467573151363	2.0548751	1.4334836
21.642519522143523	2.0439885	1.4296813
21.660363843898722	2.0682538	1.4381424
21.6782086972594	2.0430377	1.4293487
21.696054082705864	2.0467093	1.4306325
21.713900000718535	2.0664003	1.437498
21.73174645177795	2.0925517	1.4465655
21.749593436364794	2.088039	1.4450048
21.767440954959845	2.0714097	1.4392393
21.785289008044032	2.0565083	1.4340531
21.803137596098388	2.0350962	1.4265679
21.820986719604086	2.0064728	1.4165002
21.838836379042412	2.0145328	1.4193424
21.85668657489478	2.0413404	1.4287548
21.87453730764273	2.029014	1.4244347
21.892388577767914	1.9901353	1.4107215
21.91024038575213	1.9556743	1.3984543
21.928092732077285	1.9703822	1.4037031
21.945945617225426	2.0044372	1.4157815
21.963799041678694	2.015235	1.4195898
21.981653005919398	31.345615	5.5987153
21.999507510429943	78.13761	8.839548
22.01736255569286	73.08075	8.548728
22.035218142190818	4.1515856	2.037544
22.05307427040661	1.9772091	1.4061327
22.07093094082315	1.9963431	1.4129201
22.088788153923474	2.0090954	1.4174256
22.106645910190746	1.9753839	1.4054835
22.12450421010827	1.9362203	1.3914813
22.142363054159464	1.918474	1.3850899
22.16022244282787	1.9048593	1.3801664
22.178082376597164	1.9098595	1.3819767
22.195942855951145	1.9517134	1.3970374
22.213803881373742	1.9922277	1.4114629
22.231665453349002	1.9958161	1.4127336
22.24952757236111	1.9953597	1.412572
22.26739023889438	1.9964308	1.4129511
22.28525345343323	1.9766914	1.4059485
22.30311721646225	1.9268032	1.3880934
22.320981528466113	1.9170896	1.38459
22.33884638992964	1.9567844	1.398851
22.356711801337788	1.9967242	1.413055
22.37457776317561	1.9921874	1.4114487
22.392444275928337	1.9798404	1.407068
22.410311340081282	1.9679898	1.4028506
22.428178956119904	1.9500326	1.3964356
22.446047124529805	1.9279245	1.3884972
22.46391584579669	1.9259143	1.3877732
22.481785120406414	1.9685835	1.4030622
22.49965494884496	1.9668528	1.4024453
22.51752533159841	1.9509192	1.3967531
22.53539626915302	1.8895749	1.374618
22.553267761995137	1.9189028	1.3852446
22.571139810611264	1.9317155	1.3898617
22.589012415488025	1.9649173	1.4017551
22.60688557711216	1.9468418	1.3952928
22.624759295970566	1.948034	1.3957199
22.642633572550263	1.9840356	1.408558
22.660508407338362	1.9990169	1.4138659
22.67838380082217	1.9460127	1.3949956
22.696259753489077	1.9393166	1.3925935
22.714136265826614	1.9237293	1.3869857
22.73201333832246	1.9401735	1.3929011
22.74989097146439	1.9350404	1.3910573
22.76776916574035	1.9177902	1.384843
22.785647921638393	1.9214383	1.3861595
22.803527239646712	1.9042425	1.3799429
22.82140712025363	1.910477	1.3822001
22.839287563947593	1.9085935	1.3815186
22.85716857121719	1.9406842	1.3930844
22.875050142551135	1.9510411	1.3967967
22.892932278438277	1.9165996	1.3844131
22.910814979367604	1.868353	1.3668771
22.928698245828222	1.8609139	1.3641531
22.946582078309387	1.8816077	1.3717171
22.96446647730047	1.894427	1.3763819
22.98235144329098	1.9209833	1.3859954
23.000236976770562	1.9288787	1.3888408
23.018123078229	1.9353806	1.3911796
23.03600974815619	1.909385	1.381805
23.053896987042194	1.9127115	1.3830081
23.071784795377173	1.9285196	1.3887115
23.08967317365145	1.9271843	1.3882307
23.10756212235546	1.9350467	1.3910595
23.125451641979787	1.9359266	1.3913758
23.143341733015134	1.940912	1.3931662
23.161232395952357	1.944109	1.3943131
23.179123631282426	1.9486402	1.3959371
23.197015439496468	1.9709829	1.403917
23.214907821085717	1.995342	1.4125657
23.23280077654157	1.9897827	1.4105966
23.250694306355538	1.9520732	1.3971661
23.268588411019277	1.9261079	1.3878429
23.28648309102458	1.946192	1.3950598
23.304378346863356	1.9537723	1.3977741
23.322274179027676	1.9448332	1.3945727
23.340170588009723	1.9578096	1.3992175
23.358067574301852	1.9684896	1.4030287
23.37596513839651	1.9713384	1.4040436
23.39386328078629	1.9874431	1.409767
23.411762001963947	1.9815729	1.4076835
23.429661302422353	1.9754109	1.4054931
23.4475611826545	1.9649003	1.401749
23.46546164315356	1.9394135	1.3926283
23.48336268441279	1.963583	1.4012791
23.501264306925638	1.9889411	1.4102982
23.51916651118564	1.979584	1.4069769
23.537069297686497	1.9732846	1.4047365
23.554972666922037	1.9724723	1.4044473
23.57287661938623	1.9549354	1.39819
23.59078115557318	1.9617871	1.4006381
23.608686275977128	1.9593432	1.3997654
23.62659198109246	1.9793223	1.406884
23.6444982714137	1.9671137	1.4025383
23.66240514743549	1.9569718	1.398918
23.68031260965263	1.9162087	1.3842719
23.698220658560068	1.8988584	1.3779907
23.716129294652845	1.9283855	1.3886632
23.7340385184262	1.9170175	1.384564
23.75194833037546	1.8968308	1.3772548
23.769858730996123	1.9014354	1.3789254
23.78776972078382	1.9313297	1.389723
23.80568130023431	1.9191045	1.3853174
23.823593469843495	1.9113648	1.3825212
23.841506230107424	1.9279015	1.3884889
23.859419581522275	1.919651	1.3855147
23.87733352458438	1.9071581	1.380999
23.89524805979019	1.9304385	1.3894023
23.913163187636318	1.9560244	1.3985795
23.931078908619508	1.9760033	1.4057038
23.948995223236633	1.9711692	1.4039834
23.966912131984735	1.9969813	1.4131459
23.98482963536096	2.0220091	1.4219737
24.002747733862616	1.9934019	1.4118788
24.020666427987155	2.0227287	1.4222267
24.038585718232156	2.0732124	1.4398654
24.056505605095353	2.054714	1.4334273
24.074426089074617	2.0777225	1.4414307
24.092347170667946	2.0731838	1.4398555
24.110268850373515	2.099277	1.4488882
24.128191128689586	2.069712	1.4386493
24.146114006114626	2.0494473	1.4315891
24.164037483147187	2.059601	1.4351311
24.181961560286005	2.0923102	1.4464821
24.199886238029926	2.084875	1.4439096
24.21781151687797	2.0871332	1.4446914
24.235737397329274	2.0611799	1.435681
24.253663879883135	2.0702577	1.438839
24.271590965038975	2.0841653	1.4436638
24.289518653296376	2.0811162	1.4426074
24.30744694515505	2.0550249	1.4335358
24.32537584111486	2.0234792	1.4224905
24.34330534167581	2.0418396	1.4289296
24.361235447338046	2.040859	1.4285864
24.379166158601876	2.0111196	1.4181395
24.39709747596772	2.0019774	1.4149125
24.41502939993615	1.9768735	1.4060134
24.432961931007917	1.978791	1.406695
24.450895069683856	1.9742674	1.4050863
24.468828816465	1.9910958	1.4110619
24.4867631718525	2.001246	1.414654
24.504698136347656	1.9592615	1.3997363
24.52263371045192	1.9882617	1.4100573
24.540569894666874	1.9730986	1.4046702
24.558506689494266	2.0055616	1.4161785
24.57644409543597	2.0054357	1.4161341
24.594382112994012	1.9902663	1.410768
24.61232074267057	2.0102377	1.4178286
24.630259984967953	2.0244813	1.4228427
24.64819984038863	1.9838338	1.4084864
24.66614030943522	1.9701902	1.4036347
24.684081392610462	1.9977516	1.4134184
24.702023090417274	2.0204759	1.4214344
24.7199654033587	2.026121	1.4234188
24.737908331937927	2.0119557	1.4184343
24.755851876658305	2.0266767	1.4236139
24.773796038023324	2.0416393	1.4288595
24.79174081653661	2.0789976	1.441873
24.809686212701962	2.109325	1.4523516
24.827632227023294	2.1752288	1.4748657
24.8455788600047	2.203178	1.4843106
24.8635261121504	2.1832266	1.4775746
24.88147398396475	2.1385276	1.4623705
24.899422475952303	2.114715	1.454206
24.917371588617698	2.1293964	1.4592452
24.935321322465768	2.1478388	1.4655507
24.953271678001478	2.2400725	1.4966872
24.97122265572994	2.4381645	1.5614623
24.989174256156414	2.7649243	1.6628062
25.00712647978632	3.2399776	1.7999938
25.02507932712521	3.7849169	1.9454863
25.043032798678798	4.3993034	2.0974517
25.060986894952933	5.1611257	2.271811
25.078941616453637	5.948629	2.438981
25.096896963687055	6.884445	2.6238227
25.114852937159508	8.0783825	2.8422496
25.132809537377444	8.677695	2.945793
25.150766764847468	8.712836	2.9517515
25.168724620076347	8.1232815	2.850137
25.186683103570985	6.987538	2.6433952
25.204642215838426	5.722589	2.3921933
25.222601957385894	4.2140274	2.0528097
25.24056232872074	3.1538484	1.7759078
25.25852333035048	2.6011174	1.612798
25.276484962782778	2.3168266	1.5221125
25.294447226525435	2.175618	1.4749976
25.312410122086423	2.0872512	1.4447322
25.330373649973843	1.987945	1.409945
25.348337810695988	1.9444679	1.3944418
25.366302604761245	1.918918	1.3852502
25.384268032678207	1.8979807	1.3776722
25.40223409495558	1.9161625	1.3842552
25.420200792102257	1.8757709	1.3695879
25.438168124627246	1.8753017	1.3694166
25.45613609303974	1.9437108	1.3941703
25.474104697849057	1.9741391	1.4050406
25.492073939564698	1.9354087	1.3911897
25.510043818696285	1.8830389	1.3722386
25.528014335753614	1.9025179	1.3793179
25.54598549124664	1.9618772	1.4006703
25.56395728568544	1.9308683	1.3895569
25.58192971958028	1.8896099	1.3746308
25.59990279344156	1.8228859	1.350143
25.617876507779833	1.80002	1.3416482
25.635850863105826	1.8509724	1.3605045
25.653825859930386	1.8907868	1.3750588
25.671801498764548	1.8781654	1.3704617
25.68977778011949	1.8543249	1.361736
25.707754704506524	1.8776126	1.37026
25.725732272437153	1.9107492	1.3822985
25.743710484423012	1.9000875	1.3784366
25.761689340975888	1.8769531	1.3700194
25.77966884260774	1.8376452	1.3555977
25.797648989830662	1.839996	1.3564645
25.815629783156922	1.8562832	1.3624549
25.83361122309895	1.8582854	1.3631895
25.85159331016929	1.8574504	1.3628831
25.869576044880695	1.8945606	1.3764304
25.887559427746034	1.8964299	1.3771093
25.90554345927836	1.8543712	1.361753
25.92352813999086	1.8519409	1.3608603
25.94151347039689	1.8830762	1.3722522
25.959499451009965	1.8970894	1.3773487
25.97748608234374	1.8626086	1.3647742
25.995473364912062	1.840055	1.3564863
26.013461299228904	1.7936454	1.3392705
26.03144988580839	1.8006436	1.3418806
26.04943912516483	1.8537346	1.3615192
26.067429017812675	1.9180036	1.38492
26.085419564266537	1.8830441	1.3722405
26.103410765041186	1.8679569	1.3667322
26.12140262065155	1.8806432	1.3713654
26.139395131612723	1.8599225	1.3637898
26.157388298439948	1.8228483	1.350129
26.17538212164861	1.8145206	1.3470414
26.193376601754295	1.7924523	1.338825
26.211371739272714	1.8150343	1.3472321
26.229367534719746	1.8792077	1.370842
26.247363988611433	1.9279829	1.3885182
26.26536110146397	1.8994552	1.3782072
26.283358873793727	1.8652061	1.3657255
26.301357306117204	1.8465247	1.358869
26.319356398951104	1.8263874	1.351439
26.33735615281224	1.8157552	1.3474996
26.35535656821762	1.8463538	1.358806
26.373357645684404	1.863924	1.3652561
26.39135938572991	1.8566208	1.3625787
26.409361788871614	1.8666072	1.3662384
26.427364855627165	1.8683261	1.3668673
26.445368586514352	1.845092	1.3583417
26.46337298205115	1.8383517	1.3558583
26.48137804275568	1.7991713	1.341332
26.499383769146217	1.779914	1.3341342
26.517390161741215	1.7816836	1.3347971
26.53539722105928	1.8017918	1.3423084
26.553404947619182	1.8176435	1.3482001
26.571413341939856	1.8428324	1.3575096
26.589422404540397	1.8497368	1.3600503
26.60743213594006	1.8405083	1.3566533
26.62544253665827	1.788123	1.3372072
26.64345360721459	1.8002474	1.341733
26.66146534812879	1.8058918	1.3438348
26.679477759920758	1.8232169	1.3502655
26.69749084311057	1.7856557	1.3362843
26.71550459821847	1.804036	1.343144
26.733519025764842	1.8573171	1.3628342
26.751534126270258	1.8904992	1.3749542
26.769549900255434	1.8911283	1.375183
26.787566348241267	1.8781246	1.3704468
26.80558347074881	1.9020807	1.3791595
26.823601268299267	1.8595163	1.3636408
26.841619741414036	1.7926903	1.3389138
26.85963889061465	1.7491753	1.3225639
26.877658716422832	1.7459433	1.3213415
26.89567921936045	1.7447772	1.3209002
26.913700399949544	1.7661505	1.3289659
26.93172225871233	1.8189644	1.3486899
26.949744796171174	1.8595899	1.3636678
26.967768012848605	1.8802634	1.371227
26.98579190926733	1.877207	1.3701121
27.003816485950225	1.8330288	1.353894
27.021841743420318	1.8008157	1.3419447
27.039867682200814	1.8166353	1.3478261
27.057894302815072	1.8049316	1.3434775
27.07592160578664	1.8092563	1.345086
27.0939495916392	1.8204764	1.3492503
27.111978260896635	1.8165224	1.3477843
27.13000761408296	1.8323587	1.3536464
27.148037651722397	1.844386	1.3580817
27.166068374339304	1.8448842	1.3582652
27.184099782458215	1.8370706	1.3553858
27.20213187660384	1.8236145	1.3504127
27.22016465730105	1.8132886	1.3465841
27.23819812507487	1.8076028	1.3444712
27.256232280450533	1.8513976	1.3606608
27.274267123953383	1.8371403	1.3554115
27.292302656108987	1.873224	1.3686577
27.31033887744306	1.8553709	1.36212
27.32837578848146	1.795112	1.3398179
27.34641338975026	1.788324	1.3372823
27.364451681775673	1.8022847	1.342492
27.382490665084074	1.805986	1.3438698
27.400530340202046	1.7818308	1.3348523
27.41857070765629	1.82039	1.3492182
27.436611767973726	1.8620673	1.3645759
27.454653521681404	1.8879937	1.3740429
27.472695969306564	1.893709	1.3761209
27.490739111376627	1.9078963	1.3812662
27.508782948419153	1.8740247	1.3689502
27.526827480961902	1.8635372	1.3651143
27.54487270953279	1.8503888	1.3602899
27.562918634659898	1.8488952	1.3597409
27.580965256871508	1.9073677	1.3810748
27.599012576696026	1.9177823	1.3848401
27.617060594662068	1.86215	1.3646061
27.63510931129842	1.8472167	1.3591235
27.65315872713401	1.8402346	1.3565525
27.67120884269797	1.8080449	1.3446356
27.68925965851958	1.8516595	1.360757
27.707311175128307	1.8864986	1.3734987
27.725363393053787	1.864475	1.3654578
27.74341631282583	1.8643711	1.3654197
27.7614699349744	1.8627046	1.3648094
27.77952426002968	2.0049582	1.4159654
27.797579288521973	2.03597	1.4268742
27.815635020981784	2.4351146	1.5604854
27.83369145793979	2.5103567	1.5844105
27.85174859992682	2.3907952	1.5462197
27.869806447473923	2.2804906	1.5101293
27.887865001112267	2.0078788	1.4169964
27.905924261373233	1.8894871	1.3745862
27.92398422878836	1.9224898	1.3865387
27.94204490388936	1.8812037	1.3715698
27.96010628720813	1.8530705	1.3612753
27.978168379276728	1.843692	1.3578262
27.9962311806274	1.8090053	1.3449926
28.014294691792568	1.8138217	1.346782
28.0323589133048	1.8162059	1.3476669
28.050423845696887	1.7907767	1.338199
28.068489489501758	1.7792665	1.3338915
28.086555845252523	1.871485	1.3680223
28.104622913482487	1.8894966	1.3745896
28.122690694725115	1.8569989	1.3627175
28.14075918951405	1.8403257	1.3565861
28.15882839838312	1.8430036	1.3575727
28.176898321866304	1.911996	1.3827494
28.1949689604978	1.95767	1.3991677
28.213040314811945	1.8786299	1.3706312
28.23111238534327	1.8598596	1.3637667
28.249185172626493	1.889773	1.3746902
28.267258677196473	1.9165794	1.3844057
28.285332899588294	1.8716413	1.3680794
28.303407840337172	1.8725828	1.3684235
28.321483499978545	1.9486248	1.3959315
28.33955987904799	1.9749342	1.4053235
28.357636978081285	1.9415882	1.3934088
28.37571479761439	1.9337643	1.3905985
28.393793338183425	1.9442042	1.3943472
28.41187260032469	1.9492874	1.3961688
28.429952584574686	1.9300584	1.3892654
28.448033291470065	1.8969109	1.3772839
28.46611472154769	1.9022139	1.3792077
28.484196875344566	1.943184	1.3939813
28.502279753397914	1.9360017	1.3914027
28.52036335624511	1.9481622	1.3957658
28.538447684423716	1.9861325	1.4093021
28.556532738471482	2.0274029	1.423869
28.574618518926325	2.0597117	1.4351696
28.59270502632635	2.0517564	1.4323953
28.61079226120985	2.0477042	1.4309802
28.628880224115274	1.9957229	1.4127005
28.646968915581287	1.9747778	1.4052678
28.66505833614671	2.0726662	1.4396757
28.68314848635055	2.0835319	1.4434445
28.701239366732004	2.035223	1.4266124
28.71933097783044	2.0552588	1.4336174
28.737423320185403	2.096957	1.4480873
28.75551639433665	2.1215048	1.4565387
28.773610200824074	2.133791	1.4607501
28.791704740187793	2.1321886	1.4602015
28.80980001296809	2.14026	1.4629627
28.827896019705413	2.126529	1.4582623
28.845992760940433	2.1504476	1.4664404
28.86409023721397	2.1632268	1.4707912
28.88218844906704	2.1531596	1.4673649
28.900287397040845	2.1671062	1.4721094
28.918387081676755	2.2118402	1.4872257
28.936487503516343	2.2634988	1.5044929
28.954588663101365	2.2561817	1.5020591
28.97269056097374	2.268893	1.5062845
28.990793197675597	2.3215146	1.5236517
29.00889657374923	2.3523397	1.533734
29.027000689737125	2.330897	1.5267276
29.04510554618196	2.3483684	1.5324388
29.06321114362659	2.4130926	1.5534133
29.08131748261405	2.4354062	1.5605788
29.099424563687567	2.44998	1.5652412
29.11753238739057	2.4591696	1.568174
29.13564095426663	2.4922943	1.5787002
29.15375026485954	2.6162264	1.6174753
29.171860319713275	2.7307796	1.6525071
29.18997111937199	2.7577896	1.6606594
29.20808266438002	2.755759	1.6600479
29.226194955281898	2.763652	1.6624236
29.244307992622335	2.7811172	1.6676682
29.26242177694624	2.8059032	1.675083
29.2805363087987	2.888327	1.6995078
29.29865158872498	2.8738122	1.6952322
29.316767617270557	2.830705	1.6824698
29.334884394981064	2.896001	1.7017641
29.353001922402367	3.0023708	1.732735
29.37112020008047	3.0898917	1.7578088
29.389239228561596	3.2240043	1.7955513
29.407359008392152	3.410351	1.8467135
29.42547954011872	3.703813	1.9245293
29.44360082428809	4.3493285	2.0855043
29.46172286144722	5.4388113	2.332126
29.479845652143283	7.036221	2.6525877
29.497969196923606	9.10684	3.017754
29.516093496335728	11.7203245	3.423496
29.5342185509274	14.742347	3.8395765
29.55234436124651	17.228376	4.1507077
29.570470927841175	18.699383	4.3242784
29.588598251259686	18.49595	4.300692
29.60672633205055	17.160395	4.142511
29.624855170762405	14.863885	3.855371
29.642984767944146	11.975454	3.460557
29.66111512414481	9.069945	3.011635
29.67924623991366	6.711715	2.5906978
29.697378115800138	5.157453	2.2710028
29.71551075235387	4.206322	2.050932
29.733644150124675	3.7001326	1.9235729
29.751778309662576	3.5766366	1.8911997
29.769913231517766	3.5513952	1.8845146
29.78804891624066	3.4521425	1.8579942
29.806185364381818	3.3326926	1.8255664
29.82432257649206	3.3080897	1.8188155
29.842460553122333	3.3247478	1.823389
29.86059929482382	3.3519158	1.8308238
29.878738802147872	3.3736663	1.8367543
29.896879075646048	3.325416	1.8235724
29.915020115870114	3.2859805	1.8127273
29.933161923371976	3.359983	1.8330256
29.951304498703777	3.3041	1.8177184
29.969447842417857	3.2482216	1.8022823
29.987591955066733	3.178227	1.7827582
30.005736837203123	3.148937	1.7745245
30.023882489379943	3.202633	1.7895901
30.04202891215028	3.196332	1.7878288
30.060176106067455	3.2288842	1.7969097
30.078324071684946	3.2705133	1.8084561
30.09647280955646	3.247397	1.8020536
30.114622320235863	3.217145	1.7936401
30.132772604277257	3.2263339	1.7961998
30.1509236622349	3.18687	1.7851807
30.16907549466328	3.1538258	1.7759014
30.18722810211705	3.112318	1.7641762
30.205381485151097	3.1119885	1.7640829
30.22353564432045	3.069819	1.7520899
30.241690580180403	2.993958	1.7303058
30.25984629328638	3.0053535	1.7335955
30.278002784194037	3.0520387	1.7470084
30.296160053459246	3.0427659	1.7443526
30.314318101638033	3.013688	1.7359977
30.332476929286646	3.0134184	1.7359201
30.35063653696153	2.9995	1.7319065
30.368796925219307	2.9718163	1.7238957
30.386958094616844	2.9145477	1.7072046
30.40512004571115	2.8924224	1.7007123
30.423282779059463	2.9256048	1.7104399
30.441446295219233	2.9445345	1.7159646
30.459610594748067	2.9621954	1.721103
30.47777567820382	2.945889	1.7163593
30.495941546144504	2.8809502	1.6973362
30.51410819912835	2.8456063	1.6868925
30.532275637713795	2.8791945	1.696819
30.55044386245946	2.9349759	1.7131771
30.56861287392416	2.8382287	1.6847043
30.586782672666956	2.7438436	1.6564552
30.604953259247047	2.7408414	1.6555487
30.623124634223885	2.768233	1.6638008
30.641296798157075	2.772224	1.6649997
30.659469751606462	2.7667034	1.663341
30.677643495132074	2.7132626	1.6471984
30.695818029294152	2.6916564	1.6406268
30.713993354653116	2.7306094	1.6524556
30.73216947176962	2.6935527	1.6412047
30.75034638120448	2.6820898	1.6377087
30.768524083518756	2.723039	1.6501633
30.786702579273673	2.7986386	1.6729132
30.80488186903069	2.7714522	1.6647679
30.82306195335144	2.8390853	1.6849586
30.841242832797782	3.06574	1.7509255
30.85942450793176	3.4253597	1.8507727
30.877606979315637	3.867371	1.9665632
30.895790247511883	4.3044224	2.0747101
30.913974313083134	4.702048	2.1684206
30.932159176592283	4.9725704	2.229926
30.95034483860237	5.1516423	2.269723
30.968531299676698	4.944938	2.2237217
30.98671856037873	4.443878	2.1080508
31.00490662127215	4.042404	2.0105731
31.023095482920848	3.702388	1.924159
31.04128514588892	3.1761167	1.7821662
31.059475610740662	2.8045187	1.6746697
31.07766687804056	2.6486976	1.6274819
31.09585894835335	2.6318324	1.6222923
31.11405182224393	2.610747	1.6157806
31.132245500277417	2.5571747	1.5991168
31.15043998301914	2.5173643	1.5866205
31.168635271034628	2.4998827	1.5811018
31.18683136488964	2.483526	1.5759207
31.20502826515008	2.4720664	1.5722806
31.223225972382135	2.4761922	1.5735922
31.241424487152155	2.4423683	1.5628078
31.259623810026692	2.3678215	1.5387727
31.27782394157253	2.343407	1.530819
31.296024882356644	2.3747132	1.5410105
31.314226632946237	2.4202168	1.5557046
31.332429193908684	2.4998238	1.581083
31.350632565811598	2.5404904	1.5938916
31.368836749222787	2.5105677	1.5844771
31.387041744710295	2.4854217	1.576522
31.40524755284232	2.5417976	1.5943016
31.423454174187317	2.5667346	1.6021031
31.441661609313922	2.5533907	1.5979333
31.459869858791002	2.4784539	1.5743107
31.478078923187628	2.390313	1.5460637
31.496288803073064	2.2862523	1.5120358
31.514499499016807	2.2150233	1.4882954
31.532711011588546	2.240478	1.4968226
31.550923341358178	2.2988899	1.516209
31.56913648889584	2.3587878	1.5358346
31.587350454771844	2.3251753	1.5248525
31.605565239556732	2.300128	1.5166173
31.62378084382127	2.2909281	1.5135813
31.641997268136382	2.2913136	1.5137086
31.660214513073274	2.3286939	1.5260059
31.67843257920331	2.369194	1.5392187
31.6966514670981	2.3790147	1.5424055
31.71487117732944	2.3367963	1.5286583
31.733091710469346	2.318261	1.5225836
31.751313067090052	2.2419481	1.4973136
31.769535247764008	2.3327758	1.5273427
31.787758253063878	2.3888457	1.5455891
31.805982083562526	2.3003476	1.5166897
31.824206739833024	2.2738626	1.5079333
31.84243222244869	2.379974	1.5427164
31.860658531983013	2.3843353	1.5441293
31.878885669009737	2.2466486	1.4988824
31.897113634102784	2.2802472	1.5100487
31.91534242783632	2.2743924	1.5081089
31.933572050784694	2.2273006	1.4924144
31.951802503522508	2.2276013	1.4925151
31.970033786624548	2.3027592	1.5174845
31.988265900665834	2.3492854	1.5327379
32.006498846221575	2.324929	1.5247718
32.02473262386724	2.28731	1.5123855
32.04296723417845	2.2997892	1.5165056
32.0612026777311	2.2799072	1.5099362
32.07943895510129	2.2265656	1.4921681
32.097676066865304	2.1510663	1.4666514
32.115914013599685	2.1712797	1.4735262
32.13415279588115	2.2101364	1.4866527
32.152392414286666	2.192591	1.48074
32.1706328693934	2.1230004	1.457052
32.18887416177875	2.0685236	1.4382364
32.20711629202032	2.0903263	1.4457961
32.225359260695924	2.184348	1.477954
32.243603068383614	2.2412667	1.497086
32.26184771566166	2.1738966	1.474414
32.28009320310852	2.1347885	1.4610915
32.2983395313029	2.1167448	1.4549037
32.31658670082372	2.0807521	1.4424813
32.33483471225012	2.091326	1.4461417
32.35308356616143	2.1120017	1.4532727
32.371333263137245	2.1448781	1.4645402
32.38958380375734	2.154509	1.4678246
32.407835188601744	2.126092	1.4581125
32.42608741825067	2.1227434	1.4569638
32.444340493284585	2.1808116	1.4767572
32.46259441428416	2.2073946	1.4857303
32.48084918183028	2.1241214	1.4574366
32.49910479650405	2.0180733	1.4205891
32.51736125888683	2.051115	1.4321715
32.53561856956014	2.0414615	1.4287972
32.5538767291058	1.9242718	1.3871813
32.572135738105764	1.843315	1.3576874
32.59039559714228	1.9414554	1.3933612
32.608656306797776	2.019839	1.4212104
32.62691786765491	2.0296273	1.42465
32.645180280296586	2.0660622	1.4373803
32.663443545305896	2.1337795	1.4607462
32.68170766326619	2.1579754	1.4690049
32.69997263476099	2.118461	1.4554933
32.7182384603741	2.0262046	1.4234481
32.7365051406895	2.0025098	1.4151007
32.75477267629144	2.004554	1.4158227
32.77304106776434	2.0243964	1.4228128
32.79131031569289	1.9834327	1.4083439
32.809580420661966	2.0520215	1.4324878
32.827851383256714	2.0288484	1.4243765
32.84612320406245	2.0347526	1.4264475
32.86439588366476	2.0377827	1.4275093
32.88266942264945	2.0243363	1.4227917
32.9009438216025	2.002117	1.4149618
32.9192190811102	1.9756329	1.405572
32.937495201758985	1.9910306	1.4110389
32.95577218413556	1.9716092	1.40414
32.974050028826866	1.9015223	1.3789569
32.992328736420035	1.9494947	1.3962431
33.010608307502444	2.0715895	1.4393017
33.02888874266169	2.0921326	1.4464206
33.047170042485604	2.0398505	1.4282334
33.06545220756225	2.0704749	1.4389144
33.083735238479896	2.0953867	1.447545
33.10201913582707	2.0585907	1.4347789
33.12030390019248	1.9574133	1.3990759
33.138589532165135	1.837599	1.3555807
33.15687603233419	1.8381408	1.3557805
33.17516340128909	1.8696699	1.3673587
33.19345163961947	1.9424345	1.3937125
33.211740747915215	1.9557228	1.3984716
33.23003072676643	1.8837454	1.372496
33.248321576763466	1.8240899	1.3505887
33.266613298496885	1.8121465	1.3461599
33.28490589255747	1.8457586	1.358587
33.30319935953626	1.9390117	1.392484
33.32149370002451	1.9813615	1.4076084
33.339788914613706	1.9196655	1.38552
33.358085003895575	1.9651744	1.4018468
33.376381968462034	2.0119987	1.4184494
33.39467980890529	1.9674621	1.4026625
33.41297852581774	1.9616815	1.4006004
33.43127811979204	1.8864117	1.373467
33.44957859142105	1.8104197	1.3455184
33.467879941297866	1.8424896	1.3573834
33.486182170015844	1.8959241	1.3769256
33.50448527816853	1.8889186	1.3743794
33.522789266349754	1.882436	1.3720189
33.541094135153514	1.9322507	1.3900542
33.55939988517411	2.0228224	1.4222596
33.57770651700602	2.0049198	1.4159518
33.59601403124398	1.9716519	1.4041553
33.61432242848296	1.9575332	1.3991188
33.632631709318154	1.9965175	1.4129817
33.650941874344994	1.9787714	1.4066881
33.66925292415916	1.9479598	1.3956933
33.68756485935654	1.8546981	1.361873
33.70587768053328	1.875623	1.3695339
33.724191388285746	1.9469674	1.3953377
33.74250598321054	1.8627213	1.3648155
33.760821465904506	1.8208847	1.3494016
33.77913783696474	2.0336552	1.4260628
33.79745509698852	2.2173111	1.4890639
33.815773246573414	2.0883496	1.4451123
33.8340922863172	1.9100409	1.3820423
33.852412216817896	1.9744811	1.4051623
33.87073303867377	2.1066704	1.4514374
33.889054752483304	2.1559339	1.4683099
33.907377358845245	2.0483093	1.4311916
33.92570085835853	2.0334482	1.4259902
33.94402525162239	1.9482117	1.3957835
33.96235053923627	1.8464706	1.358849
33.980676721799824	1.9634897	1.4012457
33.999003799912984	1.9322457	1.3900524
34.01733177417592	1.8483108	1.3595259
34.03566064518901	1.8112804	1.3458382
34.0539904135529	1.8328873	1.3538417
34.07232107986846	1.8165869	1.3478081
34.090652644736785	1.7874689	1.3369626
34.108985108759235	1.8822814	1.3719627
34.12731847253742	1.927045	1.3881805
34.14565273667313	1.9517317	1.397044
34.16398790176847	2.069594	1.4386083
34.18232396842574	2.0493758	1.4315641
34.20066093724749	1.9422559	1.3936484
34.21899880883651	1.9986664	1.413742
34.23733758379583	2.027048	1.4237444
34.25567726272874	2.139143	1.4625809
34.27401784623872	2.1326406	1.4603564
34.29235933492957	2.0717156	1.4393456
34.31070172940526	1.9899318	1.4106494
34.32904503027003	2.0396464	1.4281619
34.347389238128386	2.10824	1.451978
34.36573435358502	2.0825999	1.4431216
34.38408037724492	1.9462523	1.3950815
34.402427309713296	1.8864721	1.373489
34.42077515159559	1.8550158	1.3619896
34.43912390349752	1.8420889	1.3572358
34.45747356602499	1.9002978	1.3785129
34.47582413978423	1.8854426	1.3731142
34.49417562538163	1.8978107	1.3776104
34.51252802342388	1.9306346	1.3894728
34.53088133451789	1.8819314	1.3718351
34.54923555927084	1.8949304	1.3765647
34.567590698290104	1.8794171	1.3709183
34.58594675218336	1.970094	1.4036003
34.6043037215585	2.0363376	1.427003
34.62266160702365	1.9858075	1.4091868
34.641020409187234	1.8801173	1.3711737
34.65938012865785	1.9704643	1.4037323
34.677740766044394	2.1208913	1.456328
34.69610232195598	2.0533657	1.4329569
34.714464797002016	1.7832624	1.3353884
34.73282819179208	1.8836458	1.3724598
34.751192506936064	1.8462474	1.3587669
34.76955774304408	1.8642015	1.3653576
34.7879239007265	1.924387	1.3872228
34.80629098059391	1.941288	1.3933011
34.824658983257194	2.0112858	1.4181981
34.843027909327446	1.9934344	1.4118904
34.86139775941603	1.8838472	1.3725332
34.879768534134534	1.8954	1.3767353
34.89814023409483	2.0832543	1.4433483
34.91651285990901	2.0023518	1.4150448
34.93488641218944	1.8018038	1.3423128
34.95326089154871	1.8065351	1.3440741
34.97163629859967	1.9387783	1.3924001
34.99001263395542	2.0746741	1.440373
35.00838989822934	2.1573856	1.4688041
35.02676809203499	2.0927968	1.4466501
35.04514721598624	1.9649007	1.4017491
35.063527270697215	1.8530124	1.361254
35.081908256782256	1.9142545	1.3835659
35.10029017485597	2.0823245	1.4430262
35.11867302553321	2.0715873	1.439301
35.137056809429104	1.8166342	1.3478258
35.155441527159006	1.9868549	1.4095584
35.173827179338524	2.1452093	1.4646533
35.19221376658354	1.9378021	1.3920496
35.21060128951017	1.9107534	1.3823
35.2289897487348	2.1895232	1.4797038
35.24737914487405	2.390089	1.5459913
35.26576947854479	2.5093231	1.5840843
35.28416075036418	2.4643834	1.5698354
35.30255296094958	2.4301975	1.558909
35.32094611091867	2.3220096	1.5238142
35.33934020088932	2.322152	1.5238608
35.35773523147969	2.055925	1.4338497
35.3761312033082	1.9061034	1.380617
35.394528116993506	1.9146814	1.3837202
35.41292597315452	2.0468435	1.4306794
35.431324772410434	2.2452588	1.4984188
35.449724515380666	2.3161614	1.521894
35.46812520268491	2.1345325	1.4610039
35.486526834943106	2.2962582	1.5153409
35.504929412775454	2.3544548	1.5344232
35.52333293680242	1.9828928	1.4081522
35.54173740764471	1.6850045	1.2980772
35.560142825923286	1.7849715	1.3360282
35.5785491922594	1.5409359	1.2413443
35.59695650727454	1.2079734	1.0990784
35.61536477159042	0.6149216	0.7841694
