0.008763373481513119	0.3822274	0.6182454
0.026290120649546365	0.45502728	0.6745571
0.043816868432600686	0.43806383	0.6618639
0.06134361724069026	0.5127166	0.71604234
0.07887036748382949	0.42751217	0.6538441
0.0963971195720331	0.33276287	0.576856
0.11392387391531617	0.21581739	0.4645615
0.1314506309236943	0.1764677	0.4200806
0.1489773910071836	0.20066407	0.44795543
0.16650415457580078	0.19362022	0.44002298
0.18403092203956356	0.18894926	0.43468294
0.20155769380849	0.18846227	0.4341224
0.2190844702925996	0.1909295	0.4369548
0.2366112519019124	0.17756037	0.42137912
0.2541380390464497	0.20192696	0.44936284
0.27166483213623416	0.19265093	0.4389202
0.28919163158128947	0.21804743	0.46695548
0.3067184377916406	0.1681046	0.41000563
0.324245251177314	0.15138422	0.38908124
0.34177207214833777	0.13190155	0.36318251
0.3592989011147415	0.16818714	0.41010624
0.37682573848655654	0.14855222	0.38542473
0.39435258467381573	0.17766568	0.42150408
0.41187944008655414	0.1543294	0.3928478
0.42940630513480854	0.14196415	0.3767813
0.446933180228618	0.1325008	0.36400658
0.4644600657780234	0.14538783	0.38129756
0.48198696219306775	0.13596207	0.36873034
0.49951386988379676	0.17567909	0.4191409
0.5170407892602581	0.21302113	0.46154213
0.5345677207325025	0.23609069	0.48589164
0.5520946647105822	0.22892259	0.47845855
0.5696216216045534	0.2006876	0.4479817
0.5871485918244737	0.22223295	0.4714159
0.6046755757804043	0.22111747	0.4702313
0.6222025738824094	0.18839219	0.4340417
0.6397295865405557	0.14883162	0.385787
0.6572566141649129	0.1614042	0.40175143
0.6747836571655547	0.1816224	0.4261718
0.6923107159525568	0.17528102	0.41866577
0.7098377909359992	0.16719998	0.40890095
0.7273648825259653	0.11130693	0.33362693
0.7448919911325411	0.07335204	0.27083582
0.762419117165817	0.08226	0.28681004
0.7799462610358868	0.10329105	0.32138926
0.7974734231528482	0.1483639	0.38518035
0.8150006039268024	0.1875851	0.43311095
0.8325278037678551	0.19826396	0.44526842
0.8500550230861152	0.2142992	0.46292463
0.8675822622916969	0.20959017	0.4578102
0.8851095217947171	0.24312475	0.49307683
0.9026368020052984	0.23071145	0.4803243
0.9201641033335665	0.28312007	0.5320903
0.9376914261896523	0.2999983	0.547721
0.9552187709836915	0.2795543	0.52872896
0.9727461381258234	0.26257262	0.5124184
0.990273528026193	0.24368557	0.4936452
1.0078009410949496	0.2280578	0.47755396
1.0253283777422473	0.22538155	0.47474366
1.0428558383782454	0.28887692	0.5374727
1.0603833234131086	0.31826216	0.5641473
1.0779108332570058	0.37911984	0.61572707
1.0954383683201119	0.38453817	0.6201114
1.112965929012607	0.4262769	0.65289885
1.1304935157446763	0.5255996	0.7249825
1.1480211289265108	0.5731479	0.7570653
1.1655487689683062	1.357246	1.165009
1.1830764362802655	1.642441	1.2815776
1.200604131272596	2.049313	1.4315422
1.2181318543555117	2.3823345	1.5434812
1.235659605939232	2.4363976	1.5608964
1.253187386433982	3.9835968	1.995895
1.270715196249994	6.2706976	2.504136
1.2882430357975057	11.594765	3.4051087
1.3057709054867608	16.189533	4.023622
1.3232988057280106	21.844069	4.6737638
1.3408267369315112	26.632696	5.1606874
1.358354699507526	30.412777	5.514778
1.3758826938663256	34.796467	5.898853
1.3934107204181858	36.88725	6.0734873
1.410938779573391	37.368305	6.1129622
1.4284668717422309	37.744728	6.143674
1.4459949973350033	37.255287	6.103711
1.4635231567620117	36.990326	6.0819674
1.4810513504335687	36.143997	6.0119877
1.4985795787599925	35.30679	5.9419518
1.5161078421516088	35.246895	5.9369097
1.5336361410187505	34.506893	5.8742566
1.5511644757717598	34.64146	5.8856997
1.5686928468209842	35.35964	5.9463973
1.58622125457678	35.98541	5.998784
1.6037496994495108	37.234188	6.101982
1.621278181849548	37.17645	6.0972495
1.6388067021872719	37.95371	6.1606584
1.6563352608730693	37.27667	6.105462
1.673863858317336	36.14036	6.0116854
1.6913924949304753	35.04961	5.920271
1.7089211711228998	33.792927	5.8131685
1.7264498873050296	32.937416	5.739113
1.7439786438872935	32.35537	5.688178
1.7615074412801288	31.589334	5.620439
1.779036279893981	31.158812	5.582008
1.796565160139305	29.961319	5.4736934
1.814094082426564	29.090721	5.3935814
1.8316230471662298	27.935358	5.285391
1.849152054768784	27.32922	5.2277355
1.8666811056447168	27.411419	5.2355914
1.8842102002045273	26.929375	5.189352
1.901739338858724	26.242088	5.122703
1.9192685220178245	25.575518	5.0572243
1.9367977500923557	24.725204	4.9724445
1.9543270234928547	24.241577	4.9235735
1.971856342629867	23.59674	4.8576474
1.9893857079139496	23.148575	4.8112965
2.006915119755667	22.828712	4.7779403
2.0244445785655945	22.266968	4.7187886
2.0419740847543175	21.785236	4.6674657
2.0595036387324317	21.110962	4.5946665
2.0770332409105414	20.421658	4.519033
2.094562891699263	20.140284	4.4877925
2.1120925915092217	19.741829	4.4431777
2.129622340751053	19.761503	4.445391
2.1471521398354043	187.91264	13.708123
2.1646819891729323	444.22388	21.07662
2.182211889174303	440.44516	20.986786
2.1997418402501974	453.01035	21.28404
2.2172718428113023	432.89713	20.80618
2.234801897268317	320.62378	17.90597
2.2523320040319548	16.839495	4.1035953
2.269862163512935	16.67909	4.0840044
2.287392376121992	16.640522	4.0792794
2.304922642269869	16.43074	4.053485
2.322452962367322	16.054214	4.006771
2.3399833368251164	15.518392	3.939339
2.357513766054032	15.3506365	3.9179888
2.3750442504648586	15.017808	3.8752816
2.3925747904683963	14.732103	3.8382423
2.410105386475459	14.439828	3.7999773
2.4276360388968707	14.3010025	3.7816665
2.445166748143469	14.189795	3.7669344
2.4626975146261025	13.846012	3.721023
2.4802283387556323	13.606226	3.6886618
2.4977592209429305	13.09712	3.6189945
2.5152901615988825	12.881795	3.5891218
2.5328211611343865	12.572229	3.545734
2.5503522199603523	12.499267	3.5354302
2.5678833384877024	12.375352	3.5178618
2.5854145171273712	12.194262	3.4920282
2.6029457562903064	11.95412	3.457473
2.620477056387469	11.883366	3.4472258
2.6380084178298326	11.620675	3.4089112
2.655539841028383	11.232102	3.3514328
2.673071326394119	11.093724	3.3307242
2.6906028743380523	10.910303	3.3030748
2.708134485271211	10.785732	3.284164
2.7256661596046325	10.551484	3.2483048
2.743197897749369	10.44287	3.231543
2.760729700116486	10.348155	3.2168548
2.778261567117063	10.295109	3.208599
2.795793499162193	10.168899	3.1888711
2.8133254966629817	10.039659	3.168542
2.830857560030551	9.832289	3.135648
2.8483896896760337	9.571318	3.0937545
2.865921886010578	9.298819	3.0493965
2.883454149445347	9.123567	3.0205243
2.9009864803915177	8.998829	2.9998047
2.91851887926028	8.840823	2.9733522
2.9360513464628384	8.914343	2.9856896
2.953583882410413	8.772447	2.9618316
2.9711164875142373	8.727388	2.9542153
2.9886491621855606	8.667544	2.9440694
3.0061819068356455	8.601504	2.9328322
3.023714721875769	8.584427	2.9299192
3.041247607717225	8.421294	2.9019465
3.0587805647713213	8.372871	2.8935914
3.0763135934493806	8.317839	2.8840663
3.0938466941627407	8.197224	2.8630793
3.1113798673227544	8.0292015	2.8335845
3.1289131133407904	7.848773	2.8015661
3.1464464326282315	7.733386	2.7808967
3.1639798255964786	7.6461	2.7651582
3.1815132926569443	7.5191936	2.7421148
3.1990468342210603	7.46717	2.7326124
3.216580450700272	7.332179	2.7077997
3.2341141425060416	7.1873116	2.6809163
3.251647910049847	7.1706614	2.677809
3.2691817537431813	7.118196	2.6679947
3.286715673997555	7.032606	2.651906
3.3042496712244938	6.941042	2.6345856
3.32178374583554	6.782391	2.6043024
3.339317898242251	6.828496	2.6131392
3.3568521288562034	6.7578816	2.5995927
3.3743864380889876	6.714467	2.591229
3.3919208263522127	6.5829983	2.5657353
3.4094552940575023	6.4675803	2.5431437
3.4269898416164972	6.4390717	2.5375326
3.444524469440858	6.353408	2.5205967
3.4620591779422587	6.404298	2.5306714
3.479593967532391	6.4201455	2.5338006
3.4971288386229658	6.4700146	2.5436223
3.5146637916257086	6.4303536	2.5358143
3.5321988269523628	6.4210467	2.5339785
3.5497339450146903	6.3176627	2.5134962
3.5672691462244708	6.1802497	2.4860108
3.5848044309934988	6.1091194	2.4716632
3.60233979973359	6.0784955	2.4654605
3.619875252856575	6.151763	2.4802747
3.6374107907743034	6.165259	2.4829938
3.6549464138986427	6.111988	2.4722435
3.6724821226414788	6.104336	2.4706955
3.690017917414714	6.2320833	2.4964142
3.7075537986302702	6.359056	2.5217168
3.7250897667000857	6.4681	2.543246
3.7426258220361235	6.4675136	2.5431306
3.7601619650503553	6.660005	2.5806985
3.777698196154779	7.135016	2.671145
3.7952345157614067	8.223907	2.8677356
3.8127709242822716	9.117483	3.019517
3.830307422129425	11.321384	3.3647265
3.847844009714936	12.73257	3.5682726
3.8653806874508954	16.172203	4.0214677
3.882917455749409	15.666252	3.9580617
3.900454315022606	15.624849	3.952828
3.917991265682631	12.54269	3.5415661
3.9355283081416506	10.576311	3.252124
3.9530654428118495	8.536611	2.921748
3.970602670105433	7.409378	2.7220173
3.9881399904346244	6.5363984	2.556638
4.005677404211669	6.447017	2.5390978
4.023214911848827	6.3069057	2.5113554
4.0407525137583855	6.31878	2.5137184
4.058290210352644	6.324391	2.5148342
4.075828002043927	6.208479	2.491682
4.0933658892445814	6.2174125	2.493474
4.110903872366966	6.1828775	2.4865394
4.128441951823468	6.184629	2.4868915
4.145980128026488	6.1099405	2.4718294
4.163518401388452	6.1031766	2.470461
4.181056772321807	6.1191916	2.4737
4.1985952412390155	6.153607	2.4806464
4.216133808552567	6.1444874	2.4788077
4.233672474674966	6.1412044	2.4781454
4.251211240018741	6.323164	2.5145903
4.268750104996445	6.4935083	2.5482364
4.286289070020643	7.4822583	2.7353716
4.303828135503928	9.139537	3.0231667
4.3213673018589125	29.437325	5.425617
4.3389065694982305	90.57348	9.51701
4.356445938834537	165.75673	12.874655
4.3739854102805085	171.15894	13.082772
4.391524984248844	172.02197	13.115715
4.409064661152262	136.27046	11.673494
4.426604441403504	96.687584	9.832985
4.444144325415337	75.83	8.708042
4.461684313600543	21.86991	4.6765275
4.47922440637193	22.112104	4.702351
4.496764604142329	20.324814	4.508305
4.5143049073245916	18.513542	4.3027368
4.531845316331589	16.479557	4.059502
4.5493858315762195	13.729312	3.7053087
4.566926453471405	11.329133	3.3658779
4.584467182430081	9.10354	3.0172074
4.602008018865218	7.9788356	2.8246832
4.619548963189798	7.456099	2.7305858
4.637090015816834	7.0743303	2.6597614
4.654631177159353	6.8300977	2.6134455
4.672172447630417	6.5036945	2.5502343
4.689713827643102	6.2988925	2.5097594
4.7072553176105085	6.1142955	2.4727101
4.724796917945764	5.874352	2.4237063
4.742338629062015	5.748126	2.397525
4.759880451372434	5.526348	2.3508186
4.777422385290215	5.543713	2.354509
4.794964431228581	5.588856	2.3640761
4.812506589600768	5.613555	2.3692942
4.830048860820047	5.6190176	2.3704467
4.847591245299709	5.566248	2.3592896
4.8651337434530655	5.480613	2.341071
4.882676355693457	5.4600067	2.3366656
4.900219082434242	5.4662466	2.3380005
4.917761924088813	5.529081	2.3513997
4.935304881070575	5.565739	2.359182
4.952847953792969	5.6013246	2.3667119
4.970391142669449	5.5446467	2.3547072
4.9879344481135055	5.544251	2.3546233
5.005477870538642	5.480333	2.341011
5.023021410358394	5.4680686	2.33839
5.040565067986324	5.4086018	2.32564
5.05810884383601	5.342925	2.3114767
5.075652738321066	5.340803	2.3110178
5.09319675185512	5.379501	2.319375
5.110740884851836	5.3547225	2.3140273
5.128285137724894	5.3267565	2.3079767
5.145829510888007	5.3306403	2.3088179
5.163374004754908	5.3691993	2.3171532
5.1809186197393595	5.377753	2.3189983
5.198463356255145	5.291068	2.3002322
5.216008214716077	5.2338076	2.2877517
5.233553195535998	5.2352977	2.2880774
5.251098299128764	5.291518	2.30033
5.268643525908272	5.252695	2.2918758
5.286188876288432	5.1421533	2.2676315
5.3037343506831895	5.132639	2.2655327
5.32127994950651	5.0890713	2.255897
5.3388256731723915	5.1094384	2.2604067
5.356371522094851	5.1387563	2.2668824
5.373917496687938	5.187301	2.2775648
5.391463597365729	5.1981206	2.2799387
5.40900982454232	5.1583085	2.271191
5.426556178631843	5.153268	2.270081
5.444102660048449	5.2007513	2.2805157
5.4616492692063225	5.2015204	2.2806842
5.479196006519669	5.187077	2.2775156
5.496742872402727	5.1655726	2.2727897
5.514289867269756	5.1379747	2.26671
5.531836991535049	5.14899	2.2691386
5.549384245612924	5.0961986	2.257476
5.566931629917724	5.079703	2.2538197
5.584479144863822	5.0596557	2.249368
5.6020267908656205	5.1095905	2.2604403
5.619574568337545	5.134829	2.266016
5.637122477694054	5.137711	2.2666519
5.654670519349629	5.0779524	2.2534313
5.672218693718784	5.0403447	2.2450712
5.689767001216059	5.0466084	2.2464657
5.707315442256021	5.0578685	2.2489705
5.724864017253266	5.0921187	2.2565722
5.7424127266224225	5.10069	2.2584708
5.75996157077814	5.069881	2.2516396
5.777510550135105	5.1355305	2.266171
5.795059665108022	5.2151217	2.283664
5.812608916111639	5.20969	2.2824745
5.830158303560715	5.2778506	2.2973573
5.847707827870055	5.215683	2.283787
5.86525748945448	5.241763	2.2894897
5.8828072887288485	5.3002243	2.3022215
5.900357226108044	5.3637204	2.3159707
5.917907302006979	5.477056	2.340311
5.9354575168406	6.10448	2.4707246
5.9530078710238765	6.7827024	2.6043622
5.970558364971812	7.357883	2.7125418
5.988108999099438	7.696917	2.7743318
6.005659773821818	8.187838	2.8614397
6.023210689554039	7.914699	2.8133075
6.040761746711227	8.340413	2.8879774
6.058312945708531	7.6646333	2.7685075
6.075864286961132	7.1405315	2.6721773
6.093415770884244	6.471223	2.5438597
6.1109673978931065	5.9443154	2.4380968
6.128519168402993	5.423842	2.3289144
6.146071082829204	5.348741	2.3127346
6.163623141587075	5.176319	2.2751524
6.181175345091969	5.150857	2.2695498
6.198727693759281	5.122863	2.2633743
6.216280188004435	5.1371136	2.2665203
6.233832828242885	5.1396356	2.2670765
6.251385614890126	5.1771708	2.2753396
6.268938548361669	5.228109	2.286506
6.286491629073067	5.2262683	2.2861032
6.304044857439898	5.1705265	2.2738793
6.321598233877777	5.052711	2.2478237
6.339151758802344	4.9828	2.2322187
6.356705432629277	4.96488	2.2282012
6.37425925577428	4.922616	2.2186968
6.391813228653095	4.9397593	2.2225568
6.409367351681486	4.942872	2.223257
6.426921625275259	4.955508	2.226097
6.44447604985025	4.912071	2.2163193
6.46203062582232	4.9195266	2.2180007
6.47958535360737	4.9947095	2.2348847
6.497140233621328	5.0564523	2.2486556
6.514695266280161	5.081233	2.254159
6.532250451999859	4.9777317	2.2310832
6.549805791196454	4.8791213	2.2088733
6.567361284286002	4.819982	2.1954458
6.584916931684597	4.8386793	2.1996999
6.602472733808367	4.908975	2.2156208
6.6200286910734665	4.9698415	2.229314
6.637584803896092	4.947922	2.2243927
6.655141072692462	4.933639	2.2211797
6.672697497878842	4.9575005	2.2265446
6.690254079871514	5.0028787	2.2367115
6.707810819086808	5.015112	2.2394445
6.725367715941078	4.9963098	2.2352426
6.742924770850719	4.9480877	2.2244298
6.760481984232151	4.9566565	2.226355
6.778039356501836	4.907297	2.215242
6.795596888076266	4.9136643	2.2166786
6.813154579371963	4.9248724	2.2192054
6.830712430805492	4.9687057	2.2290595
6.84827044279344	4.995368	2.235032
6.865828615752445	4.986615	2.233073
6.883386950099159	5.015792	2.2395964
6.900945446250287	4.987233	2.2332115
6.918504104622553	4.994918	2.2349312
6.936062925632727	5.067671	2.2511487
6.953621909697607	5.051612	2.247579
6.971181057234028	5.109999	2.2605307
6.988740368658859	5.0703254	2.2517383
7.006299844389007	5.1030464	2.2589924
7.023859484841407	5.1810327	2.2761881
7.041419290433036	5.2558136	2.292556
7.058979261580902	5.392884	2.3222582
7.0765393987020495	5.646519	2.3762405
7.094099702213559	6.0141096	2.4523683
7.111660172532549	6.364382	2.5227726
7.129220810076164	6.672995	2.583214
7.146781615261595	7.2566376	2.6938148
7.16434258850606	7.5217834	2.742587
7.181903730226821	7.890053	2.8089237
7.1994650408411704	7.930714	2.8161523
7.217026520766437	8.029708	2.833674
7.234588170419983	8.33493	2.887028
7.252149990219215	8.458842	2.9084089
7.269711980581568	8.380499	2.8949091
7.2872741419245175	8.167599	2.857901
7.304836474665574	7.689645	2.773021
7.322398979222286	7.46732	2.7326398
7.339961656012233	7.2198315	2.6869745
7.357524505453039	6.862308	2.6196008
7.375087527962357	6.488006	2.5471566
7.392650723957886	6.208627	2.4917116
7.410214093857353	5.853178	2.4193342
7.427777638078528	5.664	2.379916
7.445341357039213	5.407911	2.3254914
7.4629052511572525	5.254965	2.292371
7.480469320850524	5.2352552	2.288068
7.498033566536948	5.2339373	2.28778
7.5155979886344735	5.242291	2.289605
7.5331625875610975	5.2188444	2.2844791
7.550727363734844	5.178738	2.275684
7.568292317573788	5.0689697	2.2514372
7.585857449496025	5.0481753	2.2468145
7.603422759919705	5.0721903	2.2521524
7.620988249263007	5.1201496	2.2627747
7.638553917944147	5.1819944	2.2763994
7.656119766381391	5.169013	2.2735465
7.673685794993023	5.1447983	2.2682147
7.691252004197388	5.115569	2.2617624
7.70881839441285	5.114578	2.2615433
7.726384966057826	5.145386	2.2683444
7.743951719550762	5.1888785	2.277911
7.761518655310149	5.3003874	2.302257
7.779085773754511	5.341214	2.3111067
7.796653075302419	5.3038692	2.303013
7.814220560372475	5.199726	2.2802908
7.831788229383323	5.1071305	2.259896
7.8493560827536495	5.0842843	2.2548358
7.866924120902174	5.1719317	2.274188
7.884492344247663	5.2897186	2.299939
7.9020607532089135	5.349617	2.312924
7.919629348204771	5.4014196	2.3240955
7.937198129654115	5.385483	2.3206644
7.954767097975865	5.4057693	2.325031
7.972336253588986	5.4025884	2.3243468
7.989905596912472	5.395625	2.3228486
8.007475128365371	5.389432	2.321515
8.025044848366756	5.4375577	2.3318572
8.042614757335754	5.57574	2.3613005
8.060184855691523	5.6614494	2.37938
8.07775514385327	5.72016	2.3916855
8.095325622240228	5.75409	2.3987684
8.112896291271687	5.798389	2.4079845
8.130467151366968	5.8471293	2.418084
8.148038202945436	5.877269	2.4243078
8.165609446426497	5.813037	2.411024
8.183180882229594	5.836101	2.4158025
8.200752510774217	5.8760476	2.424056
8.218324332479893	5.960631	2.4414403
8.235896347766193	5.947797	2.4388106
8.253468557052724	5.959687	2.441247
8.27104096075914	5.9066224	2.4303544
8.288613559305137	5.8926334	2.4274747
8.306186353110448	6.0635443	2.4624264
8.32375934259485	6.1455913	2.4790304
8.341332528178162	6.2205877	2.4941106
8.358905910280246	6.2261906	2.4952335
8.376479489321003	6.2580914	2.5016177
8.394053265720377	6.2323914	2.4964757
8.411627239898356	6.2317605	2.4963493
8.42920141227497	6.235864	2.4971712
8.44677578327029	6.266888	2.5033753
8.464350353304427	6.184315	2.4868283
8.48192512279754	6.1550374	2.4809349
8.499500092169827	6.1175	2.473358
8.51707526184153	6.084659	2.46671
8.534650632232934	6.116872	2.473231
8.552226203764365	6.142356	2.4783776
8.569801976856192	6.1462216	2.4791574
8.587377951928834	6.1671243	2.4833696
8.60495412940274	6.117277	2.473313
8.622530509698416	6.142468	2.4784002
8.6401070932364	6.304866	2.5109491
8.657683880437283	6.46801	2.5432281
8.675260871721695	6.621739	2.573274
8.692838067510303	6.7325015	2.5947065
8.710415468223834	6.8485327	2.61697
8.727993074283043	6.976001	2.641212
8.745570886108737	6.982523	2.6424463
8.763148904121765	7.0893455	2.6625824
8.78072712874302	7.117894	2.6679382
8.798305560393441	7.4066176	2.7215102
8.815884199494006	7.553918	2.748439
8.833463046465745	7.6341624	2.7629988
8.851042101729728	7.6926656	2.7735655
8.86862136570707	8.05055	2.8373492
8.886200838818924	8.323465	2.8850417
8.903780521486505	8.412434	2.9004195
8.921360414131055	8.476512	2.911445
8.938940517173874	8.553581	2.9246507
8.956520831036297	8.664026	2.943472
8.97410135613971	8.936448	2.9893892
8.99168209290554	9.121869	3.0202432
9.009263041755265	9.442392	3.0728476
9.026844203110405	9.5610695	3.092098
9.044425577392525	9.718491	3.1174493
9.062007165023239	9.8474455	3.138064
9.079588966424197	10.183571	3.1911707
9.097170982017108	10.342315	3.215947
9.11475321222372	11.413302	3.378358
9.132335657465825	12.359925	3.5156686
9.149918318165264	12.425138	3.524931
9.167501194743924	12.881808	3.5891237
9.18508428762374	12.55954	3.5439441
9.202667597226693	12.4481535	3.5281942
9.220251123974803	12.046131	3.4707537
9.237834868290143	11.7551155	3.4285734
9.255418830594836	11.645188	3.4125047
9.273003011311046	11.190656	3.3452437
9.290587410860985	11.006039	3.317535
9.308172029666911	10.346203	3.2165513
9.32575686815113	10.013571	3.1644228
9.343341926735997	8.600709	2.9326966
9.360927205843916	8.391326	2.8967786
9.378512705897327	8.251452	2.872534
9.396098427318728	8.115654	2.8487988
9.413684370530664	8.0504675	2.8373346
9.431270535955722	7.939592	2.817728
9.448856924016539	7.8090186	2.7944622
9.466443535135806	7.6585627	2.7674108
9.484030369736251	7.660385	2.76774
9.501617428240658	7.6641927	2.7684278
9.519204711071852	7.697136	2.7743714
9.536792218652714	7.7897644	2.791015
9.55437995140617	7.8113775	2.7948842
9.571967909755191	7.85449	2.8025863
9.589556094122802	7.897519	2.8102524
9.60714450493207	7.9265537	2.8154137
9.624733142606116	7.927362	2.8155572
9.642322007568108	7.921692	2.81455
9.659911100241267	7.9750996	2.8240218
9.677500421048851	7.9870715	2.8261406
9.695089970414175	7.997347	2.827958
9.712679748760609	7.972643	2.823587
9.730269756511557	8.039706	2.8354375
9.747859994090492	8.025292	2.8328948
9.765450461920915	8.105003	2.8469288
9.78304116042639	8.1092825	2.84768
9.800632090030527	8.19081	2.8619592
9.81822325115699	8.269312	2.875641
9.835814644229481	8.270505	2.8758485
9.853406269671762	8.149465	2.8547268
9.870998127907646	8.10197	2.846396
9.888590219360985	8.150226	2.85486
9.906182544455698	8.227383	2.8683414
9.923775103615734	8.260684	2.8741405
9.941367897265108	8.211302	2.865537
9.958960925827878	8.212241	2.8657007
9.97655418972816	8.203819	2.864231
9.994147689390106	8.191306	2.8620458
10.011741425237934	8.1852045	2.8609796
10.029335397695904	8.14959	2.8547485
10.04692960718833	8.170523	2.8584125
10.06452405413958	8.174816	2.8591635
10.082118738974064	8.193267	2.8623884
10.099713662116246	8.224206	2.8677876
10.117308823990651	8.151115	2.8550158
10.134904225021844	8.067024	2.8402507
10.152499865634445	8.11454	2.8486032
10.170095746253125	8.216001	2.8663566
10.18769186730261	8.308964	2.8825274
10.205288229207675	8.294148	2.8799562
10.222884832393145	8.248052	2.871942
10.2404816772839	8.27229	2.876159
10.258078764304868	8.24191	2.8708727
10.275676093881035	8.231596	2.8690758
10.293273666437438	8.136458	2.8524477
10.310871482399158	8.104168	2.846782
10.32846954219134	8.131762	2.8516245
10.346067846239173	8.1570425	2.8560536
10.363666394967908	8.127108	2.8508081
10.38126518880283	8.124126	2.8502853
10.398864228169298	8.14432	2.8538253
10.416463513492713	8.130005	2.8513165
10.434063045198531	8.163524	2.857188
10.451662823712262	8.118056	2.8492203
10.469262849459467	8.096754	2.8454795
10.486863122865758	7.9468126	2.819009
10.504463644356806	7.848538	2.8015242
10.522064414358338	7.831351	2.798455
10.539665433296118	7.843936	2.8007028
10.557266701595987	7.864504	2.8043723
10.574868219683818	7.756001	2.7849598
10.592469987985552	7.6316757	2.7625487
10.610072006927185	7.512505	2.740895
10.627674276934751	7.4815245	2.7352376
10.64527679843435	7.3753557	2.7157607
10.662879571852143	7.265308	2.6954236
10.680482597614331	7.13162	2.6705093
10.698085876147173	7.033881	2.6521466
10.715689407876988	6.9691176	2.6399086
10.733293193230146	6.9013476	2.6270416
10.750897232633072	6.772367	2.6023772
10.76850152651225	6.6923513	2.586958
10.786106075294207	6.680683	2.5847018
10.803710879405534	6.6420755	2.5772223
10.821315939272877	6.5176992	2.5529785
10.83892125532294	6.332474	2.5164409
10.856526827982472	6.223881	2.4947708
10.874132657678285	6.184178	2.4868007
10.891738744837243	6.173872	2.4847279
10.909345089886271	6.1536226	2.4806497
10.926951693252343	6.120954	2.4740562
10.944558555362494	6.026737	2.4549413
10.96216567664381	5.9407988	2.4373753
10.979773057523436	5.8298564	2.4145095
10.997380698428573	5.8487597	2.4184208
11.014988599786477	5.825694	2.4136474
11.032596762024461	5.8213277	2.4127429
11.050205185569892	5.705082	2.3885314
11.067813870850198	5.6014447	2.3667371
11.085422818292859	5.527949	2.351159
11.10303202832541	5.4900913	2.3430943
11.120641501375454	5.4214377	2.328398
11.138251237870636	5.3566403	2.3144417
11.155861238238671	5.262841	2.2940884
11.173471502907317	5.1691375	2.2735736
11.191082032304402	5.149323	2.269212
11.208692826857805	5.13084	2.2651358
11.226303886995465	5.0679407	2.2512088
11.243915213145371	5.026001	2.2418745
11.261526805735578	4.947884	2.224384
11.279138665194196	4.918485	2.2177658
11.296750791949393	4.858131	2.2041168
11.314363186429393	4.7803807	2.1864083
11.331975849062479	4.723899	2.1734533
11.34958878027699	4.64908	2.1561725
11.36720198050133	4.590087	2.142449
11.384815450163948	4.532983	2.1290803
11.402429189693366	4.4582024	2.1114457
11.420043199518153	4.4193244	2.1022189
11.437657480066942	63.424084	7.963924
11.455272031768422	85.21331	9.231106
11.472886855051353	107.587875	10.3724575
11.490501950344528	99.128494	9.956329
11.508117318076819	84.40232	9.187074
11.52573295867715	45.760464	6.764648
11.543348872574514	4.097422	2.024209
11.560965060197946	4.0734687	2.0182836
11.57858152197655	4.047151	2.0117533
11.59619825833949	4.0277047	2.0069141
11.613815269715985	4.0128465	2.003209
11.631432556535323	38.567036	6.2102365
11.649050119226837	83.08485	9.115089
11.666667958219929	93.44913	9.666909
11.68428607394406	107.69367	10.377556
11.701904466828756	82.50875	9.083433
11.719523137303586	65.34103	8.08338
11.737142085798196	4.558598	2.1350873
11.754761312742286	3.6935115	1.921851
11.772380818565619	3.6898875	1.920908
11.790000603698015	3.6936274	1.9218812
11.80762066856935	3.6050434	1.8986952
11.825241013609572	3.5545945	1.8853632
11.842861639248683	3.5172307	1.8754282
11.860482545916748	3.4954183	1.8696038
11.878103734043883	3.4612677	1.8604482
11.895725204060282	3.411809	1.8471082
11.91334695639619	3.3597858	1.8329718
11.930968991481919	3.3454967	1.8290699
11.948591309747824	3.3379316	1.8270007
11.966213911624347	3.3341417	1.8259633
11.98383679754198	3.301717	1.8170627
12.001459967931268	3.2783904	1.8106326
12.019083423222835	3.2894444	1.8136826
12.036707163847352	3.2478223	1.8021716
12.05433119023556	3.1932619	1.78697
12.071955502818259	3.1818104	1.7837629
12.089580102026313	3.1757486	1.782063
12.107204988290643	3.2027383	1.7896196
12.12483016204224	3.1908505	1.7862952
12.142455623712152	3.1513631	1.7752079
12.16008137373149	3.0812957	1.755362
12.177707412531431	3.054588	1.747738
12.19533374054321	3.0612164	1.7496332
12.212960358198126	3.0814168	1.7553965
12.230587265927545	3.073765	1.7532157
12.248214464162889	3.0758193	1.7538013
12.265841953335649	3.0305817	1.7408566
12.283469733877375	2.9911087	1.7294822
12.301097806219685	2.93861	1.7142375
12.31872617079425	2.9316854	1.7122165
12.336354828032825	2.9408205	1.714882
12.353983778367205	2.934003	1.7128932
12.371613022229262	2.9572072	1.7196532
12.389242560050928	2.9662504	1.7222806
12.406872392264201	2.9389408	1.7143339
12.424502519301143	2.8830924	1.6979672
12.442132941593874	2.8649938	1.6926292
12.459763659574586	2.8718665	1.6946582
12.477394673675532	2.8718758	1.6946609
12.49502598432903	2.8335016	1.6833009
12.51265759196746	2.7954273	1.6719532
12.530289497023267	2.7703347	1.6644323
12.547921699928967	2.7970848	1.6724488
12.565554201117134	2.8056588	1.6750101
12.583187001020404	2.7906182	1.6705143
12.600820100071486	2.7883332	1.6698303
12.618453498703152	2.8216827	1.6797864
12.636087197348235	2.8683207	1.6936117
12.65372119643964	2.8145108	1.6776503
12.671355496410326	2.7876668	1.6696308
12.68899009769333	2.7511985	1.6586738
12.706625000721749	2.785461	1.66897
12.724260205928752	2.8567808	1.6902014
12.741895713747551	2.893588	1.7010549
12.759531524611454	2.9351516	1.7132285
12.777167638953818	2.9504054	1.7176744
12.794804057208072	2.9427726	1.7154511
12.812440779807702	2.9831347	1.7271754
12.830077807186271	3.165737	1.7792518
12.847715139777405	3.2097764	1.7915848
12.865352778014795	3.4105952	1.8467797
12.882990722332197	3.5508485	1.8843695
12.90062897316344	3.6165316	1.901718
12.918267530942412	3.6473572	1.9098055
12.935906396103071	3.5059981	1.872431
12.953545569079449	3.694637	1.9221438
12.971185050305628	3.5493252	1.8839653
12.988824840215775	3.5505984	1.8843032
13.006464939244115	3.5948586	1.8960112
13.024105347824943	3.441054	1.8550079
13.041746066392617	3.5099518	1.8734865
13.05938709538157	3.3018324	1.8170944
13.077028435226296	3.3285012	1.8244181
13.094670086361363	3.2601733	1.805595
13.112312049221401	3.1938865	1.7871448
13.129954324241112	3.097686	1.7600244
13.147596911855258	2.852719	1.6889994
13.165239812498685	2.777301	1.6665237
13.182883026606293	2.7499416	1.6582948
13.200526554613058	2.7715256	1.6647899
13.218170396954017	2.7626574	1.6621244
13.235814554064284	2.7548149	1.6597635
13.253459026379034	2.747166	1.6574577
13.271103814333523	2.73122	1.6526403
13.288748918363058	2.7038412	1.6443361
13.306394338903031	2.692812	1.6409789
13.32404007638889	2.6518545	1.6284516
13.341686131256164	2.6736794	1.635139
13.359332503940449	2.6233711	1.6196824
13.376979194877402	2.6469896	1.6269572
13.394626204502751	2.6651316	1.6325231
13.412273533252307	2.690929	1.640405
13.429921181561937	2.7037187	1.6442988
13.447569149867581	2.7420797	1.6559227
13.465217438605247	2.7429526	1.6561861
13.482866048211022	2.7016263	1.6436625
13.500514979121052	2.675604	1.6357274
13.518164231771568	2.6557565	1.6296492
13.535813806598844	2.65791	1.6303098
13.553463704039254	2.66297	1.631861
13.571113924529229	2.679771	1.6370006
13.588764468505275	2.709869	1.646168
13.606415336403956	2.7291865	1.652025
13.624066528661917	2.7572773	1.6605052
13.641718045715882	2.782568	1.6681031
13.659369888002635	2.859926	1.6911316
13.67702205595903	2.9361	1.7135051
13.694674550021993	2.9810705	1.7265776
13.712327370628532	3.0000243	1.7320578
13.729980518215713	3.0446258	1.7448856
13.747633993220681	3.1427772	1.7727879
13.765287796080647	3.2160876	1.7933453
13.7829419272329	3.258414	1.8051077
13.800596387114801	3.2693374	1.8081309
13.818251176163775	3.2616448	1.8060025
13.835906294817324	3.3018713	1.8171052
13.853561743513023	3.3270094	1.8240092
13.871217522688525	3.3935707	1.8421646
13.888873632781538	3.4653518	1.8615456
13.906530074229858	3.5021098	1.8713925
13.92418684747135	3.5197732	1.8761059
13.941843952943948	3.4857664	1.8670207
13.959501391085665	3.44006	1.8547399
13.977159162334578	3.388231	1.8407148
13.994817267128846	3.3401728	1.827614
14.012475705906693	3.2550776	1.8041834
14.030134479106424	3.159872	1.7776029
14.047793587166414	3.066132	1.7510375
14.065453030525108	3.0701187	1.7521755
14.083112809621026	3.0527546	1.7472134
14.100772924892766	2.9863646	1.7281101
14.118433376778997	2.9177542	1.7081435
14.136094165718458	2.851744	1.6887107
14.153755292149969	2.8119404	1.6768842
14.171416756512416	2.7637444	1.6624513
14.189078559244768	2.7227116	1.6500641
14.20674070078606	2.6443462	1.6261446
14.224403181575408	2.5454977	1.5954616
14.242066002051999	2.494345	1.5793495
14.259729162655093	2.4817617	1.5753608
14.277392663824022	2.4707263	1.5718544
14.295056505998208	2.4454153	1.5637823
14.312720689617128	2.4268231	1.5578264
14.330385215120348	2.4435108	1.5631733
14.348050082947497	2.4359636	1.5607574
14.3657152935383	2.3991227	1.5489101
14.383380847332528	2.403498	1.5503219
14.401046744770051	2.4250503	1.5572573
14.418712986290798	2.4503448	1.5653577
14.436379572334793	2.431686	1.5593864
14.454046503342123	2.3872619	1.5450766
14.471713779752946	2.346011	1.5316694
14.489381402007504	2.3642976	1.5376272
14.507049370546113	2.411043	1.5527533
14.524717685809168	2.3807971	1.5429832
14.542386348237134	2.337231	1.5288005
14.560055358270553	2.3098109	1.5198061
14.577724716350051	2.38448	1.5441761
14.595394422916325	2.4102242	1.5524896
14.61306447841015	2.4449337	1.5636283
14.63073488327237	2.4513736	1.5656863
14.648405637943917	2.528129	1.5900091
14.6660767428658	2.531038	1.5909237
14.683748198479094	2.5262935	1.5894318
14.701420005224954	2.52088	1.5877279
14.719092163544628	2.577129	1.6053438
14.73676467387942	2.5964744	1.6113579
14.754437536670727	2.581444	1.6066873
14.772110752360014	2.5559456	1.5987325
14.78978432138882	2.6010838	1.6127876
14.807458244198777	2.6632476	1.631946
14.82513252123159	2.6955402	1.64181
14.842807152929028	2.7099597	1.6461955
14.860482139732962	2.6693556	1.6338162
14.87815748208531	2.6344066	1.6230855
14.8958331804281	2.6234972	1.6197213
14.91350923520342	2.612456	1.6163094
14.931185646853438	2.701564	1.6436435
14.948862415820408	2.680099	1.6371008
14.966539542546656	2.6739604	1.6352249
14.98421702747459	2.6570888	1.6300579
15.001894871046696	2.6349523	1.6232536
15.019573073705542	2.6578455	1.63029
15.037251635893766	2.625595	1.6203688
15.054930558054092	2.6530914	1.6288313
15.072609840629323	2.6670673	1.6331158
15.090289484062351	2.7621727	1.6619786
15.107969488796124	2.8881013	1.6994414
15.125649855273691	3.075087	1.7535926
15.14333058393817	3.4502525	1.8574855
15.161011675232768	4.030054	2.0074995
15.17869312960076	4.721758	2.1729605
15.196374947485506	5.3454943	2.3120325
15.214057129330447	6.687115	2.5859456
15.231739675579114	8.824166	2.9705498
15.249422586675102	13.620895	3.6906497
15.267105863062092	18.241953	4.27106
15.284789505183847	25.677752	5.067322
15.302473513484218	30.7925	5.549099
15.320157888407127	35.04494	5.9198766
15.337842630396578	33.7051	5.805609
15.355527739896656	30.66551	5.537645
15.37321321735153	23.81856	4.8804264
15.39089906320545	16.153282	4.0191145
15.408585277902748	10.262084	3.2034488
15.42627186188783	6.3338013	2.5167046
15.443958815605198	4.555051	2.1342566
15.461646139499424	3.7727416	1.9423547
15.479333834015168	3.339343	1.827387
15.497021899597165	3.0866742	1.7568934
15.514710336690234	2.8580065	1.6905639
15.53239914573928	2.6761775	1.6359026
15.550088327189297	2.5916634	1.6098644
15.567777881485336	2.5544443	1.5982629
15.58546780907256	2.5293167	1.5903826
15.6031581103962	2.502418	1.5819033
15.620848785901568	2.5020168	1.5817765
15.638539836034063	2.5034497	1.5822294
15.656231261239173	2.5090227	1.5839895
15.673923061962451	2.4814136	1.5752504
15.691615238649552	2.493474	1.5790738
15.709307791746202	2.479479	1.5746362
15.727000721698221	2.4508083	1.5655057
15.744694028951498	2.4093738	1.5522158
15.76238771395202	2.3821325	1.5434159
15.780081777145844	2.4148102	1.5539659
15.797776218979125	2.410401	1.5525466
15.815471039898094	2.4254477	1.5573848
15.833166240349064	2.440664	1.5622625
15.850861820778437	2.4656293	1.5702323
15.868557781632699	2.4611921	1.5688187
15.886254123358412	2.4556308	1.5670452
15.903950846402232	2.475356	1.5733265
15.921647951210897	2.5292332	1.5903563
15.939345438231225	2.5709496	1.6034181
15.957043307910133	2.54221	1.5944309
15.974741560694602	2.4828928	1.5757197
15.992440197031714	2.4564974	1.5673218
16.01013921736862	2.509382	1.5841029
16.02783862215259	2.5216684	1.5879762
16.045538411830933	2.4995534	1.5809976
16.06323858685107	2.4575286	1.5676507
16.080939147660512	2.4395595	1.561909
16.09864009470684	2.453454	1.5663506
16.11634142843774	2.44932	1.5650303
16.134043149300954	2.3796577	1.542614
16.15174525774433	2.3795307	1.5425727
16.169447754215817	2.3986332	1.5487522
16.18715063916342	2.4196153	1.5555112
16.204853913035244	2.4055252	1.5509756
16.222557576279478	2.408736	1.5520103
16.240261629344403	22.434877	4.736547
16.257966072678386	42.998035	6.5572886
16.275670906729868	38.097404	6.1723094
16.293376131947387	2.5268552	1.5896086
16.31108174877957	2.5317233	1.591139
16.328787757675133	2.6188114	1.6182742
16.34649415908287	2.6316752	1.6222439
16.364200953451657	2.651596	1.6283722
16.38190814123048	2.6263657	1.6206065
16.39961572286839	2.6545749	1.6292866
16.41732369881455	2.6542664	1.6291919
16.43503206951817	2.6553178	1.6295146
16.45274083542859	2.6695628	1.6338797
16.47044999699522	2.7028356	1.6440303
16.488159554667558	2.7757642	1.6660625
16.505869508895184	2.865826	1.692875
16.523579860127786	2.9777455	1.7256145
16.541290608815117	3.019573	1.7376919
16.559001755407035	3.0632982	1.750228
16.57671330035348	3.145021	1.7734207
16.59442524410448	3.2689066	1.8080118
16.61213758711015	3.511368	1.8738644
16.629850329820705	3.6134233	1.9009007
16.647563472686436	3.65213	1.9110546
16.665277016157724	3.5392172	1.8812808
16.682990960685053	3.4894333	1.8680025
16.70070530671898	3.4161417	1.8482808
16.718420054710155	3.4537704	1.8584323
16.736135205109335	3.502095	1.8713886
16.753850758367335	3.5482357	1.883676
16.771566714935087	3.5716827	1.8898896
16.789283075263597	3.6450663	1.9092057
16.80699983980398	3.7594683	1.9389348
16.82471700900741	3.8694324	1.9670873
16.84243458332518	3.9322538	1.9829911
16.860152563208665	3.9740558	1.9935033
16.87787094910932	4.015094	2.0037699
16.89558974147871	4.054142	2.01349
16.913308940768466	4.121468	2.03014
16.931028547430333	4.15452	2.038264
16.94874856191613	4.2440314	2.0601046
16.966468984677785	4.352073	2.0861623
16.98418981616729	4.404836	2.0987701
17.00191105683676	4.4397006	2.1070597
17.019632707138374	4.4410563	2.1073813
17.03735476752442	4.480705	2.1167676
17.05507723844728	4.4793963	2.1164584
17.072800120359403	4.5013933	2.1216488
17.090523413713353	4.513564	2.124515
17.108247118961785	4.5886054	2.142103
17.125971236557437	4.6430917	2.1547835
17.143695766953133	4.6946673	2.166718
17.161420710601806	4.6849074	2.1644647
17.179146067956477	4.7074018	2.1696548
17.19687183947025	4.6954618	2.1669014
17.21459802559634	4.6835985	2.1641624
17.232324626788028	4.6958346	2.1669874
17.25005164349871	4.6789265	2.1630826
17.267779076181863	4.6561804	2.1578183
17.285506925291074	4.5699487	2.1377437
17.30323519127999	4.567246	2.1371117
17.320963874602384	4.587081	2.1417472
17.33869297571211	4.571637	2.1381388
17.356422495063114	4.56651	2.1369395
17.37415243310944	4.526576	2.1275752
17.391882790305218	4.4775014	2.1160107
17.40961356710468	4.474156	2.11522
17.42734476396215	4.5531754	2.1338172
17.445076381332044	4.607201	2.146439
17.462808419668868	4.6269474	2.151034
17.48054087942723	4.646003	2.155459
17.498273761061835	4.7303143	2.1749287
17.51600706502747	5.0628204	2.2500713
17.533740791779024	5.671243	2.3814373
17.551474941771485	6.660344	2.5807643
17.56920951545993	8.643208	2.9399333
17.586944513299528	9.95545	3.1552258
17.60467993574556	12.858643	3.585895
17.622415783253373	15.534057	3.9413269
17.64015205627843	18.424541	4.292382
17.657888755276293	20.982174	4.5806303
17.675625880702604	22.646292	4.758812
17.69336343301311	21.177763	4.60193
17.71110141266366	18.93989	4.3519983
17.728839820110178	16.007507	4.0009384
17.746578655808705	12.638316	3.5550408
17.764317920215372	10.458756	3.234
17.7820576137864	8.798604	2.966244
17.79979773697811	7.429491	2.7257092
17.81753829024692	6.0692344	2.4635816
17.835279274049356	5.2168713	2.2840471
17.85302068884201	4.421692	2.102782
17.870762535081607	4.088453	2.0219922
17.888504813224934	3.9469326	1.9866889
17.90624752372891	3.8120737	1.9524533
17.923990667050536	3.6617217	1.9135625
17.941734243646895	3.5280254	1.8783039
17.959478253975185	3.4946883	1.8694085
17.9772226984927	3.4365962	1.8538059
17.994967577656833	3.3566494	1.8321161
18.01271289192506	3.341434	1.827959
18.030458641754965	3.3899364	1.841178
18.04820482760425	3.3831058	1.8393221
18.06595144993067	3.3292546	1.8246245
18.083698509192125	3.3235395	1.8230578
18.101446005846576	3.3033245	1.817505
18.119193940352105	3.2343755	1.798437
18.136942313166887	3.161926	1.7781805
18.1546911247492	3.1651285	1.7790807
18.1724403755574	3.157427	1.7769151
18.19019006604997	3.1396003	1.7718917
18.207940196685467	3.116461	1.7653501
18.225690767922575	3.0859854	1.7566973
18.243441780220046	3.0822067	1.7556214
18.261193234036764	3.0839598	1.7561207
18.278945129831676	3.1070545	1.7626839
18.29669746806386	3.1032083	1.7615925
18.314450249192483	3.0732818	1.7530777
18.3322034736768	3.0748484	1.7535245
18.349957141976184	3.048893	1.7461079
18.3677112545501	3.0297675	1.7406228
18.385465811858108	3.0245767	1.739131
18.403220814359884	3.0158267	1.7366136
18.420976262515172	3.0810983	1.7553058
18.43873215678387	3.1458766	1.773662
18.456488497625923	3.1912994	1.7864208
18.474245285501407	3.2586896	1.8051841
18.492002520870486	3.287798	1.8132286
18.50976020419343	3.3679588	1.8352
18.527518335930615	3.6600535	1.9131266
18.545276916542516	4.248431	2.0611722
18.563035946489688	4.380833	2.093044
18.580795426232832	4.810507	2.1932867
18.598555356232698	4.67836	2.1629517
18.616315736950185	4.936485	2.22182
18.63407656884626	4.618384	2.1490426
18.65183785238201	4.8018403	2.1913102
18.669599588018617	4.611281	2.1473894
18.68736177621737	4.589445	2.142299
18.705124417439652	4.6406946	2.1542273
18.72288751214696	4.4557962	2.1108756
18.740651060800886	4.569545	2.1376493
18.758415063863115	4.29742	2.073022
18.77617952179546	4.476792	2.115843
18.793944435059814	4.243847	2.06006
18.811709804118184	4.224242	2.0552962
18.829475629432675	4.11094	2.0275452
18.8472419114655	3.868087	1.9667453
18.86500865067897	3.9656045	1.9913826
18.88277584753551	3.729368	1.9311571
18.90054350249763	3.7784674	1.943828
18.918311616027957	3.4745154	1.8640052
18.936080188589226	3.3526402	1.8310217
18.953849220644265	3.0206163	1.737992
18.971618712656007	2.8834963	1.698086
18.9893886650875	2.8744195	1.6954113
19.007159078401887	8.094344	2.845056
19.024929953062408	32.951973	5.740381
19.042701289532435	32.86729	5.7330003
19.060473088275405	25.377794	5.0376377
19.07824534975489	2.6079051	1.614901
19.096018074434568	2.6090677	1.6152608
19.113791262778197	2.6080267	1.6149386
19.13156491524966	2.62827	1.621194
19.149339032312945	2.6089709	1.6152309
19.167113614432136	2.6229255	1.6195449
19.184888662071433	2.5741255	1.6044081
19.202664175695123	2.5771842	1.6053611
19.220440155767623	2.5274158	1.5897849
19.238216602753447	2.4845455	1.5762441
19.2559935171172	2.457935	1.5677803
19.27377089932361	2.4618752	1.5690364
19.291548749837514	2.5128582	1.5851997
19.309327069123835	2.5562613	1.5988312
19.32710585764763	2.5358372	1.5924312
19.344885115874032	2.4880908	1.5773683
19.362664844268313	2.4985857	1.5806916
19.380445043295822	2.5172951	1.5865986
19.39822571342203	2.5168893	1.5864707
19.41600685511252	2.487955	1.5773253
19.43378846883297	2.4995117	1.5809845
19.451570555049173	2.5142756	1.5856467
19.469353114227037	2.5257869	1.5892724
19.48713614683254	2.5288506	1.590236
19.50491965333182	2.4989302	1.5808005
19.52270363419109	2.4993663	1.5809385
19.540488089876686	2.468352	1.571099
19.55827302085503	2.4758844	1.5734943
19.576058427592674	2.4814417	1.5752592
19.593844310556282	2.5229018	1.5883645
19.611630670212598	2.522325	1.5881829
19.629417507028506	2.5369594	1.5927836
19.64720482147098	2.516026	1.5861986
19.6649926140071	2.5320485	1.5912411
19.682780885104084	2.4879768	1.5773321
19.70056963522921	2.4692316	1.5713788
19.718358864849908	2.4777892	1.5740994
19.7361485744337	2.5396154	1.5936171
19.753938764448215	2.5362463	1.5925597
19.771729435361202	2.5444853	1.5951443
19.789520587640506	2.5326667	1.5914354
19.807312221754092	2.5202944	1.5875435
19.825104338170043	2.5255218	1.589189
19.842896937356517	2.5534155	1.597941
19.860690019781824	2.5835078	1.6073294
19.87848358591436	2.5566308	1.5989468
19.896277636222635	2.5215843	1.5879498
19.914072171175278	2.4856818	1.5766045
19.931867191241015	2.4797175	1.5747119
19.94966269688869	2.4883153	1.5774395
19.967458688587264	2.4355638	1.5606292
19.985255166805807	2.4535544	1.5663825
20.00305213201348	2.4294147	1.558658
20.020849584679578	2.4115458	1.5529152
20.038647525273507	2.4207294	1.5558693
20.05644595426477	2.4647272	1.569945
20.07424487212299	2.4366198	1.5609676
20.092044279317903	2.4091382	1.5521399
20.109844176319353	2.4254906	1.5573987
20.127644563597304	2.4702103	1.5716903
20.145445441621817	2.4538867	1.5664886
20.16324681086307	2.4099464	1.5524002
20.181048671791373	2.4005086	1.5493575
20.198851024877122	2.3971553	1.548275
20.216653870590836	2.3958452	1.5478518
20.234457209403146	2.3810227	1.5430562
20.252261041784802	2.3934546	1.5470793
20.270065368206662	2.4014108	1.5496486
20.287870189139685	2.4064298	1.5512671
20.305675505054968	2.3719296	1.540107
20.323481316423702	2.3815992	1.543243
20.341287623717207	2.3751323	1.5411464
20.359094427406884	2.3989518	1.548855
20.376901727964288	2.4026122	1.5500362
20.39470952586107	2.3901458	1.5460097
20.41251782156899	2.3743074	1.5408788
20.430326615559935	2.3607635	1.5364777
20.448135908305886	2.3410697	1.5300554
20.465945700278965	2.3530147	1.5339539
20.483755991951384	2.3935945	1.5471246
20.50156678379548	2.3638704	1.5374883
20.519378076283708	2.3152559	1.5215964
20.537189869888635	2.30675	1.5187988
20.55500216508294	2.3703334	1.5395887
20.572814962339415	2.376272	1.5415161
20.59062826213098	2.3659964	1.5381795
20.60844206493066	2.3221908	1.5238736
20.626256371211593	2.3197525	1.5230733
20.644071181447032	2.3112342	1.5202744
20.66188649611036	2.3185384	1.5226748
20.67970231567506	2.315917	1.5218138
20.697518640614742	2.3344011	1.5278747
20.715335471403122	2.329623	1.5263102
20.73315280851404	2.324294	1.5245636
20.750970652421447	2.2951005	1.5149589
20.768789003599412	2.282756	1.5108793
20.786607862522136	2.2731738	1.5077049
20.8044272296639	2.2768745	1.5089316
20.82224710549913	2.2719648	1.5073038
20.84006749050237	2.3040276	1.5179024
20.857888385148268	3.8683646	1.9668158
20.8757097899116	45.976963	6.7806315
20.893531705267254	64.81193	8.050586
20.911354131690224	83.81812	9.155224
20.92917706965566	69.0563	8.310012
20.94700051963877	50.097794	7.0779796
20.96482448211493	29.405638	5.4226966
20.982648957559622	4.1817603	2.0449352
21.00047394644843	2.2664602	1.5054767
21.01829944925707	2.1905262	1.4800427
21.036125466461375	2.169036	1.4727647
21.053951998537297	2.1900609	1.4798855
21.071779045960906	2.2094724	1.4864295
21.089606609208378	2.2063527	1.4853797
21.10743468875603	2.1899264	1.47984
21.12526328508028	2.2039907	1.4845843
21.143092398657675	2.2064502	1.4854125
21.16092202996488	2.1750848	1.4748169
21.17875217947867	2.2004528	1.4833924
21.19658284767596	2.2063525	1.4853796
21.21441403503377	2.2314007	1.4937874
21.232245742029225	2.2003517	1.4833583
21.2500779691396	2.1702704	1.4731838
21.26791071684227	2.1503086	1.4663931
21.28574398561475	2.1543922	1.4677848
21.30357777593465	2.1663938	1.4718674
21.321412088279704	2.186536	1.4786941
21.339246923127792	2.1522532	1.4670559
21.357082280956888	2.1311774	1.4598553
21.3749181622451	2.0886664	1.4452219
21.392754567470647	2.0675023	1.4378811
21.41059149711187	2.0924215	1.4465204
21.42842895164726	2.1115856	1.4531296
21.446266931555378	2.1195626	1.4558718
21.464105437314945	2.1352644	1.4612544
21.481944469404798	2.148485	1.4657711
21.49978402830388	2.124447	1.4575484
21.51762411449127	2.1150436	1.454319
21.53546472844617	2.1357315	1.4614142
21.553305870647876	2.137574	1.4620445
21.571147541575865	2.1010642	1.4495049
21.58898974170967	2.0744948	1.4403107
21.60683247152899	2.043809	1.4296185
21.62467573151363	2.0383458	1.4277065
21.642519522143523	2.031157	1.4251866
21.660363843898722	2.0278037	1.4240097
21.6782086972594	1.9936098	1.4119525
21.696054082705864	1.9972434	1.4132386
21.713900000718535	2.0196016	1.4211268
21.73174645177795	2.0350697	1.4265587
21.749593436364794	2.0330882	1.425864
21.767440954959845	2.046299	1.4304891
21.785289008044032	2.0328932	1.4257957
21.803137596098388	2.0236301	1.4225435
21.820986719604086	2.0112603	1.418189
21.838836379042412	1.9804171	1.4072729
21.85668657489478	1.9650782	1.4018124
21.87453730764273	1.9526601	1.3973762
21.892388577767914	1.9584799	1.399457
21.91024038575213	1.9447807	1.3945539
21.928092732077285	1.9370908	1.3917941
21.945945617225426	1.9481018	1.3957442
21.963799041678694	1.9758496	1.4056492
21.981653005919398	31.287827	5.593552
21.999507510429943	78.05331	8.834778
22.01736255569286	72.98615	8.543194
22.035218142190818	4.0943556	2.0234513
22.05307427040661	1.9245886	1.3872954
22.07093094082315	1.950165	1.3964831
22.088788153923474	1.9830189	1.408197
22.106645910190746	1.989037	1.4103322
22.12450421010827	1.9795078	1.4069499
22.142363054159464	1.9800106	1.4071285
22.16022244282787	1.9764674	1.4058689
22.178082376597164	1.9560193	1.3985776
22.195942855951145	1.9397742	1.3927578
22.213803881373742	1.928693	1.3887739
22.231665453349002	1.942277	1.393656
22.24952757236111	1.9355236	1.391231
22.26739023889438	1.961656	1.4005913
22.28525345343323	2.0020804	1.4149489
22.30311721646225	2.0333097	1.4259417
22.320981528466113	2.012959	1.4187878
22.33884638992964	1.9801859	1.4071908
22.356711801337788	1.9434437	1.3940744
22.37457776317561	1.9386	1.3923361
22.392444275928337	1.9366977	1.3916528
22.410311340081282	1.9405934	1.3930519
22.428178956119904	1.9526343	1.3973669
22.446047124529805	1.9428078	1.3938464
22.46391584579669	1.9339837	1.3906775
22.481785120406414	1.8972595	1.3774104
22.49965494884496	1.8931376	1.3759134
22.51752533159841	1.9201796	1.3857055
22.53539626915302	1.9487687	1.3959831
22.553267761995137	1.9422289	1.3936387
22.571139810611264	1.9149473	1.3838162
22.589012415488025	1.9013152	1.3788818
22.60688557711216	1.9266299	1.3880309
22.624759295970566	1.9482177	1.3957857
22.642633572550263	1.9900837	1.4107033
22.660508407338362	1.9794811	1.4069403
22.67838380082217	1.9855789	1.4091057
22.696259753489077	2.0091968	1.4174614
22.714136265826614	1.9846612	1.4087801
22.73201333832246	1.9789699	1.4067587
22.74989097146439	1.9431452	1.3939674
22.76776916574035	1.9043639	1.3799869
22.785647921638393	1.9041078	1.3798941
22.803527239646712	1.92477	1.3873608
22.82140712025363	1.945534	1.394824
22.839287563947593	1.9793876	1.4069071
22.85716857121719	1.9923105	1.4114923
22.875050142551135	1.970257	1.4036585
22.892932278438277	1.9377207	1.3920203
22.910814979367604	1.9443669	1.3944056
22.928698245828222	1.9361075	1.3914407
22.946582078309387	1.9147907	1.3837596
22.96446647730047	1.9216428	1.3862333
22.98235144329098	1.9261894	1.3878722
23.000236976770562	1.9206142	1.3858622
23.018123078229	1.9360166	1.3914081
23.03600974815619	1.9194945	1.3854582
23.053896987042194	1.8880423	1.3740605
23.071784795377173	1.9041133	1.3798962
23.08967317365145	1.9285471	1.3887213
23.10756212235546	1.934722	1.3909428
23.125451641979787	1.9189893	1.3852758
23.143341733015134	1.9342527	1.3907741
23.161232395952357	1.9359086	1.3913693
23.179123631282426	1.905148	1.380271
23.197015439496468	1.909894	1.3819891
23.214907821085717	1.9511657	1.3968413
23.23280077654157	1.9676687	1.4027362
23.250694306355538	1.9438232	1.3942106
23.268588411019277	1.9188143	1.3852128
23.28648309102458	1.9142038	1.3835475
23.304378346863356	1.9426898	1.3938041
23.322274179027676	1.97683	1.4059979
23.340170588009723	1.9654384	1.401941
23.358067574301852	1.9372803	1.3918622
23.37596513839651	1.9172071	1.3846325
23.39386328078629	1.9367719	1.3916795
23.411762001963947	1.9516516	1.3970152
23.429661302422353	1.9554907	1.3983886
23.4475611826545	1.9230478	1.38674
23.46546164315356	1.9140079	1.3834767
23.48336268441279	1.9491031	1.3961028
23.501264306925638	1.9596123	1.3998615
23.51916651118564	1.9448103	1.3945645
23.537069297686497	1.9355812	1.3912517
23.554972666922037	1.9877423	1.4098731
23.57287661938623	1.9880804	1.409993
23.59078115557318	1.9574233	1.3990794
23.608686275977128	1.8883152	1.3741598
23.62659198109246	1.8729826	1.3685696
23.6444982714137	1.8860127	1.3733218
23.66240514743549	1.9084694	1.3814737
23.68031260965263	1.9323252	1.390081
23.698220658560068	1.9466923	1.3952391
23.716129294652845	1.9314387	1.389762
23.7340385184262	1.9249551	1.3874276
23.75194833037546	1.9445567	1.3944737
23.769858730996123	1.9246149	1.3873049
23.78776972078382	1.8940434	1.3762425
23.80568130023431	1.9323002	1.390072
23.823593469843495	1.949889	1.3963842
23.841506230107424	1.9339802	1.3906761
23.859419581522275	1.9034934	1.3796715
23.87733352458438	1.8778418	1.3703437
23.89524805979019	1.8583721	1.3632212
23.913163187636318	1.8725623	1.368416
23.931078908619508	1.894954	1.3765733
23.948995223236633	1.9513451	1.3969055
23.966912131984735	1.9853485	1.4090239
23.98482963536096	2.0318625	1.4254341
24.002747733862616	2.0440023	1.4296861
24.020666427987155	2.0727978	1.4397215
24.038585718232156	2.064738	1.4369197
24.056505605095353	2.0242698	1.4227684
24.074426089074617	2.0495853	1.4316373
24.092347170667946	2.0639307	1.4366387
24.110268850373515	2.0615594	1.4358132
24.128191128689586	2.0656505	1.4372371
24.146114006114626	2.0888982	1.4453021
24.164037483147187	2.101019	1.4494892
24.181961560286005	2.073289	1.4398919
24.199886238029926	2.0800068	1.4422228
24.21781151687797	2.0774934	1.4413513
24.235737397329274	2.067378	1.437838
24.253663879883135	2.0033157	1.4153854
24.271590965038975	1.9888679	1.4102722
24.289518653296376	1.9914289	1.4111799
24.30744694515505	2.0128722	1.4187573
24.32537584111486	2.0197337	1.4211733
24.34330534167581	1.9985788	1.413711
24.361235447338046	1.9921358	1.4114304
24.379166158601876	1.9846928	1.4087913
24.39709747596772	2.0335212	1.4260159
24.41502939993615	2.042119	1.4290273
24.432961931007917	2.0170975	1.4202455
24.450895069683856	2.0197768	1.4211885
24.468828816465	2.002987	1.4152693
24.4867631718525	2.005208	1.4160537
24.504698136347656	1.9922829	1.4114825
24.52263371045192	1.9636741	1.4013115
24.540569894666874	1.9749504	1.4053293
24.558506689494266	2.0016048	1.4147809
24.57644409543597	1.9856179	1.4091195
24.594382112994012	1.9786823	1.4066564
24.61232074267057	1.9910877	1.411059
24.630259984967953	1.9589894	1.399639
24.64819984038863	1.9675494	1.4026936
24.66614030943522	1.966213	1.4022171
24.684081392610462	1.9823453	1.4079579
24.702023090417274	1.9743953	1.4051318
24.7199654033587	1.9732033	1.4047076
24.737908331937927	1.9935496	1.4119312
24.755851876658305	2.0044696	1.415793
24.773796038023324	2.0115843	1.4183034
24.79174081653661	2.0651734	1.4370711
24.809686212701962	2.1205623	1.456215
24.827632227023294	2.1585362	1.4691957
24.8455788600047	2.1958485	1.4818395
24.8635261121504	2.1917338	1.4804505
24.88147398396475	2.1815186	1.4769964
24.899422475952303	2.1515973	1.4668324
24.917371588617698	2.1155863	1.4545056
24.935321322465768	2.1144032	1.4540988
24.953271678001478	2.2490282	1.499676
24.97122265572994	2.4290695	1.5585473
24.989174256156414	2.7704322	1.6644615
25.00712647978632	3.3600547	1.8330452
25.02507932712521	4.3664804	2.0896125
25.043032798678798	5.9578953	2.44088
25.060986894952933	7.653493	2.7664948
25.078941616453637	9.204821	3.0339448
25.096896963687055	10.134923	3.1835394
25.114852937159508	10.844132	3.2930431
25.132809537377444	10.636904	3.2614267
25.150766764847468	9.8853445	3.1440969
25.168724620076347	8.482192	2.9124203
25.186683103570985	7.2579613	2.6940603
25.204642215838426	5.9146347	2.4320023
25.222601957385894	4.7152023	2.1714516
25.24056232872074	3.586434	1.8937882
25.25852333035048	2.8754563	1.6957171
25.276484962782778	2.4515564	1.5657446
25.294447226525435	2.1731088	1.4741468
25.312410122086423	2.0341954	1.4262522
25.330373649973843	1.9786459	1.4066435
25.348337810695988	1.9788215	1.4067059
25.366302604761245	1.979004	1.4067708
25.384268032678207	1.9628396	1.4010137
25.40223409495558	1.8844291	1.372745
25.420200792102257	1.8619998	1.3645511
25.438168124627246	1.8971516	1.3773713
25.45613609303974	1.8879246	1.3740177
25.474104697849057	1.8776098	1.370259
25.492073939564698	1.9053432	1.3803416
25.510043818696285	1.9311643	1.3896633
25.528014335753614	1.9391118	1.39252
25.54598549124664	1.870067	1.3675039
25.56395728568544	1.8611825	1.3642516
25.58192971958028	1.8699948	1.3674775
25.59990279344156	1.8824241	1.3720146
25.617876507779833	1.9249336	1.3874197
25.635850863105826	1.9149015	1.3837997
25.653825859930386	1.8875142	1.3738683
25.671801498764548	1.8710529	1.3678644
25.68977778011949	1.9039541	1.3798385
25.707754704506524	1.9414923	1.3933744
25.725732272437153	1.9380893	1.3921528
25.743710484423012	1.886303	1.3734274
25.761689340975888	1.8838707	1.3725417
25.77966884260774	1.8806256	1.371359
25.797648989830662	1.8927748	1.3757815
25.815629783156922	1.8994012	1.3781877
25.83361122309895	1.8696826	1.3673633
25.85159331016929	1.82341	1.350337
25.869576044880695	1.8614737	1.3643583
25.887559427746034	1.8641903	1.3653536
25.90554345927836	1.8574072	1.3628672
25.92352813999086	1.8299587	1.3527596
25.94151347039689	1.8508646	1.3604648
25.959499451009965	1.8681887	1.366817
25.97748608234374	1.8755324	1.3695008
25.995473364912062	1.8871418	1.3737328
26.013461299228904	1.8841655	1.3726491
26.03144988580839	1.8995237	1.3782321
26.04943912516483	1.885739	1.3732221
26.067429017812675	1.8490394	1.3597939
26.085419564266537	1.8287938	1.352329
26.103410765041186	1.8892534	1.3745011
26.12140262065155	1.9190031	1.3852808
26.139395131612723	1.856297	1.3624599
26.157388298439948	1.7766519	1.332911
26.17538212164861	1.8018574	1.3423328
26.193376601754295	1.830786	1.3530654
26.211371739272714	1.8382602	1.3558246
26.229367534719746	1.8473707	1.3591802
26.247363988611433	1.8076456	1.3444871
26.26536110146397	1.8071094	1.3442876
26.283358873793727	1.8347396	1.3545256
26.301357306117204	1.859359	1.3635832
26.319356398951104	1.831026	1.3531541
26.33735615281224	1.7946744	1.3396546
26.35535656821762	1.7841053	1.3357041
26.373357645684404	1.7958581	1.3400964
26.39135938572991	1.8196251	1.3489348
26.409361788871614	1.8396026	1.3563195
26.427364855627165	1.8546952	1.361872
26.445368586514352	1.8601105	1.3638587
26.46337298205115	1.8647028	1.3655412
26.48137804275568	1.8289565	1.3523892
26.499383769146217	1.8340092	1.3542559
26.517390161741215	1.8209876	1.3494397
26.53539722105928	1.8258567	1.3512427
26.553404947619182	1.8166623	1.3478361
26.571413341939856	1.804272	1.3432319
26.589422404540397	1.7896593	1.3377814
26.60743213594006	1.7928572	1.3389761
26.62544253665827	1.7831453	1.3353447
26.64345360721459	1.77482	1.3322237
26.66146534812879	1.7974042	1.340673
26.679477759920758	1.7854713	1.3362153
26.69749084311057	1.8057503	1.3437821
26.71550459821847	1.8251995	1.3509995
26.733519025764842	1.8519223	1.3608536
26.751534126270258	1.8347878	1.3545434
26.769549900255434	1.8223677	1.349951
26.787566348241267	1.8453947	1.358453
26.80558347074881	1.8445752	1.3581514
26.823601268299267	1.8113451	1.3458623
26.841619741414036	1.8025209	1.34258
26.85963889061465	1.8596729	1.3636982
26.877658716422832	1.8772502	1.3701278
26.89567921936045	1.8394206	1.3562524
26.913700399949544	1.8174385	1.348124
26.93172225871233	1.8198646	1.3490236
26.949744796171174	1.847048	1.3590615
26.967768012848605	1.8283552	1.3521669
26.98579190926733	1.8083242	1.3447394
27.003816485950225	1.829735	1.352677
27.021841743420318	1.8247496	1.3508329
27.039867682200814	1.8074869	1.3444281
27.057894302815072	1.8678486	1.3666925
27.07592160578664	1.8752711	1.3694054
27.0939495916392	1.8725241	1.368402
27.111978260896635	1.9153535	1.383963
27.13000761408296	1.9355171	1.3912287
27.148037651722397	1.8830822	1.3722544
27.166068374339304	1.8203144	1.3491902
27.184099782458215	1.8263764	1.351435
27.20213187660384	1.8424395	1.3573649
27.22016465730105	1.8662641	1.3661128
27.23819812507487	1.8833653	1.3723576
27.256232280450533	1.8601996	1.3638914
27.274267123953383	1.8216594	1.3496886
27.292302656108987	1.7815136	1.3347335
27.31033887744306	1.7318051	1.3159807
27.32837578848146	1.7383895	1.31848
27.34641338975026	1.8047411	1.3434066
27.364451681775673	1.8574817	1.3628947
27.382490665084074	1.8489395	1.3597572
27.400530340202046	1.8472077	1.3591201
27.41857070765629	1.8106104	1.3455893
27.436611767973726	1.7591907	1.3263448
27.454653521681404	1.7852918	1.3361481
27.472695969306564	1.8598087	1.3637481
27.490739111376627	1.8397934	1.3563899
27.508782948419153	1.7949624	1.3397621
27.526827480961902	1.7953539	1.3399081
27.54487270953279	1.816183	1.3476583
27.562918634659898	1.7863564	1.3365464
27.580965256871508	1.7598532	1.3265946
27.599012576696026	1.7889022	1.3374984
27.617060594662068	1.8441286	1.3579869
27.63510931129842	1.9401026	1.3928757
27.65315872713401	1.911015	1.3823947
27.67120884269797	1.8217682	1.349729
27.68925965851958	1.8206136	1.3493012
27.707311175128307	1.9165407	1.3843918
27.725363393053787	1.9090178	1.3816721
27.74341631282583	1.855797	1.3622764
27.7614699349744	1.8126688	1.3463539
27.77952426002968	2.0552526	1.4336152
27.797579288521973	2.2355666	1.4951811
27.815635020981784	2.705702	1.6449019
27.83369145793979	2.7430754	1.6562232
27.85174859992682	2.5356133	1.592361
27.869806447473923	2.3717089	1.5400354
27.887865001112267	2.1310205	1.4598016
27.905924261373233	1.9987872	1.4137847
27.92398422878836	2.0061831	1.4163979
27.94204490388936	1.9394317	1.3926347
27.96010628720813	1.9350752	1.3910698
27.978168379276728	1.8902723	1.3748717
27.9962311806274	1.9140766	1.3835015
28.014294691792568	1.902639	1.3793619
28.0323589133048	1.8786682	1.3706452
28.050423845696887	1.8477728	1.359328
28.068489489501758	1.869603	1.3673342
28.086555845252523	1.8799279	1.3711046
28.104622913482487	1.873705	1.3688334
28.122690694725115	1.837243	1.3554493
28.14075918951405	1.835654	1.354863
28.15882839838312	1.8232032	1.3502604
28.176898321866304	1.8156775	1.3474708
28.1949689604978	1.8521866	1.3609506
28.213040314811945	1.9210731	1.3860278
28.23111238534327	1.9418477	1.393502
28.249185172626493	1.9075073	1.3811253
28.267258677196473	1.8987331	1.3779453
28.285332899588294	1.8878614	1.3739947
28.303407840337172	1.9138906	1.3834343
28.321483499978545	1.9381475	1.3921736
28.33955987904799	1.9745026	1.40517
28.357636978081285	1.9765203	1.4058877
28.37571479761439	1.9615932	1.4005688
28.393793338183425	1.9587581	1.3995564
28.41187260032469	2.0123317	1.4185668
28.429952584574686	2.0527883	1.4327555
28.448033291470065	2.0174603	1.4203733
28.46611472154769	2.0015862	1.4147743
28.484196875344566	2.0232863	1.4224226
28.502279753397914	2.0344176	1.4263301
28.52036335624511	2.0136263	1.419023
28.538447684423716	2.0037794	1.4155492
28.556532738471482	2.0241654	1.4227316
28.574618518926325	2.064362	1.4367888
28.59270502632635	2.0724788	1.4396106
28.61079226120985	2.0683546	1.4381776
28.628880224115274	2.016404	1.4200014
28.646968915581287	1.9993162	1.4139718
28.66505833614671	2.0457072	1.4302822
28.68314848635055	2.0749896	1.4404824
28.701239366732004	2.062899	1.4362797
28.71933097783044	2.0571454	1.4342752
28.737423320185403	2.0992186	1.448868
28.75551639433665	2.1250954	1.4577707
28.773610200824074	2.1703024	1.4731946
28.791704740187793	2.1718402	1.4737165
28.80980001296809	2.1419446	1.4635384
28.827896019705413	2.0710857	1.4391267
28.845992760940433	2.1074615	1.4517099
28.86409023721397	2.1852562	1.4782612
28.88218844906704	2.2574139	1.5024693
28.900287397040845	2.2594848	1.5031582
28.918387081676755	2.2297442	1.4932328
28.936487503516343	2.2129483	1.4875982
28.954588663101365	2.2557793	1.5019252
28.97269056097374	2.2820635	1.51065
28.990793197675597	2.2881894	1.5126762
29.00889657374923	2.303093	1.5175945
29.027000689737125	2.3096647	1.5197581
29.04510554618196	2.3597453	1.5361463
29.06321114362659	2.3805017	1.5428874
29.08131748261405	2.4206629	1.555848
29.099424563687567	2.460397	1.5685652
29.11753238739057	2.4944649	1.5793875
29.13564095426663	2.4951265	1.579597
29.15375026485954	2.5195446	1.5873073
29.171860319713275	2.5818388	1.6068101
29.18997111937199	2.6655824	1.6326611
29.20808266438002	2.7530098	1.6592196
29.226194955281898	2.8125536	1.6770669
29.244307992622335	2.8560019	1.689971
29.26242177694624	2.899325	1.7027404
29.2805363087987	2.899026	1.7026526
29.29865158872498	2.8901203	1.7000353
29.316767617270557	2.920736	1.7090161
29.334884394981064	2.9110987	1.7061942
29.353001922402367	2.9063969	1.7048157
29.37112020008047	3.009602	1.7348205
29.389239228561596	3.163043	1.7784946
29.407359008392152	3.3196597	1.8219934
29.42547954011872	3.5706577	1.8896184
29.44360082428809	4.052412	2.0130603
29.46172286144722	4.9627376	2.2277203
29.479845652143283	6.661236	2.580937
29.497969196923606	9.402922	3.0664184
29.516093496335728	13.177315	3.630057
29.5342185509274	16.730366	4.090277
29.55234436124651	19.990467	4.47107
29.570470927841175	21.433428	4.629625
29.588598251259686	21.250341	4.6098094
29.60672633205055	19.56605	4.4233527
29.624855170762405	16.472567	4.058641
29.642984767944146	12.863951	3.586635
29.66111512414481	9.497641	3.0818243
29.67924623991366	7.015907	2.6487558
29.697378115800138	5.1812615	2.2762384
29.71551075235387	4.2802973	2.068888
29.733644150124675	3.8474212	1.9614844
29.751778309662576	3.6324897	1.9059092
29.769913231517766	3.4739025	1.8638408
29.78804891624066	3.3465753	1.8293647
29.806185364381818	3.3378475	1.8269777
29.82432257649206	3.355727	1.8318644
29.842460553122333	3.378321	1.8380209
29.86059929482382	3.3665488	1.8348157
29.878738802147872	3.3347232	1.8261224
29.896879075646048	3.2901697	1.8138825
29.915020115870114	3.2354667	1.7987403
29.933161923371976	3.202537	1.7895634
29.951304498703777	3.2259533	1.796094
29.969447842417857	3.230812	1.797446
29.987591955066733	3.2587178	1.8051919
30.005736837203123	3.2612097	1.805882
30.023882489379943	3.1915617	1.7864943
30.04202891215028	3.1529114	1.775644
30.060176106067455	3.2586026	1.80516
30.078324071684946	3.2474368	1.8020645
30.09647280955646	3.1394536	1.7718503
30.114622320235863	3.1104672	1.7636516
30.132772604277257	3.2109647	1.7919165
30.1509236622349	3.2265246	1.796253
30.16907549466328	3.2385397	1.7995943
30.18722810211705	3.2209852	1.7947103
30.205381485151097	3.1689181	1.7801455
30.22353564432045	3.0735173	1.753145
30.241690580180403	3.0643425	1.7505263
30.25984629328638	3.072322	1.752804
30.278002784194037	2.9627934	1.7212766
30.296160053459246	2.8956366	1.701657
30.314318101638033	2.8845108	1.6983848
30.332476929286646	2.9404902	1.7147858
30.35063653696153	2.972684	1.7241473
30.368796925219307	2.939156	1.7143967
30.386958094616844	2.9212682	1.7091718
30.40512004571115	2.9348347	1.713136
30.423282779059463	2.8854334	1.6986563
30.441446295219233	2.886848	1.6990727
30.459610594748067	2.8527937	1.6890215
30.47777567820382	2.8351865	1.6838012
30.495941546144504	2.8688912	1.6937802
30.51410819912835	2.8604822	1.691296
30.532275637713795	2.8121064	1.6769336
30.55044386245946	2.8456357	1.6869012
30.56861287392416	2.8622522	1.6918192
30.586782672666956	2.8114517	1.6767384
30.604953259247047	2.8128188	1.6771461
30.623124634223885	2.8386433	1.6848273
30.641296798157075	2.8144968	1.6776462
30.659469751606462	2.8642774	1.6924176
30.677643495132074	2.8989673	1.7026354
30.695818029294152	2.865713	1.6928416
30.713993354653116	2.822264	1.6799595
30.73216947176962	2.7652175	1.6628944
30.75034638120448	2.7308676	1.6525337
30.768524083518756	2.7650788	1.6628526
30.786702579273673	2.8912714	1.7003739
30.80488186903069	3.0271692	1.7398762
30.82306195335144	3.181397	1.7836471
30.841242832797782	3.3844814	1.839696
30.85942450793176	3.6643152	1.9142401
30.877606979315637	4.020823	2.005199
30.895790247511883	4.484017	2.1175497
30.913974313083134	4.9802823	2.2316546
30.932159176592283	5.3437347	2.311652
30.95034483860237	5.6284523	2.372436
30.968531299676698	5.605277	2.3675466
30.98671856037873	5.3715267	2.3176553
31.00490662127215	5.0169525	2.2398555
31.023095482920848	4.5262446	2.1274972
31.04128514588892	3.8987443	1.9745238
31.059475610740662	3.2845416	1.8123305
31.07766687804056	2.768175	1.6637833
31.09585894835335	2.5449152	1.595279
31.11405182224393	2.4634068	1.5695244
31.132245500277417	2.4758499	1.5734833
31.15043998301914	2.5629075	1.6009083
31.168635271034628	2.5803082	1.6063337
31.18683136488964	2.5115275	1.58478
31.20502826515008	2.452483	1.5660405
31.223225972382135	2.4222238	1.5563495
31.241424487152155	2.4507694	1.5654933
31.259623810026692	2.4439113	1.5633014
31.27782394157253	2.4097564	1.552339
31.296024882356644	2.41361	1.5535797
31.314226632946237	2.440356	1.5621638
31.332429193908684	2.422375	1.556398
31.350632565811598	2.416979	1.5546637
31.368836749222787	2.4653935	1.5701572
31.387041744710295	2.4792268	1.5745561
31.40524755284232	2.5314162	1.5910425
31.423454174187317	2.6570308	1.6300402
31.441661609313922	2.6682441	1.6334761
31.459869858791002	2.552213	1.5975647
31.478078923187628	2.3696249	1.5393586
31.496288803073064	2.3282273	1.5258529
31.514499499016807	2.3364363	1.5285406
31.532711011588546	2.3291066	1.526141
31.550923341358178	2.301315	1.5170085
31.56913648889584	2.32412	1.5245064
31.587350454771844	2.3431125	1.5307229
31.605565239556732	2.3427274	1.5305971
31.62378084382127	2.347143	1.5320388
31.641997268136382	2.3216517	1.5236968
31.660214513073274	2.2773564	1.5090913
31.67843257920331	2.3977349	1.5484622
31.6966514670981	2.4626207	1.569274
31.71487117732944	2.4356742	1.5606647
31.733091710469346	2.3364894	1.528558
31.751313067090052	2.3024504	1.5173827
31.769535247764008	2.2750938	1.5083414
31.787758253063878	2.2395425	1.4965101
31.805982083562526	2.2365892	1.4955231
31.824206739833024	2.2103434	1.4867224
31.84243222244869	2.1941864	1.4812787
31.860658531983013	2.2081618	1.4859885
31.878885669009737	2.2973566	1.5157033
31.897113634102784	2.3995874	1.5490601
31.91534242783632	2.3821998	1.5434376
31.933572050784694	2.279144	1.5096834
31.951802503522508	2.2602098	1.5033994
31.970033786624548	2.2892299	1.5130202
31.988265900665834	2.2803357	1.5100781
32.006498846221575	2.1886578	1.4794112
32.02473262386724	2.1765928	1.4753281
32.04296723417845	2.2172227	1.4890342
32.0612026777311	2.1498885	1.4662498
32.07943895510129	2.121252	1.4564519
32.097676066865304	2.0952117	1.4474846
32.115914013599685	2.1550338	1.4680034
32.13415279588115	2.2207258	1.4902099
32.152392414286666	2.2523155	1.5007716
32.1706328693934	2.2085533	1.4861202
32.18887416177875	2.1669173	1.4720453
32.20711629202032	2.0756357	1.4407066
32.225359260695924	2.0738854	1.4400991
32.243603068383614	2.1231885	1.4571165
32.26184771566166	2.1508987	1.4665942
32.28009320310852	2.133191	1.4605448
32.2983395313029	2.1012957	1.4495847
32.31658670082372	2.1494632	1.4661047
32.33483471225012	2.2392046	1.4963973
32.35308356616143	2.2798111	1.5099044
32.371333263137245	2.2596672	1.5032189
32.38958380375734	2.173106	1.4741459
32.407835188601744	2.0747173	1.4403878
32.42608741825067	2.0979114	1.4484168
32.444340493284585	2.1008682	1.4494373
32.46259441428416	2.1997154	1.4831438
32.48084918183028	2.185803	1.4784461
32.49910479650405	2.1620438	1.470389
32.51736125888683	2.2336762	1.4945488
32.53561856956014	2.160417	1.4698358
32.5538767291058	2.1208684	1.4563202
32.572135738105764	2.1061034	1.451242
32.59039559714228	2.0608604	1.4355698
32.608656306797776	2.0703332	1.4388653
32.62691786765491	2.13979	1.4628022
32.645180280296586	2.1305497	1.4596403
32.663443545305896	2.0896878	1.4455752
32.68170766326619	2.0749266	1.4404606
32.69997263476099	2.0678988	1.438019
32.7182384603741	2.0302298	1.4248613
32.7365051406895	2.0277278	1.4239831
32.75477267629144	2.1289182	1.4590813
32.77304106776434	2.1250463	1.4577539
32.79131031569289	2.0835345	1.4434453
32.809580420661966	2.0449188	1.4300066
32.827851383256714	1.9838104	1.408478
32.84612320406245	2.0142987	1.4192599
32.86439588366476	2.0402007	1.4283559
32.88266942264945	2.0173805	1.4203452
32.9009438216025	1.9947354	1.412351
32.9192190811102	2.0493522	1.4315559
32.937495201758985	2.068166	1.438112
32.95577218413556	2.0257833	1.4233001
32.974050028826866	1.9695269	1.4033984
32.992328736420035	2.0269551	1.4237118
33.010608307502444	2.0349958	1.4265327
33.02888874266169	2.031634	1.425354
33.047170042485604	2.046329	1.4304996
33.06545220756225	2.016631	1.4200813
33.083735238479896	2.011457	1.4182584
33.10201913582707	2.0334682	1.4259973
33.12030390019248	2.040623	1.4285038
33.138589532165135	2.0156758	1.419745
33.15687603233419	2.047218	1.4308103
33.17516340128909	1.9961344	1.4128462
33.19345163961947	1.9127314	1.3830153
33.211740747915215	1.8853662	1.3730863
33.23003072676643	1.9701592	1.4036236
33.248321576763466	2.0337236	1.4260868
33.266613298496885	2.0119584	1.4184352
33.28490589255747	1.9997579	1.414128
33.30319935953626	1.9195398	1.3854746
33.32149370002451	1.9674709	1.4026656
33.339788914613706	2.0770304	1.4411906
33.358085003895575	2.120476	1.4561855
33.376381968462034	2.094768	1.4473313
33.39467980890529	1.9900571	1.4106939
33.41297852581774	1.9554714	1.3983817
33.43127811979204	2.0162387	1.4199432
33.44957859142105	2.0321808	1.4255458
33.467879941297866	1.9918215	1.411319
33.486182170015844	1.9446385	1.394503
33.50448527816853	1.9536053	1.3977143
33.522789266349754	1.9219012	1.3863266
33.541094135153514	1.8677876	1.3666703
33.55939988517411	1.8982855	1.3777828
33.57770651700602	2.0437417	1.429595
33.59601403124398	2.0982592	1.4485369
33.61432242848296	2.0397866	1.428211
33.632631709318154	1.9126459	1.3829844
33.650941874344994	1.9111116	1.3824296
33.66925292415916	1.8545626	1.3618233
33.68756485935654	1.8806978	1.3713853
33.70587768053328	1.9695983	1.4034238
33.724191388285746	1.9857827	1.409178
33.74250598321054	1.9297857	1.3891673
33.760821465904506	1.9407717	1.3931159
33.77913783696474	1.9901724	1.4107347
33.79745509698852	1.9878871	1.4099245
33.815773246573414	2.0062625	1.416426
33.8340922863172	1.930227	1.3893261
33.852412216817896	1.8791299	1.3708136
33.87073303867377	1.8486867	1.3596642
33.889054752483304	1.9117998	1.3826785
33.907377358845245	1.9289795	1.388877
33.92570085835853	1.8655618	1.3658557
33.94402525162239	1.8866761	1.3735633
33.96235053923627	1.8678339	1.3666872
33.980676721799824	1.817945	1.3483119
33.999003799912984	1.9492015	1.3961381
34.01733177417592	1.9796537	1.4070017
34.03566064518901	1.9466778	1.395234
34.0539904135529	1.9439192	1.394245
34.07232107986846	1.9524155	1.3972886
34.090652644736785	1.9146043	1.3836923
34.108985108759235	1.7572545	1.3256148
34.12731847253742	1.8984524	1.3778434
34.14565273667313	1.9591123	1.3996829
34.16398790176847	1.9209491	1.3859831
34.18232396842574	1.9557849	1.3984938
34.20066093724749	2.0955105	1.4475878
34.21899880883651	2.0268817	1.4236859
34.23733758379583	1.9814943	1.4076556
34.25567726272874	1.9968286	1.4130919
34.27401784623872	2.0668929	1.4376693
34.29235933492957	2.1366072	1.4617138
34.31070172940526	2.0994718	1.4489554
34.32904503027003	1.9075933	1.3811564
34.347389238128386	1.7457027	1.3212504
34.36573435358502	1.7877635	1.3370727
34.38408037724492	1.9150618	1.3838576
34.402427309713296	1.9852903	1.4090033
34.42077515159559	2.0567641	1.4341424
34.43912390349752	2.0490572	1.4314529
34.45747356602499	1.9867041	1.4095049
34.47582413978423	1.902922	1.3794644
34.49417562538163	1.9025081	1.3793144
34.51252802342388	2.0300078	1.4247835
34.53088133451789	2.074447	1.440294
34.54923555927084	1.9773792	1.4061931
34.567590698290104	1.9763126	1.4058138
34.58594675218336	1.9790713	1.4067947
34.6043037215585	1.8331399	1.353935
34.62266160702365	1.8954672	1.3767596
34.641020409187234	2.1763415	1.4752429
34.65938012865785	2.1960711	1.4819146
34.677740766044394	1.9614842	1.40053
34.69610232195598	2.1084313	1.4520439
34.714464797002016	2.3131356	1.5208997
34.73282819179208	2.2133188	1.4877228
34.751192506936064	1.9572068	1.3990021
34.76955774304408	1.8868352	1.3736212
34.7879239007265	2.0213463	1.4217407
34.80629098059391	2.2113001	1.4870441
34.824658983257194	2.2310505	1.4936701
34.843027909327446	2.20093	1.4835532
34.86139775941603	2.1230977	1.4570854
34.879768534134534	1.9919206	1.4113542
34.89814023409483	1.8537711	1.3615326
34.91651285990901	1.902702	1.3793846
34.93488641218944	2.0368464	1.4271812
34.95326089154871	2.0873682	1.4447727
34.97163629859967	2.089299	1.4454408
34.99001263395542	1.9994969	1.4140357
35.00838989822934	2.0880992	1.4450257
35.02676809203499	2.323779	1.5243946
35.04514721598624	2.1224172	1.4568518
35.063527270697215	1.8554032	1.3621318
35.081908256782256	1.982503	1.4080138
35.10029017485597	2.1197498	1.4559361
35.11867302553321	2.0825508	1.4431045
35.137056809429104	2.0081317	1.4170856
35.155441527159006	2.1113853	1.4530606
35.173827179338524	2.186668	1.4787387
35.19221376658354	2.0829294	1.4432358
35.21060128951017	1.6974751	1.3028718
35.2289897487348	1.4890249	1.2202561
35.24737914487405	1.6362408	1.2791563
35.26576947854479	1.8231245	1.3502313
35.28416075036418	1.8989854	1.3780367
35.30255296094958	2.1186445	1.4555564
35.32094611091867	2.3226354	1.5240195
35.33934020088932	2.17979	1.4764112
35.35773523147969	2.1695988	1.4729558
35.3761312033082	2.0809	1.4425324
35.394528116993506	1.86621	1.3660929
35.41292597315452	2.2264984	1.4921455
35.431324772410434	2.7567592	1.6603491
35.449724515380666	2.5892487	1.6091143
35.46812520268491	1.8603983	1.3639642
35.486526834943106	1.5824263	1.2579453
35.504929412775454	1.7581987	1.3259709
35.52333293680242	1.9725199	1.4044642
35.54173740764471	1.9392323	1.3925632
35.560142825923286	1.8481467	1.3594656
35.5785491922594	1.7790955	1.3338274
35.59695650727454	2.015897	1.4198229
35.61536477159042	1.6540529	1.2860999
