0.008763373481513119	0.3822274	0.6182454
0.026290120649546365	0.4805547	0.69322056
0.043816868432600686	0.3777685	0.61462873
0.06134361724069026	0.31051886	0.5572422
0.07887036748382949	0.23288375	0.4825803
0.0963971195720331	0.11188328	0.33448958
0.11392387391531617	0.20760283	0.45563453
0.1314506309236943	0.17603107	0.41956055
0.1489773910071836	0.18952657	0.43534648
0.16650415457580078	0.15472682	0.3933533
0.18403092203956356	0.2590082	0.5089285
0.20155769380849	0.30263048	0.5501186
0.2190844702925996	0.3395242	0.5826871
0.2366112519019124	0.2415041	0.49143067
0.2541380390464497	0.16865481	0.41067603
0.27166483213623416	0.16196625	0.4024503
0.28919163158128947	0.14217038	0.37705487
0.3067184377916406	0.17821635	0.42215678
0.324245251177314	0.19380404	0.4402318
0.34177207214833777	0.17807537	0.42198977
0.3592989011147415	0.15642147	0.39550155
0.37682573848655654	0.08181753	0.28603762
0.39435258467381573	0.06444189	0.25385407
0.41187944008655414	0.072988644	0.2701641
0.42940630513480854	0.07433396	0.27264255
0.446933180228618	0.08595036	0.29317293
0.4644600657780234	0.12028379	0.34681955
0.48198696219306775	0.13443461	0.36665326
0.49951386988379676	0.12912898	0.3593452
0.5170407892602581	0.12294704	0.35063803
0.5345677207325025	0.15827383	0.39783645
0.5520946647105822	0.16158636	0.40197805
0.5696216216045534	0.1724209	0.41523597
0.5871485918244737	0.14207777	0.37693205
0.6046755757804043	0.15705416	0.39630058
0.6222025738824094	0.14415142	0.37967277
0.6397295865405557	0.18392399	0.4288636
0.6572566141649129	0.20434198	0.452042
0.6747836571655547	0.23722959	0.4870622
0.6923107159525568	0.21578933	0.4645313
0.7098377909359992	0.1767802	0.42045236
0.7273648825259653	0.17334044	0.41634172
0.7448919911325411	0.1909081	0.43693033
0.762419117165817	0.21971077	0.46873316
0.7799462610358868	0.24461612	0.49458683
0.7974734231528482	0.25422817	0.5042105
0.8150006039268024	0.2718185	0.5213621
0.8325278037678551	0.24171674	0.49164698
0.8500550230861152	0.21167566	0.46008223
0.8675822622916969	0.19033633	0.4362755
0.8851095217947171	0.18242684	0.42711455
0.9026368020052984	0.17114416	0.41369572
0.9201641033335665	0.17955442	0.42373863
0.9376914261896523	0.20709011	0.45507154
0.9552187709836915	0.20224385	0.4497153
0.9727461381258234	0.2050376	0.45281076
0.990273528026193	0.23392804	0.4836611
1.0078009410949496	0.28647083	0.5352297
1.0253283777422473	0.32247743	0.567871
1.0428558383782454	0.2915419	0.5399462
1.0603833234131086	0.24962655	0.4996264
1.0779108332570058	0.26364172	0.5134605
1.0954383683201119	0.28380358	0.5327322
1.112965929012607	0.31348512	0.5598974
1.1304935157446763	0.4488751	0.6699814
1.1480211289265108	0.515323	0.71786
1.1655487689683062	1.5611138	1.2494454
1.1830764362802655	1.809259	1.345087
1.200604131272596	2.2045233	1.4847637
1.2181318543555117	2.4853446	1.5764976
1.235659605939232	2.5961273	1.6112502
1.253187386433982	4.0061693	2.0015419
1.270715196249994	6.2353477	2.497068
1.2882430357975057	11.676251	3.417053
1.3057709054867608	16.415216	4.0515695
1.3232988057280106	22.061106	4.696925
1.3408267369315112	26.674501	5.1647363
1.358354699507526	30.078178	5.484358
1.3758826938663256	34.096912	5.8392563
1.3934107204181858	36.504654	6.0419083
1.410938779573391	37.082394	6.0895314
1.4284668717422309	37.803432	6.1484494
1.4459949973350033	37.341206	6.110745
1.4635231567620117	37.13499	6.0938487
1.4810513504335687	36.354008	6.0294285
1.4985795787599925	35.571644	5.9641967
1.5161078421516088	35.43557	5.9527783
1.5336361410187505	34.975533	5.9140115
1.5511644757717598	35.06059	5.9211984
1.5686928468209842	35.063034	5.921405
1.58622125457678	35.06718	5.921755
1.6037496994495108	36.424263	6.0352516
1.621278181849548	36.674263	6.0559278
1.6388067021872719	37.778698	6.1464376
1.6563352608730693	36.88896	6.0736284
1.673863858317336	35.479347	5.9564543
1.6913924949304753	34.417324	5.866628
1.7089211711228998	33.235306	5.765007
1.7264498873050296	32.74565	5.7223816
1.7439786438872935	32.038063	5.660218
1.7615074412801288	31.165194	5.5825796
1.779036279893981	30.579422	5.529866
1.796565160139305	29.783405	5.4574175
1.814094082426564	29.415268	5.4235845
1.8316230471662298	28.65447	5.3529873
1.849152054768784	27.736885	5.266582
1.8666811056447168	27.10932	5.206661
1.8842102002045273	26.536337	5.1513433
1.901739338858724	25.94094	5.093225
1.9192685220178245	25.15214	5.015191
1.9367977500923557	24.275404	4.9270077
1.9543270234928547	23.54847	4.8526764
1.971856342629867	22.939268	4.7894955
1.9893857079139496	22.767347	4.771514
2.006915119755667	22.42105	4.735087
2.0244445785655945	21.779144	4.666813
2.0419740847543175	21.37025	4.622797
2.0595036387324317	21.114199	4.595019
2.0770332409105414	20.38821	4.515331
2.094562891699263	20.027899	4.475254
2.1120925915092217	19.306395	4.393904
2.129622340751053	19.08087	4.3681655
2.1471521398354043	187.22992	13.683198
2.1646819891729323	443.5388	21.06036
2.182211889174303	439.81305	20.97172
2.1997418402501974	452.4576	21.271051
2.2172718428113023	432.3581	20.793222
2.234801897268317	320.38333	17.899256
2.2523320040319548	16.975504	4.120134
2.269862163512935	16.735434	4.0908966
2.287392376121992	16.316595	4.0393806
2.304922642269869	15.893319	3.9866426
2.322452962367322	15.564634	3.945204
2.3399833368251164	15.412298	3.92585
2.357513766054032	15.222717	3.9016302
2.3750442504648586	14.756971	3.8414803
2.3925747904683963	14.408777	3.7958896
2.410105386475459	14.063043	3.7500722
2.4276360388968707	13.823766	3.7180326
2.445166748143469	13.834035	3.7194133
2.4626975146261025	13.789794	3.7134612
2.4802283387556323	13.618252	3.6902916
2.4977592209429305	13.260057	3.641436
2.5152901615988825	12.7258005	3.567324
2.5328211611343865	12.432275	3.525943
2.5503522199603523	12.300484	3.5072045
2.5678833384877024	12.197164	3.4924438
2.5854145171273712	12.184013	3.4905605
2.6029457562903064	11.823203	3.4384885
2.620477056387469	11.528613	3.3953812
2.6380084178298326	11.325861	3.3653917
2.655539841028383	11.108477	3.3329382
2.673071326394119	11.028243	3.32088
2.6906028743380523	10.85243	3.2943027
2.708134485271211	10.792415	3.285181
2.7256661596046325	10.764381	3.2809117
2.743197897749369	10.439807	3.231069
2.760729700116486	10.408518	3.2262235
2.778261567117063	10.186799	3.1916766
2.795793499162193	9.903374	3.1469626
2.8133254966629817	9.7381315	3.1205978
2.830857560030551	9.517447	3.085036
2.8483896896760337	9.436659	3.0719144
2.865921886010578	9.358972	3.0592437
2.883454149445347	9.331842	3.0548065
2.9009864803915177	9.12094	3.0200894
2.91851887926028	8.899831	2.9832585
2.9360513464628384	8.820231	2.9698875
2.953583882410413	8.758472	2.9594717
2.9711164875142373	8.724134	2.9536645
2.9886491621855606	8.615388	2.935198
3.0061819068356455	8.415774	2.9009955
3.023714721875769	8.332259	2.8865652
3.041247607717225	8.32999	2.8861723
3.0587805647713213	8.316489	2.8838325
3.0763135934493806	8.153974	2.8555164
3.0938466941627407	7.8610573	2.8037577
3.1113798673227544	7.733865	2.7809827
3.1289131133407904	7.6304774	2.762332
3.1464464326282315	7.561578	2.7498324
3.1639798255964786	7.487649	2.736357
3.1815132926569443	7.42409	2.7247183
3.1990468342210603	7.523616	2.742921
3.216580450700272	7.464436	2.732112
3.2341141425060416	7.3287473	2.707166
3.251647910049847	7.0975227	2.6641176
3.2691817537431813	6.992614	2.644355
3.286715673997555	6.951972	2.6366591
3.3042496712244938	6.8670125	2.6204984
3.32178374583554	6.8455954	2.6164088
3.339317898242251	6.8450313	2.616301
3.3568521288562034	6.7958484	2.6068847
3.3743864380889876	6.835685	2.6145144
3.3919208263522127	6.751454	2.598356
3.4094552940575023	6.6235456	2.573625
3.4269898416164972	6.5360146	2.5565631
3.444524469440858	6.4374194	2.5372071
3.4620591779422587	6.4088235	2.5315654
3.479593967532391	6.3861547	2.527084
3.4971288386229658	6.3437204	2.5186744
3.5146637916257086	6.3470078	2.519327
3.5321988269523628	6.2539372	2.5007873
3.5497339450146903	6.1765313	2.4852629
3.5672691462244708	6.0701575	2.463769
3.5848044309934988	6.04249	2.4581478
3.60233979973359	6.135611	2.4770164
3.619875252856575	6.2660646	2.5032108
3.6374107907743034	6.256074	2.5012145
3.6549464138986427	6.214794	2.4929488
3.6724821226414788	6.1766286	2.4852824
3.690017917414714	6.252911	2.5005822
3.7075537986302702	6.3779263	2.5254557
3.7250897667000857	6.4203196	2.533835
3.7426258220361235	6.542096	2.5577521
3.7601619650503553	6.8269463	2.6128426
3.777698196154779	7.3557057	2.7121403
3.7952345157614067	8.344368	2.8886619
3.8127709242822716	9.050695	3.0084374
3.830307422129425	11.07078	3.3272781
3.847844009714936	12.370677	3.5171974
3.8653806874508954	15.762746	3.9702325
3.882917455749409	15.351248	3.9180667
3.900454315022606	15.565251	3.9452822
3.917991265682631	12.522068	3.5386534
3.9355283081416506	10.584196	3.2533362
3.9530654428118495	8.497972	2.915128
3.970602670105433	7.3432817	2.709849
3.9881399904346244	6.492301	2.5479994
4.005677404211669	6.422475	2.5342603
4.023214911848827	6.303304	2.5106382
4.0407525137583855	6.2707906	2.5041547
4.058290210352644	6.2837725	2.5067453
4.075828002043927	6.302539	2.510486
4.0933658892445814	6.20486	2.4909556
4.110903872366966	6.178203	2.485599
4.128441951823468	6.076323	2.46502
4.145980128026488	6.1364245	2.4771807
4.163518401388452	6.1426616	2.4784393
4.181056772321807	6.0811067	2.46599
4.1985952412390155	6.08572	2.4669251
4.216133808552567	6.062166	2.4621468
4.233672474674966	6.117531	2.4733644
4.251211240018741	6.21442	2.492874
4.268750104996445	6.428444	2.5354376
4.286289070020643	7.338921	2.7090442
4.303828135503928	9.091343	3.0151854
4.3213673018589125	29.451433	5.4269176
4.3389065694982305	90.6404	9.520525
4.356445938834537	165.7464	12.874253
4.3739854102805085	171.16078	13.082843
4.391524984248844	171.99742	13.1147785
4.409064661152262	136.14984	11.668326
4.426604441403504	96.66651	9.831913
4.444144325415337	75.803	8.706491
4.461684313600543	21.836796	4.6729856
4.47922440637193	22.037876	4.694452
4.496764604142329	20.12026	4.4855614
4.5143049073245916	18.227755	4.2693973
4.531845316331589	16.139355	4.0173817
4.5493858315762195	13.284971	3.6448555
4.566926453471405	11.135089	3.3369281
4.584467182430081	9.212305	3.035178
4.602008018865218	8.128086	2.8509798
4.619548963189798	7.4159994	2.7232332
4.637090015816834	6.9257627	2.6316843
4.654631177159353	6.672216	2.5830634
4.672172447630417	6.3931823	2.5284743
4.689713827643102	6.244204	2.4988406
4.7072553176105085	5.9297004	2.4350977
4.724796917945764	5.7593884	2.3998725
4.742338629062015	5.5893064	2.3641715
4.759880451372434	5.5746775	2.3610754
4.777422385290215	5.570455	2.360181
4.794964431228581	5.6464853	2.3762333
4.812506589600768	5.6531825	2.3776422
4.830048860820047	5.646595	2.3762565
4.847591245299709	5.566129	2.3592646
4.8651337434530655	5.436201	2.3315663
4.882676355693457	5.359818	2.315128
4.900219082434242	5.368756	2.3170576
4.917761924088813	5.4426875	2.3329568
4.935304881070575	5.4714365	2.3391101
4.952847953792969	5.4035177	2.3245468
4.970391142669449	5.2622743	2.2939649
4.9879344481135055	5.2483163	2.2909205
5.005477870538642	5.2090664	2.282338
5.023021410358394	5.28504	2.2989213
5.040565067986324	5.3328414	2.3092945
5.05810884383601	5.355308	2.314154
5.075652738321066	5.405093	2.3248856
5.09319675185512	5.3733377	2.318046
5.110740884851836	5.39211	2.3220918
5.128285137724894	5.436708	2.3316748
5.145829510888007	5.4620986	2.3371134
5.163374004754908	5.4152784	2.327075
5.1809186197393595	5.3234386	2.307258
5.198463356255145	5.2390656	2.2889006
5.216008214716077	5.259057	2.2932634
5.233553195535998	5.252009	2.291726
5.251098299128764	5.254982	2.2923748
5.268643525908272	5.1831064	2.2766438
5.286188876288432	5.142756	2.2677646
5.3037343506831895	5.1367974	2.2664504
5.32127994950651	5.119764	2.2626896
5.3388256731723915	5.186859	2.2774677
5.356371522094851	5.2028747	2.280981
5.373917496687938	5.182649	2.2765431
5.391463597365729	5.2049813	2.2814429
5.40900982454232	5.183489	2.2767277
5.426556178631843	5.1691203	2.27357
5.444102660048449	5.136806	2.2664523
5.4616492692063225	5.1475234	2.2688155
5.479196006519669	5.1620965	2.2720249
5.496742872402727	5.1303825	2.2650347
5.514289867269756	5.1921268	2.2786238
5.531836991535049	5.175099	2.2748845
5.549384245612924	5.0827317	2.2544916
5.566931629917724	5.0075874	2.237764
5.584479144863822	4.9874907	2.233269
5.6020267908656205	5.0051775	2.2372253
5.619574568337545	4.9915204	2.2341712
5.637122477694054	4.9980173	2.2356246
5.654670519349629	5.017737	2.2400305
5.672218693718784	5.050152	2.2472544
5.689767001216059	5.050343	2.2472968
5.707315442256021	4.9924564	2.2343805
5.724864017253266	4.9761696	2.230733
5.7424127266224225	4.9839745	2.2324817
5.75996157077814	5.025628	2.2417912
5.777510550135105	5.007167	2.23767
5.795059665108022	5.0217614	2.2409286
5.812608916111639	5.0565767	2.2486832
5.830158303560715	5.2062097	2.281712
5.847707827870055	5.3076878	2.303842
5.86525748945448	5.3794203	2.3193576
5.8828072887288485	5.5136642	2.3481193
5.900357226108044	5.5379167	2.353278
5.917907302006979	5.5873666	2.3637612
5.9354575168406	6.0970078	2.469212
5.9530078710238765	6.6795454	2.5844817
5.970558364971812	7.2323318	2.6892996
5.988108999099438	7.5701747	2.751395
6.005659773821818	8.085618	2.843522
6.023210689554039	7.798667	2.7926095
6.040761746711227	8.101398	2.8462956
6.058312945708531	7.4369526	2.7270777
6.075864286961132	7.044134	2.6540787
6.093415770884244	6.500408	2.5495899
6.1109673978931065	6.0602427	2.461756
6.128519168402993	5.4860888	2.34224
6.146071082829204	5.346461	2.3122416
6.163623141587075	5.1985083	2.2800238
6.181175345091969	5.1370955	2.2665162
6.198727693759281	5.113691	2.261347
6.216280188004435	5.0759926	2.2529964
6.233832828242885	5.0825677	2.254455
6.251385614890126	5.0490475	2.2470086
6.268938548361669	5.002662	2.236663
6.286491629073067	4.9683537	2.2289805
6.304044857439898	4.9788465	2.231333
6.321598233877777	4.9434824	2.2233944
6.339151758802344	4.8552184	2.203456
6.356705432629277	4.8473306	2.2016654
6.37425925577428	4.8798027	2.2090275
6.391813228653095	4.914382	2.2168405
6.409367351681486	4.8792152	2.2088945
6.426921625275259	4.862305	2.2050636
6.44447604985025	4.862653	2.2051423
6.46203062582232	4.891214	2.211609
6.47958535360737	4.9517365	2.2252498
6.497140233621328	4.9710097	2.229576
6.514695266280161	5.031481	2.2430964
6.532250451999859	5.011179	2.2385662
6.549805791196454	4.9909954	2.2340536
6.567361284286002	5.0088253	2.2380404
6.584916931684597	4.966376	2.2285366
6.602472733808367	4.985475	2.2328176
6.6200286910734665	4.9717927	2.2297518
6.637584803896092	4.938924	2.222369
6.655141072692462	4.940778	2.222786
6.672697497878842	4.9460673	2.2239757
6.690254079871514	4.8966722	2.2128425
6.707810819086808	4.9369483	2.2219245
6.725367715941078	4.9689765	2.22912
6.742924770850719	4.972694	2.2299538
6.760481984232151	4.972321	2.22987
6.778039356501836	4.9118	2.216258
6.795596888076266	4.8451076	2.2011604
6.813154579371963	4.8705845	2.2069402
6.830712430805492	4.9379616	2.2221525
6.84827044279344	4.9573517	2.226511
6.865828615752445	4.8819213	2.209507
6.883386950099159	4.81113	2.1934288
6.900945446250287	4.7785134	2.185981
6.918504104622553	4.859053	2.204326
6.936062925632727	4.9132776	2.2165914
6.953621909697607	4.908286	2.2154653
6.971181057234028	4.9240756	2.2190259
6.988740368658859	4.923198	2.2188282
7.006299844389007	5.021712	2.2409177
7.023859484841407	5.1389937	2.2669349
7.041419290433036	5.285353	2.2989895
7.058979261580902	5.4118834	2.3263454
7.0765393987020495	5.59062	2.3644493
7.094099702213559	5.9814744	2.4457054
7.111660172532549	6.3498325	2.5198874
7.129220810076164	6.6910563	2.5867076
7.146781615261595	7.285994	2.699258
7.16434258850606	7.585113	2.7541084
7.181903730226821	8.070358	2.8408377
7.1994650408411704	8.152482	2.8552551
7.217026520766437	8.19188	2.8621461
7.234588170419983	8.387914	2.8961895
7.252149990219215	8.330777	2.8863087
7.269711980581568	8.26802	2.8754165
7.2872741419245175	8.06777	2.840382
7.304836474665574	7.655377	2.7668352
7.322398979222286	7.3484797	2.710808
7.339961656012233	7.028544	2.6511402
7.357524505453039	6.6857586	2.5856833
7.375087527962357	6.3725743	2.524396
7.392650723957886	6.095468	2.4689002
7.410214093857353	5.771989	2.4024963
7.427777638078528	5.5947485	2.365322
7.445341357039213	5.4124317	2.3264635
7.4629052511572525	5.2406244	2.289241
7.480469320850524	5.1165996	2.26199
7.498033566536948	5.101451	2.258639
7.5155979886344735	5.0731797	2.252372
7.5331625875610975	5.0945206	2.2571044
7.550727363734844	5.170639	2.2739038
7.568292317573788	5.235424	2.288105
7.585857449496025	5.19541	2.279344
7.603422759919705	5.0762258	2.2530482
7.620988249263007	5.026902	2.2420754
7.638553917944147	5.0630646	2.2501254
7.656119766381391	5.1403084	2.2672248
7.673685794993023	5.134134	2.2658627
7.691252004197388	5.092817	2.256727
7.70881839441285	5.120177	2.2627807
7.726384966057826	5.110776	2.2607026
7.743951719550762	5.1248674	2.263817
7.761518655310149	5.129278	2.264791
7.779085773754511	5.161922	2.2719862
7.796653075302419	5.1347127	2.2659905
7.814220560372475	5.109601	2.2604427
7.831788229383323	5.092822	2.2567282
7.8493560827536495	5.205486	2.2815533
7.866924120902174	5.2953463	2.301162
7.884492344247663	5.3091235	2.3041534
7.9020607532089135	5.2821817	2.2982998
7.919629348204771	5.2087445	2.2822673
7.937198129654115	5.2312636	2.2871957
7.954767097975865	5.2418666	2.2895124
7.972336253588986	5.3181953	2.3061213
7.989905596912472	5.3569736	2.3145137
8.007475128365371	5.383518	2.320241
8.025044848366756	5.4037256	2.3245914
8.042614757335754	5.529743	2.3515406
8.060184855691523	5.602428	2.3669448
8.07775514385327	5.7895265	2.4061434
8.095325622240228	5.8893676	2.426802
8.112896291271687	5.880868	2.42505
8.130467151366968	5.9061923	2.430266
8.148038202945436	5.9042873	2.429874
8.165609446426497	5.9376316	2.4367256
8.183180882229594	5.928435	2.4348378
8.200752510774217	5.8523808	2.4191694
8.218324332479893	5.87264	2.4233532
8.235896347766193	5.8900604	2.4269447
8.253468557052724	5.848417	2.41835
8.27104096075914	5.7313433	2.3940225
8.288613559305137	5.72302	2.3922834
8.306186353110448	5.8800225	2.4248757
8.32375934259485	6.052453	2.4601734
8.341332528178162	6.099624	2.4697418
8.358905910280246	6.1751604	2.484987
8.376479489321003	6.131291	2.4761443
8.394053265720377	6.1651793	2.4829779
8.411627239898356	6.1399083	2.4778838
8.42920141227497	6.163954	2.482731
8.44677578327029	6.1597867	2.4818919
8.464350353304427	6.143056	2.478519
8.48192512279754	6.045179	2.4586945
8.499500092169827	6.0506973	2.4598165
8.51707526184153	6.1230245	2.4744747
8.534650632232934	6.138031	2.477505
8.552226203764365	6.0867867	2.4671414
8.569801976856192	6.0719404	2.4641309
8.587377951928834	6.05808	2.4613168
8.60495412940274	6.1442485	2.4787595
8.622530509698416	6.1480823	2.4795327
8.6401070932364	6.263777	2.5027537
8.657683880437283	6.341124	2.518159
8.675260871721695	6.499165	2.549346
8.692838067510303	6.6788244	2.5843422
8.710415468223834	6.866421	2.6203856
8.727993074283043	7.0468407	2.6545887
8.745570886108737	7.057338	2.6565652
8.763148904121765	7.08766	2.662266
8.78072712874302	7.1100097	2.66646
8.798305560393441	7.339395	2.7091317
8.815884199494006	7.378166	2.716278
8.833463046465745	7.536894	2.7453403
8.851042101729728	7.6076603	2.7581987
8.86862136570707	7.9421716	2.8181858
8.886200838818924	8.086308	2.8436434
8.903780521486505	8.203965	2.8642564
8.921360414131055	8.343686	2.8885438
8.938940517173874	8.476936	2.9115179
8.956520831036297	8.632631	2.938134
8.97410135613971	8.834237	2.9722445
8.99168209290554	8.996444	2.9994073
9.009263041755265	9.338544	3.0559032
9.026844203110405	9.615352	3.100863
9.044425577392525	9.790061	3.1289072
9.062007165023239	9.851764	3.138752
9.079588966424197	10.195198	3.192992
9.097170982017108	10.383436	3.222334
9.11475321222372	11.226498	3.3505967
9.132335657465825	11.937895	3.4551258
9.149918318165264	11.973712	3.4603052
9.167501194743924	12.697388	3.5633395
9.18508428762374	12.51437	3.5375655
9.202667597226693	12.463217	3.530328
9.220251123974803	12.032967	3.4688566
9.237834868290143	11.6318865	3.4105551
9.255418830594836	11.3331375	3.3664725
9.273003011311046	10.883428	3.299004
9.290587410860985	10.769797	3.2817369
9.308172029666911	10.234233	3.1990988
9.32575686815113	9.949283	3.1542482
9.343341926735997	8.723217	2.9535093
9.360927205843916	8.524448	2.9196658
9.378512705897327	8.358522	2.891111
9.396098427318728	8.094457	2.8450758
9.413684370530664	7.9736233	2.8237605
9.431270535955722	7.8644266	2.8043585
9.448856924016539	7.7826805	2.7897456
9.466443535135806	7.6428924	2.764578
9.484030369736251	7.586507	2.7543614
9.501617428240658	7.6210184	2.7606192
9.519204711071852	7.6372414	2.763556
9.536792218652714	7.680337	2.771342
9.55437995140617	7.662571	2.7681348
9.571967909755191	7.6539783	2.7665825
9.589556094122802	7.6306686	2.7623665
9.60714450493207	7.663392	2.7682831
9.624733142606116	7.7384377	2.7818048
9.642322007568108	7.7671103	2.7869537
9.659911100241267	7.8658195	2.804607
9.677500421048851	7.949107	2.819416
9.695089970414175	8.003425	2.8290324
9.712679748760609	8.022	2.8323135
9.730269756511557	7.949328	2.8194551
9.747859994090492	7.985379	2.8258414
9.765450461920915	8.032964	2.8342483
9.78304116042639	8.149066	2.854657
9.800632090030527	8.216754	2.866488
9.81822325115699	8.218249	2.8667488
9.835814644229481	8.215588	2.8662846
9.853406269671762	8.161527	2.8568385
9.870998127907646	8.159767	2.8565307
9.888590219360985	8.184113	2.8607888
9.906182544455698	8.232005	2.869147
9.923775103615734	8.263712	2.8746672
9.941367897265108	8.222758	2.867535
9.958960925827878	8.178318	2.8597758
9.97655418972816	8.202739	2.8640423
9.994147689390106	8.224878	2.867905
10.011741425237934	8.239441	2.8704426
10.029335397695904	8.259408	2.8739185
10.04692960718833	8.241292	2.870765
10.06452405413958	8.226305	2.8681536
10.082118738974064	8.143817	2.8537374
10.099713662116246	8.0124035	2.8306189
10.117308823990651	8.03984	2.8354611
10.134904225021844	8.108746	2.847586
10.152499865634445	8.111576	2.8480828
10.170095746253125	8.036661	2.8349006
10.18769186730261	8.041135	2.8356895
10.205288229207675	8.069408	2.8406703
10.222884832393145	8.036459	2.8348649
10.2404816772839	7.994093	2.8273828
10.258078764304868	7.989149	2.8265083
10.275676093881035	8.017048	2.8314393
10.293273666437438	8.038856	2.8352876
10.310871482399158	7.9874268	2.8262036
10.32846954219134	7.9493904	2.8194664
10.346067846239173	7.903751	2.811361
10.363666394967908	7.957647	2.8209302
10.38126518880283	8.001048	2.8286123
10.398864228169298	8.063696	2.8396647
10.416463513492713	8.086039	2.843596
10.434063045198531	8.095579	2.845273
10.451662823712262	8.075197	2.841689
10.469262849459467	8.084641	2.8433504
10.486863122865758	7.9589014	2.8211524
10.504463644356806	7.9176207	2.8138268
10.522064414358338	7.791637	2.7913504
10.539665433296118	7.69494	2.7739756
10.557266701595987	7.6420703	2.7644296
10.574868219683818	7.5908923	2.7551575
10.592469987985552	7.5798054	2.7531447
10.610072006927185	7.571563	2.7516472
10.627674276934751	7.4659333	2.732386
10.64527679843435	7.3144917	2.7045317
10.662879571852143	7.1554537	2.674968
10.680482597614331	7.0528812	2.6557262
10.698085876147173	6.911542	2.628981
10.715689407876988	6.8246717	2.6124072
10.733293193230146	6.765561	2.6010692
10.750897232633072	6.742954	2.5967197
10.76850152651225	6.693462	2.5871725
10.786106075294207	6.538667	2.5570817
10.803710879405534	6.4198413	2.5337405
10.821315939272877	6.3233066	2.5146186
10.83892125532294	6.3190594	2.513774
10.856526827982472	6.2817473	2.5063415
10.874132657678285	6.286198	2.507229
10.891738744837243	6.2125716	2.4925032
10.909345089886271	6.131918	2.476271
10.926951693252343	6.0391827	2.457475
10.944558555362494	5.9745407	2.4442873
10.96216567664381	5.827242	2.413968
10.979773057523436	5.7924767	2.4067564
10.997380698428573	5.730929	2.393936
11.014988599786477	5.712753	2.3901365
11.032596762024461	5.662396	2.3795788
11.050205185569892	5.645679	2.3760638
11.067813870850198	5.593932	2.3651495
11.085422818292859	5.476951	2.3402886
11.10303202832541	5.3571653	2.3145552
11.120641501375454	5.3036942	2.3029752
11.138251237870636	5.268594	2.2953417
11.155861238238671	5.23206	2.2873697
11.173471502907317	5.2261586	2.2860794
11.191082032304402	5.1448774	2.2682323
11.208692826857805	5.087716	2.2555966
11.226303886995465	4.9959636	2.235165
11.243915213145371	4.9649367	2.2282138
11.261526805735578	4.91067	2.2160032
11.279138665194196	4.8439693	2.200902
11.296750791949393	4.803188	2.1916177
11.314363186429393	4.743199	2.1778886
11.331975849062479	4.7016544	2.16833
11.34958878027699	4.6130233	2.147795
11.36720198050133	4.598658	2.1444483
11.384815450163948	4.5726976	2.1383867
11.402429189693366	4.590699	2.1425917
11.420043199518153	4.468782	2.1139493
11.437657480066942	63.386185	7.961544
11.455272031768422	85.085304	9.22417
11.472886855051353	107.47547	10.367038
11.490501950344528	99.0409	9.951929
11.508117318076819	84.36085	9.184816
11.52573295867715	45.785526	6.7665005
11.543348872574514	4.1276064	2.0316513
11.560965060197946	4.1244464	2.0308733
11.57858152197655	4.1151304	2.0285785
11.59619825833949	4.0556374	2.0138614
11.613815269715985	4.0176735	2.0044136
11.631432556535323	38.53091	6.2073274
11.649050119226837	83.06035	9.113745
11.666667958219929	93.463974	9.667677
11.68428607394406	107.66509	10.376179
11.701904466828756	82.457535	9.080613
11.719523137303586	65.32129	8.082159
11.737142085798196	4.602145	2.145261
11.754761312742286	3.6742713	1.9168389
11.772380818565619	3.65187	1.9109867
11.790000603698015	3.6073892	1.8993129
11.80762066856935	3.6116343	1.90043
11.825241013609572	3.5587213	1.8864573
11.842861639248683	3.5313408	1.8791863
11.860482545916748	3.4670825	1.8620104
11.878103734043883	3.4743965	1.8639733
11.895725204060282	3.4667723	1.861927
11.91334695639619	3.425456	1.8507987
11.930968991481919	3.3988352	1.843593
11.948591309747824	3.3113024	1.8196985
11.966213911624347	3.2703714	1.8084168
11.98383679754198	3.231163	1.7975436
12.001459967931268	3.243848	1.8010685
12.019083423222835	3.2388155	1.7996709
12.036707163847352	3.2271042	1.7964143
12.05433119023556	3.2236483	1.7954521
12.071955502818259	3.1930587	1.7869132
12.089580102026313	3.164103	1.7787926
12.107204988290643	3.1437333	1.7730576
12.12483016204224	3.119092	1.7660952
12.142455623712152	3.0870728	1.7570068
12.16008137373149	3.0484884	1.7459921
12.177707412531431	3.0321798	1.7413156
12.19533374054321	3.027336	1.7399241
12.212960358198126	3.011328	1.7353178
12.230587265927545	2.9734309	1.7243639
12.248214464162889	2.9649212	1.7218946
12.265841953335649	2.9640281	1.7216353
12.283469733877375	2.9543192	1.7188133
12.301097806219685	2.9375997	1.7139428
12.31872617079425	2.894068	1.7011961
12.336354828032825	2.8826864	1.6978476
12.353983778367205	2.8853865	1.6986425
12.371613022229262	2.9193397	1.7086076
12.389242560050928	2.9213924	1.7092081
12.406872392264201	2.8842492	1.6983078
12.424502519301143	2.8496664	1.6880955
12.442132941593874	2.8206773	1.6794872
12.459763659574586	2.8115673	1.6767728
12.477394673675532	2.765672	1.663031
12.49502598432903	2.7736912	1.6654402
12.51265759196746	2.8112817	1.6766877
12.530289497023267	2.8059142	1.6750863
12.547921699928967	2.7825024	1.6680834
12.565554201117134	2.7657897	1.6630664
12.583187001020404	2.7983732	1.6728339
12.600820100071486	2.7975068	1.6725749
12.618453498703152	2.7543955	1.6596372
12.636087197348235	2.697603	1.6424382
12.65372119643964	2.7042794	1.6444694
12.671355496410326	2.71806	1.648654
12.68899009769333	2.7735162	1.6653877
12.706625000721749	2.809935	1.6762861
12.724260205928752	2.8740988	1.6953167
12.741895713747551	2.8991985	1.7027034
12.759531524611454	2.9124882	1.7066014
12.777167638953818	2.9017944	1.7034655
12.794804057208072	2.9456027	1.7162758
12.812440779807702	2.9798555	1.7262259
12.830077807186271	3.1230698	1.767221
12.847715139777405	3.1340125	1.7703142
12.865352778014795	3.3806677	1.8386592
12.882990722332197	3.5054095	1.8722739
12.90062897316344	3.5959067	1.8962876
12.918267530942412	3.6635332	1.9140358
12.935906396103071	3.5490983	1.883905
12.953545569079449	3.7054255	1.9249482
12.971185050305628	3.5180814	1.8756549
12.988824840215775	3.5232065	1.8770206
13.006464939244115	3.571368	1.8898064
13.024105347824943	3.4386582	1.8543619
13.041746066392617	3.5322447	1.8794267
13.05938709538157	3.2990894	1.8163396
13.077028435226296	3.2744853	1.8095539
13.094670086361363	3.2048712	1.7902154
13.112312049221401	3.1521423	1.7754273
13.129954324241112	3.0756257	1.7537462
13.147596911855258	2.8930466	1.7008958
13.165239812498685	2.8805315	1.6972129
13.182883026606293	2.779796	1.667272
13.200526554613058	2.6849952	1.6385955
13.218170396954017	2.6250575	1.6202029
13.235814554064284	2.6140952	1.6168164
13.253459026379034	2.6816258	1.637567
13.271103814333523	2.701479	1.6436176
13.288748918363058	2.6847942	1.6385342
13.306394338903031	2.6258307	1.6204416
13.32404007638889	2.595282	1.6109879
13.341686131256164	2.6249604	1.620173
13.359332503940449	2.6192915	1.6184225
13.376979194877402	2.634639	1.6231571
13.394626204502751	2.674319	1.6353345
13.412273533252307	2.6841059	1.6383241
13.429921181561937	2.695898	1.641919
13.447569149867581	2.6872652	1.639288
13.465217438605247	2.7021751	1.6438295
13.482866048211022	2.691141	1.6404697
13.500514979121052	2.6676397	1.6332911
13.518164231771568	2.6366181	1.6237667
13.535813806598844	2.6187499	1.6182551
13.553463704039254	2.6281564	1.621159
13.571113924529229	2.62772	1.6210244
13.588764468505275	2.5840302	1.6074919
13.606415336403956	2.608446	1.6150684
13.624066528661917	2.6203454	1.6187481
13.641718045715882	2.7235124	1.6503068
13.659369888002635	2.7566376	1.6603125
13.67702205595903	2.8632483	1.6921135
13.694674550021993	2.934498	1.7130377
13.712327370628532	3.0136795	1.7359953
13.729980518215713	3.0777133	1.7543412
13.747633993220681	3.1448724	1.7733788
13.765287796080647	3.2069924	1.7908077
13.7829419272329	3.2658212	1.8071584
13.800596387114801	3.279566	1.8109572
13.818251176163775	3.3174293	1.8213812
13.835906294817324	3.3349044	1.8261721
13.853561743513023	3.3751202	1.83715
13.871217522688525	3.3749616	1.8371068
13.888873632781538	3.3775513	1.8378116
13.906530074229858	3.419113	1.8490844
13.92418684747135	3.4390159	1.8544583
13.941843952943948	3.4655397	1.861596
13.959501391085665	3.4693897	1.8626298
13.977159162334578	3.4009297	1.8441609
13.994817267128846	3.3194432	1.8219339
14.012475705906693	3.2220032	1.7949939
14.030134479106424	3.1603289	1.7777314
14.047793587166414	3.104182	1.761869
14.065453030525108	3.0413623	1.7439502
14.083112809621026	3.0082052	1.7344178
14.100772924892766	2.939964	1.7146324
14.118433376778997	2.9295845	1.7116029
14.136094165718458	2.8253508	1.6808779
14.153755292149969	2.7853634	1.6689408
14.171416756512416	2.7074435	1.645431
14.189078559244768	2.6394668	1.6246436
14.20674070078606	2.555863	1.5987066
14.224403181575408	2.5029333	1.5820662
14.242066002051999	2.4379556	1.5613954
14.259729162655093	2.4163694	1.5544676
14.277392663824022	2.4292762	1.5586135
14.295056505998208	2.4237225	1.5568309
14.312720689617128	2.3974538	1.5483713
14.330385215120348	2.3986921	1.5487711
14.348050082947497	2.425011	1.5572447
14.3657152935383	2.4473822	1.5644112
14.383380847332528	2.4364185	1.5609031
14.401046744770051	2.4116771	1.5529575
14.418712986290798	2.3891234	1.545679
14.436379572334793	2.4007297	1.5494288
14.454046503342123	2.4201527	1.555684
14.471713779752946	2.4262903	1.5576553
14.489381402007504	2.3855095	1.5445094
14.507049370546113	2.3737757	1.5407063
14.524717685809168	2.3459244	1.5316411
14.542386348237134	2.3881361	1.5453596
14.560055358270553	2.3947046	1.5474833
14.577724716350051	2.4573605	1.567597
14.595394422916325	2.4690082	1.5713078
14.61306447841015	2.5180771	1.586845
14.63073488327237	2.515986	1.5861859
14.648405637943917	2.5150404	1.5858879
14.6660767428658	2.468014	1.5709914
14.683748198479094	2.540336	1.5938431
14.701420005224954	2.5778124	1.6055567
14.719092163544628	2.636972	1.6238756
14.73676467387942	2.62445	1.6200154
14.754437536670727	2.6461236	1.626691
14.772110752360014	2.6808834	1.6373403
14.78978432138882	2.6977654	1.6424875
14.807458244198777	2.6899254	1.6400992
14.82513252123159	2.6373923	1.624005
14.842807152929028	2.666715	1.6330079
14.860482139732962	2.697318	1.6423514
14.87815748208531	2.6890051	1.6398187
14.8958331804281	2.661592	1.6314386
14.91350923520342	2.6216233	1.6191428
14.931185646853438	2.6672215	1.6331631
14.948862415820408	2.6598713	1.6309112
14.966539542546656	2.671406	1.6344436
14.98421702747459	2.6079075	1.6149017
15.001894871046696	2.5851626	1.6078441
15.019573073705542	2.5626423	1.6008255
15.037251635893766	2.5868492	1.6083685
15.054930558054092	2.648689	1.6274793
15.072609840629323	2.6903727	1.6402355
15.090289484062351	2.7811522	1.6676787
15.107969488796124	2.987643	1.72848
15.125649855273691	3.2199152	1.7944123
15.14333058393817	3.5954154	1.8961581
15.161011675232768	4.0593047	2.0147717
15.17869312960076	4.642446	2.1546335
15.196374947485506	5.293995	2.3008683
15.214057129330447	6.675924	2.583781
15.231739675579114	8.834504	2.9722893
15.249422586675102	13.398298	3.6603687
15.267105863062092	17.852848	4.225263
15.284789505183847	24.88165	4.988151
15.302473513484218	29.691721	5.449011
15.320157888407127	33.786736	5.812636
15.337842630396578	32.709606	5.719231
15.355527739896656	29.88677	5.4668794
15.37321321735153	23.266483	4.8235345
15.39089906320545	15.994809	3.999351
15.408585277902748	10.300061	3.2093709
15.42627186188783	6.4540253	2.5404773
15.443958815605198	4.692252	2.1661606
15.461646139499424	3.8712542	1.9675503
15.479333834015168	3.3851495	1.8398776
15.497021899597165	3.0554655	1.7479889
15.514710336690234	2.8408778	1.6854904
15.53239914573928	2.7167995	1.6482717
15.550088327189297	2.6184564	1.6181645
15.567777881485336	2.558693	1.5995915
15.58546780907256	2.5205517	1.5876245
15.6031581103962	2.49824	1.5805821
15.620848785901568	2.4481592	1.5646595
15.638539836034063	2.4645479	1.5698879
15.656231261239173	2.4928794	1.5788854
15.673923061962451	2.48961	1.5778497
15.691615238649552	2.4747329	1.5731283
15.709307791746202	2.4428663	1.5629672
15.727000721698221	2.4458232	1.5639127
15.744694028951498	2.4426122	1.5628859
15.76238771395202	2.4008422	1.5494652
15.780081777145844	2.3617177	1.5367881
15.797776218979125	2.3230894	1.5241684
15.815471039898094	2.3132372	1.520933
15.833166240349064	2.3581774	1.5356358
15.850861820778437	2.409702	1.5523216
15.868557781632699	2.4239264	1.5568963
15.886254123358412	2.4281332	1.5582469
15.903950846402232	2.4250674	1.5572628
15.921647951210897	2.402218	1.5499091
15.939345438231225	2.4241514	1.5569687
15.957043307910133	2.4610128	1.5687616
15.974741560694602	2.521643	1.5879682
15.992440197031714	2.5060554	1.5830525
16.01013921736862	2.4743273	1.5729995
16.02783862215259	2.4544277	1.5666614
16.045538411830933	2.4641986	1.5697767
16.06323858685107	2.4651	1.5700637
16.080939147660512	2.4566221	1.5673615
16.09864009470684	2.4246454	1.5571274
16.11634142843774	2.4067836	1.5513812
16.134043149300954	2.3861392	1.5447133
16.15174525774433	2.4010234	1.5495236
16.169447754215817	2.4199047	1.5556043
16.18715063916342	2.427792	1.5581374
16.204853913035244	2.4208205	1.5558987
16.222557576279478	2.4411824	1.5624284
16.240261629344403	22.423338	4.7353287
16.257966072678386	42.976414	6.5556397
16.275670906729868	38.094524	6.172076
16.293376131947387	2.5343013	1.5919489
16.31108174877957	2.5219545	1.5880663
16.328787757675133	2.5245836	1.5888938
16.34649415908287	2.5106275	1.584496
16.364200953451657	2.5183685	1.5869368
16.38190814123048	2.5564296	1.5988839
16.39961572286839	2.6124978	1.6163223
16.41732369881455	2.63599	1.6235732
16.43503206951817	2.6647716	1.6324128
16.45274083542859	2.755254	1.6598958
16.47044999699522	2.8237154	1.6803914
16.488159554667558	2.9023223	1.7036203
16.505869508895184	2.9591408	1.7202153
16.523579860127786	2.9836621	1.7273281
16.541290608815117	3.032413	1.7413825
16.559001755407035	3.1096013	1.7634062
16.57671330035348	3.2268505	1.7963437
16.59442524410448	3.3009706	1.8168573
16.61213758711015	3.452936	1.8582077
16.629850329820705	3.5081167	1.8729967
16.647563472686436	3.5648444	1.8880795
16.665277016157724	3.4607632	1.8603127
16.682990960685053	3.460865	1.86034
16.70070530671898	3.450011	1.8574206
16.718420054710155	3.5213838	1.876535
16.736135205109335	3.554913	1.8854477
16.753850758367335	3.6035528	1.8983027
16.771566714935087	3.625332	1.9040304
16.789283075263597	3.70164	1.9239646
16.80699983980398	3.730877	1.9315478
16.82471700900741	3.8164659	1.9535778
16.84243458332518	3.9110231	1.9776307
16.860152563208665	3.9941108	1.9985272
16.87787094910932	4.0632706	2.0157557
16.89558974147871	4.104665	2.0259972
16.913308940768466	4.177231	2.0438275
16.931028547430333	4.236733	2.0583327
16.94874856191613	4.31673	2.0776742
16.966468984677785	4.362335	2.0886204
16.98418981616729	4.4271073	2.1040692
17.00191105683676	4.4343266	2.1057842
17.019632707138374	4.421555	2.1027493
17.03735476752442	4.44538	2.108407
17.05507723844728	4.5300455	2.1283903
17.072800120359403	4.5475726	2.1325037
17.090523413713353	4.562927	2.1361008
17.108247118961785	4.579335	2.139938
17.125971236557437	4.589223	2.1422472
17.143695766953133	4.6144404	2.148125
17.161420710601806	4.5816326	2.1404748
17.179146067956477	4.608087	2.1466455
17.19687183947025	4.618345	2.1490335
17.21459802559634	4.645508	2.155344
17.232324626788028	4.63822	2.1536527
17.25005164349871	4.596825	2.1440208
17.267779076181863	4.5261583	2.127477
17.285506925291074	4.5099998	2.123676
17.30323519127999	4.5250425	2.1272147
17.320963874602384	4.54957	2.1329722
17.33869297571211	4.5231776	2.1267765
17.356422495063114	4.4932017	2.1197174
17.37415243310944	4.482607	2.1172168
17.391882790305218	4.464558	2.11295
17.40961356710468	4.5159063	2.1250663
17.42734476396215	4.606185	2.1462026
17.445076381332044	4.680403	2.163424
17.462808419668868	4.675551	2.1623023
17.48054087942723	4.7039824	2.1688666
17.498273761061835	4.8121815	2.1936686
17.51600706502747	5.1500497	2.269372
17.533740791779024	5.7529216	2.3985248
17.551474941771485	6.6278515	2.5744615
17.56920951545993	8.572543	2.9278905
17.586944513299528	9.867638	3.1412797
17.60467993574556	12.9045725	3.5922935
17.622415783253373	15.643858	3.9552317
17.64015205627843	18.387209	4.288031
17.657888755276293	20.465548	4.523886
17.675625880702604	21.907652	4.680561
17.69336343301311	20.35205	4.511325
17.71110141266366	18.221148	4.268624
17.728839820110178	15.374856	3.9210784
17.746578655808705	12.332306	3.5117383
17.764317920215372	10.214384	3.195995
17.7820576137864	8.588642	2.9306386
17.79979773697811	7.224369	2.6878185
17.81753829024692	5.9759455	2.4445746
17.835279274049356	5.224645	2.2857482
17.85302068884201	4.48859	2.1186292
17.870762535081607	4.07362	2.018321
17.888504813224934	3.8069272	1.9511348
17.90624752372891	3.6486619	1.9101471
17.923990667050536	3.5137208	1.8744922
17.941734243646895	3.4491944	1.8572007
17.959478253975185	3.4420238	1.8552692
17.9772226984927	3.4312813	1.8523718
17.994967577656833	3.4082057	1.8461326
18.01271289192506	3.366289	1.8347449
18.030458641754965	3.348062	1.829771
18.04820482760425	3.3266234	1.8239033
18.06595144993067	3.2601523	1.8055892
18.083698509192125	3.2152271	1.7931055
18.101446005846576	3.228324	1.7967538
18.119193940352105	3.2558181	1.8043885
18.136942313166887	3.2369912	1.799164
18.1546911247492	3.1685188	1.7800333
18.1724403755574	3.134479	1.770446
18.19019006604997	3.0929463	1.7586775
18.207940196685467	3.066765	1.7512182
18.225690767922575	3.0893326	1.7576498
18.243441780220046	3.1253703	1.7678716
18.261193234036764	3.1384554	1.7715687
18.278945129831676	3.1152327	1.7650021
18.29669746806386	3.0675344	1.7514378
18.314450249192483	3.0496106	1.7463135
18.3322034736768	3.0116172	1.7354012
18.349957141976184	3.0176141	1.7371281
18.3677112545501	2.9874697	1.7284298
18.385465811858108	2.995207	1.7306666
18.403220814359884	3.0250957	1.7392802
18.420976262515172	3.055988	1.7481384
18.43873215678387	3.0709925	1.7524247
18.456488497625923	3.092411	1.7585253
18.474245285501407	3.2032604	1.7897655
18.492002520870486	3.2593215	1.8053591
18.50976020419343	3.331665	1.825285
18.527518335930615	3.6149604	1.901305
18.545276916542516	4.1441684	2.035723
18.563035946489688	4.3110924	2.076317
18.580795426232832	4.7636085	2.1825693
18.598555356232698	4.695603	2.166934
18.616315736950185	5.0018845	2.2364893
18.63407656884626	4.6784563	2.1629739
18.65183785238201	4.8624654	2.2050998
18.669599588018617	4.634436	2.152774
18.68736177621737	4.6091976	2.1469042
18.705124417439652	4.632467	2.1523166
18.72288751214696	4.4769096	2.115871
18.740651060800886	4.622533	2.1500077
18.758415063863115	4.331874	2.0813155
18.77617952179546	4.42014	2.102413
18.793944435059814	4.166222	2.0411325
18.811709804118184	4.1545763	2.0382779
18.829475629432675	4.1264205	2.0313592
18.8472419114655	3.9539282	1.9884487
18.86500865067897	4.079625	2.0198083
18.88277584753551	3.76811	1.941162
18.90054350249763	3.7528305	1.9372224
18.918311616027957	3.435035	1.8533847
18.936080188589226	3.331557	1.8252553
18.953849220644265	3.0233948	1.7387912
18.971618712656007	2.811117	1.6766386
18.9893886650875	2.7961073	1.6721565
19.007159078401887	7.9823146	2.825299
19.024929953062408	32.86238	5.732572
19.042701289532435	32.823986	5.7292223
19.060473088275405	25.402979	5.040137
19.07824534975489	2.6825998	1.6378644
19.096018074434568	2.610255	1.6156284
19.113791262778197	2.5715973	1.60362
19.13156491524966	2.5229955	1.588394
19.149339032312945	2.524975	1.589017
19.167113614432136	2.5281198	1.5900062
19.184888662071433	2.5571938	1.5991228
19.202664175695123	2.5703206	1.6032219
19.220440155767623	2.554751	1.5983589
19.238216602753447	2.5303576	1.5907098
19.2559935171172	2.5211246	1.5878049
19.27377089932361	2.5027745	1.582016
19.291548749837514	2.4908402	1.5782396
19.309327069123835	2.4559383	1.5671433
19.32710585764763	2.4654567	1.5701773
19.344885115874032	2.4564452	1.5673051
19.362664844268313	2.467844	1.5709373
19.380445043295822	2.494935	1.5795363
19.39822571342203	2.4738574	1.5728501
19.41600685511252	2.445878	1.5639303
19.43378846883297	2.4662318	1.5704241
19.451570555049173	2.494321	1.579342
19.469353114227037	2.4926746	1.5788206
19.48713614683254	2.4846172	1.5762669
19.50491965333182	2.447692	1.5645101
19.52270363419109	2.418944	1.5552955
19.540488089876686	2.4480147	1.5646133
19.55827302085503	2.485795	1.5766404
19.576058427592674	2.504562	1.5825808
19.593844310556282	2.4765675	1.5737114
19.611630670212598	2.453929	1.5665021
19.629417507028506	2.4514015	1.5656952
19.64720482147098	2.4480934	1.5646384
19.6649926140071	2.4692833	1.5713954
19.682780885104084	2.4600875	1.5684667
19.70056963522921	2.4462597	1.5640523
19.718358864849908	2.4495213	1.5650947
19.7361485744337	2.4814126	1.57525
19.753938764448215	2.4917698	1.578534
19.771729435361202	2.4691536	1.571354
19.789520587640506	2.4415162	1.5625352
19.807312221754092	2.42279	1.5565314
19.825104338170043	2.4113517	1.5528527
19.842896937356517	2.4252038	1.5573065
19.860690019781824	2.4443073	1.563428
19.87848358591436	2.479369	1.5746012
19.896277636222635	2.5231676	1.5884482
19.914072171175278	2.4914691	1.5784389
19.931867191241015	2.4622526	1.5691566
19.94966269688869	2.423051	1.5566152
19.967458688587264	2.4619143	1.5690489
19.985255166805807	2.4784517	1.57431
20.00305213201348	2.453444	1.5663474
20.020849584679578	2.4197676	1.5555602
20.038647525273507	2.424101	1.5569525
20.05644595426477	2.4162514	1.5544297
20.07424487212299	2.4095273	1.5522652
20.092044279317903	2.3969498	1.5482086
20.109844176319353	2.382818	1.5436379
20.127644563597304	2.3742921	1.5408738
20.145445441621817	2.3961897	1.547963
20.16324681086307	2.3977957	1.5484817
20.181048671791373	2.3711627	1.539858
20.198851024877122	2.37585	1.5413792
20.216653870590836	2.3682992	1.5389279
20.234457209403146	2.3752742	1.5411924
20.252261041784802	2.3638978	1.5374973
20.270065368206662	2.3619647	1.5368685
20.287870189139685	2.3449948	1.5313376
20.305675505054968	2.3613482	1.5366678
20.323481316423702	2.38488	1.5443057
20.341287623717207	2.3553367	1.5347106
20.359094427406884	2.3098059	1.5198046
20.376901727964288	2.2826202	1.5108342
20.39470952586107	2.2999277	1.5165513
20.41251782156899	2.3214324	1.5236248
20.430326615559935	2.3385608	1.5292354
20.448135908305886	2.346234	1.5317422
20.465945700278965	2.3619423	1.5368612
20.483755991951384	2.3432527	1.5307686
20.50156678379548	2.3355985	1.5282665
20.519378076283708	2.305386	1.5183498
20.537189869888635	2.305136	1.5182674
20.55500216508294	2.2840126	1.511295
20.572814962339415	2.3077009	1.5191119
20.59062826213098	2.2979343	1.5158939
20.60844206493066	2.298699	1.5161461
20.626256371211593	2.3008235	1.5168465
20.644071181447032	2.3141391	1.5212295
20.66188649611036	2.322592	1.5240053
20.67970231567506	2.3066525	1.5187668
20.697518640614742	2.2916813	1.5138301
20.715335471403122	2.292656	1.5141519
20.73315280851404	2.3041885	1.5179554
20.750970652421447	2.290464	1.5134279
20.768789003599412	2.2369304	1.495637
20.786607862522136	2.2090123	1.4862746
20.8044272296639	2.2299814	1.4933122
20.82224710549913	2.2822392	1.5107082
20.84006749050237	2.2787378	1.5095489
20.857888385148268	3.840562	1.9597352
20.8757097899116	45.944386	6.7782288
20.893531705267254	64.80647	8.050247
20.911354131690224	83.788956	9.153631
20.92917706965566	69.003784	8.306851
20.94700051963877	50.072685	7.0762057
20.96482448211493	29.387938	5.4210644
20.982648957559622	4.1560025	2.0386276
21.00047394644843	2.2583368	1.5027764
21.01829944925707	2.260698	1.5035619
21.036125466461375	2.2556574	1.5018846
21.053951998537297	2.245272	1.4984231
21.071779045960906	2.2258718	1.4919356
21.089606609208378	2.1971462	1.4822774
21.10743468875603	2.1714618	1.4735881
21.12526328508028	2.1804228	1.4766254
21.143092398657675	2.1981883	1.4826288
21.16092202996488	2.2222962	1.4907368
21.17875217947867	2.2088342	1.4862148
21.19658284767596	2.2105834	1.486803
21.21441403503377	2.182731	1.4774069
21.232245742029225	2.171109	1.4734683
21.2500779691396	2.1568277	1.4686142
21.26791071684227	2.1493587	1.4660691
21.28574398561475	2.1340826	1.46085
21.30357777593465	2.1270423	1.4584383
21.321412088279704	2.1460824	1.4649513
21.339246923127792	2.1529434	1.4672911
21.357082280956888	2.1613104	1.4701396
21.3749181622451	2.1387568	1.4624488
21.392754567470647	2.1355147	1.4613401
21.41059149711187	2.1497107	1.4661891
21.42842895164726	2.165367	1.4715185
21.446266931555378	2.15579	1.4682609
21.464105437314945	2.1032693	1.4502653
21.481944469404798	2.0812452	1.4426521
21.49978402830388	2.0862138	1.4443731
21.51762411449127	2.0818975	1.4428782
21.53546472844617	2.0712297	1.4391768
21.553305870647876	2.0615706	1.4358171
21.571147541575865	2.0569894	1.4342208
21.58898974170967	2.071342	1.4392158
21.60683247152899	2.059036	1.4349341
21.62467573151363	2.0516806	1.4323689
21.642519522143523	2.0322778	1.4255798
21.660363843898722	2.040761	1.428552
21.6782086972594	2.0335605	1.4260297
21.696054082705864	2.0342264	1.4262631
21.713900000718535	2.0325718	1.4256829
21.73174645177795	2.0310411	1.425146
21.749593436364794	2.0506551	1.4320109
21.767440954959845	2.044269	1.4297794
21.785289008044032	2.0187309	1.4208205
21.803137596098388	2.0011356	1.414615
21.820986719604086	2.0322073	1.4255551
21.838836379042412	2.0249012	1.4229902
21.85668657489478	1.9879997	1.4099644
21.87453730764273	1.9717035	1.4041736
21.892388577767914	2.004282	1.4157267
21.91024038575213	2.0210555	1.4216383
21.928092732077285	1.9872922	1.4097135
21.945945617225426	1.9584467	1.3994452
21.963799041678694	1.9474988	1.3955282
21.981653005919398	31.282118	5.593042
21.999507510429943	78.07419	8.83596
22.01736255569286	73.01245	8.544732
22.035218142190818	4.127095	2.0315254
22.05307427040661	1.9787164	1.4066685
22.07093094082315	2.0044081	1.4157712
22.088788153923474	2.0015388	1.4147575
22.106645910190746	1.9641321	1.401475
22.12450421010827	1.9216716	1.3862437
22.142363054159464	1.935928	1.3913763
22.16022244282787	1.995448	1.4126033
22.178082376597164	2.0162196	1.4199365
22.195942855951145	2.0363123	1.4269942
22.213803881373742	2.0101187	1.4177866
22.231665453349002	2.0076358	1.4169106
22.24952757236111	1.9788367	1.4067113
22.26739023889438	1.9722755	1.4043772
22.28525345343323	1.9754884	1.4055207
22.30311721646225	1.9738255	1.404929
22.320981528466113	1.9818462	1.4077806
22.33884638992964	1.9714563	1.4040855
22.356711801337788	1.9654874	1.4019583
22.37457776317561	1.9206167	1.3858632
22.392444275928337	1.9169698	1.3845468
22.410311340081282	1.9181874	1.3849864
22.428178956119904	1.9431707	1.3939766
22.446047124529805	1.9800411	1.4071393
22.46391584579669	2.014929	1.419482
22.481785120406414	1.9875044	1.4097887
22.49965494884496	1.9473708	1.3954823
22.51752533159841	1.9229189	1.3866935
22.53539626915302	1.940155	1.3928945
22.553267761995137	1.9402986	1.392946
22.571139810611264	1.9335996	1.3905393
22.589012415488025	1.9195935	1.385494
22.60688557711216	1.9271841	1.3882306
22.624759295970566	1.9523735	1.3972735
22.642633572550263	1.9503886	1.3965632
22.660508407338362	1.9307996	1.3895322
22.67838380082217	1.9253708	1.3875773
22.696259753489077	1.8969501	1.3772981
22.714136265826614	1.902671	1.3793734
22.73201333832246	1.893658	1.3761024
22.74989097146439	1.9044893	1.3800323
22.76776916574035	1.9076287	1.3811693
22.785647921638393	1.9133719	1.3832469
22.803527239646712	1.9094652	1.381834
22.82140712025363	1.8726039	1.3684312
22.839287563947593	1.8780416	1.3704166
22.85716857121719	1.8929397	1.3758415
22.875050142551135	1.8889705	1.3743982
22.892932278438277	1.9242975	1.3871905
22.910814979367604	1.9441043	1.3943114
22.928698245828222	1.9579912	1.3992825
22.946582078309387	1.918216	1.3849968
22.96446647730047	1.9133081	1.3832238
22.98235144329098	1.8992336	1.3781269
23.000236976770562	1.9156471	1.3840691
23.018123078229	1.8916863	1.3753859
23.03600974815619	1.8982282	1.377762
23.053896987042194	1.9573495	1.3990531
23.071784795377173	1.9971107	1.4131917
23.08967317365145	2.0055285	1.4161668
23.10756212235546	1.9778556	1.4063625
23.125451641979787	1.9563037	1.3986793
23.143341733015134	1.9311677	1.3896646
23.161232395952357	1.9261576	1.3878608
23.179123631282426	1.936854	1.391709
23.197015439496468	1.9403622	1.3929689
23.214907821085717	1.9456795	1.3948761
23.23280077654157	1.9333682	1.3904561
23.250694306355538	1.9384217	1.3922721
23.268588411019277	1.9362497	1.3914919
23.28648309102458	1.9355532	1.3912416
23.304378346863356	1.9153906	1.3839763
23.322274179027676	1.8821818	1.3719263
23.340170588009723	1.8655721	1.3658595
23.358067574301852	1.910701	1.3822811
23.37596513839651	1.9413096	1.3933089
23.39386328078629	1.9463139	1.3951036
23.411762001963947	1.9154907	1.3840126
23.429661302422353	1.9263422	1.3879273
23.4475611826545	1.9447156	1.3945307
23.46546164315356	1.9237846	1.3870057
23.48336268441279	1.8986666	1.3779211
23.501264306925638	1.9175377	1.3847518
23.51916651118564	1.9220648	1.3863856
23.537069297686497	1.9437068	1.3941689
23.554972666922037	1.9212775	1.3861016
23.57287661938623	1.9394332	1.3926353
23.59078115557318	1.9242595	1.3871769
23.608686275977128	1.9242884	1.3871872
23.62659198109246	1.9189155	1.3852493
23.6444982714137	1.903841	1.3797975
23.66240514743549	1.9093066	1.3817766
23.68031260965263	1.8894608	1.3745766
23.698220658560068	1.8844057	1.3727366
23.716129294652845	1.8907356	1.3750402
23.7340385184262	1.893345	1.3759887
23.75194833037546	1.8826885	1.372111
23.769858730996123	1.8658735	1.3659698
23.78776972078382	1.8981416	1.3777306
23.80568130023431	1.91825	1.385009
23.823593469843495	1.885886	1.3732756
23.841506230107424	1.8749534	1.3692894
23.859419581522275	1.9122292	1.3828337
23.87733352458438	1.9218737	1.3863165
23.89524805979019	1.9231071	1.3867614
23.913163187636318	1.9343967	1.3908259
23.931078908619508	1.9646634	1.4016645
23.948995223236633	1.993615	1.4119543
23.966912131984735	2.0093079	1.4175006
23.98482963536096	2.077664	1.4414104
24.002747733862616	2.0900419	1.4456977
24.020666427987155	2.0657587	1.4372747
24.038585718232156	2.0529094	1.4327978
24.056505605095353	2.035857	1.4268346
24.074426089074617	2.0167506	1.4201235
24.092347170667946	2.0288577	1.4243797
24.110268850373515	2.0466561	1.4306139
24.128191128689586	2.0563893	1.4340116
24.146114006114626	2.0283468	1.4242004
24.164037483147187	2.057453	1.4343824
24.181961560286005	2.0571356	1.4342718
24.199886238029926	2.0579526	1.4345566
24.21781151687797	2.0598848	1.4352299
24.235737397329274	2.048323	1.4311963
24.253663879883135	2.0563993	1.4340152
24.271590965038975	2.0715902	1.439302
24.289518653296376	2.0666313	1.4375783
24.30744694515505	2.0551205	1.4335692
24.32537584111486	2.0272272	1.4238073
24.34330534167581	2.0063121	1.4164435
24.361235447338046	1.9550854	1.3982437
24.379166158601876	1.9860046	1.4092567
24.39709747596772	1.9854556	1.409062
24.41502939993615	1.9842155	1.4086218
24.432961931007917	1.9739647	1.4049785
24.450895069683856	2.004176	1.4156892
24.468828816465	2.0311353	1.425179
24.4867631718525	2.0226057	1.4221834
24.504698136347656	1.9988382	1.4138027
24.52263371045192	1.9712828	1.4040238
24.540569894666874	1.9531949	1.3975675
24.558506689494266	1.9476207	1.3955718
24.57644409543597	1.9193915	1.385421
24.594382112994012	1.8911916	1.375206
24.61232074267057	1.9162655	1.3842924
24.630259984967953	1.9726971	1.4045274
24.64819984038863	1.9919317	1.4113581
24.66614030943522	2.0096931	1.4176365
24.684081392610462	2.024602	1.4228851
24.702023090417274	2.005706	1.4162295
24.7199654033587	1.9891093	1.4103578
24.737908331937927	2.0244095	1.4228175
24.755851876658305	2.0746636	1.4403692
24.773796038023324	2.1098185	1.4525214
24.79174081653661	2.1441188	1.464281
24.809686212701962	2.1304255	1.4595977
24.827632227023294	2.1041403	1.4505655
24.8455788600047	2.1089833	1.4522339
24.8635261121504	2.1337533	1.4607372
24.88147398396475	2.1036198	1.450386
24.899422475952303	2.0943475	1.4471861
24.917371588617698	2.097815	1.4483836
24.935321322465768	2.1454568	1.4647378
24.953271678001478	2.2538633	1.5012872
24.97122265572994	2.4531078	1.5662401
24.989174256156414	2.7804792	1.6674769
25.00712647978632	3.3329327	1.8256321
25.02507932712521	4.345854	2.0846713
25.043032798678798	5.8512435	2.4189343
25.060986894952933	7.484899	2.7358544
25.078941616453637	8.895231	2.9824874
25.096896963687055	9.801467	3.1307294
25.114852937159508	10.614916	3.258054
25.132809537377444	10.515319	3.2427332
25.150766764847468	9.890234	3.1448743
25.168724620076347	8.515438	2.9181223
25.186683103570985	7.2962084	2.7011495
25.204642215838426	5.854236	2.4195528
25.222601957385894	4.679495	2.163214
25.24056232872074	3.615788	1.9015225
25.25852333035048	2.831662	1.6827543
25.276484962782778	2.3441422	1.5310591
25.294447226525435	2.129963	1.4594393
25.312410122086423	2.0480077	1.4310862
25.330373649973843	1.9908777	1.4109846
25.348337810695988	1.9952654	1.4125386
25.366302604761245	1.9798478	1.4070706
25.384268032678207	1.9379385	1.3920985
25.40223409495558	1.9071953	1.3810124
25.420200792102257	1.8899436	1.3747522
25.438168124627246	1.8667841	1.3663031
25.45613609303974	1.8536037	1.3614712
25.474104697849057	1.9017419	1.3790365
25.492073939564698	1.9359722	1.3913922
25.510043818696285	1.9123094	1.3828628
25.528014335753614	1.8652518	1.3657422
25.54598549124664	1.8475611	1.3592502
25.56395728568544	1.8549775	1.3619756
25.58192971958028	1.9217343	1.3862664
25.59990279344156	1.9051535	1.380273
25.617876507779833	1.9243734	1.3872179
25.635850863105826	1.9099272	1.3820012
25.653825859930386	1.8882784	1.3741465
25.671801498764548	1.8443304	1.3580613
25.68977778011949	1.8303574	1.3529071
25.707754704506524	1.7963957	1.3402969
25.725732272437153	1.7948055	1.3397036
25.743710484423012	1.8413396	1.3569597
25.761689340975888	1.8498824	1.3601038
25.77966884260774	1.8362936	1.3550991
25.797648989830662	1.8250631	1.3509489
25.815629783156922	1.8510778	1.3605433
25.83361122309895	1.8741537	1.3689973
25.85159331016929	1.8863726	1.3734528
25.869576044880695	1.8756336	1.3695377
25.887559427746034	1.8470814	1.3590738
25.90554345927836	1.8330282	1.3538938
25.92352813999086	1.8377098	1.3556216
25.94151347039689	1.8377032	1.3556191
25.959499451009965	1.8017246	1.3422834
25.97748608234374	1.8465414	1.358875
25.995473364912062	1.9071496	1.3809959
26.013461299228904	1.9183401	1.3850416
26.03144988580839	1.8344504	1.3544189
26.04943912516483	1.7859933	1.3364106
26.067429017812675	1.8189716	1.3486925
26.085419564266537	1.8027661	1.3426713
26.103410765041186	1.7736971	1.3318022
26.12140262065155	1.7717744	1.3310802
26.139395131612723	1.7980503	1.340914
26.157388298439948	1.8260592	1.3513176
26.17538212164861	1.7979764	1.3408864
26.193376601754295	1.7783282	1.3335397
26.211371739272714	1.7724013	1.3313156
26.229367534719746	1.7857724	1.3363279
26.247363988611433	1.7920618	1.3386791
26.26536110146397	1.7550826	1.3247954
26.283358873793727	1.780356	1.3342998
26.301357306117204	1.8241078	1.3505954
26.319356398951104	1.8351145	1.354664
26.33735615281224	1.8677213	1.366646
26.35535656821762	1.9113315	1.3825091
26.373357645684404	1.8824592	1.3720274
26.39135938572991	1.8001745	1.3417058
26.409361788871614	1.8025796	1.3426018
26.427364855627165	1.8409023	1.3567985
26.445368586514352	1.8193817	1.3488445
26.46337298205115	1.7737269	1.3318135
26.48137804275568	1.7863885	1.3365585
26.499383769146217	1.804627	1.343364
26.517390161741215	1.7670546	1.329306
26.53539722105928	1.7815391	1.334743
26.553404947619182	1.8121468	1.34616
26.571413341939856	1.8654083	1.3657995
26.589422404540397	1.7990814	1.3412985
26.60743213594006	1.7517054	1.3235201
26.62544253665827	1.7411815	1.3195384
26.64345360721459	1.7775917	1.3332635
26.66146534812879	1.7421216	1.3198946
26.679477759920758	1.7634422	1.3279465
26.69749084311057	1.8051734	1.3435674
26.71550459821847	1.7869402	1.3367648
26.733519025764842	1.8135487	1.3466806
26.751534126270258	1.8559486	1.362332
26.769549900255434	1.8613156	1.3643004
26.787566348241267	1.8167058	1.3478523
26.80558347074881	1.812992	1.3464739
26.823601268299267	1.8038534	1.3430761
26.841619741414036	1.8073671	1.3443835
26.85963889061465	1.8034363	1.3429208
26.877658716422832	1.820381	1.349215
26.89567921936045	1.8049293	1.3434765
26.913700399949544	1.7833295	1.3354136
26.93172225871233	1.7561485	1.3251975
26.949744796171174	1.7621294	1.3274522
26.967768012848605	1.7769434	1.3330204
26.98579190926733	1.8229269	1.3501581
27.003816485950225	1.8344234	1.3544089
27.021841743420318	1.7864131	1.3365676
27.039867682200814	1.772127	1.3312126
27.057894302815072	1.7518405	1.3235711
27.07592160578664	1.7915103	1.3384731
27.0939495916392	1.7803063	1.3342812
27.111978260896635	1.7715777	1.3310063
27.13000761408296	1.8011003	1.3420508
27.148037651722397	1.8554127	1.3621354
27.166068374339304	1.8175675	1.348172
27.184099782458215	1.7672687	1.3293866
27.20213187660384	1.7693547	1.3301709
27.22016465730105	1.7361835	1.3176432
27.23819812507487	1.7533464	1.3241398
27.256232280450533	1.7671987	1.3293602
27.274267123953383	1.7816056	1.3347679
27.292302656108987	1.7905173	1.3381021
27.31033887744306	1.8050485	1.3435209
27.32837578848146	1.7838689	1.3356155
27.34641338975026	1.7748678	1.3322417
27.364451681775673	1.7776242	1.3332758
27.382490665084074	1.8063772	1.3440154
27.400530340202046	1.8318819	1.3534703
27.41857070765629	1.8801051	1.3711692
27.436611767973726	1.8416812	1.3570856
27.454653521681404	1.812503	1.3462923
27.472695969306564	1.8285427	1.3522362
27.490739111376627	1.8715453	1.3680444
27.508782948419153	1.7920569	1.3386773
27.526827480961902	1.7358936	1.3175331
27.54487270953279	1.7400273	1.319101
27.562918634659898	1.7699711	1.3304026
27.580965256871508	1.8064908	1.3440576
27.599012576696026	1.8275534	1.3518703
27.617060594662068	1.8125458	1.3463082
27.63510931129842	1.7987823	1.3411869
27.65315872713401	1.8187828	1.3486226
27.67120884269797	1.8085313	1.3448164
27.68925965851958	1.794785	1.3396958
27.707311175128307	1.800151	1.3416971
27.725363393053787	1.8526775	1.361131
27.74341631282583	1.8765988	1.3698901
27.7614699349744	1.8507717	1.3604307
27.77952426002968	2.0370138	1.4272399
27.797579288521973	2.1302507	1.4595379
27.815635020981784	2.6290112	1.6214225
27.83369145793979	2.722849	1.6501057
27.85174859992682	2.5928853	1.6102438
27.869806447473923	2.4531808	1.5662633
27.887865001112267	2.1179535	1.455319
27.905924261373233	2.0107598	1.4180126
27.92398422878836	2.0238588	1.4226239
27.94204490388936	1.9820412	1.4078499
27.96010628720813	1.954156	1.3979113
27.978168379276728	1.8752217	1.3693874
27.9962311806274	1.8510801	1.3605441
28.014294691792568	1.8601865	1.3638865
28.0323589133048	1.8780476	1.3704188
28.050423845696887	1.9022242	1.3792114
28.068489489501758	1.874776	1.3692245
28.086555845252523	1.8731439	1.3686285
28.104622913482487	1.9061846	1.3806465
28.122690694725115	1.8905938	1.3749887
28.14075918951405	1.8792757	1.3708668
28.15882839838312	1.8471149	1.359086
28.176898321866304	1.8890535	1.3744284
28.1949689604978	1.9301112	1.3892844
28.213040314811945	1.9933543	1.411862
28.23111238534327	1.9520326	1.3971516
28.249185172626493	1.9192641	1.385375
28.267258677196473	1.9122664	1.3828472
28.285332899588294	1.9377735	1.3920393
28.303407840337172	1.9448369	1.394574
28.321483499978545	1.925138	1.3874934
28.33955987904799	1.9281509	1.3885788
28.357636978081285	1.9363908	1.3915426
28.37571479761439	1.9978954	1.4134693
28.393793338183425	2.003634	1.4154978
28.41187260032469	1.9807556	1.4073932
28.429952584574686	1.967214	1.4025741
28.448033291470065	1.9799781	1.4071169
28.46611472154769	1.9771049	1.4060956
28.484196875344566	1.930158	1.3893013
28.502279753397914	1.9084351	1.3814613
28.52036335624511	1.9038163	1.3797885
28.538447684423716	1.9314469	1.389765
28.556532738471482	1.9757164	1.4056017
28.574618518926325	1.9810203	1.4074873
28.59270502632635	1.9658277	1.4020798
28.61079226120985	1.9918555	1.411331
28.628880224115274	2.065829	1.4372993
28.646968915581287	2.0685725	1.4382533
28.66505833614671	2.0213685	1.4217484
28.68314848635055	2.0262752	1.4234729
28.701239366732004	2.1004477	1.4492921
28.71933097783044	2.1318781	1.4600953
28.737423320185403	2.14347	1.4640595
28.75551639433665	2.146283	1.4650198
28.773610200824074	2.150457	1.4664437
28.791704740187793	2.1503506	1.4664074
28.80980001296809	2.1596653	1.4695799
28.827896019705413	2.2125494	1.4874641
28.845992760940433	2.2606184	1.5035353
28.86409023721397	2.2466424	1.4988804
28.88218844906704	2.1873295	1.4789623
28.900287397040845	2.190987	1.4801984
28.918387081676755	2.2432299	1.4977416
28.936487503516343	2.2734535	1.5077976
28.954588663101365	2.2760987	1.5086745
28.97269056097374	2.3250625	1.5248156
28.990793197675597	2.300497	1.516739
29.00889657374923	2.2998202	1.5165159
29.027000689737125	2.3117106	1.520431
29.04510554618196	2.3282468	1.5258594
29.06321114362659	2.401785	1.5497693
29.08131748261405	2.4422064	1.5627561
29.099424563687567	2.5064673	1.5831827
29.11753238739057	2.5155497	1.5860485
29.13564095426663	2.500375	1.5812575
29.15375026485954	2.5209253	1.5877422
29.171860319713275	2.5876226	1.608609
29.18997111937199	2.698054	1.6425754
29.20808266438002	2.7319424	1.6528589
29.226194955281898	2.7405744	1.655468
29.244307992622335	2.7640471	1.6625423
29.26242177694624	2.8647096	1.6925453
29.2805363087987	2.9428973	1.7154875
29.29865158872498	2.9360332	1.7134857
29.316767617270557	2.964185	1.7216809
29.334884394981064	2.9892123	1.7289338
29.353001922402367	3.0584457	1.7488413
29.37112020008047	3.0996208	1.760574
29.389239228561596	3.1347172	1.7705133
29.407359008392152	3.3110723	1.8196353
29.42547954011872	3.6924503	1.921575
29.44360082428809	4.154061	2.0381513
29.46172286144722	4.9804053	2.231682
29.479845652143283	6.6056757	2.5701509
29.497969196923606	9.258495	3.0427775
29.516093496335728	12.983514	3.6032643
29.5342185509274	16.525015	4.0650973
29.55234436124651	19.816053	4.451523
29.570470927841175	21.241787	4.6088815
29.588598251259686	21.029097	4.585749
29.60672633205055	19.280325	4.390937
29.624855170762405	16.164091	4.020459
29.642984767944146	12.865723	3.586882
29.66111512414481	9.657764	3.1076944
29.67924623991366	7.133866	2.6709297
29.697378115800138	5.2321887	2.2873979
29.71551075235387	4.273281	2.0671916
29.733644150124675	3.8187475	1.9541616
29.751778309662576	3.6269324	1.9044507
29.769913231517766	3.5694726	1.8893048
29.78804891624066	3.4385588	1.8543352
29.806185364381818	3.3482502	1.8298224
29.82432257649206	3.2973492	1.8158605
29.842460553122333	3.2987764	1.8162534
29.86059929482382	3.2781777	1.8105738
29.878738802147872	3.2625918	1.8062646
29.896879075646048	3.2745154	1.8095622
29.915020115870114	3.2872617	1.8130807
29.933161923371976	3.2866032	1.8128991
29.951304498703777	3.2369578	1.7991548
29.969447842417857	3.1619747	1.7781942
29.987591955066733	3.148983	1.7745374
30.005736837203123	3.1401677	1.7720518
30.023882489379943	3.1556952	1.7764276
30.04202891215028	3.201476	1.789267
30.060176106067455	3.2058675	1.7904936
30.078324071684946	3.159066	1.7773762
30.09647280955646	3.11053	1.7636695
30.114622320235863	3.1313508	1.7695624
30.132772604277257	3.1714494	1.7808564
30.1509236622349	3.182374	1.783921
30.16907549466328	3.138328	1.7715327
30.18722810211705	3.0488725	1.7461021
30.205381485151097	3.048759	1.7460696
30.22353564432045	3.0883055	1.7573575
30.241690580180403	3.09299	1.7586899
30.25984629328638	3.0476294	1.745746
30.278002784194037	3.0149488	1.7363608
30.296160053459246	3.0002337	1.7321182
30.314318101638033	3.0199034	1.7377869
30.332476929286646	3.0039845	1.7332007
30.35063653696153	2.9085073	1.7054347
30.368796925219307	2.8626845	1.691947
30.386958094616844	2.8618963	1.691714
30.40512004571115	2.9136517	1.7069422
30.423282779059463	2.920984	1.7090887
30.441446295219233	2.8912947	1.7003808
30.459610594748067	2.872174	1.694749
30.47777567820382	2.8615491	1.6916114
30.495941546144504	2.8906722	1.7001977
30.51410819912835	2.8458064	1.6869518
30.532275637713795	2.7956173	1.67201
30.55044386245946	2.8564048	1.6900902
30.56861287392416	2.8298361	1.6822116
30.586782672666956	2.814608	1.6776794
30.604953259247047	2.7934108	1.67135
30.623124634223885	2.8189259	1.6789657
30.641296798157075	2.8559518	1.6899562
30.659469751606462	2.8287375	1.6818851
30.677643495132074	2.7755177	1.6659886
30.695818029294152	2.725777	1.6509928
30.713993354653116	2.7165241	1.6481881
30.73216947176962	2.7531557	1.6592636
30.75034638120448	2.7846723	1.6687337
30.768524083518756	2.8111653	1.676653
30.786702579273673	2.8130789	1.6772236
30.80488186903069	2.92905	1.7114468
30.82306195335144	3.1011117	1.7609973
30.841242832797782	3.3786097	1.8380995
30.85942450793176	3.649411	1.9103432
30.877606979315637	3.9385488	1.9845778
30.895790247511883	4.292189	2.07176
30.913974313083134	4.7441278	2.1781018
30.932159176592283	5.1326427	2.2655337
30.95034483860237	5.555765	2.357067
30.968531299676698	5.629342	2.3726234
30.98671856037873	5.358505	2.3148444
31.00490662127215	5.0000606	2.2360816
31.023095482920848	4.45451	2.1105711
31.04128514588892	3.821553	1.9548793
31.059475610740662	3.2771592	1.8102926
31.07766687804056	2.9455063	1.7162478
31.09585894835335	2.756322	1.6602174
31.11405182224393	2.586243	1.60818
31.132245500277417	2.540935	1.5940311
31.15043998301914	2.5258222	1.5892836
31.168635271034628	2.5378234	1.5930548
31.18683136488964	2.5609558	1.6002986
31.20502826515008	2.474073	1.5729187
31.223225972382135	2.39973	1.5491062
31.241424487152155	2.4006338	1.549398
31.259623810026692	2.5300236	1.5906048
31.27782394157253	2.5940225	1.6105969
31.296024882356644	2.5548325	1.5983844
31.314226632946237	2.4931445	1.5789695
31.332429193908684	2.4817789	1.5753663
31.350632565811598	2.4900224	1.5779805
31.368836749222787	2.5425453	1.5945361
31.387041744710295	2.5350451	1.5921825
31.40524755284232	2.5376065	1.5929867
31.423454174187317	2.5902247	1.6094176
31.441661609313922	2.632215	1.6224103
31.459869858791002	2.536628	1.5926795
31.478078923187628	2.4917939	1.5785416
31.496288803073064	2.405878	1.5510893
31.514499499016807	2.3403597	1.5298234
31.532711011588546	2.2948444	1.5148743
31.550923341358178	2.3315225	1.5269324
31.56913648889584	2.2843952	1.5114216
31.587350454771844	2.2873638	1.5124032
31.605565239556732	2.352684	1.5338461
31.62378084382127	2.3551326	1.5346441
31.641997268136382	2.2916956	1.5138347
31.660214513073274	2.268285	1.5060827
31.67843257920331	2.242508	1.4975005
31.6966514670981	2.1995833	1.4830992
31.71487117732944	2.2563725	1.5021226
31.733091710469346	2.3262053	1.5251902
31.751313067090052	2.369652	1.5393674
31.769535247764008	2.2763267	1.5087501
31.787758253063878	2.213745	1.4878659
31.805982083562526	2.1879804	1.4791824
31.824206739833024	2.2190459	1.4896462
31.84243222244869	2.2412064	1.4970659
31.860658531983013	2.2288156	1.4929218
31.878885669009737	2.196636	1.4821053
31.897113634102784	2.2137148	1.4878558
31.91534242783632	2.265448	1.5051405
31.933572050784694	2.265725	1.5052325
31.951802503522508	2.2083936	1.4860665
31.970033786624548	2.1258678	1.4580356
31.988265900665834	2.115108	1.454341
32.006498846221575	2.1166193	1.4548606
32.02473262386724	2.1633763	1.470842
32.04296723417845	2.1566298	1.4685469
32.0612026777311	2.1499984	1.4662873
32.07943895510129	2.1281998	1.4588351
32.097676066865304	2.1625988	1.4705777
32.115914013599685	2.237171	1.4957175
32.13415279588115	2.213067	1.4876381
32.152392414286666	2.1828568	1.4774494
32.1706328693934	2.1975284	1.4824063
32.18887416177875	2.1245844	1.4575955
32.20711629202032	2.0885677	1.4451878
32.225359260695924	2.0759168	1.4408042
32.243603068383614	2.0339189	1.4261553
32.26184771566166	2.0482357	1.4311658
32.28009320310852	2.1232347	1.4571323
32.2983395313029	2.143395	1.4640338
32.31658670082372	2.1076474	1.4517739
32.33483471225012	2.1074076	1.4516913
32.35308356616143	2.1241703	1.4574534
32.371333263137245	2.2242315	1.4913858
32.38958380375734	2.2230272	1.4909819
32.407835188601744	2.2365007	1.4954935
32.42608741825067	2.2655544	1.5051758
32.444340493284585	2.243067	1.4976872
32.46259441428416	2.108667	1.452125
32.48084918183028	2.0873396	1.4447628
32.49910479650405	2.1206002	1.4562281
32.51736125888683	2.1573527	1.4687929
32.53561856956014	2.088487	1.4451598
32.5538767291058	1.976372	1.405835
32.572135738105764	1.960565	1.4002018
32.59039559714228	2.062758	1.4362304
32.608656306797776	2.0797954	1.4421495
32.62691786765491	2.0080483	1.4170562
32.645180280296586	1.9688334	1.4031513
32.663443545305896	2.0269985	1.423727
32.68170766326619	2.0410032	1.4286368
32.69997263476099	2.028037	1.4240917
32.7182384603741	2.0154417	1.4196625
32.7365051406895	1.9799476	1.407106
32.75477267629144	1.9998999	1.4141781
32.77304106776434	2.1096246	1.4524547
32.79131031569289	2.1298482	1.4593999
32.809580420661966	2.0451157	1.4300754
32.827851383256714	1.9136549	1.3833492
32.84612320406245	1.8491158	1.359822
32.86439588366476	1.9826342	1.4080604
32.88266942264945	2.0508306	1.4320722
32.9009438216025	1.9860978	1.4092898
32.9192190811102	1.9090332	1.3816776
32.937495201758985	1.979457	1.4069318
32.95577218413556	1.9805256	1.4073114
32.974050028826866	1.9096098	1.3818864
32.992328736420035	1.9224247	1.3865153
33.010608307502444	1.9078517	1.38125
33.02888874266169	1.8514407	1.3606765
33.047170042485604	1.9104513	1.3821907
33.06545220756225	2.0545182	1.433359
33.083735238479896	2.0807273	1.4424727
33.10201913582707	1.939737	1.3927444
33.12030390019248	1.9341455	1.3907356
33.138589532165135	1.9657831	1.4020638
33.15687603233419	1.9867209	1.4095109
33.17516340128909	1.9304539	1.3894078
33.19345163961947	1.8705661	1.3676864
33.211740747915215	1.9052826	1.3803197
33.23003072676643	1.9163756	1.3843322
33.248321576763466	1.8961705	1.3770151
33.266613298496885	1.877916	1.3703707
33.28490589255747	1.9433172	1.3940291
33.30319935953626	2.046268	1.4304782
33.32149370002451	2.0944939	1.4472367
33.339788914613706	1.97202	1.4042863
33.358085003895575	1.8756002	1.3695256
33.376381968462034	1.853737	1.36152
33.39467980890529	1.9561279	1.3986164
33.41297852581774	2.0066352	1.4165576
33.43127811979204	1.9980274	1.413516
33.44957859142105	2.0298977	1.4247447
33.467879941297866	1.9180251	1.3849279
33.486182170015844	1.9426633	1.3937945
33.50448527816853	1.8935688	1.37607
33.522789266349754	1.8782169	1.3704805
33.541094135153514	1.9303442	1.3893683
33.55939988517411	1.9045405	1.3800509
33.57770651700602	1.8206278	1.3493065
33.59601403124398	1.7965785	1.340365
33.61432242848296	1.81942	1.3488587
33.632631709318154	1.8539791	1.361609
33.650941874344994	1.8686682	1.3669924
33.66925292415916	1.8671167	1.3664248
33.68756485935654	1.9298666	1.3891964
33.70587768053328	1.9620326	1.4007257
33.724191388285746	1.9912298	1.4111094
33.74250598321054	1.9900428	1.4106888
33.760821465904506	1.9546409	1.3980848
33.77913783696474	1.947087	1.3953806
33.79745509698852	2.04916	1.4314888
33.815773246573414	1.9506924	1.3966719
33.8340922863172	1.875032	1.369318
33.852412216817896	1.8907895	1.3750598
33.87073303867377	2.04618	1.4304475
33.889054752483304	2.0889823	1.4453312
33.907377358845245	1.975485	1.4055195
33.92570085835853	1.8773557	1.3701663
33.94402525162239	1.7465019	1.3215529
33.96235053923627	1.8836492	1.372461
33.980676721799824	1.999466	1.4140247
33.999003799912984	1.9629383	1.401049
34.01733177417592	1.8823084	1.3719724
34.03566064518901	1.7697935	1.3303359
34.0539904135529	1.7728729	1.3314928
34.07232107986846	1.9747769	1.4052676
34.090652644736785	2.0373993	1.427375
34.108985108759235	1.9087943	1.3815912
34.12731847253742	1.834155	1.3543098
34.14565273667313	1.948071	1.3957331
34.16398790176847	1.9866655	1.4094912
34.18232396842574	1.8723687	1.3683453
34.20066093724749	1.8707798	1.3677645
34.21899880883651	1.8254431	1.3510896
34.23733758379583	1.800522	1.3418353
34.25567726272874	1.9672561	1.4025891
34.27401784623872	1.99279	1.4116621
34.29235933492957	1.9470832	1.3953792
34.31070172940526	1.9707978	1.403851
34.32904503027003	2.0442464	1.4297714
34.347389238128386	2.0215805	1.4218229
34.36573435358502	1.9501865	1.3964908
34.38408037724492	1.9490706	1.3960912
34.402427309713296	1.9242388	1.3871694
34.42077515159559	1.9814719	1.4076476
34.43912390349752	1.976486	1.4058756
34.45747356602499	1.9983106	1.4136162
34.47582413978423	1.9056349	1.3804474
34.49417562538163	1.8053572	1.3436358
34.51252802342388	1.839119	1.3561412
34.53088133451789	1.9416685	1.3934376
34.54923555927084	1.9569032	1.3988936
34.567590698290104	2.0172641	1.4203042
34.58594675218336	2.0440824	1.4297141
34.6043037215585	1.9852772	1.4089986
34.62266160702365	1.9488841	1.3960243
34.641020409187234	1.9361439	1.3914539
34.65938012865785	1.8335227	1.3540763
34.677740766044394	1.8948787	1.3765459
34.69610232195598	1.9873877	1.4097474
34.714464797002016	1.9133207	1.3832283
34.73282819179208	1.7943543	1.3395351
34.751192506936064	1.6721135	1.2931023
34.76955774304408	1.7233287	1.3127562
34.7879239007265	1.8730811	1.3686055
34.80629098059391	1.9194453	1.3854405
34.824658983257194	1.8384932	1.3559104
34.843027909327446	1.8808125	1.3714272
34.86139775941603	2.0563858	1.4340104
34.879768534134534	2.155841	1.4682783
34.89814023409483	2.2274826	1.4924753
34.91651285990901	2.0944917	1.447236
34.93488641218944	1.9639395	1.4014063
34.95326089154871	1.9109756	1.3823804
34.97163629859967	2.07412	1.4401805
34.99001263395542	2.0895503	1.4455277
35.00838989822934	1.9935169	1.4119196
35.02676809203499	1.8392721	1.3561977
35.04514721598624	1.8381242	1.3557744
35.063527270697215	2.1182117	1.4554077
35.081908256782256	2.193452	1.4810307
35.10029017485597	2.0689235	1.4383752
35.11867302553321	1.991373	1.4111601
35.137056809429104	2.0528495	1.4327768
35.155441527159006	2.0658083	1.437292
35.173827179338524	1.7290835	1.3149462
35.19221376658354	1.5698026	1.2529176
35.21060128951017	1.6347834	1.2785865
35.2289897487348	1.9414823	1.3933709
35.24737914487405	2.2835207	1.5111322
35.26576947854479	2.2946463	1.514809
35.28416075036418	2.060966	1.4356065
35.30255296094958	2.0403411	1.428405
35.32094611091867	1.844272	1.3580397
35.33934020088932	1.6614923	1.2889888
35.35773523147969	1.7814863	1.3347234
35.3761312033082	2.144216	1.4643142
35.394528116993506	2.1769197	1.4754388
35.41292597315452	2.129511	1.4592844
35.431324772410434	1.9674429	1.4026556
35.449724515380666	1.7757796	1.3325838
35.46812520268491	1.9698589	1.4035167
35.486526834943106	1.9377369	1.3920262
35.504929412775454	1.7112862	1.3081614
35.52333293680242	1.8071076	1.344287
35.54173740764471	1.9800639	1.4071474
35.560142825923286	1.8835106	1.3724105
35.5785491922594	1.1979613	1.0945143
35.59695650727454	0.62767804	0.79226136
35.61536477159042	0.6149216	0.7841694
