0.008763373481513119	0.0	0.0
0.026290120649546365	0.11242709	0.3353015
0.043816868432600686	0.121336736	0.34833422
0.06134361724069026	0.22633463	0.4757464
0.07887036748382949	0.23448136	0.48423275
0.0963971195720331	0.16042009	0.40052477
0.11392387391531617	0.13586141	0.36859384
0.1314506309236943	0.10812995	0.3288312
0.1489773910071836	0.10784652	0.32839993
0.16650415457580078	0.12788504	0.3576102
0.18403092203956356	0.11190217	0.3345178
0.20155769380849	0.13438383	0.366584
0.2190844702925996	0.16835788	0.41031435
0.2366112519019124	0.18424644	0.42923936
0.2541380390464497	0.20234703	0.44983
0.27166483213623416	0.19588576	0.44258985
0.28919163158128947	0.26249683	0.5123444
0.3067184377916406	0.27331683	0.5227971
0.324245251177314	0.21506755	0.46375376
0.34177207214833777	0.15562536	0.3944938
0.3592989011147415	0.09235694	0.30390286
0.37682573848655654	0.07044274	0.2654105
0.39435258467381573	0.08633094	0.29382128
0.41187944008655414	0.09848172	0.31381798
0.42940630513480854	0.12690583	0.35623845
0.446933180228618	0.14527257	0.3811464
0.4644600657780234	0.20860541	0.4567334
0.48198696219306775	0.19587354	0.44257602
0.49951386988379676	0.22055559	0.46963346
0.5170407892602581	0.20783372	0.45588785
0.5345677207325025	0.2018442	0.44927076
0.5520946647105822	0.20471288	0.45245206
0.5696216216045534	0.19159894	0.43772015
0.5871485918244737	0.14338042	0.37865606
0.6046755757804043	0.12800926	0.35778382
0.6222025738824094	0.10629424	0.32602796
0.6397295865405557	0.12202829	0.34932548
0.6572566141649129	0.14504142	0.38084304
0.6747836571655547	0.16698904	0.40864292
0.6923107159525568	0.16922581	0.41137066
0.7098377909359992	0.18489191	0.4299906
0.7273648825259653	0.20412922	0.4518066
0.7448919911325411	0.20273298	0.4502588
0.762419117165817	0.21949162	0.46849933
0.7799462610358868	0.22842431	0.47793755
0.7974734231528482	0.19083527	0.43684697
0.8150006039268024	0.2061313	0.45401683
0.8325278037678551	0.20842725	0.45653832
0.8500550230861152	0.244166	0.49413157
0.8675822622916969	0.22500561	0.47434756
0.8851095217947171	0.19800086	0.44497287
0.9026368020052984	0.16081968	0.4010233
0.9201641033335665	0.17612416	0.41967148
0.9376914261896523	0.17565025	0.41910648
0.9552187709836915	0.15855198	0.39818585
0.9727461381258234	0.19890279	0.4459852
0.990273528026193	0.24018925	0.49009106
1.0078009410949496	0.26818478	0.5178656
1.0253283777422473	0.2857295	0.5345367
1.0428558383782454	0.27879393	0.5280094
1.0603833234131086	0.3056312	0.5528392
1.0779108332570058	0.3378048	0.5812098
1.0954383683201119	0.30259228	0.5500839
1.112965929012607	0.37109658	0.609177
1.1304935157446763	0.49312198	0.70222646
1.1480211289265108	0.54966	0.7413906
1.1655487689683062	1.3831788	1.1760862
1.1830764362802655	1.66113	1.2888483
1.200604131272596	2.1124723	1.4534347
1.2181318543555117	2.4810956	1.5751494
1.235659605939232	2.5393026	1.593519
1.253187386433982	4.133159	2.0330172
1.270715196249994	6.587898	2.56669
1.2882430357975057	12.074935	3.4749007
1.3057709054867608	16.945827	4.116531
1.3232988057280106	22.793354	4.7742386
1.3408267369315112	27.818064	5.2742834
1.358354699507526	31.471703	5.6099644
1.3758826938663256	35.465088	5.955257
1.3934107204181858	37.261578	6.104226
1.410938779573391	37.94324	6.1598086
1.4284668717422309	38.902687	6.2372017
1.4459949973350033	38.6351	6.215714
1.4635231567620117	38.521473	6.206567
1.4810513504335687	37.16169	6.096039
1.4985795787599925	36.163357	6.0135975
1.5161078421516088	35.821526	5.985109
1.5336361410187505	34.991287	5.9153433
1.5511644757717598	35.10436	5.924893
1.5686928468209842	36.11176	6.009306
1.58622125457678	36.357994	6.029759
1.6037496994495108	37.299698	6.107348
1.621278181849548	36.91996	6.0761795
1.6388067021872719	37.544403	6.127349
1.6563352608730693	36.784733	6.065042
1.673863858317336	36.00752	6.0006266
1.6913924949304753	35.189484	5.9320726
1.7089211711228998	34.49243	5.873026
1.7264498873050296	33.913166	5.823501
1.7439786438872935	33.494453	5.7874393
1.7615074412801288	32.795517	5.726737
1.779036279893981	31.879866	5.646226
1.796565160139305	30.811052	5.5507703
1.814094082426564	30.181995	5.4938145
1.8316230471662298	29.300325	5.4129777
1.849152054768784	28.419128	5.3309593
1.8666811056447168	27.815664	5.274056
1.8842102002045273	27.058302	5.2017593
1.901739338858724	26.350183	5.133243
1.9192685220178245	25.551554	5.0548544
1.9367977500923557	24.755493	4.975489
1.9543270234928547	24.157093	4.9149866
1.971856342629867	23.95988	4.894883
1.9893857079139496	23.339796	4.8311276
2.006915119755667	23.052195	4.80127
2.0244445785655945	22.667015	4.7609887
2.0419740847543175	22.03558	4.694207
2.0595036387324317	21.459627	4.632454
2.0770332409105414	20.885017	4.570013
2.094562891699263	20.74554	4.554727
2.1120925915092217	20.360281	4.5122366
2.129622340751053	20.17851	4.4920497
2.1471521398354043	188.12704	13.715941
2.1646819891729323	444.5351	21.084002
2.182211889174303	440.74857	20.994013
2.1997418402501974	453.15665	21.287476
2.2172718428113023	433.06863	20.8103
2.234801897268317	320.82755	17.91166
2.2523320040319548	17.140608	4.140122
2.269862163512935	16.802807	4.0991225
2.287392376121992	16.558346	4.069195
2.304922642269869	16.378223	4.047002
2.322452962367322	16.165516	4.020636
2.3399833368251164	15.833919	3.9791856
2.357513766054032	15.523905	3.9400387
2.3750442504648586	15.151786	3.8925295
2.3925747904683963	15.074658	3.8826098
2.410105386475459	14.859534	3.8548067
2.4276360388968707	14.387257	3.7930536
2.445166748143469	14.240688	3.7736835
2.4626975146261025	13.923542	3.7314262
2.4802283387556323	13.686084	3.6994708
2.4977592209429305	13.420457	3.6633942
2.5152901615988825	13.020406	3.6083798
2.5328211611343865	12.676457	3.5604012
2.5503522199603523	12.594659	3.5488954
2.5678833384877024	12.562958	3.5444262
2.5854145171273712	12.378548	3.518316
2.6029457562903064	12.055864	3.4721556
2.620477056387469	11.920651	3.4526296
2.6380084178298326	11.7366905	3.4258854
2.655539841028383	11.550542	3.398609
2.673071326394119	11.350227	3.3690097
2.6906028743380523	11.185217	3.3444307
2.708134485271211	11.09546	3.3309848
2.7256661596046325	11.062982	3.326106
2.743197897749369	10.748047	3.2784214
2.760729700116486	10.651063	3.2635965
2.778261567117063	10.474927	3.236499
2.795793499162193	10.452121	3.232974
2.8133254966629817	10.374778	3.2209902
2.830857560030551	10.179541	3.1905391
2.8483896896760337	9.91582	3.1489396
2.865921886010578	9.693443	3.1134295
2.883454149445347	9.5556135	3.0912156
2.9009864803915177	9.464512	3.0764446
2.91851887926028	9.317203	3.0524094
2.9360513464628384	9.051534	3.0085766
2.953583882410413	8.879475	2.9798448
2.9711164875142373	8.73	2.9546573
2.9886491621855606	8.884845	2.9807458
3.0061819068356455	8.776197	2.9624648
3.023714721875769	8.60358	2.933186
3.041247607717225	8.362911	2.8918698
3.0587805647713213	8.210644	2.865422
3.0763135934493806	8.190909	2.8619764
3.0938466941627407	8.180467	2.8601515
3.1113798673227544	8.171657	2.8586109
3.1289131133407904	8.1961565	2.862893
3.1464464326282315	8.147776	2.854431
3.1639798255964786	8.038088	2.8351521
3.1815132926569443	7.873474	2.8059711
3.1990468342210603	7.789793	2.7910202
3.216580450700272	7.657927	2.767296
3.2341141425060416	7.6307397	2.7623794
3.251647910049847	7.5163593	2.741598
3.2691817537431813	7.3988576	2.7200842
3.286715673997555	7.25097	2.6927626
3.3042496712244938	7.1538343	2.6746652
3.32178374583554	7.1132455	2.6670668
3.339317898242251	7.029437	2.6513085
3.3568521288562034	6.913903	2.6294303
3.3743864380889876	6.9089203	2.6284826
3.3919208263522127	6.958258	2.637851
3.4094552940575023	6.9087014	2.6284409
3.4269898416164972	6.8517313	2.6175811
3.444524469440858	6.7584143	2.599695
3.4620591779422587	6.67023	2.5826788
3.479593967532391	6.642924	2.577387
3.4971288386229658	6.574738	2.5641253
3.5146637916257086	6.5588284	2.5610209
3.5321988269523628	6.5342093	2.55621
3.5497339450146903	6.5408826	2.557515
3.5672691462244708	6.4468837	2.5390713
3.5848044309934988	6.3552256	2.5209572
3.60233979973359	6.3109245	2.5121553
3.619875252856575	6.3379893	2.5175364
3.6374107907743034	6.3668246	2.5232568
3.6549464138986427	6.401017	2.530023
3.6724821226414788	6.357881	2.521484
3.690017917414714	6.41607	2.5329962
3.7075537986302702	6.3794518	2.5257576
3.7250897667000857	6.4518523	2.5400496
3.7426258220361235	6.561751	2.5615914
3.7601619650503553	6.8726482	2.6215737
3.777698196154779	7.4018555	2.7206352
3.7952345157614067	8.476325	2.911413
3.8127709242822716	9.215411	3.0356896
3.830307422129425	11.415285	3.3786514
3.847844009714936	30.276018	5.5023646
3.8653806874508954	97.78025	9.88839
3.882917455749409	96.97234	9.847454
3.900454315022606	96.64988	9.831067
3.917991265682631	41.229774	6.4210415
3.9355283081416506	10.897195	3.30109
3.9530654428118495	8.821035	2.9700227
3.970602670105433	7.5674467	2.7508993
3.9881399904346244	6.750281	2.5981302
4.005677404211669	6.689205	2.5863497
4.023214911848827	6.633508	2.5755599
4.0407525137583855	6.661666	2.5810204
4.058290210352644	6.5865774	2.5664327
4.075828002043927	6.5147853	2.5524077
4.0933658892445814	6.459787	2.5416112
4.110903872366966	6.345494	2.5190263
4.128441951823468	6.2279596	2.495588
4.145980128026488	6.1184654	2.4735532
4.163518401388452	6.1326714	2.476423
4.181056772321807	6.1469474	2.4793038
4.1985952412390155	6.2029366	2.4905696
4.216133808552567	6.324124	2.514781
4.233672474674966	6.403691	2.5305514
4.251211240018741	6.6573114	2.5801766
4.268750104996445	6.8914046	2.6251485
4.286289070020643	7.7384734	2.7818112
4.303828135503928	9.122984	3.0204277
4.3213673018589125	29.306128	5.413513
4.3389065694982305	90.4541	9.510736
4.356445938834537	165.93233	12.881473
4.3739854102805085	171.51192	13.096256
4.391524984248844	172.46141	13.132457
4.409064661152262	136.4946	11.68309
4.426604441403504	96.767624	9.837053
4.444144325415337	75.76195	8.704134
4.461684313600543	21.873201	4.6768794
4.47922440637193	22.199663	4.711652
4.496764604142329	20.464201	4.5237374
4.5143049073245916	18.586016	4.31115
4.531845316331589	16.481653	4.05976
4.5493858315762195	13.56909	3.6836245
4.566926453471405	11.294173	3.3606806
4.584467182430081	9.216863	3.0359287
4.602008018865218	8.157059	2.8560565
4.619548963189798	7.5129333	2.740973
4.637090015816834	7.083362	2.6614587
4.654631177159353	6.9066315	2.628047
4.672172447630417	6.6164527	2.5722466
4.689713827643102	6.402724	2.5303605
4.7072553176105085	6.1306686	2.4760187
4.724796917945764	5.9800696	2.4454181
4.742338629062015	5.920914	2.4332929
4.759880451372434	5.849833	2.4186428
4.777422385290215	5.881359	2.4251513
4.794964431228581	5.914666	2.4320087
4.812506589600768	5.9326816	2.4357097
4.830048860820047	5.7686505	2.4018016
4.847591245299709	5.6910615	2.3855946
4.8651337434530655	5.64813	2.3765795
4.882676355693457	5.6650963	2.3801463
4.900219082434242	5.648709	2.3767014
4.917761924088813	5.646116	2.3761556
4.935304881070575	5.5952272	2.3654232
4.952847953792969	5.533401	2.3523183
4.970391142669449	5.437398	2.3318229
4.9879344481135055	5.3984714	2.323461
5.005477870538642	5.3876	2.3211205
5.023021410358394	5.3736877	2.3181217
5.040565067986324	5.4065557	2.3252
5.05810884383601	5.4159455	2.3272183
5.075652738321066	5.500264	2.3452642
5.09319675185512	5.4886413	2.342785
5.110740884851836	5.448641	2.3342323
5.128285137724894	5.4185658	2.3277812
5.145829510888007	5.338408	2.3104994
5.163374004754908	5.302279	2.3026679
5.1809186197393595	5.3218346	2.3069103
5.198463356255145	5.3788714	2.3192394
5.216008214716077	5.431728	2.3306067
5.233553195535998	5.449177	2.3343472
5.251098299128764	5.3941636	2.3225338
5.268643525908272	5.413092	2.3266053
5.286188876288432	5.3769064	2.3188157
5.3037343506831895	5.361274	2.3154426
5.32127994950651	5.397792	2.323315
5.3388256731723915	5.3947086	2.3226511
5.356371522094851	5.422209	2.3285637
5.373917496687938	5.3789916	2.3192654
5.391463597365729	5.3977485	2.3233056
5.40900982454232	5.3304324	2.308773
5.426556178631843	5.3103266	2.3044145
5.444102660048449	5.301878	2.3025808
5.4616492692063225	5.2660365	2.2947845
5.479196006519669	5.2844987	2.2988038
5.496742872402727	5.216931	2.2840602
5.514289867269756	5.2322583	2.2874131
5.531836991535049	5.1967745	2.2796435
5.549384245612924	5.221885	2.2851446
5.566931629917724	5.224962	2.2858176
5.584479144863822	5.1816993	2.2763345
5.6020267908656205	5.20396	2.281219
5.619574568337545	5.1794815	2.2758474
5.637122477694054	5.1543956	2.2703295
5.654670519349629	5.129852	2.2649176
5.672218693718784	5.065002	2.250556
5.689767001216059	5.0143676	2.2392783
5.707315442256021	5.0570517	2.2487888
5.724864017253266	5.10737	2.2599492
5.7424127266224225	5.1988087	2.2800896
5.75996157077814	5.16527	2.272723
5.777510550135105	5.207064	2.2818992
5.795059665108022	5.2683983	2.295299
5.812608916111639	5.2764006	2.2970417
5.830158303560715	5.3591733	2.3149889
5.847707827870055	5.3487034	2.3127265
5.86525748945448	5.4548087	2.3355532
5.8828072887288485	5.608469	2.3682206
5.900357226108044	5.6551046	2.3780463
5.917907302006979	5.715023	2.3906114
5.9354575168406	6.31116	2.5122023
5.9530078710238765	6.970363	2.6401446
5.970558364971812	7.5461926	2.7470334
5.988108999099438	7.909603	2.8124018
6.005659773821818	8.498034	2.9151387
6.023210689554039	8.208132	2.8649838
6.040761746711227	8.625652	2.9369462
6.058312945708531	7.9699445	2.823109
6.075864286961132	7.469069	2.7329597
6.093415770884244	6.8151393	2.610582
6.1109673978931065	6.248025	2.499605
6.128519168402993	5.622061	2.3710885
6.146071082829204	5.4676356	2.3382976
6.163623141587075	5.308468	2.3040113
6.181175345091969	5.271365	2.2959454
6.198727693759281	5.295245	2.30114
6.216280188004435	5.299077	2.3019724
6.233832828242885	5.3055797	2.3033843
6.251385614890126	5.2428184	2.28972
6.268938548361669	5.1745806	2.2747705
6.286491629073067	5.1140804	2.2614334
6.304044857439898	5.121772	2.2631333
6.321598233877777	5.1003547	2.2583964
6.339151758802344	5.0637345	2.2502744
6.356705432629277	5.07235	2.2521877
6.37425925577428	5.05903	2.2492287
6.391813228653095	5.1330667	2.2656271
6.409367351681486	5.1312876	2.2652345
6.426921625275259	5.0913186	2.256395
6.44447604985025	5.0720186	2.2521143
6.46203062582232	5.0781016	2.2534645
6.47958535360737	5.0741863	2.2525954
6.497140233621328	5.0471873	2.2465947
6.514695266280161	5.029076	2.2425601
6.532250451999859	5.0150127	2.2394223
6.549805791196454	5.098806	2.2580535
6.567361284286002	5.07613	2.2530267
6.584916931684597	5.0506744	2.2473705
6.602472733808367	5.0359225	2.244086
6.6200286910734665	5.005843	2.237374
6.637584803896092	5.03783	2.2445111
6.655141072692462	5.0405116	2.2451084
6.672697497878842	5.094132	2.2570183
6.690254079871514	5.0649304	2.25054
6.707810819086808	5.128339	2.2645836
6.725367715941078	5.1346674	2.2659805
6.742924770850719	5.1320167	2.2653954
6.760481984232151	5.0732203	2.252381
6.778039356501836	4.9786224	2.2312827
6.795596888076266	5.045851	2.2462971
6.813154579371963	5.046172	2.2463686
6.830712430805492	4.998768	2.2357924
6.84827044279344	4.996882	2.2353706
6.865828615752445	4.9913116	2.2341244
6.883386950099159	5.102391	2.2588472
6.900945446250287	5.1254334	2.263942
6.918504104622553	5.0791626	2.2536998
6.936062925632727	5.031243	2.2430432
6.953621909697607	5.113534	2.2613125
6.971181057234028	5.2397413	2.2890482
6.988740368658859	5.26445	2.2944388
7.006299844389007	5.207709	2.2820406
7.023859484841407	5.2398853	2.2890797
7.041419290433036	5.2859964	2.2991295
7.058979261580902	5.4457293	2.3336086
7.0765393987020495	5.686704	2.3846812
7.094099702213559	6.0695176	2.463639
7.111660172532549	6.4908857	2.5477216
7.129220810076164	6.8468857	2.6166553
7.146781615261595	7.482783	2.7354677
7.16434258850606	7.6947265	2.773937
7.181903730226821	8.068553	2.84052
7.1994650408411704	8.134434	2.852093
7.217026520766437	8.3011875	2.8811781
7.234588170419983	8.554375	2.9247863
7.252149990219215	8.589031	2.9307048
7.269711980581568	8.405509	2.8992255
7.2872741419245175	8.195617	2.8627987
7.304836474665574	7.836927	2.799451
7.322398979222286	7.565768	2.7505941
7.339961656012233	7.308425	2.70341
7.357524505453039	6.893727	2.6255908
7.375087527962357	6.640333	2.5768845
7.392650723957886	6.309176	2.5118072
7.410214093857353	5.988275	2.4470952
7.427777638078528	5.7304463	2.393835
7.445341357039213	5.5872054	2.363727
7.4629052511572525	5.4488544	2.334278
7.480469320850524	5.3453937	2.3120108
7.498033566536948	5.3133307	2.3050663
7.5155979886344735	5.263461	2.2942233
7.5331625875610975	5.253785	2.2921138
7.550727363734844	5.16487	2.272635
7.568292317573788	5.1410336	2.2673848
7.585857449496025	5.1639075	2.2724233
7.603422759919705	5.2223134	2.2852383
7.620988249263007	5.214627	2.2835557
7.638553917944147	5.265464	2.2946599
7.656119766381391	5.2924743	2.3005378
7.673685794993023	5.3576336	2.3146563
7.691252004197388	5.396222	2.322977
7.70881839441285	5.386877	2.3209646
7.726384966057826	5.33574	2.309922
7.743951719550762	5.280116	2.2978504
7.761518655310149	5.2519436	2.291712
7.779085773754511	5.2826376	2.298399
7.796653075302419	5.345813	2.3121014
7.814220560372475	5.4439483	2.333227
7.831788229383323	5.4080224	2.3255155
7.8493560827536495	5.4143777	2.3268816
7.866924120902174	5.437427	2.331829
7.884492344247663	5.4319644	2.3306575
7.9020607532089135	5.4469056	2.3338606
7.919629348204771	5.480874	2.3411267
7.937198129654115	5.5105233	2.3474505
7.954767097975865	5.5275974	2.3510842
7.972336253588986	5.4585857	2.3363616
7.989905596912472	5.4276657	2.329735
8.007475128365371	5.437735	2.331895
8.025044848366756	5.51975	2.3494148
8.042614757335754	5.639767	2.3748193
8.060184855691523	5.7048397	2.3884807
8.07775514385327	5.8625226	2.4212646
8.095325622240228	5.9301167	2.435183
8.112896291271687	5.9773355	2.444859
8.130467151366968	5.9705267	2.4434662
8.148038202945436	5.9653482	2.4424062
8.165609446426497	5.915092	2.4320962
8.183180882229594	5.9521627	2.4397054
8.200752510774217	5.9276605	2.4346788
8.218324332479893	6.015208	2.4525921
8.235896347766193	6.0859795	2.4669778
8.253468557052724	6.1369224	2.4772813
8.27104096075914	6.088829	2.4675553
8.288613559305137	6.0966454	2.4691386
8.306186353110448	6.0547047	2.460631
8.32375934259485	6.1090417	2.4716475
8.341332528178162	6.155764	2.4810812
8.358905910280246	6.18451	2.4868677
8.376479489321003	6.190325	2.4880364
8.394053265720377	6.188142	2.4875977
8.411627239898356	6.221201	2.4942336
8.42920141227497	6.2355757	2.4971135
8.44677578327029	6.2994456	2.5098696
8.464350353304427	6.2838073	2.5067523
8.48192512279754	6.263301	2.5026588
8.499500092169827	6.291429	2.5082722
8.51707526184153	6.288617	2.5077116
8.534650632232934	6.2971573	2.5094137
8.552226203764365	6.2321377	2.496425
8.569801976856192	6.2490067	2.4998014
8.587377951928834	6.2528176	2.5005634
8.60495412940274	6.30118	2.510215
8.622530509698416	6.376831	2.5252388
8.6401070932364	6.466778	2.542986
8.657683880437283	6.5197196	2.553374
8.675260871721695	6.659391	2.5805795
8.692838067510303	6.869317	2.6209383
8.710415468223834	7.143226	2.6726816
8.727993074283043	7.330783	2.707542
8.745570886108737	7.318652	2.7053008
8.763148904121765	7.2887216	2.6997633
8.78072712874302	7.305728	2.702911
8.798305560393441	7.568688	2.7511249
8.815884199494006	7.711443	2.7769485
8.833463046465745	7.8544636	2.8025815
8.851042101729728	7.95117	2.819782
8.86862136570707	8.27016	2.8757885
8.886200838818924	8.396293	2.8976357
8.903780521486505	8.533693	2.9212487
8.921360414131055	8.604273	2.933304
8.938940517173874	8.819742	2.969805
8.956520831036297	8.942528	2.990406
8.97410135613971	9.231386	3.0383196
8.99168209290554	9.328905	3.0543256
9.009263041755265	9.55806	3.0916111
9.026844203110405	9.785591	3.128193
9.044425577392525	9.9839945	3.159746
9.062007165023239	10.069653	3.1732717
9.079588966424197	10.357868	3.2183642
9.097170982017108	10.504838	3.2411168
9.11475321222372	11.466113	3.386165
9.132335657465825	12.311397	3.50876
9.149918318165264	12.318502	3.5097723
9.167501194743924	13.047021	3.612066
9.18508428762374	12.788884	3.576155
9.202667597226693	12.767137	3.573113
9.220251123974803	12.317127	3.5095766
9.237834868290143	11.961435	3.458531
9.255418830594836	11.797825	3.434796
9.273003011311046	11.353457	3.3694892
9.290587410860985	11.112669	3.333567
9.308172029666911	10.435863	3.2304585
9.32575686815113	10.165259	3.1883004
9.343341926735997	8.9039755	2.983953
9.360927205843916	8.634555	2.9384613
9.378512705897327	8.462538	2.909044
9.396098427318728	8.260016	2.8740244
9.413684370530664	8.2188	2.866845
9.431270535955722	8.075509	2.841744
9.448856924016539	7.9805007	2.824978
9.466443535135806	7.8610454	2.8037555
9.484030369736251	7.895912	2.8099666
9.501617428240658	7.8320694	2.7985835
9.519204711071852	7.8103614	2.7947023
9.536792218652714	7.715379	2.777657
9.55437995140617	7.841802	2.8003218
9.571967909755191	7.9301276	2.8160481
9.589556094122802	8.034401	2.834502
9.60714450493207	8.005828	2.8294573
9.624733142606116	8.002548	2.8288774
9.642322007568108	7.9773016	2.8244116
9.659911100241267	8.0671215	2.840268
9.677500421048851	8.130784	2.851453
9.695089970414175	8.184982	2.8609407
9.712679748760609	8.222531	2.8674955
9.730269756511557	8.23573	2.8697963
9.747859994090492	8.256109	2.8733447
9.765450461920915	8.258772	2.873808
9.78304116042639	8.276592	2.8769066
9.800632090030527	8.334795	2.8870046
9.81822325115699	8.401838	2.8985925
9.835814644229481	8.447215	2.9064093
9.853406269671762	8.4626045	2.9090557
9.870998127907646	8.531968	2.9209533
9.888590219360985	8.47666	2.9114704
9.906182544455698	8.4330635	2.9039738
9.923775103615734	8.394548	2.8973348
9.941367897265108	8.389662	2.8964913
9.958960925827878	8.42743	2.9030037
9.97655418972816	8.434145	2.90416
9.994147689390106	8.480718	2.912167
10.011741425237934	8.471778	2.910632
10.029335397695904	8.476691	2.911476
10.04692960718833	8.416458	2.9011133
10.06452405413958	8.382137	2.8951921
10.082118738974064	8.337201	2.8874211
10.099713662116246	8.331994	2.8865194
10.117308823990651	8.368869	2.8928998
10.134904225021844	8.299644	2.8809104
10.152499865634445	8.276291	2.8768544
10.170095746253125	8.214787	2.866145
10.18769186730261	8.295482	2.8801877
10.205288229207675	8.3339205	2.886853
10.222884832393145	8.374644	2.8938978
10.2404816772839	8.29913	2.8808212
10.258078764304868	8.249617	2.8722146
10.275676093881035	8.138221	2.8527567
10.293273666437438	8.104739	2.8468823
10.310871482399158	8.151193	2.8550293
10.32846954219134	8.191847	2.8621402
10.346067846239173	8.2296295	2.8687332
10.363666394967908	8.235749	2.8697996
10.38126518880283	8.263134	2.8745668
10.398864228169298	8.270223	2.8757994
10.416463513492713	8.244943	2.8714008
10.434063045198531	8.241957	2.8708808
10.451662823712262	8.268526	2.8755045
10.469262849459467	8.291244	2.879452
10.486863122865758	8.216863	2.866507
10.504463644356806	8.144762	2.853903
10.522064414358338	8.070068	2.8407865
10.539665433296118	8.013815	2.8308682
10.557266701595987	8.016841	2.8314025
10.574868219683818	7.9684467	2.8228438
10.592469987985552	7.817875	2.7960463
10.610072006927185	7.6343756	2.7630374
10.627674276934751	7.461547	2.731583
10.64527679843435	7.3865147	2.7178142
10.662879571852143	7.3441052	2.710001
10.680482597614331	7.2746215	2.6971507
10.698085876147173	7.1344914	2.671047
10.715689407876988	7.042616	2.6537926
10.733293193230146	6.942531	2.6348684
10.750897232633072	6.776105	2.6030953
10.76850152651225	6.6589684	2.5804977
10.786106075294207	6.560468	2.561341
10.803710879405534	6.575713	2.5643153
10.821315939272877	6.545145	2.5583482
10.83892125532294	6.5035043	2.550197
10.856526827982472	6.390144	2.5278733
10.874132657678285	6.303226	2.5106227
10.891738744837243	6.236716	2.4973416
10.909345089886271	6.1637945	2.4826992
10.926951693252343	6.1268635	2.4752502
10.944558555362494	6.1244216	2.474757
10.96216567664381	6.0874066	2.467267
10.979773057523436	6.015151	2.4525805
10.997380698428573	5.9438767	2.4380066
11.014988599786477	5.8234124	2.4131749
11.032596762024461	5.785496	2.4053059
11.050205185569892	5.675109	2.3822486
11.067813870850198	5.625724	2.3718607
11.085422818292859	5.5241942	2.3503604
11.10303202832541	5.474011	2.3396604
11.120641501375454	5.456684	2.3359547
11.138251237870636	5.39736	2.323222
11.155861238238671	5.3026757	2.302754
11.173471502907317	5.2046185	2.2813632
11.191082032304402	5.1014566	2.2586405
11.208692826857805	5.0514765	2.247549
11.226303886995465	4.9866514	2.233081
11.243915213145371	5.010883	2.2385
11.261526805735578	5.021924	2.240965
11.279138665194196	4.975649	2.2306163
11.296750791949393	4.9498034	2.2248154
11.314363186429393	4.9349685	2.221479
11.331975849062479	4.9295335	2.2202554
11.34958878027699	4.8588057	2.20427
11.36720198050133	4.8186293	2.1951377
11.384815450163948	4.698143	2.16752
11.402429189693366	4.606387	2.1462495
11.420043199518153	4.552539	2.133668
11.437657480066942	63.479946	7.96743
11.455272031768422	85.1684	9.228673
11.472886855051353	107.53914	10.370108
11.490501950344528	99.18249	9.959041
11.508117318076819	84.58372	9.19694
11.52573295867715	45.966255	6.779842
11.543348872574514	4.239749	2.059065
11.560965060197946	4.204952	2.050598
11.57858152197655	4.2021403	2.0499122
11.59619825833949	4.205164	2.0506496
11.613815269715985	4.165521	2.0409608
11.631432556535323	38.664062	6.2180433
11.649050119226837	83.16757	9.119626
11.666667958219929	93.53209	9.671199
11.68428607394406	107.73975	10.379776
11.701904466828756	82.58597	9.087682
11.719523137303586	65.420364	8.088285
11.737142085798196	4.729586	2.174761
11.754761312742286	3.8119638	1.9524251
11.772380818565619	3.8216941	1.9549154
11.790000603698015	3.7876904	1.9461989
11.80762066856935	3.7603002	1.9391494
11.825241013609572	3.7182403	1.9282739
11.842861639248683	3.6302414	1.9053192
11.860482545916748	3.5534873	1.8850696
11.878103734043883	3.5080166	1.87297
11.895725204060282	3.488553	1.8677669
11.91334695639619	3.4565825	1.8591887
11.930968991481919	3.4047399	1.8451937
11.948591309747824	3.3722036	1.836356
11.966213911624347	3.3608627	1.8332655
11.98383679754198	3.3391545	1.8273354
12.001459967931268	3.3362162	1.8265312
12.019083423222835	3.355877	1.8319052
12.036707163847352	3.338596	1.8271825
12.05433119023556	3.2749076	1.8096706
12.071955502818259	3.2060592	1.7905471
12.089580102026313	3.2040877	1.7899966
12.107204988290643	3.1956327	1.7876333
12.12483016204224	3.1939306	1.7871572
12.142455623712152	3.154199	1.7760065
12.16008137373149	3.1178186	1.7657346
12.177707412531431	3.0858705	1.7566646
12.19533374054321	3.060456	1.7494159
12.212960358198126	3.0896583	1.7577424
12.230587265927545	3.080068	1.7550123
12.248214464162889	3.0760114	1.7538562
12.265841953335649	3.034021	1.741844
12.283469733877375	2.998405	1.7315903
12.301097806219685	2.9814663	1.7266923
12.31872617079425	2.9873214	1.7283869
12.336354828032825	3.0018115	1.7325736
12.353983778367205	2.9618156	1.7209926
12.371613022229262	2.93746	1.713902
12.389242560050928	2.9431877	1.7155721
12.406872392264201	2.9702313	1.7234359
12.424502519301143	2.9383307	1.7141559
12.442132941593874	2.9351652	1.7132324
12.459763659574586	2.9397151	1.7145598
12.477394673675532	2.9823189	1.7269392
12.49502598432903	2.9726374	1.7241338
12.51265759196746	2.9195392	1.708666
12.530289497023267	2.8734653	1.6951299
12.547921699928967	2.8193023	1.6790779
12.565554201117134	2.8146791	1.6777005
12.583187001020404	2.8250875	1.6807997
12.600820100071486	2.8514428	1.6886215
12.618453498703152	2.8576527	1.6904593
12.636087197348235	2.8658721	1.6928887
12.65372119643964	2.85776	1.6904911
12.671355496410326	2.8226066	1.6800615
12.68899009769333	2.820201	1.6793454
12.706625000721749	2.8589678	1.6908482
12.724260205928752	2.944591	1.7159811
12.741895713747551	2.9563117	1.7193928
12.759531524611454	2.981959	1.726835
12.777167638953818	3.0107894	1.7351626
12.794804057208072	3.0758402	1.7538073
12.812440779807702	3.1645257	1.7789114
12.830077807186271	3.3428035	1.8283335
12.847715139777405	3.3570127	1.8322153
12.865352778014795	3.5653543	1.8882146
12.882990722332197	3.6574426	1.9124441
12.90062897316344	3.739823	1.9338622
12.918267530942412	3.7865307	1.945901
12.935906396103071	3.682393	1.9189563
12.953545569079449	3.8231928	1.9552987
12.971185050305628	3.6035693	1.898307
12.988824840215775	3.622272	1.9032267
13.006464939244115	3.6249306	1.9039251
13.024105347824943	3.4915073	1.8685576
13.041746066392617	3.5751326	1.8908021
13.05938709538157	3.3887303	1.8408505
13.077028435226296	3.415324	1.8480595
13.094670086361363	3.3224728	1.8227651
13.112312049221401	3.2679713	1.8077531
13.129954324241112	3.1757882	1.7820741
13.147596911855258	2.981782	1.7267838
13.165239812498685	2.907426	1.7051176
13.182883026606293	2.8438308	1.6863662
13.200526554613058	2.763618	1.6624134
13.218170396954017	2.7264473	1.6511958
13.235814554064284	2.6909418	1.640409
13.253459026379034	2.6864395	1.6390362
13.271103814333523	2.7093606	1.6460135
13.288748918363058	2.7368648	1.6543473
13.306394338903031	2.7572455	1.6604955
13.32404007638889	2.7123878	1.6469328
13.341686131256164	2.6924026	1.6408542
13.359332503940449	2.652312	1.628592
13.376979194877402	2.6767454	1.6360762
13.394626204502751	2.745741	1.6570277
13.412273533252307	2.773803	1.6654738
13.429921181561937	2.7779245	1.6667107
13.447569149867581	2.7320042	1.6528776
13.465217438605247	2.7365236	1.6542442
13.482866048211022	2.6972988	1.6423455
13.500514979121052	2.7141452	1.6474663
13.518164231771568	2.7237146	1.650368
13.535813806598844	2.7003064	1.643261
13.553463704039254	2.6917257	1.640648
13.571113924529229	2.6436765	1.6259387
13.588764468505275	2.6469991	1.62696
13.606415336403956	2.656833	1.6299794
13.624066528661917	2.7332253	1.6532469
13.641718045715882	2.8387973	1.6848731
13.659369888002635	2.9162645	1.7077074
13.67702205595903	2.9974558	1.7313162
13.694674550021993	3.0544624	1.747702
13.712327370628532	3.0596106	1.7491742
13.729980518215713	3.086381	1.7568098
13.747633993220681	3.15689	1.7767639
13.765287796080647	3.2505028	1.8029151
13.7829419272329	3.3049026	1.817939
13.800596387114801	3.3230715	1.8229294
13.818251176163775	3.3484905	1.8298881
13.835906294817324	3.389395	1.841031
13.853561743513023	3.4539964	1.8584931
13.871217522688525	3.4845974	1.8667077
13.888873632781538	3.508082	1.8729874
13.906530074229858	3.5175884	1.8755234
13.92418684747135	3.5281193	1.8783289
13.941843952943948	3.5087702	1.8731712
13.959501391085665	3.4713724	1.8631619
13.977159162334578	3.4097888	1.8465613
13.994817267128846	3.3623457	1.83367
14.012475705906693	3.2914317	1.8142303
14.030134479106424	3.2225506	1.7951465
14.047793587166414	3.1777549	1.7826258
14.065453030525108	3.1413286	1.7723794
14.083112809621026	3.1037776	1.7617542
14.100772924892766	3.0079768	1.734352
14.118433376778997	2.9196486	1.7086979
14.136094165718458	2.85768	1.6904674
14.153755292149969	2.8429112	1.6860934
14.171416756512416	2.8070936	1.6754383
14.189078559244768	2.7433517	1.6563066
14.20674070078606	2.6708157	1.634263
14.224403181575408	2.6006403	1.61265
14.242066002051999	2.5794945	1.6060804
14.259729162655093	2.5456061	1.5954956
14.277392663824022	2.5361834	1.5925399
14.295056505998208	2.4837928	1.5760053
14.312720689617128	2.472378	1.5723797
14.330385215120348	2.438589	1.5615983
14.348050082947497	2.459424	1.5682551
14.3657152935383	2.4446106	1.5635251
14.383380847332528	2.4263074	1.5576609
14.401046744770051	2.3984418	1.5486903
14.418712986290798	2.3906384	1.5461689
14.436379572334793	2.416518	1.5545154
14.454046503342123	2.4640372	1.5697252
14.471713779752946	2.458701	1.5680245
14.489381402007504	2.4472835	1.5643796
14.507049370546113	2.4078817	1.551735
14.524717685809168	2.3842156	1.5440905
14.542386348237134	2.4069655	1.5514398
14.560055358270553	2.4235544	1.5567769
14.577724716350051	2.456529	1.5673318
14.595394422916325	2.4561722	1.567218
14.61306447841015	2.46489	1.5699968
14.63073488327237	2.4967535	1.5801119
14.648405637943917	2.530082	1.5906231
14.6660767428658	2.5404935	1.5938926
14.683748198479094	2.569248	1.6028874
14.701420005224954	2.6578774	1.6302998
14.719092163544628	2.7554529	1.6599557
14.73676467387942	2.7652025	1.6628898
14.754437536670727	2.7484946	1.6578585
14.772110752360014	2.7104328	1.6463392
14.78978432138882	2.6850097	1.6385999
14.807458244198777	2.6634636	1.6320121
14.82513252123159	2.6594417	1.6307795
14.842807152929028	2.7503247	1.6584103
14.860482139732962	2.7477655	1.6576385
14.87815748208531	2.7043579	1.6444932
14.8958331804281	2.6956391	1.6418402
14.91350923520342	2.68324	1.6380599
14.931185646853438	2.7309675	1.6525639
14.948862415820408	2.719226	1.6490076
14.966539542546656	2.7461755	1.6571589
14.98421702747459	2.6857817	1.6388354
15.001894871046696	2.696771	1.6421849
15.019573073705542	2.6744444	1.6353729
15.037251635893766	2.6641102	1.6322103
15.054930558054092	2.685306	1.6386904
15.072609840629323	2.7368722	1.6543494
15.090289484062351	2.9007406	1.7031561
15.107969488796124	3.194678	1.7873663
15.125649855273691	3.6237311	1.90361
15.14333058393817	4.102209	2.025391
15.161011675232768	5.045727	2.2462695
15.17869312960076	6.3974986	2.5293276
15.196374947485506	8.236245	2.869886
15.214057129330447	11.356889	3.3699982
15.231739675579114	16.086462	4.010793
15.249422586675102	21.250221	4.609796
15.267105863062092	24.407688	4.940414
15.284789505183847	24.747108	4.9746466
15.302473513484218	22.79006	4.7738934
15.320157888407127	19.31068	4.394392
15.337842630396578	15.10071	3.8859632
15.355527739896656	11.73583	3.4257598
15.37321321735153	9.079179	3.0131676
15.39089906320545	6.600395	2.5691235
15.408585277902748	4.9774876	2.2310283
15.42627186188783	3.8450415	1.9608778
15.443958815605198	3.293056	1.814678
15.461646139499424	2.995118	1.7306409
15.479333834015168	2.8553257	1.6897709
15.497021899597165	2.7680473	1.6637449
15.514710336690234	2.708918	1.6458791
15.53239914573928	2.6449335	1.6263251
15.550088327189297	2.603453	1.6135219
15.567777881485336	2.5822372	1.6069341
15.58546780907256	2.5429976	1.5946779
15.6031581103962	2.4874642	1.5771697
15.620848785901568	2.5041664	1.5824558
15.638539836034063	2.4901035	1.5780061
15.656231261239173	2.4853308	1.5764931
15.673923061962451	2.476292	1.5736238
15.691615238649552	2.4572434	1.5675597
15.709307791746202	2.4753883	1.5733367
15.727000721698221	2.469511	1.5714678
15.744694028951498	2.4489079	1.5648987
15.76238771395202	2.451266	1.565652
15.780081777145844	2.4759488	1.5735148
15.797776218979125	2.446419	1.5641032
15.815471039898094	2.391631	1.5464898
15.833166240349064	2.372235	1.5402062
15.850861820778437	2.378266	1.5421628
15.868557781632699	2.367168	1.5385604
15.886254123358412	2.3582444	1.5356576
15.903950846402232	2.365099	1.5378878
15.921647951210897	2.3883493	1.5454285
15.939345438231225	2.4183774	1.5551133
15.957043307910133	2.3982272	1.548621
15.974741560694602	2.3912203	1.5463572
15.992440197031714	2.4147723	1.5539538
16.01013921736862	2.4703794	1.5717441
16.02783862215259	2.473669	1.5727903
16.045538411830933	2.4585066	1.5679625
16.06323858685107	2.4353936	1.5605748
16.080939147660512	2.439785	1.5619811
16.09864009470684	2.4190207	1.5553201
16.11634142843774	2.413383	1.5535067
16.134043149300954	2.4265816	1.5577489
16.15174525774433	2.4312658	1.5592517
16.169447754215817	2.4412308	1.5624439
16.18715063916342	2.4545426	1.566698
16.204853913035244	2.475758	1.5734541
16.222557576279478	2.5142634	1.5856429
16.240261629344403	22.48179	4.7414966
16.257966072678386	43.012863	6.558419
16.275670906729868	38.121742	6.1742806
16.293376131947387	2.5500207	1.5968784
16.31108174877957	2.5374167	1.5929271
16.328787757675133	2.5449288	1.5952833
16.34649415908287	2.5607607	1.6002377
16.364200953451657	2.6236744	1.619776
16.38190814123048	2.7022488	1.6438519
16.39961572286839	2.69732	1.642352
16.41732369881455	2.661557	1.6314279
16.43503206951817	2.6932292	1.6411061
16.45274083542859	2.774895	1.6658016
16.47044999699522	2.8335032	1.6833013
16.488159554667558	2.8233407	1.68028
16.505869508895184	2.8338354	1.6833999
16.523579860127786	2.886087	1.6988487
16.541290608815117	2.9942808	1.730399
16.559001755407035	3.0442708	1.7447839
16.57671330035348	3.0910308	1.7581328
16.59442524410448	3.1375234	1.7713056
16.61213758711015	3.2230096	1.7952743
16.629850329820705	3.2679882	1.8077577
16.647563472686436	3.3630974	1.833875
16.665277016157724	3.4301734	1.8520727
16.682990960685053	3.4654057	1.86156
16.70070530671898	3.4469604	1.8565992
16.718420054710155	3.4553158	1.858848
16.736135205109335	3.5674505	1.8887696
16.753850758367335	3.6803272	1.9184179
16.771566714935087	3.7447681	1.9351404
16.789283075263597	3.7869692	1.9460137
16.80699983980398	3.8439002	1.9605867
16.82471700900741	3.888737	1.9719881
16.84243458332518	3.9473174	1.9867857
16.860152563208665	3.985296	1.9963206
16.87787094910932	4.026845	2.0067
16.89558974147871	4.0446362	2.0111282
16.913308940768466	4.1089835	2.027063
16.931028547430333	4.1917696	2.0473812
16.94874856191613	4.2800975	2.0688396
16.966468984677785	4.3388987	2.0830023
16.98418981616729	4.4115596	2.1003714
17.00191105683676	4.463403	2.1126769
17.019632707138374	4.5144153	2.1247153
17.03735476752442	4.5679574	2.137278
17.05507723844728	4.6143165	2.148096
17.072800120359403	4.6402216	2.1541173
17.090523413713353	4.604488	2.145807
17.108247118961785	4.6410174	2.1543021
17.125971236557437	4.718926	2.172309
17.143695766953133	4.7278385	2.1743593
17.161420710601806	4.742961	2.177834
17.179146067956477	4.764469	2.1827664
17.19687183947025	4.8408356	2.2001898
17.21459802559634	4.790872	2.188806
17.232324626788028	4.6951594	2.1668317
17.25005164349871	4.6404376	2.1541674
17.267779076181863	4.6549616	2.157536
17.285506925291074	4.651721	2.1567848
17.30323519127999	4.625191	2.1506257
17.320963874602384	4.588974	2.142189
17.33869297571211	4.5835986	2.140934
17.356422495063114	4.5836244	2.14094
17.37415243310944	4.6019006	2.145204
17.391882790305218	4.622347	2.1499643
17.40961356710468	4.618989	2.1491833
17.42734476396215	4.6286798	2.1514366
17.445076381332044	4.6223135	2.1499567
17.462808419668868	4.6120677	2.1475725
17.48054087942723	4.6678243	2.1605148
17.498273761061835	4.9469852	2.224182
17.51600706502747	5.4272738	2.3296509
17.533740791779024	6.173635	2.4846802
17.551474941771485	7.665429	2.7686512
17.56920951545993	8.84825	2.9746008
17.586944513299528	11.088182	3.3298922
17.60467993574556	12.731911	3.5681803
17.622415783253373	14.378309	3.7918742
17.64015205627843	15.894057	3.986735
17.657888755276293	17.069733	4.131553
17.675625880702604	17.64052	4.200062
17.69336343301311	17.511913	4.184724
17.71110141266366	16.652449	4.0807414
17.728839820110178	15.600304	3.949722
17.746578655808705	14.5849905	3.81903
17.764317920215372	12.991818	3.6044166
17.7820576137864	11.452304	3.3841252
17.79979773697811	9.418887	3.0690205
17.81753829024692	7.5522213	2.7481306
17.835279274049356	5.8929963	2.4275494
17.85302068884201	4.8861375	2.210461
17.870762535081607	4.2480764	2.0610862
17.888504813224934	3.9618194	1.990432
17.90624752372891	3.7889767	1.9465294
17.923990667050536	3.6471243	1.9097446
17.941734243646895	3.5375292	1.8808321
17.959478253975185	3.4438064	1.8557496
17.9772226984927	3.4420915	1.8552874
17.994967577656833	3.431494	1.8524293
18.01271289192506	3.4546266	1.8586626
18.030458641754965	3.4238482	1.8503643
18.04820482760425	3.3637068	1.8340411
18.06595144993067	3.276386	1.810079
18.083698509192125	3.2377355	1.7993709
18.101446005846576	3.2412004	1.8003334
18.119193940352105	3.22615	1.7961487
18.136942313166887	3.224577	1.7957107
18.1546911247492	3.2074933	1.7909476
18.1724403755574	3.1970296	1.788024
18.19019006604997	3.191159	1.7863815
18.207940196685467	3.1973562	1.7881153
18.225690767922575	3.2049599	1.7902402
18.243441780220046	3.1967387	1.7879426
18.261193234036764	3.1500933	1.7748502
18.278945129831676	3.1093645	1.763339
18.29669746806386	3.0516262	1.7468904
18.314450249192483	3.0209994	1.7381022
18.3322034736768	3.0404506	1.7436888
18.349957141976184	3.0359054	1.7423849
18.3677112545501	3.0115056	1.735369
18.385465811858108	3.0143266	1.7361816
18.403220814359884	3.0162091	1.7367237
18.420976262515172	3.0320764	1.7412858
18.43873215678387	3.0325093	1.7414101
18.456488497625923	3.1078053	1.7628968
18.474245285501407	3.2014651	1.7892638
18.492002520870486	3.3210478	1.8223742
18.50976020419343	3.4251256	1.8507094
18.527518335930615	3.7501085	1.9365197
18.545276916542516	4.367445	2.0898433
18.563035946489688	4.574063	2.138706
18.580795426232832	5.042493	2.2455497
18.598555356232698	4.883844	2.209942
18.616315736950185	5.155492	2.2705708
18.63407656884626	4.7797813	2.1862712
18.65183785238201	5.0021696	2.236553
18.669599588018617	4.798763	2.1906078
18.68736177621737	4.796926	2.1901886
18.705124417439652	4.76538	2.182975
18.72288751214696	4.588374	2.142049
18.740651060800886	4.769408	2.1838975
18.758415063863115	4.4302163	2.1048079
18.77617952179546	4.5930305	2.1431355
18.793944435059814	4.2958007	2.0726314
18.811709804118184	4.333984	2.0818222
18.829475629432675	4.2744293	2.0674694
18.8472419114655	4.059702	2.0148702
18.86500865067897	4.1605334	2.0397387
18.88277584753551	3.860928	1.9649245
18.90054350249763	3.9029648	1.9755923
18.918311616027957	3.528639	1.8784672
18.936080188589226	3.3906705	1.8413774
18.953849220644265	3.0390766	1.7432947
18.971618712656007	2.8646107	1.6925161
18.9893886650875	2.8396304	1.6851202
19.007159078401887	8.064751	2.8398504
19.024929953062408	32.94033	5.7393665
19.042701289532435	32.864964	5.732797
19.060473088275405	25.404161	5.040254
19.07824534975489	2.6841176	1.6383277
19.096018074434568	2.666592	1.6329702
19.113791262778197	2.646368	1.6267661
19.13156491524966	2.6175847	1.6178951
19.149339032312945	2.6086853	1.6151425
19.167113614432136	2.586318	1.6082033
19.184888662071433	2.576506	1.6051499
19.202664175695123	2.5681832	1.6025552
19.220440155767623	2.566941	1.6021676
19.238216602753447	2.534631	1.5920525
19.2559935171172	2.5666964	1.6020913
19.27377089932361	2.5499284	1.5968496
19.291548749837514	2.5515969	1.5973718
19.309327069123835	2.560045	1.6000141
19.32710585764763	2.5107038	1.5845201
19.344885115874032	2.4975028	1.580349
19.362664844268313	2.4344597	1.5602756
19.380445043295822	2.4882004	1.5774031
19.39822571342203	2.5076866	1.5835677
19.41600685511252	2.544578	1.5951734
19.43378846883297	2.4851656	1.5764408
19.451570555049173	2.4676602	1.5708787
19.469353114227037	2.4549708	1.5668347
19.48713614683254	2.488466	1.5774872
19.50491965333182	2.5087287	1.5838966
19.52270363419109	2.505041	1.5827321
19.540488089876686	2.50248	1.5819229
19.55827302085503	2.4941945	1.579302
19.576058427592674	2.497375	1.5803086
19.593844310556282	2.531541	1.5910817
19.611630670212598	2.528617	1.5901625
19.629417507028506	2.4924397	1.5787462
19.64720482147098	2.4918284	1.5785526
19.6649926140071	2.5284414	1.5901073
19.682780885104084	2.5457823	1.5955508
19.70056963522921	2.496231	1.5799465
19.718358864849908	2.4737117	1.5728037
19.7361485744337	2.4597895	1.5683717
19.753938764448215	2.4874632	1.5771694
19.771729435361202	2.5069988	1.5833505
19.789520587640506	2.503703	1.5823095
19.807312221754092	2.490134	1.5780158
19.825104338170043	2.5389261	1.5934008
19.842896937356517	2.586589	1.6082876
19.860690019781824	2.5831106	1.6072059
19.87848358591436	2.524027	1.5887187
19.896277636222635	2.488859	1.5776118
19.914072171175278	2.5113704	1.5847304
19.931867191241015	2.5017223	1.5816834
19.94966269688869	2.4869773	1.5770153
19.967458688587264	2.4676523	1.5708762
19.985255166805807	2.4691348	1.5713481
20.00305213201348	2.4777107	1.5740745
20.020849584679578	2.5109189	1.5845879
20.038647525273507	2.4945807	1.5794241
20.05644595426477	2.4489863	1.5649238
20.07424487212299	2.4634075	1.5695246
20.092044279317903	2.484382	1.5761923
20.109844176319353	2.5411825	1.5941087
20.127644563597304	2.5237827	1.5886418
20.145445441621817	2.5019002	1.5817397
20.16324681086307	2.4510686	1.565589
20.181048671791373	2.4293098	1.5586244
20.198851024877122	2.417203	1.5547357
20.216653870590836	2.3921056	1.5466434
20.234457209403146	2.3959806	1.5478956
20.252261041784802	2.4298267	1.5587902
20.270065368206662	2.439658	1.5619404
20.287870189139685	2.4229732	1.5565902
20.305675505054968	2.4320574	1.5595055
20.323481316423702	2.4340172	1.5601337
20.341287623717207	2.444173	1.5633851
20.359094427406884	2.437202	1.561154
20.376901727964288	2.3922422	1.5466875
20.39470952586107	2.3279667	1.5257676
20.41251782156899	2.308015	1.5192153
20.430326615559935	2.3168812	1.5221305
20.448135908305886	2.3402834	1.5297985
20.465945700278965	2.3311343	1.5268053
20.483755991951384	2.3268917	1.5254153
20.50156678379548	2.3447862	1.5312694
20.519378076283708	2.3852818	1.5444357
20.537189869888635	2.3849394	1.5443249
20.55500216508294	2.4122508	1.5531422
20.572814962339415	2.4041872	1.5505441
20.59062826213098	2.3813355	1.5431577
20.60844206493066	2.3374188	1.5288619
20.626256371211593	2.3296287	1.5263121
20.644071181447032	2.3398852	1.5296683
20.66188649611036	2.3164802	1.5219988
20.67970231567506	2.3184607	1.5226493
20.697518640614742	2.3198283	1.5230982
20.715335471403122	2.3616543	1.5367675
20.73315280851404	2.3329766	1.5274085
20.750970652421447	2.3164113	1.5219761
20.768789003599412	2.3314316	1.5269027
20.786607862522136	2.3548963	1.5345671
20.8044272296639	2.3302293	1.5265088
20.82224710549913	2.3003368	1.5166861
20.84006749050237	2.2969658	1.5155745
20.857888385148268	3.8499877	1.9621385
20.8757097899116	45.96695	6.779893
20.893531705267254	64.813286	8.05067
20.911354131690224	83.82705	9.155711
20.92917706965566	69.07932	8.311398
20.94700051963877	50.162468	7.0825467
20.96482448211493	29.428701	5.424823
20.982648957559622	4.1570935	2.0388951
21.00047394644843	2.2661958	1.5053889
21.01829944925707	2.268193	1.5060521
21.036125466461375	2.2348948	1.4949565
21.053951998537297	2.2308857	1.493615
21.071779045960906	2.1966958	1.4821254
21.089606609208378	2.2170084	1.4889622
21.10743468875603	2.229358	1.4931035
21.12526328508028	2.2198148	1.4899043
21.143092398657675	2.2001863	1.4833025
21.16092202996488	2.2035022	1.4844198
21.17875217947867	2.2119884	1.4872755
21.19658284767596	2.207101	1.4856316
21.21441403503377	2.1920714	1.4805646
21.232245742029225	2.1862638	1.4786019
21.2500779691396	2.2077184	1.4858392
21.26791071684227	2.2221353	1.4906828
21.28574398561475	2.1994362	1.4830496
21.30357777593465	2.1924021	1.4806763
21.321412088279704	2.1805005	1.4766518
21.339246923127792	2.171089	1.4734615
21.357082280956888	2.1339006	1.4607877
21.3749181622451	2.1285443	1.4589531
21.392754567470647	2.1293206	1.4592192
21.41059149711187	2.1343107	1.4609281
21.42842895164726	2.1254132	1.4578797
21.446266931555378	2.1417625	1.4634762
21.464105437314945	2.152625	1.4671828
21.481944469404798	2.1750352	1.4748001
21.49978402830388	2.18654	1.4786954
21.51762411449127	2.1895363	1.4797082
21.53546472844617	2.1815271	1.4769994
21.553305870647876	2.136243	1.4615892
21.571147541575865	2.1072574	1.4516395
21.58898974170967	2.0881379	1.445039
21.60683247152899	2.1182647	1.455426
21.62467573151363	2.0980723	1.4484724
21.642519522143523	2.0787659	1.4417926
21.660363843898722	2.083813	1.4435418
21.6782086972594	2.0713677	1.4392247
21.696054082705864	2.066056	1.4373782
21.713900000718535	2.054449	1.433335
21.73174645177795	2.0548487	1.4334743
21.749593436364794	2.046973	1.4307246
21.767440954959845	2.043883	1.4296443
21.785289008044032	2.0715039	1.439272
21.803137596098388	2.0876937	1.4448854
21.820986719604086	2.06943	1.4385514
21.838836379042412	2.055079	1.4335546
21.85668657489478	2.0462992	1.4304892
21.87453730764273	2.018384	1.4206984
21.892388577767914	2.0133262	1.4189173
21.91024038575213	2.0481884	1.4311494
21.928092732077285	2.0271814	1.4237912
21.945945617225426	2.016958	1.4201964
21.963799041678694	2.0086715	1.4172761
21.981653005919398	31.328571	5.5971932
21.999507510429943	78.12579	8.83888
22.01736255569286	73.109314	8.550399
22.035218142190818	4.197062	2.0486732
22.05307427040661	1.9842198	1.4086233
22.07093094082315	1.9292067	1.3889588
22.088788153923474	1.9202015	1.3857133
22.106645910190746	1.9678112	1.402787
22.12450421010827	1.994132	1.4121374
22.142363054159464	2.0198326	1.4212081
22.16022244282787	2.0262418	1.4234612
22.178082376597164	1.9894495	1.4104785
22.195942855951145	1.9901243	1.4107177
22.213803881373742	1.978112	1.4064537
22.231665453349002	1.9946201	1.4123102
22.24952757236111	1.9811951	1.4075493
22.26739023889438	1.9769554	1.4060425
22.28525345343323	1.9710369	1.4039363
22.30311721646225	1.9691316	1.4032575
22.320981528466113	1.9732594	1.4047276
22.33884638992964	1.9649609	1.4017706
22.356711801337788	1.9610697	1.400382
22.37457776317561	1.9617846	1.4006373
22.392444275928337	1.976823	1.4059954
22.410311340081282	1.9800321	1.4071361
22.428178956119904	2.0003176	1.4143258
22.446047124529805	2.0022905	1.4150231
22.46391584579669	2.0189826	1.420909
22.481785120406414	2.0318244	1.4254208
22.49965494884496	2.0284886	1.4242502
22.51752533159841	1.9920878	1.4114134
22.53539626915302	1.9469923	1.3953466
22.553267761995137	1.949151	1.39612
22.571139810611264	1.9388465	1.3924247
22.589012415488025	1.9583008	1.399393
22.60688557711216	1.9350595	1.3910642
22.624759295970566	1.9365762	1.3916092
22.642633572550263	1.9147781	1.3837551
22.660508407338362	1.9625283	1.4009027
22.67838380082217	1.973225	1.4047153
22.696259753489077	1.9818769	1.4077915
22.714136265826614	1.9973526	1.4132773
22.73201333832246	1.9937767	1.4120116
22.74989097146439	1.9402907	1.3929431
22.76776916574035	1.9189595	1.3852651
22.785647921638393	1.938885	1.3924385
22.803527239646712	1.9418753	1.3935119
22.82140712025363	1.9302855	1.3893471
22.839287563947593	1.9373927	1.3919026
22.85716857121719	1.9549319	1.3981888
22.875050142551135	2.0079908	1.4170359
22.892932278438277	1.9835793	1.408396
22.910814979367604	1.9538916	1.3978168
22.928698245828222	1.8960066	1.3769555
22.946582078309387	1.900246	1.3784941
22.96446647730047	1.8880482	1.3740627
22.98235144329098	1.9086772	1.3815489
23.000236976770562	1.9298942	1.3892063
23.018123078229	1.969162	1.4032683
23.03600974815619	1.9575968	1.3991414
23.053896987042194	1.92409	1.3871157
23.071784795377173	1.8976204	1.3775414
23.08967317365145	1.9224396	1.3865206
23.10756212235546	1.9141909	1.3835429
23.125451641979787	1.9159833	1.3841904
23.143341733015134	1.9304409	1.3894031
23.161232395952357	1.9383676	1.3922527
23.179123631282426	1.9440631	1.3942966
23.197015439496468	1.9303478	1.3893696
23.214907821085717	1.9317558	1.3898761
23.23280077654157	1.9524126	1.3972876
23.250694306355538	1.9714072	1.4040681
23.268588411019277	1.9469342	1.3953259
23.28648309102458	1.9449633	1.3946195
23.304378346863356	1.9485223	1.3958948
23.322274179027676	1.9613557	1.4004841
23.340170588009723	1.9349282	1.391017
23.358067574301852	1.9280329	1.3885362
23.37596513839651	1.9112073	1.3824642
23.39386328078629	1.9090996	1.3817017
23.411762001963947	1.9150971	1.3838704
23.429661302422353	1.9364576	1.3915666
23.4475611826545	1.9341544	1.3907388
23.46546164315356	1.8991767	1.3781062
23.48336268441279	1.9187855	1.3852023
23.501264306925638	1.9426925	1.393805
23.51916651118564	1.972809	1.4045671
23.537069297686497	1.94854	1.3959011
23.554972666922037	1.9521962	1.3972101
23.57287661938623	1.9666523	1.4023738
23.59078115557318	1.9981116	1.4135457
23.608686275977128	2.0122433	1.4185356
23.62659198109246	2.001107	1.4146049
23.6444982714137	1.992887	1.4116966
23.66240514743549	1.9563048	1.3986796
23.68031260965263	1.9498909	1.396385
23.698220658560068	1.940784	1.3931203
23.716129294652845	1.9300476	1.3892615
23.7340385184262	1.880142	1.3711827
23.75194833037546	1.8344786	1.3544292
23.769858730996123	1.8302567	1.3528697
23.78776972078382	1.8680756	1.3667756
23.80568130023431	1.8997191	1.3783029
23.823593469843495	1.8901736	1.3748358
23.841506230107424	1.8663508	1.3661445
23.859419581522275	1.8997176	1.3783025
23.87733352458438	1.9181147	1.3849602
23.89524805979019	1.9648703	1.4017383
23.913163187636318	1.9889423	1.4102986
23.931078908619508	2.025555	1.4232199
23.948995223236633	2.058113	1.4346125
23.966912131984735	2.0821195	1.4429551
23.98482963536096	2.1003034	1.4492424
24.002747733862616	2.0809195	1.4425392
24.020666427987155	2.0684557	1.4382126
24.038585718232156	2.064412	1.4368062
24.056505605095353	2.058936	1.4348993
24.074426089074617	2.0593925	1.4350584
24.092347170667946	2.0457249	1.4302884
24.110268850373515	2.0425386	1.4291741
24.128191128689586	2.0639987	1.4366623
24.146114006114626	2.041759	1.4289013
24.164037483147187	2.041585	1.4288404
24.181961560286005	2.0281727	1.4241393
24.199886238029926	2.0554512	1.4336845
24.21781151687797	2.105777	1.4511296
24.235737397329274	2.1539638	1.4676389
24.253663879883135	2.1214113	1.4565065
24.271590965038975	2.0852315	1.444033
24.289518653296376	2.0503747	1.431913
24.30744694515505	2.0326471	1.4257094
24.32537584111486	2.0276785	1.4239658
24.34330534167581	2.0179305	1.4205388
24.361235447338046	2.0340369	1.4261967
24.379166158601876	2.0657403	1.4372684
24.39709747596772	2.083394	1.4433967
24.41502939993615	2.0670185	1.4377129
24.432961931007917	2.0259786	1.4233687
24.450895069683856	2.0398107	1.4282194
24.468828816465	2.038822	1.4278733
24.4867631718525	2.0285757	1.4242808
24.504698136347656	1.9771632	1.4061164
24.52263371045192	1.9501194	1.3964667
24.540569894666874	1.9542592	1.3979481
24.558506689494266	1.942504	1.3937374
24.57644409543597	1.9440147	1.3942792
24.594382112994012	1.8959332	1.3769289
24.61232074267057	1.9181131	1.3849596
24.630259984967953	1.9365817	1.3916112
24.64819984038863	1.9504384	1.3965809
24.66614030943522	1.9738992	1.4049553
24.684081392610462	1.9886703	1.4102023
24.702023090417274	1.9946662	1.4123266
24.7199654033587	1.9749645	1.4053344
24.737908331937927	1.9634668	1.4012376
24.755851876658305	1.9738925	1.4049529
24.773796038023324	2.003163	1.4153315
24.79174081653661	2.0841184	1.4436476
24.809686212701962	2.1407995	1.4631472
24.827632227023294	2.1677055	1.472313
24.8455788600047	2.1457705	1.464845
24.8635261121504	2.0947073	1.4473103
24.88147398396475	2.0604684	1.4354331
24.899422475952303	2.0944097	1.4472076
24.917371588617698	2.1881323	1.4792336
24.935321322465768	2.2786975	1.5095356
24.953271678001478	2.3407016	1.5299351
24.97122265572994	2.475576	1.5733963
24.989174256156414	2.786388	1.6692477
25.00712647978632	3.2954946	1.8153497
25.02507932712521	3.8608348	1.9649007
25.043032798678798	4.3824153	2.093422
25.060986894952933	5.0099897	2.2383006
25.078941616453637	5.724736	2.392642
25.096896963687055	6.697563	2.587965
25.114852937159508	7.9429145	2.8183177
25.132809537377444	8.4396715	2.9051113
25.150766764847468	8.407934	2.899644
25.168724620076347	7.7338104	2.780973
25.186683103570985	6.635858	2.576016
25.204642215838426	5.4868045	2.342393
25.222601957385894	4.2466154	2.0607316
25.24056232872074	3.2938294	1.814891
25.25852333035048	2.700809	1.6434138
25.276484962782778	2.295348	1.5150405
25.294447226525435	2.078337	1.4416438
25.312410122086423	2.0018787	1.4148777
25.330373649973843	1.9816006	1.4076934
25.348337810695988	1.9728268	1.4045736
25.366302604761245	1.9608183	1.4002922
25.384268032678207	1.9510694	1.3968068
25.40223409495558	1.9441624	1.3943323
25.420200792102257	1.9603821	1.4001365
25.438168124627246	1.9218822	1.3863196
25.45613609303974	1.8829594	1.3722097
25.474104697849057	1.8724233	1.3683652
25.492073939564698	1.8917235	1.3753994
25.510043818696285	1.9215262	1.3861912
25.528014335753614	1.9337276	1.3905853
25.54598549124664	1.9456855	1.3948783
25.56395728568544	1.9215742	1.3862085
25.58192971958028	1.9372499	1.3918513
25.59990279344156	1.9359112	1.3913703
25.617876507779833	1.8950129	1.3765947
25.635850863105826	1.8725206	1.3684007
25.653825859930386	1.8552722	1.3620838
25.671801498764548	1.901879	1.3790863
25.68977778011949	1.9246812	1.3873287
25.707754704506524	1.8942289	1.3763099
25.725732272437153	1.8376108	1.3555851
25.743710484423012	1.8769311	1.3700113
25.761689340975888	1.8819679	1.3718483
25.77966884260774	1.8738399	1.3688827
25.797648989830662	1.873253	1.3686683
25.815629783156922	1.9044341	1.3800124
25.83361122309895	1.8905917	1.374988
25.85159331016929	1.8392991	1.3562076
25.869576044880695	1.8417022	1.3570933
25.887559427746034	1.8530976	1.3612852
25.90554345927836	1.869001	1.3671141
25.92352813999086	1.8307762	1.3530618
25.94151347039689	1.8129776	1.3464686
25.959499451009965	1.8477829	1.3593317
25.97748608234374	1.8691379	1.3671641
25.995473364912062	1.8398875	1.3564246
26.013461299228904	1.8680681	1.3667729
26.03144988580839	1.9112303	1.3824725
26.04943912516483	1.9448572	1.3945814
26.067429017812675	1.9343228	1.3907994
26.085419564266537	1.908744	1.381573
26.103410765041186	1.8922054	1.3755746
26.12140262065155	1.8887138	1.3743049
26.139395131612723	1.9133146	1.3832262
26.157388298439948	1.8664457	1.3661792
26.17538212164861	1.8631481	1.3649719
26.193376601754295	1.900219	1.3784842
26.211371739272714	1.8858039	1.3732457
26.229367534719746	1.8672215	1.3664632
26.247363988611433	1.842256	1.3572973
26.26536110146397	1.8290774	1.3524339
26.283358873793727	1.8157816	1.3475094
26.301357306117204	1.8077254	1.3445168
26.319356398951104	1.8254945	1.3511087
26.33735615281224	1.8479558	1.3593954
26.35535656821762	1.8372688	1.3554589
26.373357645684404	1.8261065	1.351335
26.39135938572991	1.8022014	1.342461
26.409361788871614	1.8214697	1.3496183
26.427364855627165	1.8721309	1.3682584
26.445368586514352	1.8875029	1.3738642
26.46337298205115	1.9449769	1.3946244
26.48137804275568	1.9446	1.3944892
26.499383769146217	1.8813937	1.371639
26.517390161741215	1.8280227	1.3520439
26.53539722105928	1.8122287	1.3461905
26.553404947619182	1.8512664	1.3606125
26.571413341939856	1.8671006	1.3664188
26.589422404540397	1.860055	1.3638383
26.60743213594006	1.8247396	1.3508292
26.62544253665827	1.820894	1.349405
26.64345360721459	1.8323631	1.3536481
26.66146534812879	1.86971	1.3673733
26.679477759920758	1.8614818	1.3643613
26.69749084311057	1.8090292	1.3450016
26.71550459821847	1.7935276	1.3392265
26.733519025764842	1.7980273	1.3409054
26.751534126270258	1.8269426	1.3516444
26.769549900255434	1.8248188	1.3508586
26.787566348241267	1.8106837	1.3456165
26.80558347074881	1.7955618	1.3399857
26.823601268299267	1.8364233	1.355147
26.841619741414036	1.8084021	1.3447684
26.85963889061465	1.7697587	1.3303227
26.877658716422832	1.7682686	1.3297626
26.89567921936045	1.7717756	1.3310806
26.913700399949544	1.7949026	1.3397397
26.93172225871233	1.7911466	1.3383373
26.949744796171174	1.811961	1.346091
26.967768012848605	1.863951	1.3652658
26.98579190926733	1.8734347	1.3687347
27.003816485950225	1.8809035	1.3714603
27.021841743420318	1.8421689	1.3572652
27.039867682200814	1.8205255	1.3492686
27.057894302815072	1.7758486	1.3326097
27.07592160578664	1.7904909	1.3380922
27.0939495916392	1.8557465	1.3622578
27.111978260896635	1.9080542	1.3813233
27.13000761408296	1.8783772	1.3705391
27.148037651722397	1.8177054	1.3482231
27.166068374339304	1.7879443	1.3371403
27.184099782458215	1.7672698	1.3293871
27.20213187660384	1.7866828	1.3366686
27.22016465730105	1.8200514	1.3490928
27.23819812507487	1.8330716	1.3539097
27.256232280450533	1.8453016	1.3584188
27.274267123953383	1.826807	1.3515942
27.292302656108987	1.8036644	1.3430058
27.31033887744306	1.8397943	1.3563901
27.32837578848146	1.8316724	1.353393
27.34641338975026	1.8158746	1.347544
27.364451681775673	1.7701503	1.33047
27.382490665084074	1.8233017	1.3502969
27.400530340202046	1.8321562	1.3535717
27.41857070765629	1.8543569	1.3617477
27.436611767973726	1.8460644	1.3586996
27.454653521681404	1.8372761	1.3554616
27.472695969306564	1.8020504	1.3424047
27.490739111376627	1.824345	1.3506832
27.508782948419153	1.8217654	1.3497279
27.526827480961902	1.8103337	1.3454864
27.54487270953279	1.8448046	1.3582358
27.562918634659898	1.8677909	1.3666714
27.580965256871508	1.8489311	1.3597541
27.599012576696026	1.847887	1.3593701
27.617060594662068	1.8310498	1.3531629
27.63510931129842	1.8563899	1.362494
27.65315872713401	1.8592277	1.3635349
27.67120884269797	1.8619363	1.3645278
27.68925965851958	1.8625711	1.3647605
27.707311175128307	1.8375796	1.3555735
27.725363393053787	1.8303581	1.3529073
27.74341631282583	1.8443103	1.3580538
27.7614699349744	1.8855094	1.3731385
27.77952426002968	2.0964103	1.4478986
27.797579288521973	2.1376781	1.4620801
27.815635020981784	2.5347521	1.5920905
27.83369145793979	2.6114898	1.6160104
27.85174859992682	2.4880502	1.5773555
27.869806447473923	2.3708723	1.5397637
27.887865001112267	2.0653262	1.4371243
27.905924261373233	1.9447347	1.3945374
27.92398422878836	1.9268485	1.3881097
27.94204490388936	1.9059731	1.3805698
27.96010628720813	1.9103967	1.382171
27.978168379276728	1.8990631	1.378065
27.9962311806274	1.8802845	1.3712347
28.014294691792568	1.8586185	1.3633116
28.0323589133048	1.8448998	1.3582709
28.050423845696887	1.8574106	1.3628685
28.068489489501758	1.8435462	1.3577725
28.086555845252523	1.8425723	1.3574139
28.104622913482487	1.8365813	1.3552053
28.122690694725115	1.8624995	1.3647342
28.14075918951405	1.9029979	1.3794919
28.15882839838312	1.94478	1.3945537
28.176898321866304	1.9091755	1.3817291
28.1949689604978	1.9420615	1.3935786
28.213040314811945	1.9418589	1.3935059
28.23111238534327	1.9355263	1.3912319
28.249185172626493	1.9228388	1.3866646
28.267258677196473	1.9338689	1.3906361
28.285332899588294	1.9316624	1.3898426
28.303407840337172	1.9228282	1.3866608
28.321483499978545	1.9135097	1.3832967
28.33955987904799	1.914243	1.3835617
28.357636978081285	1.8933069	1.3759749
28.37571479761439	1.9003451	1.37853
28.393793338183425	1.9530187	1.3975044
28.41187260032469	2.0212753	1.4217156
28.429952584574686	2.016278	1.419957
28.448033291470065	2.0020843	1.4149503
28.46611472154769	1.971765	1.4041955
28.484196875344566	1.981192	1.4075482
28.502279753397914	1.9759027	1.405668
28.52036335624511	1.9748598	1.405297
28.538447684423716	1.9583573	1.3994132
28.556532738471482	1.920625	1.3858662
28.574618518926325	1.9119481	1.3827322
28.59270502632635	1.920422	1.3857929
28.61079226120985	1.9420351	1.3935692
28.628880224115274	1.9735694	1.4048378
28.646968915581287	2.0135796	1.4190066
28.66505833614671	2.0551286	1.4335719
28.68314848635055	2.1101277	1.4526279
28.701239366732004	2.0406709	1.4285206
28.71933097783044	1.9964911	1.4129725
28.737423320185403	2.0163486	1.419982
28.75551639433665	2.0748043	1.4404181
28.773610200824074	2.1298409	1.4593974
28.791704740187793	2.0992513	1.4488794
28.80980001296809	2.096606	1.4479662
28.827896019705413	2.1105692	1.4527799
28.845992760940433	2.077235	1.4412616
28.86409023721397	2.1070476	1.4515673
28.88218844906704	2.1602666	1.4697845
28.900287397040845	2.216817	1.4888979
28.918387081676755	2.2949233	1.5149004
28.936487503516343	2.3695056	1.5393199
28.954588663101365	2.3941283	1.5472971
28.97269056097374	2.394179	1.5473136
28.990793197675597	2.4036624	1.550375
29.00889657374923	2.3966727	1.5481191
29.027000689737125	2.3658655	1.538137
29.04510554618196	2.3838477	1.5439714
29.06321114362659	2.4102166	1.5524873
29.08131748261405	2.4623811	1.5691977
29.099424563687567	2.5267057	1.5895615
29.11753238739057	2.5317266	1.59114
29.13564095426663	2.535409	1.5922967
29.15375026485954	2.6107898	1.6157938
29.171860319713275	2.660858	1.6312137
29.18997111937199	2.7271566	1.6514105
29.20808266438002	2.7615619	1.6617948
29.226194955281898	2.7834983	1.6683819
29.244307992622335	2.868536	1.6936753
29.26242177694624	2.8782244	1.6965331
29.2805363087987	2.8699753	1.6941001
29.29865158872498	2.9116583	1.7063582
29.316767617270557	2.928146	1.7111826
29.334884394981064	2.9701264	1.7234055
29.353001922402367	3.0105522	1.7350943
29.37112020008047	3.0621033	1.7498866
29.389239228561596	3.1494827	1.7746782
29.407359008392152	3.3213809	1.8224655
29.42547954011872	3.6234741	1.9035425
29.44360082428809	4.18603	2.045979
29.46172286144722	5.231229	2.287188
29.479845652143283	6.8164487	2.610833
29.497969196923606	8.83396	2.9721978
29.516093496335728	11.346816	3.3685036
29.5342185509274	14.268537	3.7773716
29.55234436124651	16.692617	4.08566
29.570470927841175	18.166973	4.2622733
29.588598251259686	17.93725	4.235239
29.60672633205055	16.651995	4.0806856
29.624855170762405	14.48828	3.8063474
29.642984767944146	11.803209	3.43558
29.66111512414481	8.987965	2.9979935
29.67924623991366	6.7197657	2.592251
29.697378115800138	5.1411405	2.2674084
29.71551075235387	4.319417	2.0783207
29.733644150124675	3.8350751	1.9583348
29.751778309662576	3.5822532	1.8926841
29.769913231517766	3.5091782	1.87328
29.78804891624066	3.428609	1.8516504
29.806185364381818	3.3646886	1.8343087
29.82432257649206	3.3479373	1.829737
29.842460553122333	3.3565805	1.8320973
29.86059929482382	3.329509	1.8246943
29.878738802147872	3.3264484	1.8238554
29.896879075646048	3.2991772	1.8163637
29.915020115870114	3.3401644	1.8276117
29.933161923371976	3.3462713	1.8292817
29.951304498703777	3.2843394	1.8122747
29.969447842417857	3.2128193	1.7924339
29.987591955066733	3.2939875	1.8149346
30.005736837203123	3.3188326	1.8217664
30.023882489379943	3.2421534	1.800598
30.04202891215028	3.2001324	1.7888914
30.060176106067455	3.1237435	1.7674116
30.078324071684946	3.1208353	1.7665886
30.09647280955646	3.199833	1.7888076
30.114622320235863	3.299414	1.8164289
30.132772604277257	3.3343296	1.8260146
30.1509236622349	3.2659419	1.8071917
30.16907549466328	3.1695144	1.780313
30.18722810211705	3.0561163	1.7481751
30.205381485151097	2.999831	1.732002
30.22353564432045	3.075909	1.753827
30.241690580180403	3.1424623	1.7726991
30.25984629328638	3.0944943	1.7591175
30.278002784194037	2.9983356	1.7315702
30.296160053459246	2.925764	1.7104865
30.314318101638033	2.9720888	1.7239747
30.332476929286646	2.9991086	1.7317934
30.35063653696153	2.9786398	1.7258736
30.368796925219307	2.927679	1.7110462
30.386958094616844	2.9011793	1.7032849
30.40512004571115	2.891339	1.7003938
30.423282779059463	2.8616488	1.6916409
30.441446295219233	2.838577	1.6848077
30.459610594748067	2.8649569	1.6926184
30.47777567820382	2.8378808	1.6846011
30.495941546144504	2.7724178	1.6650579
30.51410819912835	2.7452674	1.6568848
30.532275637713795	2.857763	1.6904919
30.55044386245946	2.885411	1.6986498
30.56861287392416	2.8863409	1.6989235
30.586782672666956	2.8502295	1.6882622
30.604953259247047	2.8659098	1.6928998
30.623124634223885	2.894089	1.7012023
30.641296798157075	2.8179653	1.6786796
30.659469751606462	2.7998402	1.6732723
30.677643495132074	2.8487873	1.6878351
30.695818029294152	2.8614745	1.6915894
30.713993354653116	2.805015	1.6748179
30.73216947176962	2.6675668	1.6332687
30.75034638120448	2.6677077	1.6333119
30.768524083518756	2.7272007	1.6514238
30.786702579273673	2.758662	1.660922
30.80488186903069	2.8000078	1.6733224
30.82306195335144	2.8973022	1.7021463
30.841242832797782	3.1180146	1.7657901
30.85942450793176	3.4538028	1.858441
30.877606979315637	3.816811	1.9536661
30.895790247511883	4.0660768	2.0164516
30.913974313083134	4.3845377	2.0939288
30.932159176592283	4.6881804	2.1652207
30.95034483860237	4.848676	2.201971
30.968531299676698	4.767419	2.1834419
30.98671856037873	4.4021873	2.098139
31.00490662127215	3.932899	1.9831538
31.023095482920848	3.4884079	1.867728
31.04128514588892	3.1191905	1.766123
31.059475610740662	2.7537386	1.6594392
31.07766687804056	2.6046793	1.6139019
31.09585894835335	2.5864995	1.6082598
31.11405182224393	2.500158	1.5811888
31.132245500277417	2.4129283	1.5533603
31.15043998301914	2.3951912	1.5476406
31.168635271034628	2.451745	1.565805
31.18683136488964	2.5045815	1.582587
31.20502826515008	2.5705352	1.6032889
31.223225972382135	2.5661585	1.6019233
31.241424487152155	2.4782956	1.5742604
31.259623810026692	2.3769543	1.5417374
31.27782394157253	2.2867813	1.5122107
31.296024882356644	2.3126364	1.5207355
31.314226632946237	2.392333	1.5467168
31.332429193908684	2.408688	1.5519949
31.350632565811598	2.3419116	1.5303305
31.368836749222787	2.384704	1.5442487
31.387041744710295	2.4981368	1.5805495
31.40524755284232	2.5674324	1.6023209
31.423454174187317	2.523434	1.588532
31.441661609313922	2.500163	1.5811903
31.459869858791002	2.5452967	1.5953985
31.478078923187628	2.55919	1.5997468
31.496288803073064	2.453782	1.5664552
31.514499499016807	2.3988554	1.5488238
31.532711011588546	2.4449756	1.5636418
31.550923341358178	2.4813063	1.5752163
31.56913648889584	2.4482212	1.5646793
31.587350454771844	2.4444816	1.5634838
31.605565239556732	2.4550757	1.5668682
31.62378084382127	2.448352	1.5647211
31.641997268136382	2.364444	1.5376749
31.660214513073274	2.2889755	1.512936
31.67843257920331	2.2395082	1.4964986
31.6966514670981	2.2181702	1.4893522
31.71487117732944	2.2990866	1.5162739
31.733091710469346	2.3145912	1.521378
31.751313067090052	2.258591	1.5028609
31.769535247764008	2.2633097	1.50443
31.787758253063878	2.284991	1.5116187
31.805982083562526	2.2937448	1.5145115
31.824206739833024	2.3163228	1.521947
31.84243222244869	2.25824	1.5027442
31.860658531983013	2.2553926	1.5017965
31.878885669009737	2.3135347	1.5210308
31.897113634102784	2.2929938	1.5142634
31.91534242783632	2.2504165	1.5001389
31.933572050784694	2.206474	1.4854205
31.951802503522508	2.2260673	1.492001
31.970033786624548	2.2815185	1.5104697
31.988265900665834	2.2913337	1.5137151
32.006498846221575	2.2373493	1.4957771
32.02473262386724	2.2219121	1.490608
32.04296723417845	2.2563148	1.5021034
32.0612026777311	2.2431602	1.4977183
32.07943895510129	2.2630947	1.5043585
32.097676066865304	2.262601	1.5041944
32.115914013599685	2.2088482	1.4862194
32.13415279588115	2.142317	1.4636656
32.152392414286666	2.0880232	1.4449993
32.1706328693934	2.0651133	1.4370502
32.18887416177875	2.1432843	1.463996
32.20711629202032	2.1864777	1.4786743
32.225359260695924	2.1612535	1.4701202
32.243603068383614	2.106358	1.4513297
32.26184771566166	2.0928252	1.44666
32.28009320310852	2.1308615	1.4597471
32.2983395313029	2.1553524	1.4681119
32.31658670082372	2.1475055	1.4654369
32.33483471225012	2.1794405	1.4762928
32.35308356616143	2.104371	1.4506451
32.371333263137245	2.0932417	1.4468039
32.38958380375734	2.2088351	1.486215
32.407835188601744	2.2159348	1.4886016
32.42608741825067	2.2202482	1.4900497
32.444340493284585	2.173592	1.4743108
32.46259441428416	2.0579705	1.4345628
32.48084918183028	1.9614048	1.4005016
32.49910479650405	1.9713184	1.4040364
32.51736125888683	2.0280507	1.4240965
32.53561856956014	2.0312843	1.4252313
32.5538767291058	2.015951	1.4198419
32.572135738105764	2.079923	1.4421937
32.59039559714228	2.147403	1.465402
32.608656306797776	2.1305783	1.45965
32.62691786765491	2.0482478	1.4311701
32.645180280296586	1.989359	1.4104464
32.663443545305896	1.9541506	1.3979094
32.68170766326619	1.9950842	1.4124745
32.69997263476099	2.0070207	1.4166936
32.7182384603741	2.0065398	1.4165238
32.7365051406895	2.053548	1.4330206
32.75477267629144	2.0885906	1.4451957
32.77304106776434	2.0306313	1.4250022
32.79131031569289	2.0092647	1.4174854
32.809580420661966	2.0463839	1.4305187
32.827851383256714	2.053863	1.4331305
32.84612320406245	2.0199373	1.421245
32.86439588366476	2.059377	1.435053
32.88266942264945	2.1377933	1.4621195
32.9009438216025	2.1248858	1.4576988
32.9192190811102	2.0759828	1.4408271
32.937495201758985	1.8782042	1.3704759
32.95577218413556	1.8420433	1.357219
32.974050028826866	1.924615	1.3873049
32.992328736420035	2.0120163	1.4184556
33.010608307502444	2.0278096	1.4240118
33.02888874266169	2.0482688	1.4311774
33.047170042485604	2.0100193	1.4177516
33.06545220756225	1.9224716	1.3865322
33.083735238479896	1.8919935	1.3754976
33.10201913582707	1.851224	1.3605969
33.12030390019248	1.8620875	1.3645833
33.138589532165135	1.9413985	1.3933408
33.15687603233419	1.9511803	1.3968465
33.17516340128909	1.9789082	1.4067367
33.19345163961947	2.0116029	1.4183098
33.211740747915215	1.9541612	1.3979131
33.23003072676643	1.9533036	1.3976064
33.248321576763466	2.0124907	1.4186229
33.266613298496885	2.0275986	1.4239377
33.28490589255747	1.8555871	1.3621994
33.30319935953626	1.7637938	1.328079
33.32149370002451	1.7980593	1.3409173
33.339788914613706	1.8543012	1.3617272
33.358085003895575	1.9332119	1.3903999
33.376381968462034	1.981376	1.4076136
33.39467980890529	1.9827754	1.4081106
33.41297852581774	1.9281838	1.3885906
33.43127811979204	1.8576448	1.3629544
33.44957859142105	1.8744653	1.3691112
33.467879941297866	1.892753	1.3757735
33.486182170015844	1.9096293	1.3818934
33.50448527816853	1.8927095	1.3757578
33.522789266349754	1.880619	1.3713566
33.541094135153514	1.9507794	1.396703
33.55939988517411	2.1212146	1.456439
33.57770651700602	2.1471117	1.4653026
33.59601403124398	1.9433835	1.3940529
33.61432242848296	1.7437948	1.3205283
33.632631709318154	1.728101	1.3145726
33.650941874344994	1.809629	1.3452245
33.66925292415916	1.8157222	1.3474873
33.68756485935654	1.9190707	1.3853053
33.70587768053328	1.9539102	1.3978233
33.724191388285746	1.8707004	1.3677355
33.74250598321054	1.8976954	1.3775687
33.760821465904506	1.9250661	1.3874675
33.77913783696474	1.918838	1.3852212
33.79745509698852	1.843961	1.3579253
33.815773246573414	1.875701	1.3695623
33.8340922863172	1.8905503	1.3749728
33.852412216817896	1.7790135	1.3337966
33.87073303867377	1.8434385	1.3577329
33.889054752483304	1.9784489	1.4065734
33.907377358845245	2.030785	1.4250562
33.92570085835853	1.9466543	1.3952255
33.94402525162239	1.9474788	1.3955209
33.96235053923627	2.0399892	1.4282819
33.980676721799824	1.9858164	1.4091899
33.999003799912984	1.9489995	1.3960657
34.01733177417592	1.9890983	1.410354
34.03566064518901	2.0662336	1.4374399
34.0539904135529	1.9792366	1.4068534
34.07232107986846	2.011064	1.4181199
34.090652644736785	2.0798411	1.4421654
34.108985108759235	2.1497552	1.4662044
34.12731847253742	2.091896	1.4463389
34.14565273667313	2.0327063	1.4257301
34.16398790176847	1.9050484	1.3802348
34.18232396842574	1.8356118	1.3548476
34.20066093724749	1.9291589	1.3889416
34.21899880883651	1.9380404	1.3921351
34.23733758379583	1.8844013	1.372735
34.25567726272874	1.9935962	1.4119476
34.27401784623872	2.125417	1.457881
34.29235933492957	2.157847	1.4689611
34.31070172940526	2.1388762	1.4624897
34.32904503027003	2.1873505	1.4789695
34.347389238128386	2.2089097	1.4862401
34.36573435358502	2.1237657	1.4573146
34.38408037724492	2.0611477	1.4356698
34.402427309713296	2.0483668	1.4312116
34.42077515159559	1.9552592	1.3983059
34.43912390349752	1.8297961	1.3526995
34.45747356602499	1.9358432	1.3913459
34.47582413978423	2.0183778	1.4206963
34.49417562538163	1.859659	1.3636931
34.51252802342388	1.9348569	1.3909913
34.53088133451789	1.948398	1.3958503
34.54923555927084	1.8674988	1.3665646
34.567590698290104	1.9354813	1.3912158
34.58594675218336	2.2036967	1.4844854
34.6043037215585	2.2073739	1.4857234
34.62266160702365	2.0773158	1.4412897
34.641020409187234	1.9661813	1.4022058
34.65938012865785	1.9183447	1.3850433
34.677740766044394	1.9838173	1.4084805
34.69610232195598	2.0552878	1.4336275
34.714464797002016	2.0894337	1.4454874
34.73282819179208	2.0330062	1.4258353
34.751192506936064	1.851876	1.3608365
34.76955774304408	1.8510609	1.3605369
34.7879239007265	2.0166245	1.420079
34.80629098059391	2.2143734	1.488077
34.824658983257194	2.187949	1.4791718
34.843027909327446	2.1960185	1.4818969
34.86139775941603	2.097548	1.4482914
34.879768534134534	2.0967867	1.4480286
34.89814023409483	2.083082	1.4432886
34.91651285990901	2.0687559	1.4383171
34.93488641218944	2.076323	1.4409451
34.95326089154871	1.9327987	1.3902513
34.97163629859967	1.7424097	1.3200036
34.99001263395542	1.6746691	1.29409
35.00838989822934	1.8890837	1.3744395
35.02676809203499	2.2098894	1.4865696
35.04514721598624	2.2280133	1.4926531
35.063527270697215	2.1560347	1.4683442
35.081908256782256	1.9679986	1.4028537
35.10029017485597	1.9484992	1.3958865
35.11867302553321	1.8631107	1.3649582
35.137056809429104	1.9481514	1.395762
35.155441527159006	1.9921917	1.4114501
35.173827179338524	1.9796108	1.4069865
35.19221376658354	2.030813	1.425066
35.21060128951017	1.9618409	1.4006573
35.2289897487348	1.7177325	1.3106229
35.24737914487405	1.6881416	1.299285
35.26576947854479	1.7721708	1.3312291
35.28416075036418	1.9268341	1.3881046
35.30255296094958	1.874194	1.3690121
35.32094611091867	1.7879872	1.3371564
35.33934020088932	1.8115926	1.3459542
35.35773523147969	1.6526918	1.2855706
35.3761312033082	1.7878281	1.3370969
35.394528116993506	2.0273957	1.4238665
35.41292597315452	1.9168196	1.3844925
35.431324772410434	1.814723	1.3471166
35.449724515380666	1.9423864	1.3936952
35.46812520268491	2.2254694	1.4918007
35.486526834943106	2.3272028	1.5255172
35.504929412775454	2.086858	1.4445962
35.52333293680242	2.1989536	1.4828869
35.54173740764471	2.376878	1.5417126
35.560142825923286	2.1965463	1.482075
35.5785491922594	2.4233637	1.5567157
35.59695650727454	2.355418	1.5347371
35.61536477159042	1.8569168	1.3626873
