0.008763373481513119	0.0	0.0
0.026290120649546365	0.0	0.0
0.043816868432600686	0.03550094	0.18841693
0.06134361724069026	0.13480023	0.3671515
0.07887036748382949	0.13707814	0.37024066
0.0963971195720331	0.11333413	0.33665136
0.11392387391531617	0.04209755	0.20517687
0.1314506309236943	0.02323553	0.15243205
0.1489773910071836	0.05273569	0.22964253
0.16650415457580078	0.07020209	0.26495677
0.18403092203956356	0.09817606	0.3133306
0.20155769380849	0.11434856	0.33815464
0.2190844702925996	0.14966336	0.3868635
0.2366112519019124	0.1188976	0.3448153
0.2541380390464497	0.13715893	0.37034974
0.27166483213623416	0.124014206	0.35215652
0.28919163158128947	0.17060772	0.41304687
0.3067184377916406	0.19983535	0.44702947
0.324245251177314	0.21823797	0.46715948
0.34177207214833777	0.20220393	0.4496709
0.3592989011147415	0.17910136	0.42320368
0.37682573848655654	0.146478	0.38272443
0.39435258467381573	0.15853512	0.3981647
0.41187944008655414	0.1479783	0.3846795
0.42940630513480854	0.13123563	0.36226457
0.446933180228618	0.081644915	0.28573576
0.4644600657780234	0.08166979	0.28577927
0.48198696219306775	0.1069417	0.32701942
0.49951386988379676	0.12438074	0.35267654
0.5170407892602581	0.16850974	0.41049936
0.5345677207325025	0.18576407	0.43100357
0.5520946647105822	0.18715549	0.4326147
0.5696216216045534	0.16375421	0.40466556
0.5871485918244737	0.15846464	0.39807618
0.6046755757804043	0.12231706	0.34973857
0.6222025738824094	0.119188115	0.34523633
0.6397295865405557	0.09913116	0.31485102
0.6572566141649129	0.11819904	0.34380087
0.6747836571655547	0.11596224	0.34053227
0.6923107159525568	0.1727028	0.41557527
0.7098377909359992	0.18613964	0.43143904
0.7273648825259653	0.19095056	0.4369789
0.7448919911325411	0.15596053	0.39491838
0.762419117165817	0.13627027	0.36914805
0.7799462610358868	0.15383835	0.39222232
0.7974734231528482	0.18168591	0.42624632
0.8150006039268024	0.23231578	0.48199147
0.8325278037678551	0.2320073	0.48167136
0.8500550230861152	0.22647887	0.47589797
0.8675822622916969	0.193423	0.43979883
0.8851095217947171	0.20328873	0.45087552
0.9026368020052984	0.20075484	0.44805673
0.9201641033335665	0.19860668	0.4456531
0.9376914261896523	0.17073734	0.41320375
0.9552187709836915	0.18233606	0.42700827
0.9727461381258234	0.21148993	0.45988035
0.990273528026193	0.2245949	0.47391444
1.0078009410949496	0.25873065	0.5086557
1.0253283777422473	0.27531078	0.52470064
1.0428558383782454	0.298962	0.54677415
1.0603833234131086	0.3056822	0.55288535
1.0779108332570058	0.3311727	0.57547605
1.0954383683201119	0.3314184	0.5756895
1.112965929012607	0.34160274	0.5844679
1.1304935157446763	0.39594963	0.6292453
1.1480211289265108	0.40821433	0.63891655
1.1655487689683062	1.2755837	1.1294174
1.1830764362802655	1.6401361	1.280678
1.200604131272596	2.0570076	1.4342271
1.2181318543555117	2.2444808	1.4981592
1.235659605939232	2.2846234	1.511497
1.253187386433982	3.7965894	1.9484838
1.270715196249994	6.1147137	2.4727948
1.2882430357975057	11.283548	3.3590994
1.3057709054867608	15.938114	3.9922569
1.3232988057280106	21.41079	4.6271796
1.3408267369315112	26.383045	5.1364427
1.358354699507526	30.253708	5.500337
1.3758826938663256	34.392376	5.8645015
1.3934107204181858	36.53474	6.0443974
1.410938779573391	36.6228	6.051677
1.4284668717422309	37.31575	6.108662
1.4459949973350033	36.66137	6.0548635
1.4635231567620117	36.475224	6.039472
1.4810513504335687	35.856033	5.987991
1.4985795787599925	35.064606	5.9215374
1.5161078421516088	34.714157	5.891872
1.5336361410187505	33.89195	5.821679
1.5511644757717598	33.59747	5.7963324
1.5686928468209842	34.190033	5.847224
1.58622125457678	34.84574	5.903028
1.6037496994495108	35.956284	5.996356
1.621278181849548	35.934143	5.994509
1.6388067021872719	36.517696	6.0429873
1.6563352608730693	36.221622	6.0184402
1.673863858317336	35.376972	5.9478545
1.6913924949304753	34.726166	5.892891
1.7089211711228998	33.671112	5.8026814
1.7264498873050296	32.726208	5.7206826
1.7439786438872935	31.859303	5.6444044
1.7615074412801288	30.828667	5.5523567
1.779036279893981	30.059265	5.482633
1.796565160139305	29.180502	5.401898
1.814094082426564	28.843258	5.370592
1.8316230471662298	28.142439	5.304945
1.849152054768784	27.283642	5.2233744
1.8666811056447168	26.844713	5.1811886
1.8842102002045273	26.119072	5.110682
1.901739338858724	25.742859	5.073742
1.9192685220178245	25.023405	5.00234
1.9367977500923557	24.394926	4.939122
1.9543270234928547	24.07298	4.9064226
1.971856342629867	23.38778	4.8360915
1.9893857079139496	22.730783	4.767681
2.006915119755667	22.101166	4.7011876
2.0244445785655945	21.269684	4.6119065
2.0419740847543175	20.81647	4.5625067
2.0595036387324317	20.292908	4.504765
2.0770332409105414	20.024208	4.4748416
2.094562891699263	19.986609	4.4706383
2.1120925915092217	19.476477	4.413216
2.129622340751053	19.197987	4.381551
2.1471521398354043	187.20236	13.682192
2.1646819891729323	443.46634	21.058641
2.182211889174303	439.656	20.967976
2.1997418402501974	452.16473	21.264166
2.2172718428113023	432.21692	20.789827
2.234801897268317	320.10446	17.891464
2.2523320040319548	16.523046	4.064855
2.269862163512935	16.417686	4.0518746
2.287392376121992	16.110792	4.013825
2.304922642269869	15.958656	3.9948287
2.322452962367322	15.690836	3.961166
2.3399833368251164	15.264085	3.9069278
2.357513766054032	14.977262	3.8700466
2.3750442504648586	14.670341	3.830188
2.3925747904683963	14.318564	3.783988
2.410105386475459	14.198221	3.7680528
2.4276360388968707	13.852789	3.7219336
2.445166748143469	13.797834	3.7145436
2.4626975146261025	13.519476	3.676884
2.4802283387556323	13.442156	3.6663547
2.4977592209429305	13.317214	3.6492758
2.5152901615988825	13.008089	3.6066728
2.5328211611343865	12.796005	3.5771503
2.5503522199603523	12.571602	3.5456455
2.5678833384877024	12.462291	3.530197
2.5854145171273712	12.166328	3.4880264
2.6029457562903064	11.961573	3.4585507
2.620477056387469	11.644845	3.4124544
2.6380084178298326	11.377501	3.373055
2.655539841028383	11.29593	3.360942
2.673071326394119	11.079653	3.3286111
2.6906028743380523	10.903491	3.3020434
2.708134485271211	10.769029	3.2816198
2.7256661596046325	10.662197	3.265302
2.743197897749369	10.552327	3.2484345
2.760729700116486	10.298968	3.2092006
2.778261567117063	10.187795	3.1918325
2.795793499162193	9.975796	3.1584482
2.8133254966629817	9.959895	3.15593
2.830857560030551	9.852977	3.138945
2.8483896896760337	9.641986	3.1051548
2.865921886010578	9.417976	3.0688722
2.883454149445347	9.251876	3.0416896
2.9009864803915177	9.130658	3.021698
2.91851887926028	9.039021	3.0064964
2.9360513464628384	8.985135	2.9975214
2.953583882410413	8.873985	2.9789236
2.9711164875142373	8.799108	2.9663289
2.9886491621855606	8.83188	2.9718478
3.0061819068356455	8.75247	2.9584575
3.023714721875769	8.579265	2.9290383
3.041247607717225	8.41433	2.9007463
3.0587805647713213	8.200918	2.8637245
3.0763135934493806	8.188135	2.8614917
3.0938466941627407	8.02584	2.8329914
3.1113798673227544	7.959393	2.8212397
3.1289131133407904	7.8042774	2.7936137
3.1464464326282315	7.551536	2.7480059
3.1639798255964786	7.42819	2.7254705
3.1815132926569443	7.2544284	2.6934047
3.1990468342210603	7.1879783	2.6810405
3.216580450700272	7.1520457	2.674331
3.2341141425060416	7.0453854	2.6543145
3.251647910049847	7.041763	2.653632
3.2691817537431813	7.099813	2.6645474
3.286715673997555	7.117642	2.667891
3.3042496712244938	6.91919	2.6304352
3.32178374583554	6.6768727	2.5839646
3.339317898242251	6.555224	2.560317
3.3568521288562034	6.56796	2.562803
3.3743864380889876	6.6091766	2.570832
3.3919208263522127	6.5713716	2.5634687
3.4094552940575023	6.4218326	2.5341334
3.4269898416164972	6.492842	2.5481057
3.444524469440858	6.470434	2.5437047
3.4620591779422587	6.4618025	2.5420077
3.479593967532391	6.351877	2.520293
3.4971288386229658	6.234364	2.4968708
3.5146637916257086	6.2859883	2.5071874
3.5321988269523628	6.258451	2.5016897
3.5497339450146903	6.3775063	2.5253725
3.5672691462244708	6.3593373	2.5217726
3.5848044309934988	6.2815495	2.5063019
3.60233979973359	6.038102	2.457255
3.619875252856575	5.968657	2.4430835
3.6374107907743034	5.973136	2.444
3.6549464138986427	6.0608263	2.4618745
3.6724821226414788	6.0737457	2.464497
3.690017917414714	6.057784	2.4612565
3.7075537986302702	6.0546823	2.4606264
3.7250897667000857	6.208076	2.491601
3.7426258220361235	6.382523	2.5263655
3.7601619650503553	6.7069077	2.5897698
3.777698196154779	7.1453896	2.6730862
3.7952345157614067	8.090386	2.8443604
3.8127709242822716	8.771278	2.9616344
3.830307422129425	10.921048	3.3047009
3.847844009714936	29.755508	5.454861
3.8653806874508954	97.223755	9.86021
3.882917455749409	96.582855	9.827658
3.900454315022606	96.44954	9.820872
3.917991265682631	40.94468	6.3988028
3.9355283081416506	10.534891	3.2457497
3.9530654428118495	8.378765	2.8946097
3.970602670105433	7.127149	2.669672
3.9881399904346244	6.3894444	2.527735
4.005677404211669	6.3459244	2.5191119
4.023214911848827	6.2970333	2.509389
4.0407525137583855	6.287471	2.507483
4.058290210352644	6.244251	2.4988499
4.075828002043927	6.1744967	2.4848535
4.0933658892445814	6.2137213	2.4927337
4.110903872366966	6.139674	2.4778366
4.128441951823468	6.0425334	2.4581566
4.145980128026488	5.921371	2.4333868
4.163518401388452	5.858101	2.4203515
4.181056772321807	5.8463936	2.4179316
4.1985952412390155	5.907533	2.4305418
4.216133808552567	5.9819727	2.4458072
4.233672474674966	6.0767136	2.465099
4.251211240018741	6.211153	2.4922185
4.268750104996445	6.4114213	2.5320785
4.286289070020643	7.3365164	2.7086005
4.303828135503928	9.046713	3.0077753
4.3213673018589125	29.31952	5.41475
4.3389065694982305	90.496124	9.512945
4.356445938834537	165.6516	12.870571
4.3739854102805085	171.14749	13.082335
4.391524984248844	172.10707	13.118958
4.409064661152262	136.07002	11.664906
4.426604441403504	96.389366	9.817808
4.444144325415337	75.39016	8.682751
4.461684313600543	21.29034	4.6141458
4.47922440637193	21.596169	4.6471677
4.496764604142329	19.740591	4.4430385
4.5143049073245916	17.864286	4.2266164
4.531845316331589	15.876483	3.9845304
4.5493858315762195	13.111102	3.6209257
4.566926453471405	10.974446	3.3127701
4.584467182430081	9.127668	3.021203
4.602008018865218	8.089017	2.8441198
4.619548963189798	7.492856	2.7373083
4.637090015816834	6.935717	2.633575
4.654631177159353	6.5710073	2.5633976
4.672172447630417	6.2802496	2.5060427
4.689713827643102	6.1574554	2.481422
4.7072553176105085	5.951479	2.4395654
4.724796917945764	5.8243012	2.413359
4.742338629062015	5.729349	2.393606
4.759880451372434	5.6749325	2.3822117
4.777422385290215	5.5761786	2.3613935
4.794964431228581	5.631214	2.373018
4.812506589600768	5.5773335	2.3616378
4.830048860820047	5.543389	2.3544402
4.847591245299709	5.452381	2.3350334
4.8651337434530655	5.399587	2.3237011
4.882676355693457	5.4255195	2.3292744
4.900219082434242	5.4053473	2.3249402
4.917761924088813	5.4849153	2.3419895
4.935304881070575	5.456552	2.3359263
4.952847953792969	5.409658	2.3258672
4.970391142669449	5.3810105	2.3197005
4.9879344481135055	5.40628	2.325141
5.005477870538642	5.4196076	2.328005
5.023021410358394	5.3974357	2.3232381
5.040565067986324	5.368067	2.3169088
5.05810884383601	5.359434	2.315045
5.075652738321066	5.3799443	2.3194706
5.09319675185512	5.425269	2.3292208
5.110740884851836	5.3201613	2.3065474
5.128285137724894	5.234044	2.2878034
5.145829510888007	5.1714454	2.2740812
5.163374004754908	5.1761403	2.2751133
5.1809186197393595	5.179915	2.2759426
5.198463356255145	5.1749363	2.2748487
5.216008214716077	5.2213135	2.2850194
5.233553195535998	5.258794	2.293206
5.251098299128764	5.2564125	2.2926867
5.268643525908272	5.206432	2.2817607
5.286188876288432	5.161765	2.271952
5.3037343506831895	5.143998	2.2680383
5.32127994950651	5.2028484	2.2809753
5.3388256731723915	5.216181	2.283896
5.356371522094851	5.1460814	2.2684977
5.373917496687938	5.068	2.251222
5.391463597365729	4.9602456	2.227161
5.40900982454232	4.9662056	2.2284985
5.426556178631843	5.084856	2.2549624
5.444102660048449	5.110809	2.2607098
5.4616492692063225	5.104202	2.259248
5.479196006519669	5.0621095	2.2499132
5.496742872402727	4.981203	2.2318609
5.514289867269756	5.0494137	2.24709
5.531836991535049	5.1076603	2.2600133
5.549384245612924	5.135953	2.2662642
5.566931629917724	5.102599	2.2588933
5.584479144863822	5.096173	2.2574704
5.6020267908656205	5.106945	2.259855
5.619574568337545	5.148294	2.2689853
5.637122477694054	5.221006	2.2849522
5.654670519349629	5.1401024	2.2671795
5.672218693718784	5.107266	2.259926
5.689767001216059	5.1023874	2.2588465
5.707315442256021	5.1044893	2.2593117
5.724864017253266	5.086354	2.2552946
5.7424127266224225	5.087037	2.2554462
5.75996157077814	5.0835867	2.254681
5.777510550135105	5.085941	2.255203
5.795059665108022	5.022831	2.2411673
5.812608916111639	4.954382	2.2258441
5.830158303560715	5.056709	2.2487128
5.847707827870055	5.076937	2.253206
5.86525748945448	5.200226	2.2804003
5.8828072887288485	5.3555236	2.3142004
5.900357226108044	5.435851	2.3314912
5.917907302006979	5.5075083	2.3468082
5.9354575168406	6.042502	2.4581501
5.9530078710238765	6.556747	2.5606146
5.970558364971812	7.125645	2.6693904
5.988108999099438	7.425451	2.724968
6.005659773821818	7.9396067	2.8177307
6.023210689554039	7.6255956	2.7614481
6.040761746711227	7.9938064	2.827332
6.058312945708531	7.411447	2.7223973
6.075864286961132	7.0195856	2.64945
6.093415770884244	6.4403443	2.5377834
6.1109673978931065	5.9453206	2.4383028
6.128519168402993	5.3664937	2.3165693
6.146071082829204	5.2315216	2.287252
6.163623141587075	5.077297	2.253286
6.181175345091969	4.9876604	2.2333071
6.198727693759281	5.0016713	2.2364416
6.216280188004435	4.980771	2.231764
6.233832828242885	5.015365	2.239501
6.251385614890126	5.0622993	2.2499554
6.268938548361669	5.1137576	2.2613618
6.286491629073067	5.0648966	2.2505326
6.304044857439898	5.014487	2.239305
6.321598233877777	4.953631	2.2256753
6.339151758802344	4.911538	2.216199
6.356705432629277	4.871695	2.2071917
6.37425925577428	4.7941394	2.1895523
6.391813228653095	4.8438163	2.2008672
6.409367351681486	4.8431263	2.2007103
6.426921625275259	4.866367	2.2059844
6.44447604985025	4.889929	2.2113183
6.46203062582232	4.892216	2.2118354
6.47958535360737	4.809863	2.19314
6.497140233621328	4.7973614	2.190288
6.514695266280161	4.8108788	2.1933715
6.532250451999859	4.815455	2.1944144
6.549805791196454	4.8759804	2.2081623
6.567361284286002	4.870386	2.206895
6.584916931684597	4.9496794	2.2247875
6.602472733808367	4.8918633	2.2117558
6.6200286910734665	4.866948	2.206116
6.637584803896092	4.87589	2.2081418
6.655141072692462	4.9047728	2.214672
6.672697497878842	4.919683	2.218036
6.690254079871514	4.8972564	2.2129745
6.707810819086808	4.85215	2.2027597
6.725367715941078	4.890811	2.2115178
6.742924770850719	4.8863635	2.2105122
6.760481984232151	4.955024	2.2259881
6.778039356501836	4.8821106	2.20955
6.795596888076266	4.918987	2.2178788
6.813154579371963	4.9005237	2.2137127
6.830712430805492	4.932607	2.2209473
6.84827044279344	4.9339943	2.2212596
6.865828615752445	4.908712	2.2155614
6.883386950099159	4.8937564	2.2121837
6.900945446250287	4.8619514	2.2049832
6.918504104622553	4.9595113	2.226996
6.936062925632727	5.052111	2.2476902
6.953621909697607	5.118362	2.2623796
6.971181057234028	5.1623898	2.2720892
6.988740368658859	5.121	2.2629626
7.006299844389007	5.108411	2.2601793
7.023859484841407	5.080804	2.2540638
7.041419290433036	5.1502957	2.2694263
7.058979261580902	5.2977424	2.3016825
7.0765393987020495	5.556959	2.3573203
7.094099702213559	5.9207277	2.4332545
7.111660172532549	6.267884	2.5035741
7.129220810076164	6.5468106	2.5586736
7.146781615261595	7.1465354	2.6733005
7.16434258850606	7.402913	2.7208295
7.181903730226821	7.8333197	2.798807
7.1994650408411704	7.9415164	2.8180697
7.217026520766437	8.126413	2.8506866
7.234588170419983	8.360557	2.8914628
7.252149990219215	8.292406	2.879654
7.269711980581568	8.201242	2.8637812
7.2872741419245175	7.9726458	2.8235874
7.304836474665574	7.593898	2.7557027
7.322398979222286	7.2893066	2.6998715
7.339961656012233	7.0619235	2.657428
7.357524505453039	6.7356086	2.5953052
7.375087527962357	6.488405	2.5472348
7.392650723957886	6.195793	2.489135
7.410214093857353	5.8679795	2.4223912
7.427777638078528	5.6604033	2.3791602
7.445341357039213	5.5081754	2.3469503
7.4629052511572525	5.343339	2.3115664
7.480469320850524	5.2783685	2.29747
7.498033566536948	5.1523304	2.2698746
7.5155979886344735	5.0880666	2.2556744
7.5331625875610975	4.99094	2.2340412
7.550727363734844	4.949926	2.2248428
7.568292317573788	4.92349	2.2188938
7.585857449496025	4.930415	2.2204537
7.603422759919705	4.980707	2.2317498
7.620988249263007	4.976304	2.2307632
7.638553917944147	5.024489	2.241537
7.656119766381391	5.04805	2.2467866
7.673685794993023	5.1089563	2.2603002
7.691252004197388	5.1491966	2.269184
7.70881839441285	5.179995	2.2759602
7.726384966057826	5.1485	2.2690306
7.743951719550762	5.163982	2.2724397
7.761518655310149	5.1565585	2.2708056
7.779085773754511	5.098572	2.2580018
7.796653075302419	5.083735	2.254714
7.814220560372475	5.0858235	2.255177
7.831788229383323	5.173583	2.2745512
7.8493560827536495	5.1972594	2.2797499
7.866924120902174	5.230353	2.2869964
7.884492344247663	5.2202864	2.2847946
7.9020607532089135	5.1986628	2.2800577
7.919629348204771	5.2179303	2.2842789
7.937198129654115	5.21336	2.2832782
7.954767097975865	5.238486	2.2887738
7.972336253588986	5.2673836	2.295078
7.989905596912472	5.305227	2.3033078
8.007475128365371	5.3333282	2.3094
8.025044848366756	5.3400345	2.3108516
8.042614757335754	5.3830895	2.3201487
8.060184855691523	5.4629064	2.337286
8.07775514385327	5.590045	2.3643277
8.095325622240228	5.69853	2.3871593
8.112896291271687	5.707916	2.3891244
8.130467151366968	5.739432	2.3957112
8.148038202945436	5.7963824	2.4075677
8.165609446426497	5.819711	2.4124079
8.183180882229594	5.974372	2.4442527
8.200752510774217	5.9349847	2.4361825
8.218324332479893	5.9127803	2.4316208
8.235896347766193	5.8514566	2.4189785
8.253468557052724	5.858965	2.4205298
8.27104096075914	5.9020305	2.4294095
8.288613559305137	5.8954825	2.4280615
8.306186353110448	5.9879837	2.4470358
8.32375934259485	6.086138	2.4670098
8.341332528178162	6.167554	2.4834561
8.358905910280246	6.1766853	2.4852939
8.376479489321003	6.172306	2.4844127
8.394053265720377	6.1821413	2.4863913
8.411627239898356	6.1810493	2.4861717
8.42920141227497	6.162416	2.4824214
8.44677578327029	6.1200576	2.473875
8.464350353304427	6.038579	2.457352
8.48192512279754	5.96689	2.4427218
8.499500092169827	5.969134	2.443181
8.51707526184153	5.949492	2.439158
8.534650632232934	5.983803	2.4461813
8.552226203764365	6.0263066	2.4548538
8.569801976856192	6.0903606	2.4678657
8.587377951928834	6.1476617	2.4794478
8.60495412940274	6.18869	2.4877079
8.622530509698416	6.187513	2.487471
8.6401070932364	6.2156386	2.4931183
8.657683880437283	6.408566	2.5315146
8.675260871721695	6.5400567	2.5573535
8.692838067510303	6.736649	2.5955055
8.710415468223834	6.794846	2.6066926
8.727993074283043	6.925084	2.6315556
8.745570886108737	6.9930725	2.6444418
8.763148904121765	6.9960637	2.6450074
8.78072712874302	6.987189	2.6433291
8.798305560393441	7.1658616	2.6769128
8.815884199494006	7.38242	2.717061
8.833463046465745	7.662787	2.768174
8.851042101729728	7.8016148	2.793137
8.86862136570707	8.0787	2.8423054
8.886200838818924	8.202225	2.8639526
8.903780521486505	8.29693	2.8804393
8.921360414131055	8.362053	2.8917215
8.938940517173874	8.490608	2.9138649
8.956520831036297	8.579639	2.9291022
8.97410135613971	8.801579	2.9667456
8.99168209290554	8.971847	2.995304
9.009263041755265	9.24531	3.04061
9.026844203110405	9.4966955	3.081671
9.044425577392525	9.66662	3.109119
9.062007165023239	9.691518	3.1131203
9.079588966424197	9.938016	3.1524618
9.097170982017108	10.092108	3.1768079
9.11475321222372	11.123625	3.3352098
9.132335657465825	12.0817995	3.4758883
9.149918318165264	12.140399	3.4843075
9.167501194743924	12.638957	3.5551312
9.18508428762374	12.369238	3.5169928
9.202667597226693	12.409517	3.5227144
9.220251123974803	12.110211	3.4799728
9.237834868290143	11.735153	3.425661
9.255418830594836	11.497442	3.3907878
9.273003011311046	10.994706	3.3158267
9.290587410860985	10.783872	3.2838805
9.308172029666911	10.109988	3.1796207
9.32575686815113	9.807345	3.131668
9.343341926735997	8.5665865	2.9268732
9.360927205843916	8.320362	2.8845038
9.378512705897327	8.190203	2.8618531
9.396098427318728	7.9799404	2.824879
9.413684370530664	7.887382	2.8084483
9.431270535955722	7.747171	2.783374
9.448856924016539	7.629792	2.7622077
9.466443535135806	7.5397897	2.7458677
9.484030369736251	7.615048	2.7595377
9.501617428240658	7.6934414	2.7737052
9.519204711071852	7.771071	2.7876642
9.536792218652714	7.7466216	2.7832754
9.55437995140617	7.754756	2.7847362
9.571967909755191	7.691403	2.7733378
9.589556094122802	7.6835403	2.77192
9.60714450493207	7.670499	2.7695665
9.624733142606116	7.7092133	2.776547
9.642322007568108	7.757837	2.7852893
9.659911100241267	7.860625	2.8036807
9.677500421048851	7.951124	2.8197737
9.695089970414175	7.932818	2.816526
9.712679748760609	7.9335527	2.8166564
9.730269756511557	7.903672	2.811347
9.747859994090492	7.9572988	2.8208685
9.765450461920915	7.996529	2.8278134
9.78304116042639	8.036684	2.8349047
9.800632090030527	8.064657	2.839834
9.81822325115699	8.065806	2.8400364
9.835814644229481	8.078824	2.842327
9.853406269671762	8.094792	2.845135
9.870998127907646	8.164198	2.857306
9.888590219360985	8.211604	2.8655896
9.906182544455698	8.158153	2.856248
9.923775103615734	8.157838	2.8561928
9.941367897265108	8.121469	2.849819
9.958960925827878	8.197502	2.863128
9.97655418972816	8.111948	2.848148
9.994147689390106	8.123066	2.8500993
10.011741425237934	8.043817	2.8361623
10.029335397695904	8.057406	2.838557
10.04692960718833	8.064153	2.8397453
10.06452405413958	8.047005	2.8367243
10.082118738974064	8.0492735	2.837124
10.099713662116246	7.98047	2.8249726
10.117308823990651	7.9974775	2.8279812
10.134904225021844	7.970274	2.8231673
10.152499865634445	7.9614415	2.8216026
10.170095746253125	7.9868345	2.826099
10.18769186730261	7.973876	2.8238053
10.205288229207675	7.994191	2.8274
10.222884832393145	8.028158	2.8334005
10.2404816772839	8.021925	2.8323002
10.258078764304868	8.041813	2.835809
10.275676093881035	7.998927	2.8282375
10.293273666437438	7.932496	2.8164687
10.310871482399158	7.971214	2.8233337
10.32846954219134	7.935405	2.8169851
10.346067846239173	8.025894	2.833001
10.363666394967908	8.000005	2.828428
10.38126518880283	8.040405	2.8355608
10.398864228169298	8.080744	2.842665
10.416463513492713	8.071343	2.841011
10.434063045198531	8.080568	2.842634
10.451662823712262	8.0494	2.8371465
10.469262849459467	8.027984	2.8333697
10.486863122865758	7.9375668	2.8173687
10.504463644356806	7.894382	2.8096943
10.522064414358338	7.808873	2.7944362
10.539665433296118	7.7899246	2.7910438
10.557266701595987	7.7358274	2.7813356
10.574868219683818	7.6771626	2.7707694
10.592469987985552	7.59551	2.7559953
10.610072006927185	7.548909	2.7475278
10.627674276934751	7.4753714	2.7341125
10.64527679843435	7.252116	2.6929753
10.662879571852143	7.091326	2.6629543
10.680482597614331	6.9449015	2.635318
10.698085876147173	6.885586	2.62404
10.715689407876988	6.87708	2.6224186
10.733293193230146	6.8027325	2.6082048
10.750897232633072	6.689497	2.5864062
10.76850152651225	6.6022635	2.569487
10.786106075294207	6.4658885	2.5428112
10.803710879405534	6.379496	2.5257664
10.821315939272877	6.316062	2.5131776
10.83892125532294	6.3059826	2.5111716
10.856526827982472	6.2530794	2.5006158
10.874132657678285	6.1994996	2.4898794
10.891738744837243	6.1511974	2.4801607
10.909345089886271	6.0359592	2.4568188
10.926951693252343	5.973451	2.4440644
10.944558555362494	5.8896713	2.4268646
10.96216567664381	5.8531256	2.4193234
10.979773057523436	5.834997	2.4155738
10.997380698428573	5.8381443	2.4162252
11.014988599786477	5.7745614	2.4030318
11.032596762024461	5.695038	2.3864279
11.050205185569892	5.516574	2.348739
11.067813870850198	5.4613185	2.3369465
11.085422818292859	5.387184	2.3210309
11.10303202832541	5.389079	2.321439
11.120641501375454	5.365346	2.3163216
11.138251237870636	5.3265133	2.307924
11.155861238238671	5.2689137	2.2954113
11.173471502907317	5.2059846	2.2816627
11.191082032304402	5.091426	2.2564187
11.208692826857805	5.0427513	2.2456071
11.226303886995465	4.9509053	2.225063
11.243915213145371	4.868117	2.2063808
11.261526805735578	4.7696924	2.1839626
11.279138665194196	4.789379	2.188465
11.296750791949393	4.7885356	2.1882722
11.314363186429393	4.7507205	2.1796148
11.331975849062479	4.667117	2.160351
11.34958878027699	4.5687194	2.1374562
11.36720198050133	4.5512285	2.1333609
11.384815450163948	4.527815	2.1278663
11.402429189693366	4.436463	2.1062913
11.420043199518153	4.381876	2.0932932
11.437657480066942	63.308765	7.956681
11.455272031768422	85.07785	9.223765
11.472886855051353	107.51388	10.36889
11.490501950344528	99.12012	9.955909
11.508117318076819	84.4517	9.18976
11.52573295867715	45.87284	6.772949
11.543348872574514	4.162842	2.0403044
11.560965060197946	4.0779667	2.0193975
11.57858152197655	3.9713259	1.9928186
11.59619825833949	3.9380636	1.9844555
11.613815269715985	3.9725895	1.9931356
11.631432556535323	38.561253	6.2097707
11.649050119226837	83.16785	9.11964
11.666667958219929	93.55349	9.672305
11.68428607394406	107.778786	10.381657
11.701904466828756	82.52625	9.084396
11.719523137303586	65.30317	8.0810375
11.737142085798196	4.5409994	2.1309621
11.754761312742286	3.639499	1.907747
11.772380818565619	3.6634989	1.9140269
11.790000603698015	3.6281617	1.9047734
11.80762066856935	3.618036	1.9021136
11.825241013609572	3.539892	1.8814601
11.842861639248683	3.4936602	1.8691336
11.860482545916748	3.4497628	1.8573537
11.878103734043883	3.4865284	1.8672248
11.895725204060282	3.4786382	1.8651108
11.91334695639619	3.4649127	1.8614275
11.930968991481919	3.414233	1.8477644
11.948591309747824	3.4089417	1.846332
11.966213911624347	3.4103587	1.8467157
11.98383679754198	3.3572416	1.8322778
12.001459967931268	3.331295	1.8251835
12.019083423222835	3.2699797	1.8083085
12.036707163847352	3.1930192	1.7869021
12.05433119023556	3.1910975	1.7863643
12.071955502818259	3.1837623	1.78431
12.089580102026313	3.220109	1.7944663
12.107204988290643	3.2381823	1.799495
12.12483016204224	3.2080057	1.7910906
12.142455623712152	3.1414473	1.7724129
12.16008137373149	3.0873444	1.757084
12.177707412531431	3.0311892	1.741031
12.19533374054321	2.990504	1.7293074
12.212960358198126	2.9643526	1.7217295
12.230587265927545	2.9811256	1.7265936
12.248214464162889	2.9982083	1.7315335
12.265841953335649	3.027133	1.7398658
12.283469733877375	3.0302825	1.7407707
12.301097806219685	3.0340781	1.7418605
12.31872617079425	3.0042562	1.733279
12.336354828032825	2.9872906	1.728378
12.353983778367205	2.9520738	1.71816
12.371613022229262	2.8850489	1.6985432
12.389242560050928	2.8564682	1.6901089
12.406872392264201	2.834208	1.6835107
12.424502519301143	2.8652842	1.692715
12.442132941593874	2.8532684	1.689162
12.459763659574586	2.8476353	1.6874938
12.477394673675532	2.8481336	1.6876414
12.49502598432903	2.8580863	1.6905875
12.51265759196746	2.8119104	1.6768752
12.530289497023267	2.786787	1.6693673
12.547921699928967	2.7700393	1.6643435
12.565554201117134	2.7616806	1.6618305
12.583187001020404	2.7830412	1.668245
12.600820100071486	2.79797	1.6727134
12.618453498703152	2.778372	1.666845
12.636087197348235	2.7810717	1.6676545
12.65372119643964	2.7518413	1.6588675
12.671355496410326	2.768433	1.6638609
12.68899009769333	2.828955	1.6819497
12.706625000721749	2.876509	1.6960274
12.724260205928752	2.9096086	1.7057575
12.741895713747551	2.902107	1.7035571
12.759531524611454	2.9320042	1.7123096
12.777167638953818	2.9426444	1.7154138
12.794804057208072	2.9523382	1.7182369
12.812440779807702	2.9854138	1.727835
12.830077807186271	3.1440017	1.7731333
12.847715139777405	3.1949472	1.7874415
12.865352778014795	3.4100642	1.8466359
12.882990722332197	3.5346806	1.8800746
12.90062897316344	3.6362684	1.9069002
12.918267530942412	3.7531872	1.9373144
12.935906396103071	3.669207	1.9155174
12.953545569079449	3.8127213	1.9526191
12.971185050305628	3.6122694	1.9005971
12.988824840215775	3.5821853	1.8926662
13.006464939244115	3.5325687	1.8795129
13.024105347824943	3.3662868	1.8347443
13.041746066392617	3.4658513	1.8616797
13.05938709538157	3.3343916	1.8260317
13.077028435226296	3.3528578	1.831081
13.094670086361363	3.2762454	1.8100401
13.112312049221401	3.19065	1.786239
13.129954324241112	3.107	1.7626685
13.147596911855258	2.9496508	1.7174548
13.165239812498685	2.956608	1.719479
13.182883026606293	2.8777444	1.6963916
13.200526554613058	2.7829216	1.6682091
13.218170396954017	2.7255766	1.6509321
13.235814554064284	2.7524006	1.659036
13.253459026379034	2.8074718	1.6755512
13.271103814333523	2.786654	1.6693274
13.288748918363058	2.7677307	1.6636498
13.306394338903031	2.7686925	1.6639389
13.32404007638889	2.7727108	1.6651459
13.341686131256164	2.7644753	1.6626711
13.359332503940449	2.7138352	1.6473722
13.376979194877402	2.6941307	1.6413807
13.394626204502751	2.7422376	1.6559703
13.412273533252307	2.7701576	1.664379
13.429921181561937	2.747243	1.657481
13.447569149867581	2.76434	1.6626304
13.465217438605247	2.7335434	1.6533431
13.482866048211022	2.7364993	1.6542368
13.500514979121052	2.7698536	1.6642877
13.518164231771568	2.805215	1.6748775
13.535813806598844	2.7878127	1.6696744
13.553463704039254	2.7642117	1.6625918
13.571113924529229	2.7290845	1.6519941
13.588764468505275	2.7443237	1.6566
13.606415336403956	2.762194	1.6619849
13.624066528661917	2.780239	1.6674049
13.641718045715882	2.8232536	1.680254
13.659369888002635	2.928403	1.7112577
13.67702205595903	2.9965234	1.7310469
13.694674550021993	3.0408163	1.7437936
13.712327370628532	3.054389	1.747681
13.729980518215713	3.1522753	1.7754648
13.747633993220681	3.2531872	1.8036594
13.765287796080647	3.2767222	1.8101718
13.7829419272329	3.301193	1.8169185
13.800596387114801	3.2808096	1.8113005
13.818251176163775	3.3199935	1.8220849
13.835906294817324	3.3787327	1.838133
13.853561743513023	3.420258	1.849394
13.871217522688525	3.462137	1.8606819
13.888873632781538	3.5033445	1.8717223
13.906530074229858	3.5723815	1.8900745
13.92418684747135	3.5797849	1.8920319
13.941843952943948	3.5125163	1.8741708
13.959501391085665	3.4941425	1.8692626
13.977159162334578	3.4545982	1.858655
13.994817267128846	3.4393864	1.8545582
14.012475705906693	3.3873212	1.8404677
14.030134479106424	3.3030434	1.8174276
14.047793587166414	3.2505386	1.802925
14.065453030525108	3.1646867	1.7789567
14.083112809621026	3.1196551	1.7662545
14.100772924892766	3.0404792	1.7436969
14.118433376778997	3.0084345	1.734484
14.136094165718458	2.92452	1.7101228
14.153755292149969	2.8875062	1.6992664
14.171416756512416	2.8443587	1.6865226
14.189078559244768	2.782442	1.6680654
14.20674070078606	2.706093	1.6450207
14.224403181575408	2.6249192	1.6201602
14.242066002051999	2.6080985	1.6149608
14.259729162655093	2.5887773	1.6089678
14.277392663824022	2.5698252	1.6030674
14.295056505998208	2.5772939	1.6053952
14.312720689617128	2.5821748	1.6069146
14.330385215120348	2.5479329	1.5962245
14.348050082947497	2.5049329	1.582698
14.3657152935383	2.4468338	1.5642359
14.383380847332528	2.4458497	1.5639212
14.401046744770051	2.4645183	1.5698785
14.418712986290798	2.4683518	1.5710989
14.436379572334793	2.4602418	1.5685158
14.454046503342123	2.4396482	1.5619373
14.471713779752946	2.4494548	1.5650734
14.489381402007504	2.4242027	1.5569851
14.507049370546113	2.3969276	1.5482014
14.524717685809168	2.4217794	1.5562067
14.542386348237134	2.4732745	1.5726647
14.560055358270553	2.4969459	1.5801728
14.577724716350051	2.5392885	1.5935146
14.595394422916325	2.5420969	1.5943954
14.61306447841015	2.5558097	1.59869
14.63073488327237	2.5783973	1.6057389
14.648405637943917	2.612194	1.6162283
14.6660767428658	2.619365	1.6184453
14.683748198479094	2.6615465	1.6314247
14.701420005224954	2.6694653	1.6338499
14.719092163544628	2.759172	1.6610756
14.73676467387942	2.7517276	1.6588331
14.754437536670727	2.7923286	1.6710262
14.772110752360014	2.7856812	1.669036
14.78978432138882	2.834616	1.6836318
14.807458244198777	2.86501	1.6926341
14.82513252123159	2.8380032	1.6846374
14.842807152929028	2.8505492	1.688357
14.860482139732962	2.833253	1.683227
14.87815748208531	2.8384335	1.6847651
14.8958331804281	2.819079	1.6790113
14.91350923520342	2.7829678	1.6682229
14.931185646853438	2.7904887	1.6704756
14.948862415820408	2.8087509	1.6759329
14.966539542546656	2.880879	1.6973152
14.98421702747459	2.9439132	1.7157836
15.001894871046696	3.1204464	1.7664785
15.019573073705542	3.325639	1.8236334
15.037251635893766	3.6137893	1.9009969
15.054930558054092	3.922001	1.9804043
15.072609840629323	4.177474	2.043887
15.090289484062351	4.400353	2.0977018
15.107969488796124	4.7290864	2.1746464
15.125649855273691	5.1294227	2.264823
15.14333058393817	5.667908	2.3807368
15.161011675232768	6.6131787	2.5716102
15.17869312960076	7.5587783	2.7493231
15.196374947485506	9.016721	3.0027854
15.214057129330447	10.829666	3.2908459
15.231739675579114	13.674958	3.6979668
15.249422586675102	16.921179	4.113536
15.267105863062092	19.846817	4.4549766
15.284789505183847	22.024729	4.6930513
15.302473513484218	23.345066	4.831673
15.320157888407127	23.17674	4.814223
15.337842630396578	21.075584	4.590815
15.355527739896656	17.880219	4.228501
15.37321321735153	13.83566	3.7196317
15.39089906320545	9.794681	3.1296453
15.408585277902748	6.7893	2.6056285
15.42627186188783	4.8678284	2.2063155
15.443958815605198	3.8404238	1.9597
15.461646139499424	3.349314	1.830113
15.479333834015168	3.1138034	1.7645972
15.497021899597165	2.938495	1.7142038
15.514710336690234	2.833976	1.6834418
15.53239914573928	2.7365537	1.6542532
15.550088327189297	2.70963	1.6460954
15.567777881485336	2.6759684	1.6358387
15.58546780907256	2.6493642	1.6276867
15.6031581103962	2.6165822	1.6175853
15.620848785901568	2.5603025	1.6000946
15.638539836034063	2.567619	1.6023792
15.656231261239173	2.5521467	1.597544
15.673923061962451	2.5386486	1.5933137
15.691615238649552	2.5147443	1.5857946
15.709307791746202	2.501238	1.5815303
15.727000721698221	2.5234303	1.5885309
15.744694028951498	2.5513375	1.5972906
15.76238771395202	2.5556164	1.5986295
15.780081777145844	2.553842	1.5980744
15.797776218979125	2.5356495	1.5923723
15.815471039898094	2.53909	1.5934522
15.833166240349064	2.525278	1.5891124
15.850861820778437	2.5155318	1.5860428
15.868557781632699	2.5308213	1.5908555
15.886254123358412	2.554522	1.5982872
15.903950846402232	2.564639	1.601449
15.921647951210897	2.555888	1.5987145
15.939345438231225	2.5388675	1.5933824
15.957043307910133	2.5492792	1.5966462
15.974741560694602	2.5642798	1.6013368
15.992440197031714	2.5887792	1.6089684
16.01013921736862	2.5563896	1.5988714
16.02783862215259	2.5739675	1.6043589
16.045538411830933	2.5568511	1.5990157
16.06323858685107	2.5554423	1.5985751
16.080939147660512	2.5390816	1.5934496
16.09864009470684	2.5496194	1.5967528
16.11634142843774	2.5258746	1.5893
16.134043149300954	2.4915154	1.5784535
16.15174525774433	2.4633348	1.5695014
16.169447754215817	2.4969862	1.5801855
16.18715063916342	2.5563033	1.5988444
16.204853913035244	2.5938973	1.610558
16.222557576279478	2.6153677	1.6172098
16.240261629344403	22.574495	4.7512627
16.257966072678386	43.115475	6.5662374
16.275670906729868	38.1872	6.1795793
16.293376131947387	2.6105204	1.6157105
16.31108174877957	2.6423411	1.625528
16.328787757675133	2.6943574	1.6414498
16.34649415908287	2.7113283	1.6466111
16.364200953451657	2.695853	1.6419053
16.38190814123048	2.6950762	1.6416687
16.39961572286839	2.683009	1.6379893
16.41732369881455	2.764116	1.6625631
16.43503206951817	2.7823026	1.6680236
16.45274083542859	2.8362975	1.684131
16.47044999699522	2.8785002	1.6966144
16.488159554667558	2.9579265	1.7198623
16.505869508895184	2.9713395	1.7237574
16.523579860127786	3.037011	1.7427021
16.541290608815117	3.0444462	1.7448342
16.559001755407035	3.1348722	1.770557
16.57671330035348	3.2034166	1.7898091
16.59442524410448	3.2783966	1.8106343
16.61213758711015	3.3418405	1.8280702
16.629850329820705	3.3924284	1.8418546
16.647563472686436	3.4143946	1.847808
16.665277016157724	3.4316845	1.8524806
16.682990960685053	3.4456434	1.8562444
16.70070530671898	3.443811	1.8557508
16.718420054710155	3.4801958	1.8655282
16.736135205109335	3.5393155	1.8813069
16.753850758367335	3.608094	1.8994983
16.771566714935087	3.715321	1.9275168
16.789283075263597	3.7473643	1.935811
16.80699983980398	3.7791636	1.944007
16.82471700900741	3.8604748	1.9648091
16.84243458332518	3.9736125	1.9933922
16.860152563208665	4.0506415	2.0126204
16.87787094910932	4.087472	2.0217497
16.89558974147871	4.115419	2.0286496
16.913308940768466	4.143357	2.0355237
16.931028547430333	4.224601	2.0553834
16.94874856191613	4.3050776	2.074868
16.966468984677785	4.377634	2.0922797
16.98418981616729	4.4570336	2.1111689
17.00191105683676	4.523597	2.126875
17.019632707138374	4.535016	2.1295576
17.03735476752442	4.5072327	2.1230245
17.05507723844728	4.4867005	2.1181834
17.072800120359403	4.5463753	2.1322231
17.090523413713353	4.586904	2.141706
17.108247118961785	4.6570234	2.1580138
17.125971236557437	4.6908345	2.1658335
17.143695766953133	4.7150326	2.1714125
17.161420710601806	4.710771	2.1704311
17.179146067956477	4.7513914	2.1797686
17.19687183947025	4.724938	2.1736922
17.21459802559634	4.7137675	2.1711214
17.232324626788028	4.652162	2.156887
17.25005164349871	4.6918626	2.1660707
17.267779076181863	4.709245	2.1700795
17.285506925291074	4.7962704	2.190039
17.30323519127999	4.8922973	2.2118537
17.320963874602384	5.0955796	2.257339
17.33869297571211	5.1869903	2.2774966
17.356422495063114	5.34965	2.312931
17.37415243310944	5.4854865	2.3421116
17.391882790305218	5.6446395	2.375845
17.40961356710468	5.7366767	2.395136
17.42734476396215	5.878166	2.424493
17.445076381332044	6.038522	2.4573405
17.462808419668868	6.1696277	2.4838736
17.48054087942723	6.351633	2.5202446
17.498273761061835	6.6583877	2.5803852
17.51600706502747	7.0834165	2.6614687
17.533740791779024	7.769827	2.787441
17.551474941771485	8.347228	2.889157
17.56920951545993	9.500341	3.0822623
17.586944513299528	10.346102	3.2165356
17.60467993574556	11.751323	3.4280202
17.622415783253373	12.919213	3.5943308
17.64015205627843	14.18808	3.7667067
17.657888755276293	14.919514	3.8625786
17.675625880702604	15.229806	3.9025383
17.69336343301311	14.239296	3.7734993
17.71110141266366	12.83884	3.5831327
17.728839820110178	10.997839	3.316299
17.746578655808705	9.124153	3.0206213
17.764317920215372	7.8589687	2.8033853
17.7820576137864	6.7123976	2.5908296
17.79979773697811	5.8748474	2.4238083
17.81753829024692	5.1843224	2.2769108
17.835279274049356	4.727832	2.174358
17.85302068884201	4.233383	2.0575187
17.870762535081607	3.9972587	1.9993145
17.888504813224934	3.7897913	1.9467386
17.90624752372891	3.685264	1.9197042
17.923990667050536	3.6226122	1.9033161
17.941734243646895	3.5759556	1.8910197
17.959478253975185	3.4910922	1.8684465
17.9772226984927	3.4535446	1.8583715
17.994967577656833	3.4417064	1.8551837
18.01271289192506	3.4155347	1.8481165
18.030458641754965	3.3616343	1.833476
18.04820482760425	3.348395	1.829862
18.06595144993067	3.314021	1.8204453
18.083698509192125	3.327323	1.8240951
18.101446005846576	3.298251	1.8161087
18.119193940352105	3.3113644	1.8197155
18.136942313166887	3.268254	1.8078313
18.1546911247492	3.249526	1.8026441
18.1724403755574	3.2365513	1.7990417
18.19019006604997	3.2231638	1.7953172
18.207940196685467	3.163353	1.7785817
18.225690767922575	3.1113284	1.7638958
18.243441780220046	3.121409	1.7667509
18.261193234036764	3.107125	1.7627039
18.278945129831676	3.130303	1.7692662
18.29669746806386	3.109593	1.7634038
18.314450249192483	3.0762703	1.75393
18.3322034736768	3.0473132	1.7456555
18.349957141976184	3.0567615	1.7483597
18.3677112545501	3.0784075	1.7545391
18.385465811858108	3.091998	1.7584078
18.403220814359884	3.0941966	1.7590328
18.420976262515172	3.1196337	1.7662485
18.43873215678387	3.145226	1.7734785
18.456488497625923	3.1672993	1.7796907
18.474245285501407	3.262196	1.8061551
18.492002520870486	3.3544674	1.8315206
18.50976020419343	3.4147258	1.8478976
18.527518335930615	3.6625795	1.9137866
18.545276916542516	4.257623	2.063401
18.563035946489688	4.4247622	2.1035118
18.580795426232832	4.8660913	2.205922
18.598555356232698	4.7500625	2.1794639
18.616315736950185	5.0256686	2.2418003
18.63407656884626	4.683536	2.1641479
18.65183785238201	4.8309703	2.1979468
18.669599588018617	4.633947	2.1526604
18.68736177621737	4.6504827	2.1564977
18.705124417439652	4.650798	2.156571
18.72288751214696	4.443093	2.1078646
18.740651060800886	4.5880275	2.1419683
18.758415063863115	4.29356	2.0720906
18.77617952179546	4.4815593	2.1169693
18.793944435059814	4.217257	2.053596
18.811709804118184	4.241922	2.0595927
18.829475629432675	4.213045	2.0525703
18.8472419114655	4.005056	2.0012636
18.86500865067897	4.067456	2.0167935
18.88277584753551	3.7479424	1.9359603
18.90054350249763	3.767869	1.9411
18.918311616027957	3.4199843	1.8493199
18.936080188589226	3.3169515	1.82125
18.953849220644265	3.0346355	1.7420205
18.971618712656007	2.8927968	1.7008224
18.9893886650875	2.8381972	1.684695
19.007159078401887	8.005928	2.829475
19.024929953062408	32.87313	5.7335095
19.042701289532435	32.837494	5.730401
19.060473088275405	25.375254	5.0373855
19.07824534975489	2.6447113	1.6262568
19.096018074434568	2.6522815	1.6285827
19.113791262778197	2.629962	1.6217158
19.13156491524966	2.6000159	1.6124564
19.149339032312945	2.562248	1.6007023
19.167113614432136	2.567203	1.6022494
19.184888662071433	2.5792909	1.6060171
19.202664175695123	2.5902116	1.6094134
19.220440155767623	2.5976565	1.6117247
19.238216602753447	2.5772347	1.6053768
19.2559935171172	2.5696526	1.6030136
19.27377089932361	2.549201	1.5966218
19.291548749837514	2.5069594	1.583338
19.309327069123835	2.4866877	1.5769235
19.32710585764763	2.4728096	1.5725169
19.344885115874032	2.492012	1.5786108
19.362664844268313	2.5064635	1.5831815
19.380445043295822	2.5123017	1.5850242
19.39822571342203	2.5041218	1.5824417
19.41600685511252	2.5070858	1.583378
19.43378846883297	2.545335	1.5954106
19.451570555049173	2.518026	1.586829
19.469353114227037	2.5095496	1.5841558
19.48713614683254	2.489931	1.5779516
19.50491965333182	2.499922	1.5811142
19.52270363419109	2.5257323	1.5892552
19.540488089876686	2.503717	1.5823138
19.55827302085503	2.4997716	1.5810666
19.576058427592674	2.4890213	1.5776632
19.593844310556282	2.4949653	1.579546
19.611630670212598	2.4637647	1.5696384
19.629417507028506	2.4633675	1.5695119
19.64720482147098	2.449024	1.5649358
19.6649926140071	2.4847975	1.576324
19.682780885104084	2.504622	1.5825998
19.70056963522921	2.5541322	1.5981653
19.718358864849908	2.5721898	1.6038048
19.7361485744337	2.5427303	1.5945941
19.753938764448215	2.4892468	1.5777347
19.771729435361202	2.4967656	1.5801157
19.789520587640506	2.5229008	1.5883642
19.807312221754092	2.5430534	1.5946954
19.825104338170043	2.5209975	1.587765
19.842896937356517	2.5276666	1.5898637
19.860690019781824	2.5152645	1.5859586
19.87848358591436	2.5557845	1.598682
19.896277636222635	2.6028023	1.6133202
19.914072171175278	2.5815685	1.606726
19.931867191241015	2.5469432	1.5959145
19.94966269688869	2.510528	1.5844646
19.967458688587264	2.4889739	1.5776482
19.985255166805807	2.4878397	1.5772887
20.00305213201348	2.491431	1.5784267
20.020849584679578	2.4818718	1.5753958
20.038647525273507	2.4760978	1.5735621
20.05644595426477	2.4510467	1.5655819
20.07424487212299	2.4458866	1.563933
20.092044279317903	2.4257138	1.5574703
20.109844176319353	2.4368346	1.5610363
20.127644563597304	2.4191747	1.5553696
20.145445441621817	2.4060102	1.5511318
20.16324681086307	2.3877351	1.5452298
20.181048671791373	2.397666	1.5484399
20.198851024877122	2.387574	1.5451777
20.216653870590836	2.3732963	1.5405506
20.234457209403146	2.366775	1.5384326
20.252261041784802	2.3576415	1.5354613
20.270065368206662	2.3560445	1.5349412
20.287870189139685	2.3377607	1.5289737
20.305675505054968	2.359917	1.5362021
20.323481316423702	2.4014337	1.549656
20.341287623717207	2.41149	1.5528973
20.359094427406884	2.4092312	1.5521698
20.376901727964288	2.3724892	1.5402887
20.39470952586107	2.3321278	1.5271306
20.41251782156899	2.3122582	1.5206112
20.430326615559935	2.3307252	1.5266713
20.448135908305886	2.33304	1.5274292
20.465945700278965	2.3514094	1.5334306
20.483755991951384	2.3437188	1.5309209
20.50156678379548	2.3779647	1.5420651
20.519378076283708	2.394014	1.5472602
20.537189869888635	2.4006634	1.5494075
20.55500216508294	2.393193	1.5469948
20.572814962339415	2.3562634	1.5350125
20.59062826213098	2.3314734	1.5269163
20.60844206493066	2.2845125	1.5114604
20.626256371211593	2.2776577	1.509191
20.644071181447032	2.3318098	1.5270264
20.66188649611036	2.3560035	1.5349278
20.67970231567506	2.3742344	1.540855
20.697518640614742	2.3455217	1.5315096
20.715335471403122	2.3088493	1.5194899
20.73315280851404	2.2985427	1.5160946
20.750970652421447	2.3078203	1.5191512
20.768789003599412	2.3314824	1.5269192
20.786607862522136	2.3511775	1.533355
20.8044272296639	2.3401678	1.5297607
20.82224710549913	2.316065	1.5218624
20.84006749050237	2.287182	1.5123433
20.857888385148268	3.8315148	1.9574256
20.8757097899116	45.924664	6.776774
20.893531705267254	64.77342	8.048194
20.911354131690224	83.804855	9.154499
20.92917706965566	69.054436	8.3099
20.94700051963877	50.13383	7.080525
20.96482448211493	29.436426	5.4255347
20.982648957559622	4.194708	2.0480986
21.00047394644843	2.2610912	1.5036925
21.01829944925707	2.2273011	1.4924145
21.036125466461375	2.2275212	1.4924883
21.053951998537297	2.2480893	1.499363
21.071779045960906	2.2331164	1.4943615
21.089606609208378	2.225608	1.4918472
21.10743468875603	2.2398658	1.4966182
21.12526328508028	2.2365465	1.4955088
21.143092398657675	2.2285333	1.4928273
21.16092202996488	2.1873293	1.4789622
21.17875217947867	2.1690016	1.472753
21.19658284767596	2.175813	1.4750637
21.21441403503377	2.2021883	1.4839772
21.232245742029225	2.1931958	1.4809443
21.2500779691396	2.1669538	1.4720577
21.26791071684227	2.1521666	1.4670265
21.28574398561475	2.178143	1.4758533
21.30357777593465	2.206115	1.4852996
21.321412088279704	2.18156	1.4770105
21.339246923127792	2.1498225	1.4662273
21.357082280956888	2.152663	1.4671956
21.3749181622451	2.1667476	1.4719876
21.392754567470647	2.1657403	1.4716455
21.41059149711187	2.1794825	1.476307
21.42842895164726	2.1745477	1.4746348
21.446266931555378	2.1576602	1.4688976
21.464105437314945	2.1347075	1.4610639
21.481944469404798	2.1091173	1.45228
21.49978402830388	2.09502	1.4474185
21.51762411449127	2.101019	1.4494892
21.53546472844617	2.1406991	1.4631128
21.553305870647876	2.14022	1.462949
21.571147541575865	2.1223977	1.4568452
21.58898974170967	2.1186094	1.4555444
21.60683247152899	2.0875328	1.4448297
21.62467573151363	2.0646033	1.4368727
21.642519522143523	2.0554407	1.4336808
21.660363843898722	2.0940182	1.4470723
21.6782086972594	2.1200104	1.4560256
21.696054082705864	2.1013365	1.4495988
21.713900000718535	2.0429003	1.4293007
21.73174645177795	2.0312428	1.4252168
21.749593436364794	2.0432048	1.4294071
21.767440954959845	2.0518067	1.4324129
21.785289008044032	2.0391054	1.4279724
21.803137596098388	2.038942	1.4279153
21.820986719604086	2.0022297	1.4150016
21.838836379042412	1.9870509	1.4096279
21.85668657489478	1.980078	1.4071524
21.87453730764273	2.017813	1.4204974
21.892388577767914	2.0530574	1.4328494
21.91024038575213	2.0640643	1.4366852
21.928092732077285	2.0436304	1.429556
21.945945617225426	2.0152647	1.4196002
21.963799041678694	2.0097117	1.4176431
21.981653005919398	31.345993	5.598749
21.999507510429943	78.12601	8.838892
22.01736255569286	73.05341	8.547129
22.035218142190818	4.156233	2.0386841
22.05307427040661	2.0032754	1.4153711
22.07093094082315	2.0181413	1.4206129
22.088788153923474	2.0261497	1.4234289
22.106645910190746	2.0297112	1.4246794
22.12450421010827	2.0409358	1.4286132
22.142363054159464	2.0345361	1.4263717
22.16022244282787	2.0293539	1.4245539
22.178082376597164	2.0330832	1.4258623
22.195942855951145	2.0059748	1.4163244
22.213803881373742	1.9883548	1.4100903
22.231665453349002	1.9971062	1.4131901
22.24952757236111	1.9877434	1.4098735
22.26739023889438	1.9612219	1.4004363
22.28525345343323	1.9825535	1.4080318
22.30311721646225	2.0318136	1.425417
22.320981528466113	2.0430338	1.4293474
22.33884638992964	1.9901904	1.4107411
22.356711801337788	1.9569691	1.3989171
22.37457776317561	1.9655733	1.4019891
22.392444275928337	1.9828141	1.4081243
22.410311340081282	1.9676085	1.4027147
22.428178956119904	1.9503525	1.3965502
22.446047124529805	1.9737704	1.4049094
22.46391584579669	1.9788518	1.4067167
22.481785120406414	1.9372808	1.3918624
22.49965494884496	1.912948	1.3830936
22.51752533159841	1.9561523	1.3986251
22.53539626915302	1.9665927	1.4023526
22.553267761995137	1.9948376	1.4123873
22.571139810611264	1.9660228	1.4021493
22.589012415488025	1.9979084	1.4134738
22.60688557711216	1.985343	1.409022
22.624759295970566	1.9896529	1.4105506
22.642633572550263	1.9827505	1.4081018
22.660508407338362	1.945552	1.3948305
22.67838380082217	1.9175373	1.3847517
22.696259753489077	1.9458797	1.3949479
22.714136265826614	1.9569615	1.3989145
22.73201333832246	1.9381493	1.3921744
22.74989097146439	1.9114069	1.3825364
22.76776916574035	1.9120783	1.3827791
22.785647921638393	1.9208279	1.3859394
22.803527239646712	1.9638618	1.4013785
22.82140712025363	1.9914001	1.4111698
22.839287563947593	2.0033634	1.4154022
22.85716857121719	2.0159206	1.4198312
22.875050142551135	2.0158617	1.4198104
22.892932278438277	2.0073662	1.4168155
22.910814979367604	1.988041	1.4099791
22.928698245828222	1.9869406	1.4095888
22.946582078309387	1.9915384	1.4112188
22.96446647730047	1.9719986	1.4042786
22.98235144329098	1.971804	1.4042094
23.000236976770562	1.9777485	1.4063245
23.018123078229	1.9839607	1.4085314
23.03600974815619	1.99415	1.4121438
23.053896987042194	1.9755188	1.4055315
23.071784795377173	1.980802	1.4074097
23.08967317365145	1.9743819	1.405127
23.10756212235546	1.9693588	1.4033384
23.125451641979787	1.9512876	1.3968849
23.143341733015134	1.9433066	1.3940253
23.161232395952357	1.9768914	1.4060197
23.179123631282426	2.0017576	1.4148349
23.197015439496468	1.9861711	1.4093158
23.214907821085717	1.9502231	1.3965039
23.23280077654157	1.972333	1.4043977
23.250694306355538	1.9568429	1.398872
23.268588411019277	1.9264511	1.3879665
23.28648309102458	1.921656	1.3862381
23.304378346863356	1.9477394	1.3956144
23.322274179027676	1.9643729	1.4015609
23.340170588009723	1.9629703	1.4010605
23.358067574301852	2.0103676	1.4178743
23.37596513839651	1.9881706	1.410025
23.39386328078629	1.9739555	1.4049753
23.411762001963947	1.9195784	1.3854885
23.429661302422353	1.9424967	1.3937348
23.4475611826545	1.972887	1.404595
23.46546164315356	2.019738	1.4211749
23.48336268441279	2.0177479	1.4204745
23.501264306925638	1.9913607	1.4111558
23.51916651118564	1.9879488	1.4099463
23.537069297686497	1.9663733	1.4022744
23.554972666922037	1.9496086	1.3962839
23.57287661938623	1.9119639	1.3827379
23.59078115557318	1.9426934	1.3938054
23.608686275977128	1.9553287	1.3983307
23.62659198109246	1.9606051	1.4002161
23.6444982714137	1.937098	1.3917967
23.66240514743549	1.9404929	1.3930157
23.68031260965263	1.966683	1.4023848
23.698220658560068	1.9715536	1.4041202
23.716129294652845	1.9734129	1.4047822
23.7340385184262	1.9738847	1.40495
23.75194833037546	1.9564844	1.3987439
23.769858730996123	1.9640962	1.4014622
23.78776972078382	1.9482617	1.3958014
23.80568130023431	1.9651624	1.4018425
23.823593469843495	1.932368	1.3900964
23.841506230107424	1.9628513	1.4010179
23.859419581522275	1.9488212	1.3960018
23.87733352458438	1.9571346	1.3989763
23.89524805979019	1.9760841	1.4057326
23.913163187636318	2.0231464	1.4223735
23.931078908619508	2.0647047	1.436908
23.948995223236633	2.0710182	1.4391032
23.966912131984735	2.0607562	1.4355334
23.98482963536096	2.062878	1.4362723
24.002747733862616	2.066028	1.4373685
24.020666427987155	2.091629	1.4462465
24.038585718232156	2.0950186	1.447418
24.056505605095353	2.0948403	1.4473563
24.074426089074617	2.0912225	1.446106
24.092347170667946	2.1141047	1.4539962
24.110268850373515	2.1009374	1.4494611
24.128191128689586	2.0936773	1.4469545
24.146114006114626	2.0861514	1.4443516
24.164037483147187	2.1088548	1.4521897
24.181961560286005	2.0881445	1.4450414
24.199886238029926	2.0706668	1.4389812
24.21781151687797	2.1115398	1.4531138
24.235737397329274	2.081755	1.4428288
24.253663879883135	2.078026	1.441536
24.271590965038975	2.1007996	1.4494135
24.289518653296376	2.1449585	1.4645677
24.30744694515505	2.1294773	1.4592729
24.32537584111486	2.0846431	1.4438293
24.34330534167581	2.0301692	1.4248401
24.361235447338046	2.0118744	1.4184057
24.379166158601876	2.0423963	1.4291244
24.39709747596772	2.0811398	1.4426156
24.41502939993615	2.0652614	1.4371017
24.432961931007917	2.0213692	1.4217486
24.450895069683856	1.9806415	1.4073527
24.468828816465	1.9831382	1.4082394
24.4867631718525	1.9730647	1.4046582
24.504698136347656	1.9825287	1.408023
24.52263371045192	2.0084653	1.4172033
24.540569894666874	2.0426612	1.429217
24.558506689494266	2.0074475	1.4168442
24.57644409543597	1.98328	1.4082897
24.594382112994012	1.9851503	1.4089537
24.61232074267057	2.0555866	1.4337317
24.630259984967953	2.1265326	1.4582635
24.64819984038863	2.1261733	1.4581404
24.66614030943522	2.115826	1.4545879
24.684081392610462	2.1660979	1.471767
24.702023090417274	2.228226	1.4927243
24.7199654033587	2.2331004	1.4943562
24.737908331937927	2.2544682	1.5014887
24.755851876658305	2.2853136	1.5117254
24.773796038023324	2.3176038	1.5223678
24.79174081653661	2.4081745	1.5518295
24.809686212701962	2.4617872	1.5690084
24.827632227023294	2.5396974	1.5936428
24.8455788600047	2.6037583	1.6136166
24.8635261121504	2.6221483	1.6193049
24.88147398396475	2.6454835	1.6264943
24.899422475952303	2.6493075	1.6276693
24.917371588617698	2.7368617	1.6543463
24.935321322465768	2.9213326	1.7091906
24.953271678001478	3.094803	1.7592052
24.97122265572994	3.3312776	1.8251787
24.989174256156414	3.6580706	1.9126083
25.00712647978632	4.1720853	2.0425682
25.02507932712521	4.7071266	2.1695914
25.043032798678798	5.4212523	2.3283582
25.060986894952933	6.150879	2.4800966
25.078941616453637	6.6539755	2.57953
25.096896963687055	6.8362074	2.6146142
25.114852937159508	6.736879	2.5955498
25.132809537377444	6.4296627	2.535678
25.150766764847468	5.968011	2.4429512
25.168724620076347	5.311703	2.3047132
25.186683103570985	4.4925003	2.119552
25.204642215838426	3.8057272	1.9508274
25.222601957385894	3.1015654	1.7611262
25.24056232872074	2.6199698	1.6186321
25.25852333035048	2.300951	1.5168886
25.276484962782778	2.2004917	1.4834055
25.294447226525435	2.1046388	1.4507374
25.312410122086423	2.0401552	1.42834
25.330373649973843	2.024269	1.4227681
25.348337810695988	2.0264165	1.4235226
25.366302604761245	2.0209162	1.4215894
25.384268032678207	2.0104327	1.4178973
25.40223409495558	1.9934274	1.4118879
25.420200792102257	1.9993074	1.4139687
25.438168124627246	1.9741627	1.405049
25.45613609303974	1.9143196	1.3835894
25.474104697849057	1.8825214	1.37205
25.492073939564698	1.8711624	1.3679044
25.510043818696285	1.8791736	1.3708296
25.528014335753614	1.8680389	1.3667622
25.54598549124664	1.8826565	1.3720993
25.56395728568544	1.9105947	1.3822427
25.58192971958028	1.9222443	1.3864503
25.59990279344156	1.9396062	1.3926975
25.617876507779833	1.9502047	1.3964972
25.635850863105826	1.9895098	1.4104998
25.653825859930386	1.9793775	1.4069035
25.671801498764548	1.9110901	1.3824219
25.68977778011949	1.867157	1.3664396
25.707754704506524	1.8538024	1.3615441
25.725732272437153	1.8271178	1.3517092
25.743710484423012	1.8494838	1.3599573
25.761689340975888	1.8598845	1.3637758
25.77966884260774	1.8818518	1.371806
25.797648989830662	1.8892491	1.3744996
25.815629783156922	1.8985785	1.3778892
25.83361122309895	1.8633721	1.3650539
25.85159331016929	1.8737792	1.3688605
25.869576044880695	1.8910094	1.3751398
25.887559427746034	1.8809816	1.3714888
25.90554345927836	1.8376967	1.3556167
25.92352813999086	1.8358022	1.3549178
25.94151347039689	1.8264558	1.3514643
25.959499451009965	1.8092803	1.3450949
25.97748608234374	1.8122461	1.3461969
25.995473364912062	1.8650508	1.3656687
26.013461299228904	1.8901476	1.3748264
26.03144988580839	1.9113429	1.3825133
26.04943912516483	1.8644931	1.3654644
26.067429017812675	1.8094268	1.3451494
26.085419564266537	1.8149742	1.3472098
26.103410765041186	1.8676609	1.3666239
26.12140262065155	1.8998007	1.3783326
26.139395131612723	1.9008671	1.3787193
26.157388298439948	1.8820152	1.3718656
26.17538212164861	1.8758037	1.3695998
26.193376601754295	1.8899634	1.3747594
26.211371739272714	1.908138	1.3813537
26.229367534719746	1.8777732	1.3703187
26.247363988611433	1.8583856	1.3632262
26.26536110146397	1.8330811	1.3539133
26.283358873793727	1.8744183	1.369094
26.301357306117204	1.8652638	1.3657466
26.319356398951104	1.8780098	1.370405
26.33735615281224	1.8853323	1.373074
26.35535656821762	1.8839786	1.372581
26.373357645684404	1.8426541	1.3574439
26.39135938572991	1.8298246	1.3527101
26.409361788871614	1.8421581	1.3572613
26.427364855627165	1.8907859	1.3750585
26.445368586514352	1.934328	1.3908012
26.46337298205115	1.954399	1.3979982
26.48137804275568	1.8719469	1.3681911
26.499383769146217	1.8056049	1.343728
26.517390161741215	1.8392226	1.3561794
26.53539722105928	1.8765309	1.3698653
26.553404947619182	1.8749009	1.3692702
26.571413341939856	1.8424349	1.3573632
26.589422404540397	1.8443785	1.358079
26.60743213594006	1.8694676	1.3672848
26.62544253665827	1.8692601	1.3672088
26.64345360721459	1.8562903	1.3624575
26.66146534812879	1.8531449	1.3613026
26.679477759920758	1.8640606	1.365306
26.69749084311057	1.8698537	1.3674259
26.71550459821847	1.8330852	1.3539147
26.733519025764842	1.8221661	1.3498763
26.751534126270258	1.8478252	1.3593473
26.769549900255434	1.9026349	1.3793603
26.787566348241267	1.8976529	1.3775532
26.80558347074881	1.8748373	1.369247
26.823601268299267	1.8658934	1.365977
26.841619741414036	1.8608404	1.3641262
26.85963889061465	1.8730685	1.368601
26.877658716422832	1.8613706	1.3643205
26.89567921936045	1.8753934	1.36945
26.913700399949544	1.8676556	1.366622
26.93172225871233	1.8528379	1.3611898
26.949744796171174	1.8470389	1.359058
26.967768012848605	1.8959017	1.3769175
26.98579190926733	1.8702363	1.3675659
27.003816485950225	1.8648007	1.3655771
27.021841743420318	1.8525475	1.3610833
27.039867682200814	1.8750027	1.3693074
27.057894302815072	1.9262192	1.387883
27.07592160578664	1.8815329	1.3716898
27.0939495916392	1.8076463	1.3444873
27.111978260896635	1.8115206	1.3459274
27.13000761408296	1.8315206	1.3533368
27.148037651722397	1.8487933	1.3597034
27.166068374339304	1.890765	1.3750509
27.184099782458215	1.859454	1.363618
27.20213187660384	1.8737092	1.368835
27.22016465730105	1.9091091	1.3817052
27.23819812507487	1.9461296	1.3950375
27.256232280450533	1.8821405	1.3719113
27.274267123953383	1.8889674	1.3743972
27.292302656108987	1.905458	1.3803833
27.31033887744306	1.928671	1.388766
27.32837578848146	1.9105282	1.3822186
27.34641338975026	1.9158405	1.384139
27.364451681775673	1.8938265	1.3761637
27.382490665084074	1.8784411	1.3705623
27.400530340202046	1.8504915	1.3603277
27.41857070765629	1.871049	1.3678629
27.436611767973726	1.8809835	1.3714895
27.454653521681404	1.8388027	1.3560246
27.472695969306564	1.8059736	1.3438652
27.490739111376627	1.8156239	1.3474509
27.508782948419153	1.8234715	1.3503598
27.526827480961902	1.8327248	1.3537817
27.54487270953279	1.8398849	1.3564236
27.562918634659898	1.903501	1.3796742
27.580965256871508	1.9520602	1.3971615
27.599012576696026	1.9585079	1.399467
27.617060594662068	1.9653454	1.4019078
27.63510931129842	1.9317399	1.3898705
27.65315872713401	1.868379	1.3668866
27.67120884269797	1.8434346	1.3577315
27.68925965851958	1.8586376	1.3633186
27.707311175128307	1.9151589	1.3838927
27.725363393053787	1.9405122	1.3930227
27.74341631282583	1.9154998	1.3840158
27.7614699349744	1.8825345	1.3720548
27.77952426002968	2.0980253	1.4484562
27.797579288521973	2.1916544	1.4804237
27.815635020981784	2.5649457	1.6015447
27.83369145793979	2.6375637	1.6240578
27.85174859992682	2.5534441	1.59795
27.869806447473923	2.4198098	1.5555738
27.887865001112267	2.1024632	1.4499873
27.905924261373233	1.9968	1.4130818
27.92398422878836	1.9284644	1.3886917
27.94204490388936	1.9223478	1.3864876
27.96010628720813	1.9340147	1.3906885
27.978168379276728	1.9457952	1.3949176
27.9962311806274	1.9225874	1.386574
28.014294691792568	1.9104154	1.3821778
28.0323589133048	1.9014807	1.3789419
28.050423845696887	1.9300238	1.389253
28.068489489501758	1.9570847	1.3989584
28.086555845252523	1.9105309	1.3822196
28.104622913482487	1.9075844	1.3811533
28.122690694725115	1.9353547	1.3911703
28.14075918951405	1.9540656	1.397879
28.15882839838312	1.9705876	1.4037762
28.176898321866304	1.9938396	1.4120339
28.1949689604978	1.9927003	1.4116304
28.213040314811945	1.9597853	1.3999233
28.23111238534327	1.9366031	1.3916188
28.249185172626493	1.9752686	1.4054425
28.267258677196473	2.0157387	1.4197671
28.285332899588294	2.045332	1.430151
28.303407840337172	2.0252087	1.4230983
28.321483499978545	1.9971651	1.4132109
28.33955987904799	2.0152874	1.4196082
28.357636978081285	2.0458221	1.4303224
28.37571479761439	2.0929205	1.446693
28.393793338183425	2.0945504	1.4472562
28.41187260032469	2.0602152	1.4353449
28.429952584574686	2.0349002	1.4264992
28.448033291470065	2.0387185	1.427837
28.46611472154769	2.0612628	1.4357098
28.484196875344566	2.0561316	1.4339218
28.502279753397914	2.0506315	1.4320027
28.52036335624511	2.003394	1.415413
28.538447684423716	1.9847231	1.408802
28.556532738471482	2.0198615	1.4212183
28.574618518926325	2.0308454	1.4250773
28.59270502632635	2.0587678	1.4348407
28.61079226120985	2.0405812	1.4284891
28.628880224115274	2.106156	1.4512602
28.646968915581287	2.1564398	1.4684821
28.66505833614671	2.1563382	1.4684476
28.68314848635055	2.159858	1.4696455
28.701239366732004	2.1913676	1.4803269
28.71933097783044	2.1742966	1.4745497
28.737423320185403	2.1123147	1.4533805
28.75551639433665	2.1137192	1.4538635
28.773610200824074	2.1435568	1.464089
28.791704740187793	2.221463	1.4904573
28.80980001296809	2.2236862	1.491203
28.827896019705413	2.2042816	1.4846823
28.845992760940433	2.2658582	1.5052768
28.86409023721397	2.315189	1.5215745
28.88218844906704	2.2693086	1.5064224
28.900287397040845	2.2835486	1.5111415
28.918387081676755	2.3590398	1.5359166
28.936487503516343	2.3984869	1.5487049
28.954588663101365	2.3989449	1.5488528
28.97269056097374	2.4371057	1.5611233
28.990793197675597	2.485313	1.5764875
29.00889657374923	2.4347203	1.560359
29.027000689737125	2.4657466	1.5702696
29.04510554618196	2.5456116	1.5954973
29.06321114362659	2.6397085	1.624718
29.08131748261405	2.750251	1.6583881
29.099424563687567	2.849073	1.6879197
29.11753238739057	2.8779202	1.6964434
29.13564095426663	2.9060066	1.7047013
29.15375026485954	2.961216	1.7208184
29.171860319713275	3.023724	1.7388859
29.18997111937199	3.0858045	1.7566458
29.20808266438002	3.2181742	1.7939271
29.226194955281898	3.2859719	1.812725
29.244307992622335	3.3530335	1.8311291
29.26242177694624	3.470566	1.8629456
29.2805363087987	3.5845017	1.893278
29.29865158872498	3.626071	1.9042245
29.316767617270557	3.7125442	1.9267963
29.334884394981064	3.8875926	1.9716979
29.353001922402367	4.132848	2.0329406
29.37112020008047	4.4008875	2.0978293
29.389239228561596	4.774158	2.1849847
29.407359008392152	5.2524323	2.2918186
29.42547954011872	5.957682	2.4408364
29.44360082428809	6.8525167	2.617731
29.46172286144722	8.347285	2.8891668
29.479845652143283	10.168468	3.1888037
29.497969196923606	12.2635765	3.501939
29.516093496335728	14.216392	3.770463
29.5342185509274	15.356408	3.9187253
29.55234436124651	15.636887	3.9543502
29.570470927841175	14.6328535	3.8252914
29.588598251259686	12.93956	3.59716
29.60672633205055	10.936548	3.3070452
29.624855170762405	8.848168	2.9745872
29.642984767944146	6.8921623	2.6252928
29.66111512414481	5.4590244	2.3364556
29.67924623991366	4.440332	2.1072094
29.697378115800138	3.7701187	1.9416794
29.71551075235387	3.5261803	1.8778126
29.733644150124675	3.4540827	1.8585162
29.751778309662576	3.409878	1.8465855
29.769913231517766	3.364344	1.8342148
29.78804891624066	3.3601527	1.833072
29.806185364381818	3.4016993	1.8443696
29.82432257649206	3.381948	1.8390074
29.842460553122333	3.3617709	1.8335133
29.86059929482382	3.3509	1.8305464
29.878738802147872	3.3147314	1.8206403
29.896879075646048	3.3680885	1.8352352
29.915020115870114	3.3933923	1.8421162
29.933161923371976	3.3301353	1.8248658
29.951304498703777	3.30417	1.8177376
29.969447842417857	3.2881775	1.8133333
29.987591955066733	3.3230643	1.8229274
30.005736837203123	3.306958	1.8185043
30.023882489379943	3.3120894	1.8199147
30.04202891215028	3.3064375	1.8183612
30.060176106067455	3.3147857	1.8206553
30.078324071684946	3.2493143	1.8025855
30.09647280955646	3.2285724	1.7968229
30.114622320235863	3.247847	1.8021784
30.132772604277257	3.243247	1.8009018
30.1509236622349	3.1517372	1.7753133
30.16907549466328	3.1444936	1.773272
30.18722810211705	3.1508117	1.7750525
30.205381485151097	3.0733337	1.7530926
30.22353564432045	3.0785332	1.7545749
30.241690580180403	3.096489	1.7596843
30.25984629328638	3.0718615	1.7526727
30.278002784194037	3.0786574	1.7546103
30.296160053459246	3.0658832	1.7509663
30.314318101638033	3.0539017	1.7475417
30.332476929286646	3.0390067	1.7432747
30.35063653696153	3.0810966	1.7553053
30.368796925219307	3.0683649	1.7516749
30.386958094616844	3.0807345	1.7552022
30.40512004571115	3.0144832	1.7362267
30.423282779059463	2.9837246	1.7273461
30.441446295219233	2.9499836	1.7175516
30.459610594748067	2.9636276	1.721519
30.47777567820382	2.9373314	1.7138644
30.495941546144504	2.9242237	1.7100362
30.51410819912835	2.9549658	1.7190014
30.532275637713795	2.9614859	1.7208968
30.55044386245946	2.9712822	1.7237408
30.56861287392416	3.036144	1.7424535
30.586782672666956	3.0360057	1.7424138
30.604953259247047	3.016364	1.7367682
30.623124634223885	2.9978747	1.7314372
30.641296798157075	2.9439323	1.7157891
30.659469751606462	2.958014	1.7198877
30.677643495132074	2.9910908	1.729477
30.695818029294152	3.0544467	1.7476976
30.713993354653116	3.1033819	1.7616419
30.73216947176962	3.143268	1.7729264
30.75034638120448	3.1312163	1.7695243
30.768524083518756	3.1114452	1.7639289
30.786702579273673	3.2140758	1.7927843
30.80488186903069	3.348013	1.8297576
30.82306195335144	3.469501	1.8626597
30.841242832797782	3.52525	1.8775649
30.85942450793176	3.6193454	1.9024577
30.877606979315637	3.8348556	1.9582788
30.895790247511883	3.9397457	1.9848793
30.913974313083134	3.8058937	1.9508699
30.932159176592283	3.6214843	1.9030198
30.95034483860237	3.4460456	1.8563528
30.968531299676698	3.2590318	1.8052789
30.98671856037873	3.0759835	1.7538482
31.00490662127215	2.9193966	1.7086242
31.023095482920848	2.698159	1.6426073
31.04128514588892	2.554583	1.5983063
31.059475610740662	2.5225968	1.5882685
31.07766687804056	2.528825	1.590228
31.09585894835335	2.5706947	1.6033386
31.11405182224393	2.50657	1.5832151
31.132245500277417	2.4618003	1.5690125
31.15043998301914	2.5199356	1.5874305
31.168635271034628	2.5608335	1.6002604
31.18683136488964	2.4946356	1.5794415
31.20502826515008	2.38384	1.5439689
31.223225972382135	2.4490957	1.5649587
31.241424487152155	2.5266283	1.5895371
31.259623810026692	2.5934486	1.6104188
31.27782394157253	2.4700437	1.5716373
31.296024882356644	2.463484	1.569549
31.314226632946237	2.4462507	1.5640495
31.332429193908684	2.4616563	1.5689666
31.350632565811598	2.477161	1.5738999
31.368836749222787	2.4857657	1.5766311
31.387041744710295	2.5344357	1.5919912
31.40524755284232	2.544631	1.5951899
31.423454174187317	2.5365164	1.5926445
31.441661609313922	2.5384245	1.5932434
31.459869858791002	2.4960182	1.5798792
31.478078923187628	2.4504929	1.565405
31.496288803073064	2.4635463	1.5695689
31.514499499016807	2.392721	1.5468422
31.532711011588546	2.3309498	1.5267448
31.550923341358178	2.37895	1.5423845
31.56913648889584	2.4606578	1.5686485
31.587350454771844	2.4366636	1.5609816
31.605565239556732	2.3272905	1.525546
31.62378084382127	2.29055	1.5134563
31.641997268136382	2.3510466	1.5333123
31.660214513073274	2.4290633	1.5585452
31.67843257920331	2.4012415	1.549594
31.6966514670981	2.3532183	1.5340203
31.71487117732944	2.2989912	1.5162425
31.733091710469346	2.2698205	1.5065923
31.751313067090052	2.2876012	1.5124818
31.769535247764008	2.3091419	1.5195861
31.787758253063878	2.2456686	1.4985555
31.805982083562526	2.2368333	1.4956046
31.824206739833024	2.2315779	1.4938467
31.84243222244869	2.2704337	1.5067959
31.860658531983013	2.3677247	1.5387412
31.878885669009737	2.3721993	1.5401945
31.897113634102784	2.258027	1.5026733
31.91534242783632	2.246796	1.4989315
31.933572050784694	2.294272	1.5146854
31.951802503522508	2.3141425	1.5212306
31.970033786624548	2.311797	1.5204594
31.988265900665834	2.3270705	1.5254738
32.006498846221575	2.2885504	1.5127956
32.02473262386724	2.215695	1.4885211
32.04296723417845	2.1748407	1.4747341
32.0612026777311	2.202152	1.4839649
32.07943895510129	2.2518942	1.5006313
32.097676066865304	2.1975007	1.482397
32.115914013599685	2.2009492	1.4835596
32.13415279588115	2.2123394	1.4873935
32.152392414286666	2.186748	1.4787657
32.1706328693934	2.17785	1.475754
32.18887416177875	2.1569524	1.4686567
32.20711629202032	2.131476	1.4599575
32.225359260695924	2.1714532	1.4735851
32.243603068383614	2.2819624	1.5106165
32.26184771566166	2.2745364	1.5081567
32.28009320310852	2.2381654	1.4960499
32.2983395313029	2.2444003	1.4981322
32.31658670082372	2.220536	1.4901463
32.33483471225012	2.1464152	1.4650649
32.35308356616143	2.1169488	1.4549738
32.371333263137245	2.1447873	1.4645092
32.38958380375734	2.1729167	1.4740816
32.407835188601744	2.2506762	1.5002254
32.42608741825067	2.2555044	1.5018337
32.444340493284585	2.2288098	1.4929199
32.46259441428416	2.1779172	1.4757768
32.48084918183028	2.2474325	1.499144
32.49910479650405	2.2720623	1.5073361
32.51736125888683	2.2383952	1.4961268
32.53561856956014	2.1750813	1.4748157
32.5538767291058	2.098165	1.4485044
32.572135738105764	2.04662	1.4306012
32.59039559714228	2.0718634	1.4393969
32.608656306797776	2.1137667	1.4538798
32.62691786765491	2.1268365	1.4583678
32.645180280296586	2.042748	1.4292474
32.663443545305896	2.0471218	1.4307766
32.68170766326619	2.1032982	1.4502752
32.69997263476099	2.1366425	1.4617258
32.7182384603741	2.0929208	1.4466931
32.7365051406895	1.9533949	1.397639
32.75477267629144	1.9665182	1.402326
32.77304106776434	2.0359173	1.4268557
32.79131031569289	2.0490813	1.4314612
32.809580420661966	2.066283	1.4374571
32.827851383256714	2.0912163	1.4461038
32.84612320406245	2.085185	1.4440169
32.86439588366476	2.0378652	1.4275382
32.88266942264945	2.0006297	1.4144362
32.9009438216025	2.0207498	1.4215308
32.9192190811102	2.0596244	1.4351392
32.937495201758985	2.1533384	1.4674258
32.95577218413556	2.1683233	1.4725227
32.974050028826866	2.1259713	1.4580711
32.992328736420035	2.0948997	1.4473768
33.010608307502444	2.0593145	1.4350312
33.02888874266169	2.0360694	1.4269091
33.047170042485604	2.0992649	1.448884
33.06545220756225	2.1281428	1.4588156
33.083735238479896	2.117597	1.4551966
33.10201913582707	2.067989	1.4380505
33.12030390019248	1.927488	1.38834
33.138589532165135	1.923577	1.3869308
33.15687603233419	1.9744755	1.4051603
33.17516340128909	2.0187566	1.4208295
33.19345163961947	2.0231578	1.4223776
33.211740747915215	1.9935054	1.4119155
33.23003072676643	1.915507	1.3840184
33.248321576763466	1.8599095	1.363785
33.266613298496885	1.9222618	1.3864566
33.28490589255747	2.0147388	1.419415
33.30319935953626	2.0468822	1.4306929
33.32149370002451	2.0714939	1.4392685
33.339788914613706	1.9873972	1.4097507
33.358085003895575	1.8776726	1.3702819
33.376381968462034	1.9942662	1.4121848
33.39467980890529	2.114926	1.4542786
33.41297852581774	1.9746774	1.4052322
33.43127811979204	1.8406026	1.3566881
33.44957859142105	1.9268491	1.3881099
33.467879941297866	1.9760132	1.4057074
33.486182170015844	1.9664081	1.4022868
33.50448527816853	1.9929494	1.4117186
33.522789266349754	1.9814872	1.4076531
33.541094135153514	1.996658	1.4130315
33.55939988517411	1.9225044	1.3865441
33.57770651700602	1.7604967	1.3268371
33.59601403124398	1.8505162	1.3603368
33.61432242848296	1.9605255	1.4001876
33.632631709318154	1.9535975	1.3977115
33.650941874344994	1.8845154	1.3727765
33.66925292415916	1.9361649	1.3914614
33.68756485935654	1.969227	1.4032915
33.70587768053328	1.9568707	1.3988819
33.724191388285746	1.9229493	1.3867044
33.74250598321054	1.9159176	1.3841667
33.760821465904506	1.873799	1.3688678
33.77913783696474	1.9835631	1.4083903
33.79745509698852	2.075423	1.4406328
33.815773246573414	2.0211291	1.4216642
33.8340922863172	1.8438458	1.3578829
33.852412216817896	1.8322899	1.353621
33.87073303867377	1.9675722	1.4027017
33.889054752483304	1.9811604	1.407537
33.907377358845245	1.9413372	1.3933188
33.92570085835853	1.9703684	1.4036981
33.94402525162239	1.893398	1.376008
33.96235053923627	1.9286159	1.3887461
33.980676721799824	2.0072997	1.416792
33.999003799912984	1.9420655	1.3935801
34.01733177417592	1.8686934	1.3670015
34.03566064518901	1.916613	1.3844179
34.0539904135529	1.9702808	1.4036669
34.07232107986846	1.9541489	1.3979088
34.090652644736785	1.927554	1.3883638
34.108985108759235	1.9095627	1.3818693
34.12731847253742	1.8515697	1.360724
34.14565273667313	1.847145	1.3590971
34.16398790176847	1.985378	1.4090344
34.18232396842574	2.115628	1.4545199
34.20066093724749	1.9970199	1.4131595
34.21899880883651	1.8565226	1.3625426
34.23733758379583	1.8946239	1.3764534
34.25567726272874	1.9429715	1.3939052
34.27401784623872	1.954583	1.398064
34.29235933492957	1.8787478	1.3706743
34.31070172940526	1.8569399	1.3626958
34.32904503027003	1.8995991	1.3782594
34.347389238128386	2.0272288	1.4238079
34.36573435358502	2.052848	1.4327763
34.38408037724492	1.9981436	1.413557
34.402427309713296	2.042229	1.4290657
34.42077515159559	2.1241488	1.457446
34.43912390349752	2.0393388	1.4280542
34.45747356602499	1.8464048	1.3588247
34.47582413978423	1.8755363	1.3695022
34.49417562538163	2.051426	1.43228
34.51252802342388	2.087278	1.4447415
34.53088133451789	2.0588198	1.4348588
34.54923555927084	2.0382278	1.4276651
34.567590698290104	2.0518548	1.4324297
34.58594675218336	2.0508244	1.43207
34.6043037215585	2.0830002	1.4432603
34.62266160702365	2.118369	1.4554619
34.641020409187234	2.1822767	1.4772531
34.65938012865785	2.1439574	1.4642259
34.677740766044394	2.001	1.414567
34.69610232195598	1.8077977	1.3445437
34.714464797002016	1.8442502	1.3580317
34.73282819179208	1.8744506	1.3691057
34.751192506936064	1.7999498	1.3416221
34.76955774304408	1.8327723	1.3537992
34.7879239007265	2.0254624	1.4231874
34.80629098059391	2.0529842	1.4328239
34.824658983257194	2.0961947	1.4478241
34.843027909327446	2.1082454	1.4519798
34.86139775941603	2.040556	1.4284803
34.879768534134534	1.8655345	1.3658457
34.89814023409483	1.7613413	1.3271554
34.91651285990901	1.9040453	1.3798715
34.93488641218944	1.9841262	1.4085902
34.95326089154871	1.920482	1.3858145
34.97163629859967	1.9502732	1.3965218
34.99001263395542	2.0726633	1.4396747
35.00838989822934	2.0429697	1.4293249
35.02676809203499	1.9724011	1.404422
35.04514721598624	1.9504521	1.3965858
35.063527270697215	2.0174181	1.4203584
35.081908256782256	1.9973125	1.4132631
35.10029017485597	1.9185233	1.3851076
35.11867302553321	1.8264078	1.3514465
35.137056809429104	1.9517099	1.3970361
35.155441527159006	2.0412784	1.4287331
35.173827179338524	2.0645802	1.4368647
35.19221376658354	2.101843	1.4497734
35.21060128951017	2.0644622	1.4368236
35.2289897487348	2.0093527	1.4175164
35.24737914487405	1.9177043	1.384812
35.26576947854479	1.7863802	1.3365554
35.28416075036418	1.8856853	1.3732026
35.30255296094958	2.0534964	1.4330026
35.32094611091867	2.1337473	1.4607352
35.33934020088932	1.937512	1.3919454
35.35773523147969	1.8204988	1.3492587
35.3761312033082	1.9746016	1.4052051
35.394528116993506	2.3166647	1.5220593
35.41292597315452	2.476247	1.5736096
35.431324772410434	2.3073366	1.518992
35.449724515380666	2.0182793	1.4206616
35.46812520268491	1.9314945	1.3897822
35.486526834943106	1.9323181	1.3900784
35.504929412775454	2.0464838	1.4305537
35.52333293680242	1.8351481	1.3546764
35.54173740764471	2.0420809	1.429014
35.560142825923286	2.2175386	1.4891403
35.5785491922594	2.0284336	1.4242308
35.59695650727454	1.3099886	1.1445473
35.61536477159042	0.1497729	0.38700503
