0.008763373481513119	0.051685803	0.22734512
0.026290120649546365	0.18429624	0.4292974
0.043816868432600686	0.12367553	0.35167533
0.06134361724069026	0.08536854	0.29217896
0.07887036748382949	0.01998222	0.14135848
0.0963971195720331	0.0	0.0
0.11392387391531617	0.030696144	0.17520314
0.1314506309236943	0.116480336	0.34129214
0.1489773910071836	0.12068143	0.34739232
0.16650415457580078	0.15983257	0.39979064
0.18403092203956356	0.12028423	0.34682018
0.20155769380849	0.15096323	0.38853988
0.2190844702925996	0.21336573	0.46191528
0.2366112519019124	0.1784464	0.42242917
0.2541380390464497	0.14640303	0.38262647
0.27166483213623416	0.15283419	0.39094013
0.28919163158128947	0.12536657	0.3540714
0.3067184377916406	0.18468253	0.42974705
0.324245251177314	0.19320297	0.4395486
0.34177207214833777	0.14011966	0.3743256
0.3592989011147415	0.1252262	0.35387313
0.37682573848655654	0.13607305	0.3688808
0.39435258467381573	0.19027549	0.43620577
0.41187944008655414	0.19924125	0.4463645
0.42940630513480854	0.18462227	0.42967695
0.446933180228618	0.13991284	0.37404925
0.4644600657780234	0.120205514	0.34670666
0.48198696219306775	0.12552868	0.35430026
0.49951386988379676	0.13253467	0.3640531
0.5170407892602581	0.13667792	0.36969978
0.5345677207325025	0.122998886	0.35071197
0.5520946647105822	0.15161447	0.38937703
0.5696216216045534	0.15096718	0.38854495
0.5871485918244737	0.22153068	0.47067046
0.6046755757804043	0.22696565	0.4764091
0.6222025738824094	0.20036024	0.44761616
0.6397295865405557	0.13045183	0.36118117
0.6572566141649129	0.12656385	0.35575813
0.6747836571655547	0.14757763	0.38415834
0.6923107159525568	0.15849522	0.3981146
0.7098377909359992	0.17378232	0.41687205
0.7273648825259653	0.23306872	0.4827719
0.7448919911325411	0.25878432	0.5087085
0.762419117165817	0.21772534	0.46661046
0.7799462610358868	0.16617723	0.4076484
0.7974734231528482	0.12763399	0.357259
0.8150006039268024	0.13066341	0.36147395
0.8325278037678551	0.14722273	0.38369614
0.8500550230861152	0.17118163	0.41374102
0.8675822622916969	0.20240155	0.44989058
0.8851095217947171	0.23050025	0.48010442
0.9026368020052984	0.22003473	0.4690786
0.9201641033335665	0.19628969	0.4430459
0.9376914261896523	0.1969882	0.44383353
0.9552187709836915	0.19627951	0.44303444
0.9727461381258234	0.20962302	0.45784608
0.990273528026193	0.23087034	0.48048967
1.0078009410949496	0.19629778	0.44305506
1.0253283777422473	0.21463159	0.46328348
1.0428558383782454	0.22691569	0.4763567
1.0603833234131086	0.27589104	0.5252533
1.0779108332570058	0.29261628	0.54094017
1.0954383683201119	0.3041318	0.5514815
1.112965929012607	0.37429407	0.6117958
1.1304935157446763	0.509086	0.71350265
1.1480211289265108	0.58937824	0.76770973
1.1655487689683062	1.5102656	1.2289287
1.1830764362802655	1.7742128	1.3319958
1.200604131272596	2.0773344	1.4412961
1.2181318543555117	2.2478733	1.499291
1.235659605939232	2.279384	1.5097629
1.253187386433982	3.9501743	1.9875046
1.270715196249994	6.5532002	2.559922
1.2882430357975057	12.017411	3.4666138
1.3057709054867608	16.574177	4.0711393
1.3232988057280106	22.415958	4.7345495
1.3408267369315112	27.455149	5.239766
1.358354699507526	31.01309	5.5689397
1.3758826938663256	35.07029	5.9220176
1.3934107204181858	36.50015	6.0415354
1.410938779573391	37.140236	6.094279
1.4284668717422309	37.952396	6.1605515
1.4459949973350033	37.84091	6.151497
1.4635231567620117	37.779488	6.146502
1.4810513504335687	36.878803	6.072792
1.4985795787599925	36.475895	6.039528
1.5161078421516088	35.941673	5.9951377
1.5336361410187505	35.2979	5.9412036
1.5511644757717598	35.315002	5.9426427
1.5686928468209842	35.936756	5.994727
1.58622125457678	36.715275	6.0593133
1.6037496994495108	37.808983	6.148901
1.621278181849548	37.486813	6.1226473
1.6388067021872719	38.09786	6.172346
1.6563352608730693	37.38832	6.114599
1.673863858317336	36.5122	6.0425324
1.6913924949304753	35.752308	5.9793234
1.7089211711228998	34.615105	5.88346
1.7264498873050296	33.837814	5.817028
1.7439786438872935	32.79423	5.726625
1.7615074412801288	31.661428	5.6268487
1.779036279893981	30.803041	5.550049
1.796565160139305	29.786621	5.457712
1.814094082426564	29.401703	5.4223337
1.8316230471662298	28.696701	5.3569303
1.849152054768784	27.971346	5.2887945
1.8666811056447168	27.645605	5.257909
1.8842102002045273	27.023458	5.198409
1.901739338858724	26.4465	5.1426163
1.9192685220178245	25.760546	5.0754848
1.9367977500923557	24.83504	4.9834766
1.9543270234928547	24.375084	4.937113
1.971856342629867	23.692736	4.8675184
1.9893857079139496	23.260756	4.8229403
2.006915119755667	22.813948	4.776395
2.0244445785655945	22.316036	4.723985
2.0419740847543175	21.982655	4.688566
2.0595036387324317	21.562166	4.643508
2.0770332409105414	21.390722	4.6250105
2.094562891699263	21.087864	4.5921526
2.1120925915092217	20.28053	4.5033913
2.129622340751053	19.780502	4.447528
2.1471521398354043	187.79732	13.703917
2.1646819891729323	444.12012	21.074158
2.182211889174303	440.40842	20.98591
2.1997418402501974	452.9034	21.281527
2.2172718428113023	432.8824	20.805826
2.234801897268317	320.90826	17.913912
2.2523320040319548	17.443567	4.17655
2.269862163512935	17.176647	4.1444716
2.287392376121992	16.615116	4.0761642
2.304922642269869	16.2413	4.03005
2.322452962367322	16.03428	4.004283
2.3399833368251164	15.776146	3.9719198
2.357513766054032	15.485935	3.9352174
2.3750442504648586	15.107879	3.8868854
2.3925747904683963	14.754351	3.8411393
2.410105386475459	14.588847	3.819535
2.4276360388968707	14.289852	3.7801921
2.445166748143469	13.961182	3.7364664
2.4626975146261025	13.713592	3.7031868
2.4802283387556323	13.450532	3.6674967
2.4977592209429305	13.54048	3.679739
2.5152901615988825	13.443985	3.666604
2.5328211611343865	13.431474	3.6648974
2.5503522199603523	13.172884	3.6294467
2.5678833384877024	12.808178	3.5788515
2.5854145171273712	12.445744	3.5278525
2.6029457562903064	12.127642	3.4824765
2.620477056387469	12.005485	3.464893
2.6380084178298326	11.769483	3.4306679
2.655539841028383	11.4825	3.388584
2.673071326394119	11.265269	3.3563774
2.6906028743380523	11.02629	3.3205857
2.708134485271211	10.902587	3.3019066
2.7256661596046325	10.741248	3.2773843
2.743197897749369	10.626661	3.259856
2.760729700116486	10.639184	3.2617762
2.778261567117063	10.445499	3.2319498
2.795793499162193	10.169461	3.1889594
2.8133254966629817	9.887213	3.144394
2.830857560030551	9.843864	3.1374934
2.8483896896760337	9.777891	3.126962
2.865921886010578	9.700972	3.1146383
2.883454149445347	9.542298	3.089061
2.9009864803915177	9.334075	3.0551717
2.91851887926028	9.280245	3.0463495
2.9360513464628384	9.077948	3.0129633
2.953583882410413	8.855069	2.9757469
2.9711164875142373	8.724699	2.9537601
2.9886491621855606	8.689027	2.9477155
3.0061819068356455	8.698999	2.9494066
3.023714721875769	8.7446785	2.9571402
3.041247607717225	8.576227	2.9285197
3.0587805647713213	8.576778	2.9286137
3.0763135934493806	8.445323	2.9060838
3.0938466941627407	8.233736	2.8694487
3.1113798673227544	8.097923	2.845685
3.1289131133407904	7.918865	2.8140478
3.1464464326282315	7.7792416	2.7891293
3.1639798255964786	7.7633586	2.7862804
3.1815132926569443	7.8072596	2.7941475
3.1990468342210603	7.7803235	2.789323
3.216580450700272	7.7283306	2.7799876
3.2341141425060416	7.5939336	2.7557092
3.251647910049847	7.440132	2.7276607
3.2691817537431813	7.374196	2.715547
3.286715673997555	7.2989936	2.701665
3.3042496712244938	7.269483	2.696198
3.32178374583554	7.1398954	2.6720583
3.339317898242251	6.893622	2.6255708
3.3568521288562034	6.6848917	2.5855157
3.3743864380889876	6.695877	2.5876393
3.3919208263522127	6.7270536	2.5936565
3.4094552940575023	6.7474985	2.5975947
3.4269898416164972	6.639804	2.5767817
3.444524469440858	6.5891123	2.5669267
3.4620591779422587	6.556428	2.5605524
3.479593967532391	6.521815	2.5537844
3.4971288386229658	6.3865914	2.5271707
3.5146637916257086	6.2755666	2.505108
3.5321988269523628	6.260991	2.5021973
3.5497339450146903	6.3277173	2.5154955
3.5672691462244708	6.403354	2.530485
3.5848044309934988	6.343482	2.518627
3.60233979973359	6.221402	2.494274
3.619875252856575	6.173507	2.4846544
3.6374107907743034	6.17963	2.485886
3.6549464138986427	6.2201853	2.49403
3.6724821226414788	6.3000646	2.5099928
3.690017917414714	6.344093	2.5187483
3.7075537986302702	6.376608	2.5251946
3.7250897667000857	6.409335	2.5316665
3.7426258220361235	6.622544	2.5734303
3.7601619650503553	6.981531	2.6422586
3.777698196154779	7.553854	2.7484276
3.7952345157614067	8.473549	2.910936
3.8127709242822716	9.188884	3.0313172
3.830307422129425	11.45637	3.384726
3.847844009714936	30.23367	5.498515
3.8653806874508954	97.72753	9.885724
3.882917455749409	96.90068	9.843814
3.900454315022606	96.6886	9.833036
3.917991265682631	41.377583	6.432541
3.9355283081416506	11.1473055	3.338758
3.9530654428118495	8.88201	2.9802701
3.970602670105433	7.417211	2.7234557
3.9881399904346244	6.4542947	2.5405304
4.005677404211669	6.397209	2.5292704
4.023214911848827	6.3439198	2.518714
4.0407525137583855	6.4191823	2.5336106
4.058290210352644	6.47207	2.5440264
4.075828002043927	6.4572253	2.5411072
4.0933658892445814	6.318957	2.5137537
4.110903872366966	6.1888366	2.4877372
4.128441951823468	6.0833898	2.4664528
4.145980128026488	6.0477743	2.4592223
4.163518401388452	6.047985	2.4592652
4.181056772321807	6.0546227	2.4606142
4.1985952412390155	6.087457	2.4672773
4.216133808552567	6.0163836	2.4528317
4.233672474674966	6.093459	2.4684932
4.251211240018741	6.3667502	2.523242
4.268750104996445	6.666065	2.5818725
4.286289070020643	7.564958	2.7504468
4.303828135503928	9.0553255	3.0092068
4.3213673018589125	29.312876	5.414137
4.3389065694982305	90.58319	9.51752
4.356445938834537	165.96918	12.882902
4.3739854102805085	171.435	13.093319
4.391524984248844	172.35146	13.128269
4.409064661152262	136.4499	11.681177
4.426604441403504	96.75419	9.83637
4.444144325415337	75.96874	8.716005
4.461684313600543	22.060625	4.696874
4.47922440637193	22.471933	4.740457
4.496764604142329	20.721565	4.5520945
4.5143049073245916	18.852772	4.341978
4.531845316331589	16.729374	4.0901556
4.5493858315762195	13.765663	3.7102106
4.566926453471405	11.354335	3.3696194
4.584467182430081	9.2272	3.0376306
4.602008018865218	8.060635	2.8391256
4.619548963189798	7.4108443	2.7222867
4.637090015816834	7.019634	2.6494591
4.654631177159353	6.851905	2.6176143
4.672172447630417	6.6441035	2.577616
4.689713827643102	6.3924694	2.5283334
4.7072553176105085	6.0887833	2.467546
4.724796917945764	5.8573656	2.4201994
4.742338629062015	5.7302547	2.393795
4.759880451372434	5.6225696	2.3711958
4.777422385290215	5.6217465	2.3710222
4.794964431228581	5.653224	2.377651
4.812506589600768	5.7274356	2.3932061
4.830048860820047	5.6042795	2.367336
4.847591245299709	5.485468	2.3421075
4.8651337434530655	5.384941	2.3205476
4.882676355693457	5.362742	2.3157594
4.900219082434242	5.4141674	2.3268363
4.917761924088813	5.432801	2.330837
4.935304881070575	5.490923	2.3432717
4.952847953792969	5.4943886	2.3440113
4.970391142669449	5.5266533	2.3508835
4.9879344481135055	5.5646024	2.3589408
5.005477870538642	5.557429	2.35742
5.023021410358394	5.5979257	2.3659935
5.040565067986324	5.5803556	2.3622777
5.05810884383601	5.5144157	2.3482792
5.075652738321066	5.446356	2.3337429
5.09319675185512	5.3675323	2.3167934
5.110740884851836	5.344773	2.3118765
5.128285137724894	5.3001633	2.3022084
5.145829510888007	5.2569833	2.2928112
5.163374004754908	5.258038	2.2930412
5.1809186197393595	5.28211	2.2982843
5.198463356255145	5.2716403	2.2960052
5.216008214716077	5.3376355	2.3103323
5.233553195535998	5.2906566	2.3001428
5.251098299128764	5.27106	2.295879
5.268643525908272	5.220178	2.284771
5.286188876288432	5.2651205	2.294585
5.3037343506831895	5.3335667	2.3094516
5.32127994950651	5.3771515	2.3188686
5.3388256731723915	5.2870994	2.2993693
5.356371522094851	5.238668	2.2888136
5.373917496687938	5.1835623	2.276744
5.391463597365729	5.2485614	2.290974
5.40900982454232	5.2296185	2.286836
5.426556178631843	5.1836147	2.2767553
5.444102660048449	5.1568947	2.2708797
5.4616492692063225	5.122634	2.2633235
5.479196006519669	5.0919123	2.2565267
5.496742872402727	5.032106	2.2432356
5.514289867269756	5.119032	2.2625277
5.531836991535049	5.096871	2.257625
5.549384245612924	5.051165	2.2474797
5.566931629917724	5.048776	2.2469482
5.584479144863822	5.056706	2.248712
5.6020267908656205	5.1436906	2.2679706
5.619574568337545	5.1624875	2.2721107
5.637122477694054	5.159794	2.271518
5.654670519349629	5.1314015	2.2652597
5.672218693718784	5.155451	2.2705617
5.689767001216059	5.173585	2.2745516
5.707315442256021	5.1884036	2.2778068
5.724864017253266	5.1448174	2.268219
5.7424127266224225	5.1183057	2.2623672
5.75996157077814	5.1280313	2.2645156
5.777510550135105	5.2173824	2.284159
5.795059665108022	5.227923	2.2864652
5.812608916111639	5.2467246	2.290573
5.830158303560715	5.29675	2.301467
5.847707827870055	5.322083	2.306964
5.86525748945448	5.388592	2.3213341
5.8828072887288485	5.4465137	2.3337767
5.900357226108044	5.4954343	2.3442342
5.917907302006979	5.548787	2.3555863
5.9354575168406	6.1356115	2.4770167
5.9530078710238765	6.7177796	2.591868
5.970558364971812	7.249477	2.6924853
5.988108999099438	7.6639686	2.7683873
6.005659773821818	8.228669	2.8685658
6.023210689554039	8.035317	2.8346636
6.040761746711227	8.43822	2.9048615
6.058312945708531	7.835477	2.7991922
6.075864286961132	7.4276567	2.7253728
6.093415770884244	6.7192826	2.5921578
6.1109673978931065	6.179155	2.4857905
6.128519168402993	5.568188	2.359701
6.146071082829204	5.4685903	2.3385017
6.163623141587075	5.338961	2.310619
6.181175345091969	5.2576785	2.2929628
6.198727693759281	5.1962686	2.2795324
6.216280188004435	5.253157	2.2919767
6.233832828242885	5.25434	2.2922347
6.251385614890126	5.246492	2.290522
6.268938548361669	5.190788	2.27833
6.286491629073067	5.0806127	2.2540214
6.304044857439898	5.0417833	2.2453916
6.321598233877777	5.0183253	2.240162
6.339151758802344	4.9942946	2.2347918
6.356705432629277	4.9701395	2.229381
6.37425925577428	4.9705586	2.229475
6.391813228653095	4.925573	2.2193632
6.409367351681486	5.0060983	2.2374313
6.426921625275259	5.030491	2.2428756
6.44447604985025	5.0958505	2.257399
6.46203062582232	5.065851	2.2507446
6.47958535360737	5.0189104	2.2402925
6.497140233621328	4.9429817	2.2232819
6.514695266280161	4.9851685	2.232749
6.532250451999859	5.0449996	2.2461076
6.549805791196454	5.060006	2.2494457
6.567361284286002	5.039694	2.2449262
6.584916931684597	5.0036225	2.236878
6.602472733808367	4.9610353	2.227338
6.6200286910734665	4.9806604	2.2317393
6.637584803896092	5.068697	2.2513766
6.655141072692462	5.067342	2.2510757
6.672697497878842	5.071517	2.252003
6.690254079871514	5.065629	2.2506952
6.707810819086808	5.0738792	2.2525272
6.725367715941078	5.0852475	2.2550492
6.742924770850719	5.0334697	2.2435396
6.760481984232151	4.9656773	2.22838
6.778039356501836	4.9552407	2.226037
6.795596888076266	4.9719095	2.2297778
6.813154579371963	5.055554	2.248456
6.830712430805492	5.072252	2.252166
6.84827044279344	5.0772395	2.253273
6.865828615752445	4.986344	2.2330122
6.883386950099159	4.9904575	2.2339332
6.900945446250287	4.981252	2.2318718
6.918504104622553	5.012735	2.2389138
6.936062925632727	4.9842243	2.2325377
6.953621909697607	4.965084	2.228247
6.971181057234028	5.0453596	2.2461877
6.988740368658859	5.1559834	2.270679
7.006299844389007	5.324628	2.3075156
7.023859484841407	5.406879	2.3252697
7.041419290433036	5.4187765	2.3278265
7.058979261580902	5.493036	2.3437226
7.0765393987020495	5.6705313	2.3812878
7.094099702213559	6.0630326	2.4623227
7.111660172532549	6.393087	2.5284555
7.129220810076164	6.7622037	2.6004238
7.146781615261595	7.336922	2.7086754
7.16434258850606	7.539419	2.7458003
7.181903730226821	7.972366	2.8235378
7.1994650408411704	8.11931	2.8494403
7.217026520766437	8.291401	2.8794792
7.234588170419983	8.535038	2.9214787
7.252149990219215	8.4858885	2.913055
7.269711980581568	8.383816	2.895482
7.2872741419245175	8.162538	2.8570156
7.304836474665574	7.736406	2.7814395
7.322398979222286	7.402204	2.720699
7.339961656012233	7.177115	2.6790137
7.357524505453039	6.9153295	2.6297014
7.375087527962357	6.633143	2.5754888
7.392650723957886	6.334056	2.516755
7.410214093857353	5.932189	2.4356086
7.427777638078528	5.659306	2.3789296
7.445341357039213	5.466301	2.3380122
7.4629052511572525	5.342144	2.311308
7.480469320850524	5.3356566	2.309904
7.498033566536948	5.3037276	2.3029823
7.5155979886344735	5.2241993	2.2856507
7.5331625875610975	5.1755514	2.274984
7.550727363734844	5.1541276	2.2702703
7.568292317573788	5.202723	2.280948
7.585857449496025	5.2224846	2.2852757
7.603422759919705	5.180519	2.2760754
7.620988249263007	5.1953893	2.2793396
7.638553917944147	5.2287865	2.286654
7.656119766381391	5.309993	2.3043423
7.673685794993023	5.341214	2.3111067
7.691252004197388	5.326114	2.3078375
7.70881839441285	5.2944164	2.3009598
7.726384966057826	5.198021	2.2799168
7.743951719550762	5.1533504	2.2700992
7.761518655310149	5.1794705	2.275845
7.779085773754511	5.1880517	2.2777295
7.796653075302419	5.233336	2.2876487
7.814220560372475	5.2583995	2.2931201
7.831788229383323	5.290395	2.3000858
7.8493560827536495	5.269448	2.2955277
7.866924120902174	5.260105	2.2934918
7.884492344247663	5.3125777	2.304903
7.9020607532089135	5.2958617	2.3012738
7.919629348204771	5.3352437	2.3098147
7.937198129654115	5.3315425	2.3090134
7.954767097975865	5.2799444	2.297813
7.972336253588986	5.3051195	2.3032844
7.989905596912472	5.3591638	2.3149867
8.007475128365371	5.4298887	2.330212
8.025044848366756	5.448635	2.3342311
8.042614757335754	5.5322742	2.3520787
8.060184855691523	5.6151285	2.3696263
8.07775514385327	5.8319707	2.4149473
8.095325622240228	5.844257	2.4174898
8.112896291271687	5.816689	2.4117813
8.130467151366968	5.7731547	2.402739
8.148038202945436	5.8677654	2.422347
8.165609446426497	5.960188	2.4413495
8.183180882229594	6.060894	2.4618883
8.200752510774217	6.035612	2.4567482
8.218324332479893	6.037053	2.4570415
8.235896347766193	6.0298085	2.455567
8.253468557052724	5.987373	2.4469109
8.27104096075914	5.94534	2.4383068
8.288613559305137	5.9711013	2.4435837
8.306186353110448	6.0067587	2.450869
8.32375934259485	6.111711	2.4721875
8.341332528178162	6.2263684	2.4952693
8.358905910280246	6.377705	2.5254118
8.376479489321003	6.340345	2.5180042
8.394053265720377	6.295576	2.5090988
8.411627239898356	6.214723	2.4929347
8.42920141227497	6.206711	2.491327
8.44677578327029	6.217398	2.4934711
8.464350353304427	6.2618723	2.5023732
8.48192512279754	6.249419	2.499884
8.499500092169827	6.213288	2.4926467
8.51707526184153	6.1453304	2.4789777
8.534650632232934	6.141479	2.4782007
8.552226203764365	6.1275997	2.475399
8.569801976856192	6.1871877	2.4874058
8.587377951928834	6.1921115	2.4883955
8.60495412940274	6.2177224	2.4935362
8.622530509698416	6.2418785	2.4983752
8.6401070932364	6.3301606	2.515981
8.657683880437283	6.467633	2.543154
8.675260871721695	6.6245947	2.5738287
8.692838067510303	6.8640747	2.619938
8.710415468223834	7.045727	2.654379
8.727993074283043	7.1432724	2.6726902
8.745570886108737	7.101502	2.6648643
8.763148904121765	7.148482	2.6736646
8.78072712874302	7.189724	2.681366
8.798305560393441	7.430882	2.7259643
8.815884199494006	7.617547	2.7599905
8.833463046465745	7.8515363	2.8020592
8.851042101729728	7.9530754	2.8201199
8.86862136570707	8.211011	2.8654861
8.886200838818924	8.296746	2.8804073
8.903780521486505	8.356234	2.8907151
8.921360414131055	8.472642	2.9107802
8.938940517173874	8.532451	2.921036
8.956520831036297	8.624445	2.9367406
8.97410135613971	8.817971	2.969507
8.99168209290554	9.08467	3.0140786
9.009263041755265	9.456319	3.0751128
9.026844203110405	9.77679	3.1267858
9.044425577392525	9.980254	3.159154
9.062007165023239	10.024782	3.1661937
9.079588966424197	10.267967	3.204367
9.097170982017108	10.393902	3.2239575
9.11475321222372	11.442706	3.3827069
9.132335657465825	12.382962	3.5189433
9.149918318165264	12.505325	3.5362868
9.167501194743924	13.008479	3.606727
9.18508428762374	12.656061	3.557536
9.202667597226693	12.61129	3.5512378
9.220251123974803	12.161852	3.4873846
9.237834868290143	11.865805	3.4446778
9.255418830594836	11.778034	3.431914
9.273003011311046	11.286503	3.359539
9.290587410860985	11.085913	3.3295515
9.308172029666911	10.475657	3.236612
9.32575686815113	10.148005	3.1855934
9.343341926735997	8.906183	2.984323
9.360927205843916	8.5684185	2.927186
9.378512705897327	8.426214	2.9027941
9.396098427318728	8.172623	2.85878
9.413684370530664	8.126981	2.850786
9.431270535955722	7.926779	2.8154535
9.448856924016539	7.850442	2.801864
9.466443535135806	7.746226	2.7832043
9.484030369736251	7.739671	2.7820265
9.501617428240658	7.742235	2.7824872
9.519204711071852	7.7660074	2.7867558
9.536792218652714	7.8191075	2.7962668
9.55437995140617	7.864485	2.804369
9.571967909755191	7.8215914	2.7967107
9.589556094122802	7.872616	2.8058183
9.60714450493207	7.851107	2.8019826
9.624733142606116	7.9117146	2.812777
9.642322007568108	7.9566855	2.8207598
9.659911100241267	8.01927	2.8318315
9.677500421048851	8.113545	2.8484285
9.695089970414175	8.141262	2.8532896
9.712679748760609	8.113396	2.8484023
9.730269756511557	8.05202	2.837608
9.747859994090492	8.04193	2.8358297
9.765450461920915	8.115354	2.848746
9.78304116042639	8.273507	2.8763704
9.800632090030527	8.352801	2.8901212
9.81822325115699	8.352735	2.8901098
9.835814644229481	8.2734995	2.8763692
9.853406269671762	8.298087	2.88064
9.870998127907646	8.251586	2.8725574
9.888590219360985	8.296294	2.880329
9.906182544455698	8.2809	2.8776553
9.923775103615734	8.320218	2.8844788
9.941367897265108	8.360431	2.8914409
9.958960925827878	8.356814	2.8908155
9.97655418972816	8.358464	2.891101
9.994147689390106	8.310794	2.8828447
10.011741425237934	8.284428	2.8782682
10.029335397695904	8.274897	2.876612
10.04692960718833	8.278806	2.8772914
10.06452405413958	8.309514	2.8826227
10.082118738974064	8.266573	2.8751647
10.099713662116246	8.209706	2.8652585
10.117308823990651	8.239551	2.8704617
10.134904225021844	8.276214	2.8768408
10.152499865634445	8.30693	2.8821745
10.170095746253125	8.27763	2.877087
10.18769186730261	8.255712	2.8732755
10.205288229207675	8.246364	2.8716483
10.222884832393145	8.255864	2.873302
10.2404816772839	8.274603	2.876561
10.258078764304868	8.259415	2.8739197
10.275676093881035	8.230504	2.8688855
10.293273666437438	8.158012	2.8562233
10.310871482399158	8.176348	2.8594313
10.32846954219134	8.10255	2.8464978
10.346067846239173	8.164616	2.8573792
10.363666394967908	8.155931	2.855859
10.38126518880283	8.203796	2.864227
10.398864228169298	8.210424	2.8653839
10.416463513492713	8.225783	2.8680627
10.434063045198531	8.156561	2.8559694
10.451662823712262	8.142188	2.853452
10.469262849459467	8.192619	2.8622751
10.486863122865758	8.103546	2.8466728
10.504463644356806	8.090159	2.8443205
10.522064414358338	7.9983	2.8281267
10.539665433296118	7.9302335	2.816067
10.557266701595987	7.8564863	2.8029425
10.574868219683818	7.7599354	2.785666
10.592469987985552	7.6790543	2.7711108
10.610072006927185	7.5773807	2.7527041
10.627674276934751	7.49036	2.7368522
10.64527679843435	7.4326506	2.7262888
10.662879571852143	7.4091635	2.721978
10.680482597614331	7.319429	2.7054443
10.698085876147173	7.194636	2.6822817
10.715689407876988	6.988744	2.643623
10.733293193230146	6.876138	2.622239
10.750897232633072	6.73557	2.5952976
10.76850152651225	6.6683707	2.5823188
10.786106075294207	6.580739	2.5652952
10.803710879405534	6.537339	2.556822
10.821315939272877	6.497698	2.5490582
10.83892125532294	6.4158416	2.532951
10.856526827982472	6.317748	2.513513
10.874132657678285	6.3393645	2.5178094
10.891738744837243	6.2720633	2.5044088
10.909345089886271	6.210083	2.492004
10.926951693252343	6.1137853	2.472607
10.944558555362494	6.0630813	2.4623325
10.96216567664381	5.9827	2.4459558
10.979773057523436	5.87545	2.4239328
10.997380698428573	5.889542	2.426838
11.014988599786477	5.852946	2.4192863
11.032596762024461	5.8039355	2.4091358
11.050205185569892	5.7153897	2.3906882
11.067813870850198	5.6164665	2.3699086
11.085422818292859	5.4879384	2.342635
11.10303202832541	5.437126	2.3317647
11.120641501375454	5.373479	2.3180766
11.138251237870636	5.3414497	2.3111577
11.155861238238671	5.2672997	2.29506
11.173471502907317	5.1698437	2.273729
11.191082032304402	5.08995	2.2560918
11.208692826857805	5.030799	2.2429442
11.226303886995465	4.9826064	2.2321754
11.243915213145371	4.959308	2.2269504
11.261526805735578	4.9581547	2.2266915
11.279138665194196	4.940543	2.2227333
11.296750791949393	4.9225883	2.2186906
11.314363186429393	4.8753557	2.2080207
11.331975849062479	4.8384047	2.1996374
11.34958878027699	4.723077	2.173264
11.36720198050133	4.6158786	2.1484597
11.384815450163948	4.5300727	2.1283967
11.402429189693366	4.527657	2.127829
11.420043199518153	4.502724	2.1219623
11.437657480066942	63.43105	7.964361
11.455272031768422	85.13463	9.226843
11.472886855051353	107.52833	10.369587
11.490501950344528	99.14849	9.957334
11.508117318076819	84.451164	9.189732
11.52573295867715	45.817238	6.768843
11.543348872574514	4.1436906	2.0356057
11.560965060197946	4.1654596	2.0409458
11.57858152197655	4.1340156	2.033228
11.59619825833949	4.1483693	2.0367546
11.613815269715985	4.096528	2.0239882
11.631432556535323	38.601673	6.2130246
11.649050119226837	83.08654	9.115182
11.666667958219929	93.463554	9.667655
11.68428607394406	107.73564	10.379578
11.701904466828756	82.61584	9.089326
11.719523137303586	65.44662	8.089909
11.737142085798196	4.65132	2.1566918
11.754761312742286	3.7418182	1.934378
11.772380818565619	3.7029662	1.9243093
11.790000603698015	3.6325908	1.9059356
11.80762066856935	3.5792003	1.8918774
11.825241013609572	3.5343027	1.8799741
11.842861639248683	3.5586886	1.8864487
11.860482545916748	3.4924338	1.8688054
11.878103734043883	3.4574547	1.8594232
11.895725204060282	3.4026237	1.8446202
11.91334695639619	3.382986	1.8392895
11.930968991481919	3.3904018	1.8413044
11.948591309747824	3.3736343	1.8367456
11.966213911624347	3.3088694	1.8190298
11.98383679754198	3.2848144	1.8124057
12.001459967931268	3.2708704	1.8085548
12.019083423222835	3.266873	1.8074492
12.036707163847352	3.2615628	1.8059797
12.05433119023556	3.2509809	1.8030477
12.071955502818259	3.224847	1.7957859
12.089580102026313	3.211696	1.7921205
12.107204988290643	3.1816268	1.7837116
12.12483016204224	3.1293807	1.7690055
12.142455623712152	3.1262882	1.7681313
12.16008137373149	3.125154	1.7678105
12.177707412531431	3.130241	1.7692487
12.19533374054321	3.0930083	1.758695
12.212960358198126	3.042409	1.7442503
12.230587265927545	2.989547	1.7290306
12.248214464162889	2.9512842	1.7179302
12.265841953335649	2.9573643	1.7196989
12.283469733877375	2.978245	1.7257593
12.301097806219685	2.9870088	1.7282965
12.31872617079425	2.9582026	1.7199426
12.336354828032825	2.9518988	1.7181091
12.353983778367205	2.948979	1.7172592
12.371613022229262	2.9717152	1.7238663
12.389242560050928	2.9411128	1.7149673
12.406872392264201	2.8798914	1.6970242
12.424502519301143	2.852315	1.6888798
12.442132941593874	2.8471587	1.6873525
12.459763659574586	2.893026	1.7008898
12.477394673675532	2.8785264	1.696622
12.49502598432903	2.8751879	1.695638
12.51265759196746	2.8461056	1.6870404
12.530289497023267	2.8288481	1.681918
12.547921699928967	2.8134463	1.6773331
12.565554201117134	2.7764266	1.6662612
12.583187001020404	2.7806842	1.6675384
12.600820100071486	2.7902305	1.6703984
12.618453498703152	2.8257704	1.6810027
12.636087197348235	2.8057244	1.6750296
12.65372119643964	2.788532	1.6698898
12.671355496410326	2.774364	1.6656423
12.68899009769333	2.7921472	1.6709719
12.706625000721749	2.8329203	1.6831281
12.724260205928752	2.8989189	1.7026212
12.741895713747551	2.948192	1.7170299
12.759531524611454	2.9654624	1.7220519
12.777167638953818	2.9968653	1.7311456
12.794804057208072	2.9876714	1.7284882
12.812440779807702	2.9994068	1.7318796
12.830077807186271	3.1816952	1.7837307
12.847715139777405	3.2032182	1.7897537
12.865352778014795	3.4360774	1.853666
12.882990722332197	3.5382113	1.8810134
12.90062897316344	3.6181183	1.9021351
12.918267530942412	3.7226076	1.929406
12.935906396103071	3.6438103	1.9088767
12.953545569079449	3.8213844	1.9548361
12.971185050305628	3.6221874	1.9032046
12.988824840215775	3.5869794	1.8939322
13.006464939244115	3.6274984	1.9045993
13.024105347824943	3.501363	1.8711929
13.041746066392617	3.559708	1.8867189
13.05938709538157	3.313661	1.8203465
13.077028435226296	3.2969592	1.8157531
13.094670086361363	3.2257404	1.7960347
13.112312049221401	3.144122	1.7731671
13.129954324241112	3.062333	1.7499523
13.147596911855258	2.8754096	1.6957033
13.165239812498685	2.8562477	1.6900437
13.182883026606293	2.796544	1.6722871
13.200526554613058	2.7280345	1.6516763
13.218170396954017	2.701933	1.6437557
13.235814554064284	2.6896448	1.6400137
13.253459026379034	2.7041316	1.6444244
13.271103814333523	2.7139206	1.6473981
13.288748918363058	2.7203279	1.6493416
13.306394338903031	2.7366464	1.6542813
13.32404007638889	2.7326279	1.6530662
13.341686131256164	2.7432988	1.6562907
13.359332503940449	2.6899424	1.6401044
13.376979194877402	2.6665907	1.6329699
13.394626204502751	2.7010114	1.6434754
13.412273533252307	2.7435386	1.656363
13.429921181561937	2.7412496	1.655672
13.447569149867581	2.736962	1.6543766
13.465217438605247	2.7195773	1.6491141
13.482866048211022	2.700703	1.6433816
13.500514979121052	2.7020924	1.6438042
13.518164231771568	2.6885486	1.6396794
13.535813806598844	2.6957028	1.6418595
13.553463704039254	2.6830118	1.6379901
13.571113924529229	2.6467776	1.626892
13.588764468505275	2.6487577	1.6275004
13.606415336403956	2.675943	1.635831
13.624066528661917	2.6983008	1.6426506
13.641718045715882	2.7782397	1.6668053
13.659369888002635	2.8634324	1.692168
13.67702205595903	2.9390101	1.7143542
13.694674550021993	3.0094059	1.7347639
13.712327370628532	3.0714808	1.7525641
13.729980518215713	3.144075	1.7731539
13.747633993220681	3.2049687	1.7902427
13.765287796080647	3.214661	1.7929475
13.7829419272329	3.2548609	1.8041233
13.800596387114801	3.2848954	1.812428
13.818251176163775	3.3063853	1.8183469
13.835906294817324	3.3296075	1.8247212
13.853561743513023	3.397426	1.8432107
13.871217522688525	3.4358208	1.8535967
13.888873632781538	3.4675083	1.8621247
13.906530074229858	3.4851441	1.8668541
13.92418684747135	3.509338	1.8733227
13.941843952943948	3.5463674	1.8831801
13.959501391085665	3.5239453	1.8772174
13.977159162334578	3.442462	1.8553873
13.994817267128846	3.3808446	1.8387073
14.012475705906693	3.314814	1.8206631
14.030134479106424	3.2336075	1.7982235
14.047793587166414	3.1672597	1.7796797
14.065453030525108	3.1026125	1.7614235
14.083112809621026	3.0547674	1.7477893
14.100772924892766	2.9715703	1.7238243
14.118433376778997	2.9133077	1.7068415
14.136094165718458	2.8272965	1.6814567
14.153755292149969	2.760592	1.661503
14.171416756512416	2.706631	1.6451842
14.189078559244768	2.645793	1.6265894
14.20674070078606	2.5809066	1.60652
14.224403181575408	2.557171	1.5991157
14.242066002051999	2.5110857	1.5846406
14.259729162655093	2.4563642	1.5672792
14.277392663824022	2.424568	1.5571024
14.295056505998208	2.4332917	1.5599011
14.312720689617128	2.4198432	1.5555845
14.330385215120348	2.357064	1.5352733
14.348050082947497	2.362262	1.5369653
14.3657152935383	2.3697727	1.5394065
14.383380847332528	2.3887062	1.545544
14.401046744770051	2.3682368	1.5389076
14.418712986290798	2.373417	1.5405898
14.436379572334793	2.3748736	1.5410625
14.454046503342123	2.3668163	1.5384461
14.471713779752946	2.3496938	1.5328711
14.489381402007504	2.3557336	1.53484
14.507049370546113	2.3973947	1.5483522
14.524717685809168	2.4091094	1.5521306
14.542386348237134	2.3935516	1.5471107
14.560055358270553	2.3577213	1.5354873
14.577724716350051	2.3938372	1.5472031
14.595394422916325	2.4182568	1.5550746
14.61306447841015	2.4590685	1.5681417
14.63073488327237	2.4212954	1.5560513
14.648405637943917	2.4172325	1.5547452
14.6660767428658	2.4243453	1.5570309
14.683748198479094	2.4863448	1.5768148
14.701420005224954	2.5632288	1.6010087
14.719092163544628	2.6251493	1.6202313
14.73676467387942	2.661346	1.6313633
14.754437536670727	2.7028625	1.6440384
14.772110752360014	2.7236028	1.6503341
14.78978432138882	2.7207396	1.6494665
14.807458244198777	2.7138991	1.6473916
14.82513252123159	2.675239	1.6356158
14.842807152929028	2.701412	1.6435972
14.860482139732962	2.672576	1.6348015
14.87815748208531	2.641693	1.6253287
14.8958331804281	2.6434996	1.6258843
14.91350923520342	2.6173434	1.6178206
14.931185646853438	2.6343272	1.6230611
14.948862415820408	2.6090398	1.6152523
14.966539542546656	2.627733	1.6210284
14.98421702747459	2.6091905	1.6152989
15.001894871046696	2.6097631	1.6154761
15.019573073705542	2.6381981	1.6242532
15.037251635893766	2.651361	1.6283001
15.054930558054092	2.6982245	1.6426274
15.072609840629323	2.7136858	1.6473268
15.090289484062351	2.8262146	1.6811349
15.107969488796124	3.1167037	1.7654189
15.125649855273691	3.5299895	1.8788266
15.14333058393817	4.068663	2.0170927
15.161011675232768	5.0097833	2.2382545
15.17869312960076	6.384458	2.5267484
15.196374947485506	8.184278	2.8608177
15.214057129330447	11.21939	3.3495357
15.231739675579114	15.925385	3.9906623
15.249422586675102	21.09684	4.5931296
15.267105863062092	24.38041	4.937652
15.284789505183847	24.800306	4.9799905
15.302473513484218	22.80356	4.775307
15.320157888407127	19.180021	4.3795
15.337842630396578	14.864132	3.855403
15.355527739896656	11.566029	3.4008865
15.37321321735153	9.036137	3.0060167
15.39089906320545	6.642804	2.5773637
15.408585277902748	4.9701285	2.2293785
15.42627186188783	3.826106	1.9560435
15.443958815605198	3.2190423	1.794169
15.461646139499424	2.8914936	1.7004392
15.479333834015168	2.726567	1.651232
15.497021899597165	2.6826081	1.637867
15.514710336690234	2.6045647	1.6138663
15.53239914573928	2.5471344	1.5959744
15.550088327189297	2.5175953	1.5866932
15.567777881485336	2.5248148	1.5889666
15.58546780907256	2.5063972	1.5831605
15.6031581103962	2.4511049	1.5656005
15.620848785901568	2.419271	1.5554006
15.638539836034063	2.414506	1.553868
15.656231261239173	2.4524636	1.5660343
15.673923061962451	2.478286	1.5742573
15.691615238649552	2.4659412	1.5703316
15.709307791746202	2.4223738	1.5563977
15.727000721698221	2.4278007	1.5581402
15.744694028951498	2.456427	1.5672992
15.76238771395202	2.4433162	1.5631111
15.780081777145844	2.404146	1.5505309
15.797776218979125	2.3616612	1.5367697
15.815471039898094	2.357303	1.535351
15.833166240349064	2.3692033	1.5392216
15.850861820778437	2.3683832	1.5389552
15.868557781632699	2.3912804	1.5463766
15.886254123358412	2.411347	1.5528512
15.903950846402232	2.4104888	1.5525749
15.921647951210897	2.4018073	1.5497766
15.939345438231225	2.4041586	1.550535
15.957043307910133	2.398579	1.5487347
15.974741560694602	2.3766694	1.541645
15.992440197031714	2.3678386	1.5387783
16.01013921736862	2.3881183	1.5453538
16.02783862215259	2.399491	1.5490291
16.045538411830933	2.4245849	1.5571078
16.06323858685107	2.439427	1.5618665
16.080939147660512	2.4695675	1.5714858
16.09864009470684	2.4659817	1.5703444
16.11634142843774	2.4598846	1.5684019
16.134043149300954	2.4323773	1.5596081
16.15174525774433	2.4463942	1.5640954
16.169447754215817	2.4831164	1.5757908
16.18715063916342	2.4590907	1.5681489
16.204853913035244	2.4781802	1.5742236
16.222557576279478	2.4586825	1.5680187
16.240261629344403	22.453001	4.7384596
16.257966072678386	42.961918	6.554534
16.275670906729868	38.081448	6.1710167
16.293376131947387	2.498688	1.5807239
16.31108174877957	2.5577068	1.5992832
16.328787757675133	2.5888357	1.6089859
16.34649415908287	2.5983138	1.6119286
16.364200953451657	2.6225379	1.6194252
16.38190814123048	2.652562	1.6286688
16.39961572286839	2.687636	1.6394011
16.41732369881455	2.6944447	1.6414764
16.43503206951817	2.7014887	1.6436206
16.45274083542859	2.7160232	1.6480361
16.47044999699522	2.7754607	1.6659714
16.488159554667558	2.83501	1.6837488
16.505869508895184	2.878105	1.6964978
16.523579860127786	2.87372	1.695205
16.541290608815117	2.9028034	1.7037616
16.559001755407035	2.959334	1.7202715
16.57671330035348	3.0526826	1.7471927
16.59442524410448	3.137348	1.7712561
16.61213758711015	3.2113216	1.792016
16.629850329820705	3.2564626	1.8045671
16.647563472686436	3.2892978	1.8136421
16.665277016157724	3.3467064	1.8294005
16.682990960685053	3.403367	1.8448217
16.70070530671898	3.48783	1.8675733
16.718420054710155	3.5517685	1.8846136
16.736135205109335	3.6007125	1.8975544
16.753850758367335	3.65572	1.9119937
16.771566714935087	3.7028449	1.9242778
16.789283075263597	3.7413194	1.934249
16.80699983980398	3.7942128	1.947874
16.82471700900741	3.8424375	1.9602137
16.84243458332518	3.9382064	1.9844915
16.860152563208665	3.9725091	1.9931154
16.87787094910932	4.0495186	2.0123415
16.89558974147871	4.069046	2.0171876
16.913308940768466	4.164583	2.040731
16.931028547430333	4.211838	2.0522761
16.94874856191613	4.24601	2.0605848
16.966468984677785	4.2897105	2.0711617
16.98418981616729	4.4031115	2.0983593
17.00191105683676	4.522626	2.1266468
17.019632707138374	4.543667	2.131588
17.03735476752442	4.517424	2.1254232
17.05507723844728	4.4802976	2.1166713
17.072800120359403	4.480464	2.1167107
17.090523413713353	4.550214	2.133123
17.108247118961785	4.647829	2.1558824
17.125971236557437	4.7213235	2.1728606
17.143695766953133	4.75349	2.18025
17.161420710601806	4.7768397	2.1855984
17.179146067956477	4.7302446	2.1749125
17.19687183947025	4.7219715	2.1730099
17.21459802559634	4.7033396	2.1687183
17.232324626788028	4.6806526	2.1634817
17.25005164349871	4.659005	2.1584728
17.267779076181863	4.611706	2.1474884
17.285506925291074	4.626542	2.1509397
17.30323519127999	4.6260343	2.1508217
17.320963874602384	4.6101303	2.1471214
17.33869297571211	4.5754194	2.139023
17.356422495063114	4.550847	2.1332715
17.37415243310944	4.475039	2.1154287
17.391882790305218	4.4584613	2.111507
17.40961356710468	4.4480896	2.1090496
17.42734476396215	4.443221	2.107895
17.445076381332044	4.481128	2.1168675
17.462808419668868	4.576255	2.1392183
17.48054087942723	4.7150908	2.171426
17.498273761061835	5.0007477	2.2362351
17.51600706502747	5.4832506	2.3416343
17.533740791779024	6.2119565	2.4923797
17.551474941771485	7.56394	2.7502618
17.56920951545993	8.638969	2.9392123
17.586944513299528	10.930343	3.3061068
17.60467993574556	12.686389	3.5617957
17.622415783253373	14.588017	3.8194263
17.64015205627843	16.113665	4.014183
17.657888755276293	17.121578	4.137823
17.675625880702604	17.447493	4.1770196
17.69336343301311	17.211384	4.1486607
17.71110141266366	16.466307	4.05787
17.728839820110178	15.527501	3.940495
17.746578655808705	14.5437155	3.8136225
17.764317920215372	13.065046	3.6145604
17.7820576137864	11.561035	3.4001522
17.79979773697811	9.577374	3.0947332
17.81753829024692	7.619318	2.7603111
17.835279274049356	5.851113	2.4189074
17.85302068884201	4.8241954	2.1964052
17.870762535081607	4.194853	2.048134
17.888504813224934	3.8866656	1.9714628
17.90624752372891	3.673744	1.9167013
17.923990667050536	3.5928283	1.8954757
17.941734243646895	3.5450046	1.8828182
17.959478253975185	3.50013	1.8708634
17.9772226984927	3.4617145	1.8605683
17.994967577656833	3.4471848	1.8566595
18.01271289192506	3.3916578	1.8416454
18.030458641754965	3.3904905	1.8413285
18.04820482760425	3.3798287	1.838431
18.06595144993067	3.3305643	1.8249834
18.083698509192125	3.2776608	1.8104311
18.101446005846576	3.2282622	1.7967365
18.119193940352105	3.2328854	1.7980226
18.136942313166887	3.2214763	1.7948471
18.1546911247492	3.2220373	1.7950034
18.1724403755574	3.1788962	1.7829459
18.19019006604997	3.151613	1.7752783
18.207940196685467	3.1097708	1.7634542
18.225690767922575	3.0874271	1.7571076
18.243441780220046	3.081118	1.7553114
18.261193234036764	3.0673428	1.7513831
18.278945129831676	3.0958912	1.7595145
18.29669746806386	3.0235643	1.73884
18.314450249192483	2.9902983	1.7292479
18.3322034736768	2.961882	1.721012
18.349957141976184	3.0046577	1.7333949
18.3677112545501	2.9953034	1.7306945
18.385465811858108	2.9874222	1.7284161
18.403220814359884	2.9952161	1.7306693
18.420976262515172	3.0801363	1.7550317
18.43873215678387	3.153223	1.7757317
18.456488497625923	3.1412275	1.7723508
18.474245285501407	3.2006128	1.7890257
18.492002520870486	3.2925615	1.8145417
18.50976020419343	3.4094641	1.8464735
18.527518335930615	3.68197	1.918846
18.545276916542516	4.2334776	2.0575416
18.563035946489688	4.440097	2.1071537
18.580795426232832	4.8758345	2.2081292
18.598555356232698	4.7560835	2.1808448
18.616315736950185	5.0400004	2.2449946
18.63407656884626	4.681312	2.163634
18.65183785238201	4.8714857	2.2071443
18.669599588018617	4.6458898	2.1554327
18.68736177621737	4.6220536	2.1498961
18.705124417439652	4.588466	2.1420705
18.72288751214696	4.373779	2.0913582
18.740651060800886	4.546899	2.132346
18.758415063863115	4.284468	2.0698957
18.77617952179546	4.449803	2.1094556
18.793944435059814	4.1932735	2.0477483
18.811709804118184	4.2181396	2.053811
18.829475629432675	4.1881094	2.046487
18.8472419114655	4.0004745	2.0001185
18.86500865067897	4.0901966	2.0224235
18.88277584753551	3.8038535	1.9503471
18.90054350249763	3.8001213	1.9493899
18.918311616027957	3.4502943	1.8574967
18.936080188589226	3.3684914	1.835345
18.953849220644265	3.0975676	1.7599908
18.971618712656007	2.9643972	1.7217425
18.9893886650875	2.855292	1.6897609
19.007159078401887	7.99155	2.826933
19.024929953062408	32.841877	5.7307835
19.042701289532435	32.768433	5.724372
19.060473088275405	25.327747	5.032668
19.07824534975489	2.61556	1.6172693
19.096018074434568	2.6483996	1.6273904
19.113791262778197	2.6746993	1.6354508
19.13156491524966	2.676447	1.635985
19.149339032312945	2.6358192	1.6235206
19.167113614432136	2.5659254	1.6018506
19.184888662071433	2.5469825	1.5959269
19.202664175695123	2.5751243	1.6047194
19.220440155767623	2.5898778	1.6093098
19.238216602753447	2.5714388	1.6035706
19.2559935171172	2.5126379	1.5851302
19.27377089932361	2.4772353	1.5739236
19.291548749837514	2.4605246	1.5686059
19.309327069123835	2.4506018	1.5654398
19.32710585764763	2.4687276	1.5712185
19.344885115874032	2.4915156	1.5784535
19.362664844268313	2.5052705	1.5828047
19.380445043295822	2.5038152	1.5823449
19.39822571342203	2.513582	1.585428
19.41600685511252	2.530158	1.5906471
19.43378846883297	2.4969113	1.5801618
19.451570555049173	2.4802577	1.5748835
19.469353114227037	2.4513707	1.5656854
19.48713614683254	2.4490063	1.5649301
19.50491965333182	2.4234402	1.5567403
19.52270363419109	2.4678872	1.570951
19.540488089876686	2.4880378	1.5773516
19.55827302085503	2.4832418	1.5758305
19.576058427592674	2.4866364	1.5769073
19.593844310556282	2.4910743	1.5783137
19.611630670212598	2.5091991	1.5840452
19.629417507028506	2.5086799	1.5838813
19.64720482147098	2.5183084	1.5869179
19.6649926140071	2.530038	1.5906093
19.682780885104084	2.514645	1.5857632
19.70056963522921	2.493767	1.5791665
19.718358864849908	2.5024846	1.5819243
19.7361485744337	2.503674	1.5823002
19.753938764448215	2.502506	1.5819311
19.771729435361202	2.5076256	1.5835484
19.789520587640506	2.527205	1.5897186
19.807312221754092	2.5497382	1.59679
19.825104338170043	2.5476274	1.596129
19.842896937356517	2.525025	1.5890326
19.860690019781824	2.523024	1.588403
19.87848358591436	2.58044	1.6063749
19.896277636222635	2.5763018	1.6050862
19.914072171175278	2.5545893	1.5983082
19.931867191241015	2.5077431	1.5835855
19.94966269688869	2.5258365	1.589288
19.967458688587264	2.5215557	1.5879407
19.985255166805807	2.520252	1.5875301
20.00305213201348	2.482035	1.5754476
20.020849584679578	2.4553552	1.5669574
20.038647525273507	2.4817	1.5753412
20.05644595426477	2.5009706	1.5814457
20.07424487212299	2.474123	1.5729345
20.092044279317903	2.4427912	1.5629431
20.109844176319353	2.4150696	1.5540494
20.127644563597304	2.4001489	1.5492414
20.145445441621817	2.370079	1.5395061
20.16324681086307	2.3735437	1.5406309
20.181048671791373	2.347037	1.5320042
20.198851024877122	2.365549	1.5380342
20.216653870590836	2.3808959	1.5430152
20.234457209403146	2.3985052	1.5487108
20.252261041784802	2.3690207	1.5391623
20.270065368206662	2.3545434	1.5344522
20.287870189139685	2.3364987	1.528561
20.305675505054968	2.3557816	1.5348556
20.323481316423702	2.3721569	1.5401808
20.341287623717207	2.371333	1.5399133
20.359094427406884	2.3684635	1.5389813
20.376901727964288	2.401732	1.5497522
20.39470952586107	2.4114153	1.5528733
20.41251782156899	2.3844125	1.5441543
20.430326615559935	2.328199	1.5258436
20.448135908305886	2.3124444	1.5206723
20.465945700278965	2.3349497	1.5280542
20.483755991951384	2.3425462	1.5305378
20.50156678379548	2.3349075	1.5280404
20.519378076283708	2.3100088	1.5198714
20.537189869888635	2.3096938	1.5197676
20.55500216508294	2.3283083	1.5258795
20.572814962339415	2.3668947	1.5384716
20.59062826213098	2.3735466	1.5406319
20.60844206493066	2.3693724	1.5392766
20.626256371211593	2.3595426	1.5360802
20.644071181447032	2.363282	1.537297
20.66188649611036	2.360222	1.5363015
20.67970231567506	2.3492174	1.5327157
20.697518640614742	2.363147	1.537253
20.715335471403122	2.3781233	1.5421165
20.73315280851404	2.37821	1.5421447
20.750970652421447	2.3467746	1.5319186
20.768789003599412	2.3564599	1.5350765
20.786607862522136	2.3180358	1.5225097
20.8044272296639	2.2915156	1.5137752
20.82224710549913	2.255116	1.5017043
20.84006749050237	2.288662	1.5128324
20.857888385148268	3.8715823	1.9676337
20.8757097899116	45.99133	6.7816906
20.893531705267254	64.8377	8.052186
20.911354131690224	83.84774	9.156841
20.92917706965566	69.07701	8.311258
20.94700051963877	50.144463	7.0812755
20.96482448211493	29.419573	5.423981
20.982648957559622	4.179317	2.0443377
21.00047394644843	2.2865603	1.5121377
21.01829944925707	2.2416334	1.4972086
21.036125466461375	2.2321947	1.4940531
21.053951998537297	2.2285304	1.4928263
21.071779045960906	2.2359269	1.4953016
21.089606609208378	2.215153	1.488339
21.10743468875603	2.223372	1.4910976
21.12526328508028	2.21687	1.4889157
21.143092398657675	2.172382	1.4739003
21.16092202996488	2.146851	1.4652137
21.17875217947867	2.163471	1.4708742
21.19658284767596	2.206647	1.4854786
21.21441403503377	2.2031763	1.48431
21.232245742029225	2.1876798	1.4790807
21.2500779691396	2.1729295	1.474086
21.26791071684227	2.1491396	1.4659945
21.28574398561475	2.1235409	1.4572374
21.30357777593465	2.1361861	1.4615698
21.321412088279704	2.1724083	1.4739093
21.339246923127792	2.182973	1.4774888
21.357082280956888	2.1612194	1.4701086
21.3749181622451	2.1363788	1.4616356
21.392754567470647	2.116656	1.4548732
21.41059149711187	2.0941188	1.4471071
21.42842895164726	2.0935216	1.4469007
21.446266931555378	2.1290076	1.4591119
21.464105437314945	2.1358447	1.461453
21.481944469404798	2.1437101	1.4641415
21.49978402830388	2.163594	1.470916
21.51762411449127	2.1485658	1.4657987
21.53546472844617	2.115121	1.4543455
21.553305870647876	2.0848634	1.4439056
21.571147541575865	2.0771248	1.4412234
21.58898974170967	2.1013594	1.4496067
21.60683247152899	2.1037664	1.4504366
21.62467573151363	2.0932388	1.446803
21.642519522143523	2.0585241	1.4347558
21.660363843898722	2.0658212	1.4372965
21.6782086972594	2.0727537	1.4397061
21.696054082705864	2.0981262	1.448491
21.713900000718535	2.104637	1.4507366
21.73174645177795	2.0876129	1.4448574
21.749593436364794	2.0546157	1.4333931
21.767440954959845	2.0204346	1.42142
21.785289008044032	2.0487707	1.4313527
21.803137596098388	2.0757334	1.4407406
21.820986719604086	2.0639951	1.4366611
21.838836379042412	2.0196092	1.4211296
21.85668657489478	2.0160058	1.4198612
21.87453730764273	1.9964379	1.4129536
21.892388577767914	2.008456	1.4172001
21.91024038575213	1.9948143	1.4123789
21.928092732077285	1.9993563	1.413986
21.945945617225426	1.9904357	1.410828
21.963799041678694	1.9976426	1.4133799
21.981653005919398	31.295692	5.5942554
21.999507510429943	78.101814	8.837523
22.01736255569286	73.035614	8.546087
22.035218142190818	4.14227	2.0352569
22.05307427040661	1.9734772	1.4048051
22.07093094082315	1.9993509	1.4139841
22.088788153923474	1.9695313	1.4034
22.106645910190746	1.9712837	1.4040241
22.12450421010827	1.9594935	1.3998191
22.142363054159464	1.9923351	1.411501
22.16022244282787	1.9978557	1.4134552
22.178082376597164	2.0303175	1.4248921
22.195942855951145	2.044826	1.4299741
22.213803881373742	2.0158663	1.4198121
22.231665453349002	1.9609897	1.4003534
22.24952757236111	1.9468021	1.3952786
22.26739023889438	1.9483625	1.3958375
22.28525345343323	1.9882945	1.410069
22.30311721646225	1.9889497	1.4103012
22.320981528466113	1.9516034	1.396998
22.33884638992964	1.9339392	1.3906615
22.356711801337788	1.9452097	1.3947078
22.37457776317561	1.9688283	1.4031495
22.392444275928337	1.9877969	1.4098926
22.410311340081282	2.0098746	1.4177004
22.428178956119904	1.9866735	1.409494
22.446047124529805	1.9800375	1.407138
22.46391584579669	1.9674846	1.4026705
22.481785120406414	1.9054586	1.3803835
22.49965494884496	1.8936276	1.3760915
22.51752533159841	1.9127547	1.3830237
22.53539626915302	1.9619014	1.4006789
22.553267761995137	1.9423314	1.3936756
22.571139810611264	1.9291745	1.3889472
22.589012415488025	1.926053	1.3878231
22.60688557711216	1.9810219	1.4074878
22.624759295970566	1.9942905	1.4121935
22.642633572550263	1.985288	1.4090025
22.660508407338362	1.9664042	1.4022853
22.67838380082217	1.9179116	1.3848869
22.696259753489077	1.8943865	1.3763671
22.714136265826614	1.9071566	1.3809984
22.73201333832246	1.9246954	1.3873339
22.74989097146439	1.9037743	1.3797733
22.76776916574035	1.8766	1.3698906
22.785647921638393	1.8622804	1.364654
22.803527239646712	1.8571817	1.3627845
22.82140712025363	1.8661361	1.3660659
22.839287563947593	1.8897463	1.3746804
22.85716857121719	1.9224912	1.3865393
22.875050142551135	1.9369378	1.3917391
22.892932278438277	1.930195	1.3893145
22.910814979367604	1.8968271	1.3772534
22.928698245828222	1.8588864	1.3634099
22.946582078309387	1.854344	1.361743
22.96446647730047	1.8980094	1.3776827
22.98235144329098	1.9162252	1.3842778
23.000236976770562	1.8999296	1.3783793
23.018123078229	1.8969529	1.3772991
23.03600974815619	1.9289877	1.38888
23.053896987042194	1.9404558	1.3930024
23.071784795377173	1.9182676	1.3850154
23.08967317365145	1.8683288	1.3668683
23.10756212235546	1.8846629	1.3728303
23.125451641979787	1.9023526	1.379258
23.143341733015134	1.929209	1.3889596
23.161232395952357	1.9523351	1.3972598
23.179123631282426	1.9802186	1.4072024
23.197015439496468	1.9796991	1.4070178
23.214907821085717	1.9505539	1.3966223
23.23280077654157	1.9244312	1.3872387
23.250694306355538	1.9037755	1.3797737
23.268588411019277	1.9379429	1.3921002
23.28648309102458	1.9401377	1.3928883
23.304378346863356	1.9552844	1.3983148
23.322274179027676	1.9543761	1.39799
23.340170588009723	1.9677681	1.4027716
23.358067574301852	1.9502187	1.3965023
23.37596513839651	1.9516393	1.3970108
23.39386328078629	1.9348295	1.3909814
23.411762001963947	1.9169704	1.384547
23.429661302422353	1.9042956	1.3799622
23.4475611826545	1.9127649	1.3830274
23.46546164315356	1.9306952	1.3894945
23.48336268441279	1.9153067	1.3839461
23.501264306925638	1.9493309	1.3961844
23.51916651118564	1.9489911	1.3960627
23.537069297686497	1.9765717	1.405906
23.554972666922037	1.9474006	1.3954929
23.57287661938623	1.9356158	1.3912641
23.59078115557318	1.9026537	1.3793671
23.608686275977128	1.9120487	1.3827685
23.62659198109246	1.9479827	1.3957015
23.6444982714137	1.9370213	1.391769
23.66240514743549	1.8782123	1.3704789
23.68031260965263	1.8792684	1.3708642
23.698220658560068	1.9321764	1.3900275
23.716129294652845	1.9190159	1.3852855
23.7340385184262	1.8609297	1.364159
23.75194833037546	1.8445052	1.3581256
23.769858730996123	1.8863164	1.3734324
23.78776972078382	1.9074744	1.3811134
23.80568130023431	1.9028546	1.37944
23.823593469843495	1.8771867	1.3701047
23.841506230107424	1.893241	1.3759509
23.859419581522275	1.8905357	1.3749676
23.87733352458438	1.9004694	1.3785751
23.89524805979019	1.9138325	1.3834133
23.913163187636318	1.8947382	1.3764949
23.931078908619508	1.8965778	1.3771629
23.948995223236633	1.9280621	1.3885467
23.966912131984735	1.9634018	1.4012144
23.98482963536096	2.0423183	1.429097
24.002747733862616	2.1185234	1.4555148
24.020666427987155	2.1388545	1.4624823
24.038585718232156	2.1055233	1.4510422
24.056505605095353	2.076501	1.4410069
24.074426089074617	2.0402594	1.4283764
24.092347170667946	2.0468163	1.4306699
24.110268850373515	2.0073555	1.4168117
24.128191128689586	2.0327783	1.4257554
24.146114006114626	2.039447	1.4280921
24.164037483147187	2.0620782	1.4359938
24.181961560286005	2.0547686	1.4334464
24.199886238029926	2.0501475	1.4318336
24.21781151687797	2.02689	1.4236889
24.235737397329274	2.0127726	1.4187222
24.253663879883135	2.0161626	1.4199164
24.271590965038975	2.0358326	1.4268261
24.289518653296376	2.027161	1.423784
24.30744694515505	2.0451252	1.4300787
24.32537584111486	2.0321822	1.4255463
24.34330534167581	2.013166	1.4188608
24.361235447338046	2.0653293	1.4371253
24.379166158601876	2.100575	1.449336
24.39709747596772	2.080488	1.4423897
24.41502939993615	2.0259728	1.4233668
24.432961931007917	1.9991935	1.4139284
24.450895069683856	2.040568	1.4284846
24.468828816465	2.0416555	1.4288651
24.4867631718525	2.0280836	1.424108
24.504698136347656	1.9924871	1.4115548
24.52263371045192	1.9931594	1.411793
24.540569894666874	1.9714906	1.4040978
24.558506689494266	1.9086555	1.381541
24.57644409543597	1.8608879	1.3641436
24.594382112994012	1.8178108	1.3482621
24.61232074267057	1.8594743	1.3636254
24.630259984967953	1.9068545	1.380889
24.64819984038863	1.9818558	1.407784
24.66614030943522	1.9957029	1.4126935
24.684081392610462	1.9948481	1.412391
24.702023090417274	1.950315	1.3965368
24.7199654033587	1.9668821	1.4024557
24.737908331937927	1.9894888	1.4104924
24.755851876658305	2.068057	1.4380741
24.773796038023324	2.10258	1.4500276
24.79174081653661	2.0710008	1.4390972
24.809686212701962	2.024331	1.4227899
24.827632227023294	2.057172	1.4342846
24.8455788600047	2.1237652	1.4573144
24.8635261121504	2.1583185	1.4691217
24.88147398396475	2.174149	1.4744996
24.899422475952303	2.1459363	1.4649014
24.917371588617698	2.1110678	1.4529514
24.935321322465768	2.1341274	1.4608653
24.953271678001478	2.2483642	1.4994546
24.97122265572994	2.5044081	1.5825322
24.989174256156414	2.8394842	1.685077
25.00712647978632	3.21361	1.7926544
25.02507932712521	3.7095282	1.9260136
25.043032798678798	4.29714	2.0729544
25.060986894952933	4.997463	2.2355006
25.078941616453637	5.7113256	2.389838
25.096896963687055	6.6761484	2.5838244
25.114852937159508	7.8541613	2.8025277
25.132809537377444	8.382334	2.895226
25.150766764847468	8.382058	2.8951783
25.168724620076347	7.7661333	2.7867782
25.186683103570985	6.6555505	2.5798354
25.204642215838426	5.4823813	2.3414485
25.222601957385894	4.1700516	2.0420704
25.24056232872074	3.221708	1.7949117
25.25852333035048	2.6549163	1.6293914
25.276484962782778	2.321573	1.5236709
25.294447226525435	2.135879	1.4614646
25.312410122086423	2.0323074	1.4255902
25.330373649973843	1.9831097	1.4082292
25.348337810695988	1.9692883	1.4033134
25.366302604761245	1.9354905	1.391219
25.384268032678207	1.9254787	1.3876162
25.40223409495558	1.8741064	1.36898
25.420200792102257	1.8671708	1.3664446
25.438168124627246	1.85892	1.3634222
25.45613609303974	1.8879079	1.3740116
25.474104697849057	1.8610959	1.3642199
25.492073939564698	1.8847255	1.372853
25.510043818696285	1.8914783	1.3753103
25.528014335753614	1.8779585	1.3703862
25.54598549124664	1.834511	1.3544413
25.56395728568544	1.8292013	1.3524797
25.58192971958028	1.8467534	1.358953
25.59990279344156	1.8510959	1.3605498
25.617876507779833	1.8393648	1.3562318
25.635850863105826	1.8483034	1.3595233
25.653825859930386	1.8656615	1.3658922
25.671801498764548	1.8439991	1.3579392
25.68977778011949	1.8264788	1.3514729
25.707754704506524	1.8294135	1.3525581
25.725732272437153	1.859171	1.3635142
25.743710484423012	1.850154	1.3602036
25.761689340975888	1.85319	1.3613192
25.77966884260774	1.8283697	1.3521723
25.797648989830662	1.7967921	1.3404448
25.815629783156922	1.7998549	1.3415867
25.83361122309895	1.8415695	1.3570445
25.85159331016929	1.8247441	1.3508309
25.869576044880695	1.8603072	1.3639308
25.887559427746034	1.8670945	1.3664167
25.90554345927836	1.8795944	1.370983
25.92352813999086	1.8500116	1.3601513
25.94151347039689	1.8144814	1.3470268
25.959499451009965	1.832034	1.3535265
25.97748608234374	1.8766441	1.3699067
25.995473364912062	1.873499	1.3687582
26.013461299228904	1.8149451	1.347199
26.03144988580839	1.7669017	1.3292485
26.04943912516483	1.8276291	1.3518983
26.067429017812675	1.8406942	1.3567219
26.085419564266537	1.8634484	1.3650818
26.103410765041186	1.8817769	1.3717787
26.12140262065155	1.8859738	1.3733076
26.139395131612723	1.8801658	1.3711914
26.157388298439948	1.8764452	1.369834
26.17538212164861	1.8509295	1.3604887
26.193376601754295	1.8004712	1.3418164
26.211371739272714	1.8128963	1.3464384
26.229367534719746	1.8425859	1.3574189
26.247363988611433	1.8799975	1.37113
26.26536110146397	1.8305179	1.3529663
26.283358873793727	1.7942795	1.3395072
26.301357306117204	1.8075885	1.3444659
26.319356398951104	1.7815303	1.3347398
26.33735615281224	1.7699931	1.3304108
26.35535656821762	1.7543994	1.3245374
26.373357645684404	1.796009	1.3401526
26.39135938572991	1.8037994	1.343056
26.409361788871614	1.7709454	1.3307687
26.427364855627165	1.7708521	1.3307337
26.445368586514352	1.7492096	1.3225769
26.46337298205115	1.7830479	1.3353082
26.48137804275568	1.8133438	1.3466046
26.499383769146217	1.8543329	1.3617389
26.517390161741215	1.8598855	1.3637762
26.53539722105928	1.8456993	1.3585652
26.553404947619182	1.8167868	1.3478823
26.571413341939856	1.84717	1.3591063
26.589422404540397	1.8427277	1.3574711
26.60743213594006	1.8176957	1.3482195
26.62544253665827	1.7603478	1.326781
26.64345360721459	1.7388698	1.3186622
26.66146534812879	1.7712111	1.3308686
26.679477759920758	1.7651873	1.3286035
26.69749084311057	1.7847108	1.3359307
26.71550459821847	1.8462281	1.3587598
26.733519025764842	1.9001472	1.3784583
26.751534126270258	1.8714226	1.3679996
26.769549900255434	1.8111198	1.3457785
26.787566348241267	1.8254653	1.3510978
26.80558347074881	1.8005311	1.3418387
26.823601268299267	1.7927606	1.3389401
26.841619741414036	1.8146123	1.3470755
26.85963889061465	1.8121946	1.3461778
26.877658716422832	1.7582214	1.3259794
26.89567921936045	1.7814677	1.3347163
26.913700399949544	1.8091207	1.3450356
26.93172225871233	1.8497928	1.360071
26.949744796171174	1.8381522	1.3557847
26.967768012848605	1.8261613	1.3513553
26.98579190926733	1.8457099	1.358569
27.003816485950225	1.8562274	1.3624344
27.021841743420318	1.8001399	1.3416929
27.039867682200814	1.7751267	1.3323388
27.057894302815072	1.8076465	1.3444874
27.07592160578664	1.8182575	1.3484278
27.0939495916392	1.8150171	1.3472257
27.111978260896635	1.7715212	1.3309851
27.13000761408296	1.7238735	1.3129636
27.148037651722397	1.7628363	1.3277185
27.166068374339304	1.7730314	1.3315523
27.184099782458215	1.7670727	1.3293128
27.20213187660384	1.7806005	1.3343915
27.22016465730105	1.8486599	1.3596543
27.23819812507487	1.8765916	1.3698875
27.256232280450533	1.8664747	1.3661898
27.274267123953383	1.8112354	1.3458215
27.292302656108987	1.7667085	1.3291758
27.31033887744306	1.7636613	1.328029
27.32837578848146	1.7944878	1.339585
27.34641338975026	1.8128532	1.3464224
27.364451681775673	1.7853485	1.3361694
27.382490665084074	1.7511241	1.3233005
27.400530340202046	1.7446052	1.320835
27.41857070765629	1.7847967	1.3359629
27.436611767973726	1.8260409	1.3513108
27.454653521681404	1.8127896	1.3463987
27.472695969306564	1.8336725	1.3541317
27.490739111376627	1.8271105	1.3517065
27.508782948419153	1.8252537	1.3510195
27.526827480961902	1.880764	1.3714095
27.54487270953279	1.9264795	1.3879768
27.562918634659898	1.890782	1.3750571
27.580965256871508	1.8180596	1.3483543
27.599012576696026	1.7901671	1.3379712
27.617060594662068	1.78779	1.3370826
27.63510931129842	1.7449253	1.3209562
27.65315872713401	1.7959383	1.3401262
27.67120884269797	1.8448594	1.358256
27.68925965851958	1.8188013	1.3486294
27.707311175128307	1.802693	1.3426441
27.725363393053787	1.868036	1.3667611
27.74341631282583	1.9212376	1.3860872
27.7614699349744	1.9058645	1.3805305
27.77952426002968	2.014503	1.4193319
27.797579288521973	2.0631182	1.4363558
27.815635020981784	2.4348104	1.5603878
27.83369145793979	2.4946473	1.5794452
27.85174859992682	2.3724813	1.5402862
27.869806447473923	2.2890537	1.5129619
27.887865001112267	2.0722876	1.4395442
27.905924261373233	2.001335	1.4146855
27.92398422878836	2.0202162	1.4213431
27.94204490388936	1.9491224	1.3961097
27.96010628720813	1.9047613	1.3801309
27.978168379276728	1.9041275	1.3799013
27.9962311806274	1.940897	1.3931608
28.014294691792568	1.9532075	1.397572
28.0323589133048	1.9149756	1.3838265
28.050423845696887	1.9064355	1.3807373
28.068489489501758	1.8709551	1.3678286
28.086555845252523	1.8625113	1.3647386
28.104622913482487	1.8246051	1.3507794
28.122690694725115	1.8124359	1.3462673
28.14075918951405	1.8111197	1.3457785
28.15882839838312	1.8403553	1.356597
28.176898321866304	1.8793621	1.3708982
28.1949689604978	1.9320718	1.3899899
28.213040314811945	1.9579642	1.3992727
28.23111238534327	1.950855	1.3967301
28.249185172626493	1.9032576	1.379586
28.267258677196473	1.8848672	1.3729047
28.285332899588294	1.8948189	1.3765242
28.303407840337172	1.9104327	1.382184
28.321483499978545	1.9102665	1.382124
28.33955987904799	1.8949777	1.3765819
28.357636978081285	1.9290172	1.3888906
28.37571479761439	1.9517182	1.397039
28.393793338183425	1.9151742	1.3838983
28.41187260032469	1.8958617	1.3769029
28.429952584574686	1.9121714	1.3828129
28.448033291470065	1.9738235	1.4049283
28.46611472154769	2.0344207	1.4263312
28.484196875344566	1.9818835	1.4077939
28.502279753397914	1.9383591	1.3922497
28.52036335624511	1.9538642	1.3978069
28.538447684423716	1.9520938	1.3971735
28.556532738471482	1.9455388	1.3948257
28.574618518926325	1.9978721	1.4134611
28.59270502632635	2.0185878	1.4207702
28.61079226120985	2.015883	1.4198179
28.628880224115274	2.0047348	1.4158865
28.646968915581287	2.0299444	1.4247612
28.66505833614671	2.0384183	1.4277319
28.68314848635055	2.0185518	1.4207575
28.701239366732004	2.0407648	1.4285533
28.71933097783044	2.0714478	1.4392525
28.737423320185403	2.1215932	1.456569
28.75551639433665	2.118116	1.4553748
28.773610200824074	2.0479085	1.4310515
28.791704740187793	2.084819	1.4438902
28.80980001296809	2.1400673	1.462897
28.827896019705413	2.1894429	1.4796766
28.845992760940433	2.1645627	1.4712453
28.86409023721397	2.1632	1.470782
28.88218844906704	2.1751382	1.474835
28.900287397040845	2.160143	1.4697424
28.918387081676755	2.184825	1.4781153
28.936487503516343	2.2158477	1.4885724
28.954588663101365	2.2586274	1.5028731
28.97269056097374	2.2541678	1.5013887
28.990793197675597	2.2805073	1.5101348
29.00889657374923	2.2885072	1.5127813
29.027000689737125	2.3967946	1.5481584
29.04510554618196	2.480737	1.5750356
29.06321114362659	2.5048487	1.5826714
29.08131748261405	2.50297	1.5820777
29.099424563687567	2.4605155	1.568603
29.11753238739057	2.504262	1.582486
29.13564095426663	2.5794322	1.6060611
29.15375026485954	2.614182	1.6168432
29.171860319713275	2.6341271	1.6229994
29.18997111937199	2.642299	1.625515
29.20808266438002	2.658297	1.6304284
29.226194955281898	2.751453	1.6587504
29.244307992622335	2.8467236	1.6872237
29.26242177694624	2.887272	1.6991974
29.2805363087987	2.8961263	1.701801
29.29865158872498	2.9106684	1.7060682
29.316767617270557	2.9522614	1.7182146
29.334884394981064	2.9813457	1.7266574
29.353001922402367	3.0024834	1.7327676
29.37112020008047	3.073859	1.7532424
29.389239228561596	3.1439877	1.7731293
29.407359008392152	3.3137941	1.820383
29.42547954011872	3.6531441	1.91132
29.44360082428809	4.3218675	2.07891
29.46172286144722	5.373041	2.3179822
29.479845652143283	6.98472	2.642862
29.497969196923606	9.170813	3.0283349
29.516093496335728	11.863682	3.4443696
29.5342185509274	14.809498	3.848311
29.55234436124651	17.0468	4.128777
29.570470927841175	18.439255	4.2940955
29.588598251259686	18.110226	4.255611
29.60672633205055	16.836363	4.103214
29.624855170762405	14.584786	3.8190033
29.642984767944146	11.787957	3.4333594
29.66111512414481	8.8953085	2.9825003
29.67924623991366	6.5603695	2.5613217
29.697378115800138	5.010666	2.2384517
29.71551075235387	4.1769686	2.0437634
29.733644150124675	3.7773085	1.9435298
29.751778309662576	3.550489	1.8842741
29.769913231517766	3.4806187	1.8656416
29.78804891624066	3.4549441	1.858748
29.806185364381818	3.3941915	1.8423332
29.82432257649206	3.3614326	1.833421
29.842460553122333	3.3506231	1.8304707
29.86059929482382	3.4194715	1.8491813
29.878738802147872	3.3669424	1.834923
29.896879075646048	3.3373342	1.8268372
29.915020115870114	3.2972317	1.8158281
29.933161923371976	3.295469	1.8153427
29.951304498703777	3.3236885	1.8230987
29.969447842417857	3.2668555	1.8074445
29.987591955066733	3.162476	1.7783352
30.005736837203123	3.1221979	1.7669742
30.023882489379943	3.1736712	1.7814801
30.04202891215028	3.2154477	1.793167
30.060176106067455	3.2441566	1.8011543
30.078324071684946	3.1953268	1.7875477
30.09647280955646	3.1312907	1.7695453
30.114622320235863	3.0958982	1.7595165
30.132772604277257	3.09706	1.7598466
30.1509236622349	3.1202214	1.7664149
30.16907549466328	3.124693	1.76768
30.18722810211705	3.128127	1.7686512
30.205381485151097	3.1067963	1.7626107
30.22353564432045	3.084793	1.7563579
30.241690580180403	3.0663733	1.7511063
30.25984629328638	3.0404494	1.7436885
30.278002784194037	2.954994	1.7190096
30.296160053459246	2.9175768	1.7080916
30.314318101638033	2.8712904	1.6944883
30.332476929286646	2.8385425	1.6847974
30.35063653696153	2.8249862	1.6807696
30.368796925219307	2.857564	1.690433
30.386958094616844	2.843501	1.6862684
30.40512004571115	2.791736	1.6708488
30.423282779059463	2.833101	1.6831818
30.441446295219233	2.865093	1.6926585
30.459610594748067	2.8019211	1.673894
30.47777567820382	2.7535906	1.6593946
30.495941546144504	2.784072	1.6685538
30.51410819912835	2.8318717	1.6828166
30.532275637713795	2.8269224	1.6813455
30.55044386245946	2.8718455	1.6946521
30.56861287392416	2.8851042	1.6985594
30.586782672666956	2.8483696	1.6877114
30.604953259247047	2.8089416	1.6759897
30.623124634223885	2.8185785	1.6788622
30.641296798157075	2.7493181	1.6581068
30.659469751606462	2.7872055	1.6694926
30.677643495132074	2.786669	1.6693319
30.695818029294152	2.7052171	1.6447544
30.713993354653116	2.68516	1.6386458
30.73216947176962	2.6866806	1.6391097
30.75034638120448	2.726693	1.65127
30.768524083518756	2.7347472	1.6537071
30.786702579273673	2.722147	1.649893
30.80488186903069	2.7346644	1.6536821
30.82306195335144	2.8745728	1.6954565
30.841242832797782	3.053534	1.7474364
30.85942450793176	3.3479278	1.8297343
30.877606979315637	3.7736294	1.9425832
30.895790247511883	4.1683445	2.0416524
30.913974313083134	4.5750847	2.1389449
30.932159176592283	4.9305496	2.220484
30.95034483860237	4.997861	2.2355895
30.968531299676698	4.7357874	2.1761863
30.98671856037873	4.315145	2.0772927
31.00490662127215	3.9194875	1.9797696
31.023095482920848	3.5445607	1.8827003
31.04128514588892	3.1699789	1.7804434
31.059475610740662	2.7881236	1.6697675
31.07766687804056	2.5914316	1.6097925
31.09585894835335	2.4523926	1.5660117
31.11405182224393	2.3767507	1.5416714
31.132245500277417	2.3849883	1.5443407
31.15043998301914	2.5187254	1.5870492
31.168635271034628	2.5990837	1.6121674
31.18683136488964	2.495701	1.5797788
31.20502826515008	2.4498978	1.5652149
31.223225972382135	2.4200678	1.5556567
31.241424487152155	2.3666625	1.5383961
31.259623810026692	2.3190074	1.5228287
31.27782394157253	2.2636402	1.5045398
31.296024882356644	2.2819123	1.5106
31.314226632946237	2.3507254	1.5332075
31.332429193908684	2.382182	1.5434319
31.350632565811598	2.4023154	1.5499405
31.368836749222787	2.3977273	1.5484596
31.387041744710295	2.4242582	1.557003
31.40524755284232	2.4904127	1.5781041
31.423454174187317	2.4765844	1.5737168
31.441661609313922	2.4856343	1.5765895
31.459869858791002	2.493033	1.5789341
31.478078923187628	2.5209746	1.5877577
31.496288803073064	2.4407735	1.5622975
31.514499499016807	2.3376186	1.5289273
31.532711011588546	2.352591	1.5338159
31.550923341358178	2.3649776	1.5378484
31.56913648889584	2.2197547	1.4898841
31.587350454771844	2.1498137	1.4662243
31.605565239556732	2.2854574	1.5117729
31.62378084382127	2.3538232	1.5342175
31.641997268136382	2.3358474	1.528348
31.660214513073274	2.26576	1.5052441
31.67843257920331	2.2864523	1.5121019
31.6966514670981	2.3241093	1.524503
31.71487117732944	2.3147652	1.5214353
31.733091710469346	2.328623	1.5259826
31.751313067090052	2.3838704	1.5439787
31.769535247764008	2.4359994	1.5607688
31.787758253063878	2.4286277	1.5584055
31.805982083562526	2.3644776	1.5376858
31.824206739833024	2.292453	1.5140849
31.84243222244869	2.2920249	1.5139434
31.860658531983013	2.3069289	1.5188577
31.878885669009737	2.220141	1.4900137
31.897113634102784	2.2006383	1.4834548
31.91534242783632	2.2668931	1.5056205
31.933572050784694	2.3080575	1.5192293
31.951802503522508	2.2512374	1.5004125
31.970033786624548	2.2509155	1.5003052
31.988265900665834	2.3035371	1.5177408
32.006498846221575	2.2310607	1.4936736
32.02473262386724	2.2386568	1.4962142
32.04296723417845	2.2351644	1.4950466
32.0612026777311	2.2089994	1.4862703
32.07943895510129	2.1485987	1.46581
32.097676066865304	2.1472492	1.4653496
32.115914013599685	2.1763384	1.4752418
32.13415279588115	2.204963	1.4849118
32.152392414286666	2.0781362	1.4415742
32.1706328693934	2.0531433	1.4328793
32.18887416177875	2.090445	1.4458371
32.20711629202032	2.1136348	1.4538345
32.225359260695924	2.1285558	1.4589571
32.243603068383614	2.181454	1.4769746
32.26184771566166	2.196891	1.4821913
32.28009320310852	2.1015387	1.4496684
32.2983395313029	2.034683	1.4264232
32.31658670082372	2.0742161	1.4402139
32.33483471225012	2.1086338	1.4521135
32.35308356616143	2.0987415	1.4487034
32.371333263137245	2.0731049	1.439828
32.38958380375734	2.071079	1.4391243
32.407835188601744	2.0450287	1.430045
32.42608741825067	2.1075053	1.451725
32.444340493284585	2.1240869	1.4574248
32.46259441428416	2.0813794	1.4426986
32.48084918183028	1.983465	1.4083554
32.49910479650405	1.8955247	1.3767806
32.51736125888683	1.8648365	1.3655901
32.53561856956014	1.9805479	1.4073194
32.5538767291058	2.0229435	1.4223021
32.572135738105764	1.993405	1.4118799
32.59039559714228	1.9784765	1.4065833
32.608656306797776	2.017137	1.4202595
32.62691786765491	2.0079517	1.4170221
32.645180280296586	1.983013	1.4081949
32.663443545305896	1.986896	1.409573
32.68170766326619	2.008528	1.4172255
32.69997263476099	1.9592233	1.3997226
32.7182384603741	1.9597929	1.3999261
32.7365051406895	1.9259619	1.3877903
32.75477267629144	1.9454811	1.3948051
32.77304106776434	1.9895941	1.4105297
32.79131031569289	1.930806	1.3895345
32.809580420661966	1.9191445	1.3853319
32.827851383256714	2.0179205	1.4205353
32.84612320406245	2.0574265	1.4343731
32.86439588366476	2.0553765	1.4336585
32.88266942264945	2.0489693	1.4314221
32.9009438216025	2.0325217	1.4256654
32.9192190811102	2.0385509	1.4277782
32.937495201758985	2.0392504	1.4280232
32.95577218413556	1.9261684	1.3878647
32.974050028826866	1.9208958	1.3859639
32.992328736420035	2.021385	1.4217542
33.010608307502444	2.0288723	1.4243848
33.02888874266169	1.8855214	1.3731428
33.047170042485604	1.8466856	1.3589281
33.06545220756225	1.9729975	1.4046344
33.083735238479896	2.019296	1.4210193
33.10201913582707	1.9982884	1.4136083
33.12030390019248	1.950645	1.396655
33.138589532165135	1.883921	1.37256
33.15687603233419	1.851668	1.3607601
33.17516340128909	1.8985912	1.3778937
33.19345163961947	2.013553	1.4189972
33.211740747915215	1.9621341	1.400762
33.23003072676643	1.893424	1.3760175
33.248321576763466	1.9832358	1.408274
33.266613298496885	2.0206995	1.4215131
33.28490589255747	2.0327163	1.4257336
33.30319935953626	1.9745911	1.4052014
33.32149370002451	1.9174268	1.3847119
33.339788914613706	1.8936414	1.3760964
33.358085003895575	1.8786955	1.3706552
33.376381968462034	1.8443083	1.3580531
33.39467980890529	1.9072715	1.38104
33.41297852581774	1.9204204	1.3857924
33.43127811979204	1.8600934	1.3638524
33.44957859142105	1.8639243	1.3652561
33.467879941297866	1.880741	1.3714011
33.486182170015844	1.8959662	1.3769408
33.50448527816853	1.9165574	1.3843979
33.522789266349754	1.9653628	1.401914
33.541094135153514	1.9618175	1.400649
33.55939988517411	1.9864347	1.4094093
33.57770651700602	1.9330372	1.3903371
33.59601403124398	1.9689885	1.4032065
33.61432242848296	1.9408284	1.3931361
33.632631709318154	1.8960872	1.3769848
33.650941874344994	1.9713343	1.4040421
33.66925292415916	1.9977633	1.4134226
33.68756485935654	1.8367277	1.3552593
33.70587768053328	1.7874261	1.3369466
33.724191388285746	1.9119316	1.3827262
33.74250598321054	1.9105408	1.3822231
33.760821465904506	1.8995309	1.3782347
33.77913783696474	1.9112515	1.3824803
33.79745509698852	1.9497203	1.3963238
33.815773246573414	1.9676758	1.4027387
33.8340922863172	1.9456431	1.3948631
33.852412216817896	1.9060386	1.3805935
33.87073303867377	1.9165442	1.3843931
33.889054752483304	1.9701631	1.403625
33.907377358845245	1.9739375	1.4049689
33.92570085835853	1.9271702	1.3882256
33.94402525162239	1.912561	1.3829538
33.96235053923627	1.8898242	1.3747088
33.980676721799824	1.9590434	1.3996583
33.999003799912984	1.9790827	1.4067987
34.01733177417592	2.082623	1.4431295
34.03566064518901	2.1615248	1.4702125
34.0539904135529	2.1083083	1.4520015
34.07232107986846	1.9140893	1.3835062
34.090652644736785	1.8387522	1.3560059
34.108985108759235	1.8671297	1.3664296
34.12731847253742	1.9799407	1.4071037
34.14565273667313	1.9637403	1.4013352
34.16398790176847	1.89885	1.3779876
34.18232396842574	1.8806697	1.3713751
34.20066093724749	1.9214213	1.3861535
34.21899880883651	2.0358784	1.4268421
34.23733758379583	2.0701272	1.4387937
34.25567726272874	2.01559	1.4197147
34.27401784623872	2.0728617	1.4397436
34.29235933492957	2.122942	1.4570318
34.31070172940526	1.9175332	1.3847502
34.32904503027003	1.8759639	1.3696584
34.347389238128386	1.9347142	1.3909401
34.36573435358502	2.0240586	1.4226941
34.38408037724492	2.058182	1.4346366
34.402427309713296	2.0438986	1.4296498
34.42077515159559	2.0212204	1.4216963
34.43912390349752	2.11709	1.4550223
34.45747356602499	2.1357067	1.4614058
34.47582413978423	2.0265644	1.4235744
34.49417562538163	1.8134236	1.3466341
34.51252802342388	1.8734028	1.368723
34.53088133451789	1.8830132	1.3722293
34.54923555927084	1.878345	1.3705273
34.567590698290104	1.973836	1.4049327
34.58594675218336	2.0144775	1.4193228
34.6043037215585	1.8927387	1.3757684
34.62266160702365	1.8955207	1.3767791
34.641020409187234	1.952269	1.3972362
34.65938012865785	1.9873236	1.4097247
34.677740766044394	2.0001957	1.4142828
34.69610232195598	1.8980207	1.3776867
34.714464797002016	1.9634697	1.4012387
34.73282819179208	2.129133	1.4591548
34.751192506936064	2.1179833	1.4553293
34.76955774304408	2.0264084	1.4235197
34.7879239007265	2.0386584	1.4278159
34.80629098059391	2.185508	1.4783463
34.824658983257194	2.0878334	1.4449337
34.843027909327446	1.923788	1.3870069
34.86139775941603	2.0941525	1.4471186
34.879768534134534	2.088494	1.4451623
34.89814023409483	1.8965783	1.3771632
34.91651285990901	1.8435585	1.3577771
34.93488641218944	1.8486613	1.3596549
34.95326089154871	1.9450142	1.3946377
34.97163629859967	1.9878291	1.4099039
34.99001263395542	1.978913	1.4067384
35.00838989822934	1.9297243	1.3891451
35.02676809203499	2.0412476	1.4287224
35.04514721598624	1.9810688	1.4075044
35.063527270697215	1.7736377	1.3317798
35.081908256782256	1.8222326	1.349901
35.10029017485597	1.8159093	1.3475568
35.11867302553321	2.058073	1.4345986
35.137056809429104	2.1669755	1.4720651
35.155441527159006	1.9132746	1.3832117
35.173827179338524	1.8119622	1.3460915
35.19221376658354	1.8431561	1.3576288
35.21060128951017	1.993423	1.4118863
35.2289897487348	2.0860872	1.4443294
35.24737914487405	1.9548223	1.3981496
35.26576947854479	1.7211974	1.3119441
35.28416075036418	1.7827988	1.3352149
35.30255296094958	1.842947	1.3575518
35.32094611091867	1.7605586	1.3268604
35.33934020088932	1.7413493	1.319602
35.35773523147969	1.8195065	1.3488909
35.3761312033082	1.8071191	1.3442913
35.394528116993506	1.7728856	1.3314974
35.41292597315452	1.9211714	1.3860633
35.431324772410434	2.2418363	1.4972763
35.449724515380666	2.2399218	1.4966369
35.46812520268491	2.0308003	1.4250615
35.486526834943106	1.8491416	1.3598315
35.504929412775454	1.7584107	1.3260508
35.52333293680242	1.9089121	1.3816339
35.54173740764471	1.9281626	1.388583
35.560142825923286	2.2615356	1.5038403
35.5785491922594	2.1583307	1.4691259
35.59695650727454	1.0904447	1.0442436
35.61536477159042	0.6898081	0.83054686
