0.008763373481513119	0.0	0.0
0.026290120649546365	0.11242709	0.3353015
0.043816868432600686	0.121336736	0.34833422
0.06134361724069026	0.08375415	0.2894031
0.07887036748382949	0.11258863	0.3355423
0.0963971195720331	0.16215898	0.4026897
0.11392387391531617	0.13289753	0.36455113
0.1314506309236943	0.14009479	0.37429237
0.1489773910071836	0.08439037	0.29050022
0.16650415457580078	0.06979737	0.26419193
0.18403092203956356	0.050867748	0.22553879
0.20155769380849	0.08166058	0.28576317
0.2190844702925996	0.11702571	0.34209022
0.2366112519019124	0.16703059	0.40869376
0.2541380390464497	0.16931151	0.4114748
0.27166483213623416	0.13879238	0.3725485
0.28919163158128947	0.114672914	0.3386339
0.3067184377916406	0.13327889	0.36507383
0.324245251177314	0.19859578	0.44564086
0.34177207214833777	0.21287403	0.46138272
0.3592989011147415	0.20167352	0.44908077
0.37682573848655654	0.19154103	0.43765402
0.39435258467381573	0.16230291	0.40286836
0.41187944008655414	0.18711366	0.43256637
0.42940630513480854	0.18671907	0.43211
0.446933180228618	0.17687991	0.42057094
0.4644600657780234	0.1791221	0.4232282
0.48198696219306775	0.16828755	0.41022864
0.49951386988379676	0.1770385	0.42075944
0.5170407892602581	0.15651478	0.39561948
0.5345677207325025	0.18317828	0.42799333
0.5520946647105822	0.18989897	0.435774
0.5696216216045534	0.21395098	0.46254835
0.5871485918244737	0.20332648	0.45091736
0.6046755757804043	0.1871518	0.43261045
0.6222025738824094	0.20584159	0.45369768
0.6397295865405557	0.18364827	0.42854202
0.6572566141649129	0.21598487	0.4647417
0.6747836571655547	0.19364394	0.44004995
0.6923107159525568	0.1691425	0.41126937
0.7098377909359992	0.12935355	0.35965756
0.7273648825259653	0.08733884	0.29553145
0.7448919911325411	0.09428004	0.30705056
0.762419117165817	0.12885058	0.35895762
0.7799462610358868	0.16165462	0.40206295
0.7974734231528482	0.16829999	0.4102438
0.8150006039268024	0.1867877	0.43218943
0.8325278037678551	0.19876243	0.4458278
0.8500550230861152	0.21154013	0.45993492
0.8675822622916969	0.20466392	0.45239797
0.8851095217947171	0.23311806	0.482823
0.9026368020052984	0.23803684	0.48789018
0.9201641033335665	0.23848028	0.48834443
0.9376914261896523	0.23116162	0.4807927
0.9552187709836915	0.2577078	0.5076493
0.9727461381258234	0.27782643	0.52709246
0.990273528026193	0.24830332	0.49830043
1.0078009410949496	0.20778266	0.45583183
1.0253283777422473	0.20814115	0.4562249
1.0428558383782454	0.23199774	0.48166144
1.0603833234131086	0.27095604	0.5205344
1.0779108332570058	0.33561432	0.5793223
1.0954383683201119	0.34536147	0.5876746
1.112965929012607	0.3760896	0.61326146
1.1304935157446763	0.47003624	0.6855919
1.1480211289265108	0.5022954	0.708728
1.1655487689683062	1.3498604	1.161835
1.1830764362802655	1.6712238	1.2927582
1.200604131272596	2.0950227	1.4474193
1.2181318543555117	2.3308218	1.5267029
1.235659605939232	2.3313262	1.5268681
1.253187386433982	3.9134552	1.9782455
1.270715196249994	6.3740883	2.5246956
1.2882430357975057	11.728367	3.4246702
1.3057709054867608	16.308908	4.038429
1.3232988057280106	22.005392	4.6909904
1.3408267369315112	27.074125	5.2032804
1.358354699507526	31.000202	5.5677824
1.3758826938663256	35.515564	5.9594936
1.3934107204181858	37.0833	6.089606
1.410938779573391	37.45866	6.120348
1.4284668717422309	37.81655	6.149516
1.4459949973350033	37.48534	6.122527
1.4635231567620117	37.46987	6.121264
1.4810513504335687	36.758835	6.0629063
1.4985795787599925	35.835213	5.986252
1.5161078421516088	35.376278	5.947796
1.5336361410187505	34.41476	5.8664093
1.5511644757717598	33.990444	5.8301325
1.5686928468209842	34.489586	5.8727837
1.58622125457678	35.463795	5.9551487
1.6037496994495108	37.0148	6.083979
1.621278181849548	37.02404	6.0847383
1.6388067021872719	37.765408	6.1453567
1.6563352608730693	37.58904	6.13099
1.673863858317336	36.529392	6.043955
1.6913924949304753	35.534725	5.961101
1.7089211711228998	34.487183	5.872579
1.7264498873050296	33.779068	5.8119764
1.7439786438872935	32.90425	5.7362227
1.7615074412801288	31.8206	5.640975
1.779036279893981	31.127811	5.5792303
1.796565160139305	30.229055	5.4980955
1.814094082426564	30.01499	5.478594
1.8316230471662298	29.369831	5.419394
1.849152054768784	28.405949	5.3297234
1.8666811056447168	27.705334	5.2635856
1.8842102002045273	26.716076	5.16876
1.901739338858724	26.227186	5.1212487
1.9192685220178245	25.527174	5.0524426
1.9367977500923557	25.073874	5.007382
1.9543270234928547	24.287651	4.9282503
1.971856342629867	23.599266	4.857908
1.9893857079139496	22.945827	4.79018
2.006915119755667	22.625406	4.756617
2.0244445785655945	22.344257	4.726971
2.0419740847543175	22.078209	4.6987453
2.0595036387324317	21.627602	4.6505485
2.0770332409105414	21.010025	4.583669
2.094562891699263	20.492508	4.526865
2.1120925915092217	20.051754	4.4779186
2.129622340751053	19.59302	4.4264
2.1471521398354043	187.97906	13.710546
2.1646819891729323	444.41678	21.081196
2.182211889174303	440.61072	20.990728
2.1997418402501974	452.9078	21.281631
2.2172718428113023	432.50278	20.796701
2.234801897268317	320.36923	17.89886
2.2523320040319548	16.91625	4.112937
2.269862163512935	16.666544	4.082468
2.287392376121992	16.384394	4.047764
2.304922642269869	16.281826	4.0350747
2.322452962367322	16.078205	4.0097637
2.3399833368251164	15.838152	3.9797175
2.357513766054032	15.450411	3.930701
2.3750442504648586	15.005477	3.8736904
2.3925747904683963	14.713187	3.8357773
2.410105386475459	14.575583	3.8177981
2.4276360388968707	14.330361	3.7855463
2.445166748143469	14.214575	3.7702222
2.4626975146261025	13.77129	3.710969
2.4802283387556323	13.289475	3.6454732
2.4977592209429305	12.957732	3.599685
2.5152901615988825	12.782562	3.575271
2.5328211611343865	12.864279	3.5866807
2.5503522199603523	12.761919	3.572383
2.5678833384877024	12.544487	3.5418198
2.5854145171273712	12.260275	3.5014675
2.6029457562903064	11.902667	3.4500241
2.620477056387469	11.66061	3.4147635
2.6380084178298326	11.4837885	3.388774
2.655539841028383	11.420616	3.3794403
2.673071326394119	11.315909	3.3639128
2.6906028743380523	11.039207	3.3225303
2.708134485271211	10.68408	3.268651
2.7256661596046325	10.486929	3.2383528
2.743197897749369	10.3956375	3.2242267
2.760729700116486	10.429673	3.2295005
2.778261567117063	10.279795	3.2062118
2.795793499162193	10.119486	3.181114
2.8133254966629817	9.957429	3.1555395
2.830857560030551	10.018218	3.1651568
2.8483896896760337	9.925621	3.1504953
2.865921886010578	9.74766	3.1221242
2.883454149445347	9.469853	3.0773127
2.9009864803915177	9.307044	3.0507448
2.91851887926028	9.208153	3.034494
2.9360513464628384	9.260134	3.0430467
2.953583882410413	9.050344	3.008379
2.9711164875142373	8.867144	2.9777749
2.9886491621855606	8.694777	2.9486907
3.0061819068356455	8.595676	2.9318385
3.023714721875769	8.626879	2.9371548
3.041247607717225	8.61017	2.9343092
3.0587805647713213	8.508809	2.9169862
3.0763135934493806	8.360333	2.8914242
3.0938466941627407	8.094349	2.845057
3.1113798673227544	7.9926643	2.82713
3.1289131133407904	7.816355	2.7957745
3.1464464326282315	7.795376	2.79202
3.1639798255964786	7.7967334	2.792263
3.1815132926569443	7.6702595	2.7695234
3.1990468342210603	7.5209885	2.7424421
3.216580450700272	7.3752646	2.7157438
3.2341141425060416	7.3450437	2.710174
3.251647910049847	7.225164	2.6879666
3.2691817537431813	7.0868425	2.6621125
3.286715673997555	6.9905095	2.6439571
3.3042496712244938	6.975307	2.6410806
3.32178374583554	6.8705683	2.621177
3.339317898242251	6.9062624	2.627977
3.3568521288562034	6.867898	2.6206675
3.3743864380889876	6.9419966	2.6347668
3.3919208263522127	6.871231	2.6213033
3.4094552940575023	6.7705	2.6020186
3.4269898416164972	6.6933503	2.587151
3.444524469440858	6.5502696	2.5593495
3.4620591779422587	6.4920607	2.5479522
3.479593967532391	6.3079495	2.511563
3.4971288386229658	6.2356153	2.4971213
3.5146637916257086	6.2500987	2.5000198
3.5321988269523628	6.3015513	2.5102892
3.5497339450146903	6.3204217	2.514045
3.5672691462244708	6.284482	2.506887
3.5848044309934988	6.2742195	2.5048392
3.60233979973359	6.2176137	2.4935143
3.619875252856575	6.2904487	2.5080767
3.6374107907743034	6.284133	2.5068173
3.6549464138986427	6.2562895	2.5012577
3.6724821226414788	6.17917	2.4857936
3.690017917414714	6.2669063	2.5033789
3.7075537986302702	6.330474	2.5160432
3.7250897667000857	6.439864	2.5376887
3.7426258220361235	6.6137385	2.571719
3.7601619650503553	6.904068	2.6275594
3.777698196154779	7.4601216	2.7313223
3.7952345157614067	8.574483	2.9282217
3.8127709242822716	9.413934	3.0682135
3.830307422129425	11.594309	3.4050417
3.847844009714936	30.242132	5.4992847
3.8653806874508954	97.6249	9.880531
3.882917455749409	96.871124	9.842313
3.900454315022606	96.7171	9.834485
3.917991265682631	41.241817	6.4219794
3.9355283081416506	10.87351	3.2975006
3.9530654428118495	8.703321	2.9501393
3.970602670105433	7.4458146	2.728702
3.9881399904346244	6.5945964	2.5679946
4.005677404211669	6.498596	2.5492344
4.023214911848827	6.488427	2.547239
4.0407525137583855	6.5549245	2.5602586
4.058290210352644	6.565065	2.5622382
4.075828002043927	6.4366	2.5370455
4.0933658892445814	6.245038	2.4990075
4.110903872366966	6.1022797	2.4702792
4.128441951823468	6.0667543	2.4630783
4.145980128026488	6.081906	2.466152
4.163518401388452	6.1258802	2.4750516
4.181056772321807	6.0716276	2.4640672
4.1985952412390155	6.1023197	2.4702873
4.216133808552567	6.2053666	2.4910574
4.233672474674966	6.212247	2.4924378
4.251211240018741	6.3835626	2.5265713
4.268750104996445	6.5025673	2.5500133
4.286289070020643	7.341114	2.709449
4.303828135503928	9.078468	3.0130496
4.3213673018589125	29.510376	5.4323454
4.3389065694982305	90.78258	9.527989
4.356445938834537	166.21208	12.892326
4.3739854102805085	171.32292	13.089038
4.391524984248844	172.06163	13.117227
4.409064661152262	136.07008	11.664908
4.426604441403504	96.360695	9.816348
4.444144325415337	75.71579	8.701482
4.461684313600543	21.812262	4.67036
4.47922440637193	22.466822	4.7399178
4.496764604142329	20.748423	4.5550437
4.5143049073245916	18.826042	4.3388987
4.531845316331589	16.57333	4.0710354
4.5493858315762195	13.555436	3.6817708
4.566926453471405	11.310472	3.3631043
4.584467182430081	9.252568	3.0418034
4.602008018865218	8.120163	2.84959
4.619548963189798	7.3444695	2.7100682
4.637090015816834	6.814482	2.6104562
4.654631177159353	6.5922246	2.5675328
4.672172447630417	6.3828893	2.526438
4.689713827643102	6.2556376	2.5011272
4.7072553176105085	6.0652914	2.4627812
4.724796917945764	5.951004	2.439468
4.742338629062015	5.8674293	2.4222777
4.759880451372434	5.8384852	2.4162958
4.777422385290215	5.8131895	2.4110556
4.794964431228581	5.7986326	2.408035
4.812506589600768	5.746503	2.3971865
4.830048860820047	5.659768	2.3790267
4.847591245299709	5.5914497	2.3646247
4.8651337434530655	5.5593505	2.3578274
4.882676355693457	5.4990506	2.3450055
4.900219082434242	5.510724	2.3474932
4.917761924088813	5.515565	2.348524
4.935304881070575	5.5136943	2.3481257
4.952847953792969	5.5525136	2.3563771
4.970391142669449	5.5170403	2.348838
4.9879344481135055	5.570803	2.360255
5.005477870538642	5.5006495	2.3453465
5.023021410358394	5.473126	2.3394713
5.040565067986324	5.4760804	2.3401027
5.05810884383601	5.415987	2.3272274
5.075652738321066	5.4357915	2.3314784
5.09319675185512	5.3788943	2.3192444
5.110740884851836	5.378211	2.319097
5.128285137724894	5.3149605	2.30542
5.145829510888007	5.311449	2.3046582
5.163374004754908	5.3036833	2.3029728
5.1809186197393595	5.3521247	2.3134658
5.198463356255145	5.407434	2.325389
5.216008214716077	5.4298563	2.3302052
5.233553195535998	5.450865	2.3347087
5.251098299128764	5.3659625	2.3164546
5.268643525908272	5.3053684	2.3033385
5.286188876288432	5.203989	2.2812254
5.3037343506831895	5.2535686	2.2920666
5.32127994950651	5.215511	2.2837493
5.3388256731723915	5.2328515	2.2875426
5.356371522094851	5.1892333	2.277989
5.373917496687938	5.234891	2.2879884
5.391463597365729	5.2453575	2.2902746
5.40900982454232	5.214642	2.283559
5.426556178631843	5.2033634	2.281088
5.444102660048449	5.2171917	2.2841172
5.4616492692063225	5.252524	2.2918386
5.479196006519669	5.2121725	2.2830184
5.496742872402727	5.1781425	2.2755532
5.514289867269756	5.1478586	2.2688892
5.531836991535049	5.1998687	2.280322
5.549384245612924	5.189275	2.277998
5.566931629917724	5.130786	2.2651238
5.584479144863822	5.04258	2.245569
5.6020267908656205	4.996927	2.2353806
5.619574568337545	5.0193295	2.240386
5.637122477694054	5.107043	2.2598767
5.654670519349629	5.147335	2.2687738
5.672218693718784	5.1291857	2.2647705
5.689767001216059	5.1030626	2.258996
5.707315442256021	4.9977975	2.2355754
5.724864017253266	5.023523	2.2413216
5.7424127266224225	5.0692215	2.2514932
5.75996157077814	5.069831	2.2516284
5.777510550135105	5.0826626	2.254476
5.795059665108022	4.992678	2.23443
5.812608916111639	5.040743	2.2451599
5.830158303560715	5.107072	2.2598832
5.847707827870055	5.1918035	2.278553
5.86525748945448	5.3272147	2.308076
5.8828072887288485	5.4629607	2.3372977
5.900357226108044	5.531077	2.3518243
5.917907302006979	5.581354	2.362489
5.9354575168406	6.2702894	2.5040545
5.9530078710238765	6.9999413	2.6457403
5.970558364971812	7.5930753	2.7555535
5.988108999099438	7.8132915	2.7952266
6.005659773821818	8.249456	2.8721867
6.023210689554039	7.95216	2.8199575
6.040761746711227	8.51382	2.917845
6.058312945708531	7.9748154	2.8239715
6.075864286961132	7.5414357	2.7461674
6.093415770884244	6.792569	2.6062558
6.1109673978931065	6.1991158	2.4898024
6.128519168402993	5.5127144	2.347917
6.146071082829204	5.376829	2.318799
6.163623141587075	5.2769275	2.2971563
6.181175345091969	5.2174964	2.284184
6.198727693759281	5.1126595	2.2611191
6.216280188004435	5.0744653	2.2526574
6.233832828242885	5.0315714	2.2431164
6.251385614890126	5.0783157	2.253512
6.268938548361669	5.0568757	2.2487497
6.286491629073067	5.0067315	2.2375727
6.304044857439898	4.99144	2.234153
6.321598233877777	5.030181	2.2428064
6.339151758802344	5.0835867	2.254681
6.356705432629277	5.090465	2.2562058
6.37425925577428	5.1321626	2.2654276
6.391813228653095	5.1161942	2.2619007
6.409367351681486	5.076312	2.2530673
6.426921625275259	5.0133204	2.2390444
6.44447604985025	4.988523	2.2335002
6.46203062582232	4.95112	2.2251112
6.47958535360737	4.954513	2.2258735
6.497140233621328	4.954589	2.2258906
6.514695266280161	5.0157747	2.2395926
6.532250451999859	5.030807	2.2429461
6.549805791196454	5.069684	2.251596
6.567361284286002	5.078544	2.2535625
6.584916931684597	5.0890193	2.2558854
6.602472733808367	5.093948	2.2569776
6.6200286910734665	4.9884157	2.2334762
6.637584803896092	4.951579	2.2252145
6.655141072692462	4.915198	2.2170246
6.672697497878842	4.9123154	2.2163744
6.690254079871514	4.9319925	2.220809
6.707810819086808	4.9568257	2.226393
6.725367715941078	4.967996	2.2289002
6.742924770850719	4.954948	2.2259712
6.760481984232151	4.967236	2.2287297
6.778039356501836	4.931695	2.220742
6.795596888076266	4.9436274	2.223427
6.813154579371963	4.9464493	2.2240615
6.830712430805492	4.975094	2.2304919
6.84827044279344	4.9936895	2.2346566
6.865828615752445	5.027207	2.2421434
6.883386950099159	5.0439878	2.2458825
6.900945446250287	5.0138617	2.2391653
6.918504104622553	5.0510454	2.2474532
6.936062925632727	5.0375323	2.2444448
6.953621909697607	5.03033	2.2428398
6.971181057234028	5.007732	2.2377963
6.988740368658859	4.999676	2.2359955
7.006299844389007	5.079779	2.2538366
7.023859484841407	5.156329	2.2707553
7.041419290433036	5.331549	2.3090148
7.058979261580902	5.4846435	2.3419316
7.0765393987020495	5.6626525	2.379633
7.094099702213559	5.9528446	2.439845
7.111660172532549	6.3194532	2.5138524
7.129220810076164	6.6348615	2.5758226
7.146781615261595	7.1473155	2.6734464
7.16434258850606	7.327299	2.7068985
7.181903730226821	7.677717	2.7708695
7.1994650408411704	7.8532987	2.8023736
7.217026520766437	8.034809	2.834574
7.234588170419983	8.339855	2.8878808
7.252149990219215	8.282765	2.8779793
7.269711980581568	8.17965	2.8600087
7.2872741419245175	8.067747	2.840378
7.304836474665574	7.7508936	2.7840426
7.322398979222286	7.477861	2.7345679
7.339961656012233	7.2351446	2.6898224
7.357524505453039	6.8698616	2.621042
7.375087527962357	6.5464373	2.5586007
7.392650723957886	6.2230353	2.4946012
7.410214093857353	5.8650537	2.4217873
7.427777638078528	5.6818914	2.3836718
7.445341357039213	5.463008	2.337308
7.4629052511572525	5.3086047	2.304041
7.480469320850524	5.213368	2.2832801
7.498033566536948	5.227853	2.28645
7.5155979886344735	5.190005	2.2781582
7.5331625875610975	5.1774397	2.2753987
7.550727363734844	5.146304	2.2685466
7.568292317573788	5.1350727	2.26607
7.585857449496025	5.137962	2.2667072
7.603422759919705	5.174906	2.274842
7.620988249263007	5.2553663	2.2924585
7.638553917944147	5.305292	2.303322
7.656119766381391	5.2964435	2.3014004
7.673685794993023	5.245699	2.290349
7.691252004197388	5.220884	2.2849255
7.70881839441285	5.165671	2.2728112
7.726384966057826	5.199381	2.280215
7.743951719550762	5.1868024	2.2774553
7.761518655310149	5.208049	2.282115
7.779085773754511	5.229745	2.2868636
7.796653075302419	5.225283	2.2858877
7.814220560372475	5.2254257	2.285919
7.831788229383323	5.178231	2.2755725
7.8493560827536495	5.1611266	2.2718112
7.866924120902174	5.2205086	2.2848432
7.884492344247663	5.305823	2.3034372
7.9020607532089135	5.3494315	2.3128839
7.919629348204771	5.3933167	2.3223515
7.937198129654115	5.389479	2.321525
7.954767097975865	5.336567	2.310101
7.972336253588986	5.258125	2.29306
7.989905596912472	5.2371945	2.2884917
8.007475128365371	5.2709875	2.2958632
8.025044848366756	5.31604	2.3056538
8.042614757335754	5.4372363	2.3317883
8.060184855691523	5.507221	2.346747
8.07775514385327	5.6470413	2.3763504
8.095325622240228	5.6546817	2.3779573
8.112896291271687	5.694585	2.386333
8.130467151366968	5.7311044	2.3939724
8.148038202945436	5.8411355	2.4168441
8.165609446426497	5.8702173	2.4228532
8.183180882229594	5.916795	2.4324462
8.200752510774217	5.926304	2.4344
8.218324332479893	5.9445686	2.4381485
8.235896347766193	5.979388	2.445279
8.253468557052724	6.008671	2.4512591
8.27104096075914	6.019687	2.453505
8.288613559305137	6.069332	2.4636014
8.306186353110448	6.170975	2.4841447
8.32375934259485	6.207763	2.4915383
8.341332528178162	6.2198324	2.4939592
8.358905910280246	6.2066774	2.4913204
8.376479489321003	6.1984363	2.489666
8.394053265720377	6.2193666	2.4938657
8.411627239898356	6.258352	2.50167
8.42920141227497	6.209071	2.4918008
8.44677578327029	6.2083755	2.491661
8.464350353304427	6.1735053	2.484654
8.48192512279754	6.148077	2.4795315
8.499500092169827	6.1046014	2.4707491
8.51707526184153	6.0422845	2.4581058
8.534650632232934	6.080561	2.4658794
8.552226203764365	6.155278	2.4809833
8.569801976856192	6.2229524	2.4945846
8.587377951928834	6.263695	2.5027375
8.60495412940274	6.2264833	2.4952922
8.622530509698416	6.2503314	2.5000663
8.6401070932364	6.3189483	2.5137517
8.657683880437283	6.4406157	2.5378368
8.675260871721695	6.6016893	2.5693753
8.692838067510303	6.8257422	2.6126122
8.710415468223834	6.9751954	2.6410596
8.727993074283043	7.096396	2.663906
8.745570886108737	6.9992933	2.6456177
8.763148904121765	7.0026407	2.6462502
8.78072712874302	7.1244287	2.6691625
8.798305560393441	7.4172955	2.7234712
8.815884199494006	7.590906	2.7551599
8.833463046465745	7.7508206	2.7840295
8.851042101729728	7.8221307	2.7968073
8.86862136570707	8.079758	2.8424914
8.886200838818924	8.187273	2.8613412
8.903780521486505	8.305095	2.8818562
8.921360414131055	8.450878	2.9070394
8.938940517173874	8.562632	2.9261975
8.956520831036297	8.6990185	2.94941
8.97410135613971	8.9432745	2.9905307
8.99168209290554	9.104139	3.0173066
9.009263041755265	9.351503	3.0580227
9.026844203110405	9.634233	3.1039062
9.044425577392525	9.915521	3.148892
9.062007165023239	10.03396	3.1676426
9.079588966424197	10.265825	3.2040327
9.097170982017108	10.307852	3.2105844
9.11475321222372	11.401198	3.3765662
9.132335657465825	12.3537245	3.5147865
9.149918318165264	12.542899	3.5415955
9.167501194743924	13.309518	3.6482213
9.18508428762374	12.970265	3.6014254
9.202667597226693	12.860596	3.5861673
9.220251123974803	12.396958	3.5209315
9.237834868290143	12.0046625	3.4647746
9.255418830594836	11.808513	3.4363515
9.273003011311046	11.238374	3.3523684
9.290587410860985	11.042043	3.322957
9.308172029666911	10.446736	3.2321413
9.32575686815113	10.135422	3.1836178
9.343341926735997	8.846429	2.9742947
9.360927205843916	8.679439	2.9460888
9.378512705897327	8.509531	2.91711
9.396098427318728	8.211786	2.8656213
9.413684370530664	8.032995	2.834254
9.431270535955722	7.895118	2.8098254
9.448856924016539	7.8084826	2.7943661
9.466443535135806	7.7089047	2.7764914
9.484030369736251	7.665526	2.7686687
9.501617428240658	7.685104	2.772202
9.519204711071852	7.6992483	2.774752
9.536792218652714	7.754266	2.7846482
9.55437995140617	7.8098607	2.794613
9.571967909755191	7.809998	2.7946374
9.589556094122802	7.8071656	2.7941306
9.60714450493207	7.8412647	2.8002257
9.624733142606116	7.8793197	2.8070126
9.642322007568108	7.8810053	2.8073127
9.659911100241267	7.8962336	2.8100238
9.677500421048851	7.9359856	2.8170881
9.695089970414175	7.9493546	2.81946
9.712679748760609	7.939002	2.8176234
9.730269756511557	7.924426	2.8150358
9.747859994090492	8.031634	2.834014
9.765450461920915	8.131883	2.8516457
9.78304116042639	8.253921	2.8729637
9.800632090030527	8.279458	2.8774047
9.81822325115699	8.247584	2.8718607
9.835814644229481	8.19613	2.8628883
9.853406269671762	8.188434	2.861544
9.870998127907646	8.249236	2.8721483
9.888590219360985	8.318997	2.8842673
9.906182544455698	8.308958	2.8825264
9.923775103615734	8.299266	2.8808446
9.941367897265108	8.223518	2.8676677
9.958960925827878	8.253932	2.8729658
9.97655418972816	8.2343855	2.869562
9.994147689390106	8.269865	2.8757372
10.011741425237934	8.245216	2.8714485
10.029335397695904	8.224163	2.8677802
10.04692960718833	8.218248	2.8667488
10.06452405413958	8.261117	2.8742158
10.082118738974064	8.2596	2.873952
10.099713662116246	8.292134	2.8796067
10.117308823990651	8.303013	2.881495
10.134904225021844	8.241927	2.8708756
10.152499865634445	8.116863	2.849011
10.170095746253125	8.058218	2.8387
10.18769186730261	7.956882	2.8207946
10.205288229207675	8.001139	2.8286283
10.222884832393145	8.051727	2.8375566
10.2404816772839	8.106565	2.847203
10.258078764304868	8.105054	2.8469377
10.275676093881035	8.066511	2.8401604
10.293273666437438	8.082441	2.8429635
10.310871482399158	8.161721	2.8568726
10.32846954219134	8.234704	2.8696175
10.346067846239173	8.23076	2.86893
10.363666394967908	8.207037	2.8647926
10.38126518880283	8.176694	2.8594918
10.398864228169298	8.267115	2.8752592
10.416463513492713	8.278249	2.8771946
10.434063045198531	8.226238	2.868142
10.451662823712262	8.229214	2.8686607
10.469262849459467	8.265105	2.8749096
10.486863122865758	8.194403	2.8625867
10.504463644356806	8.149225	2.8546848
10.522064414358338	8.030594	2.8338304
10.539665433296118	7.903522	2.8113203
10.557266701595987	7.706756	2.7761045
10.574868219683818	7.6306543	2.762364
10.592469987985552	7.5718775	2.7517045
10.610072006927185	7.6284347	2.7619622
10.627674276934751	7.579576	2.753103
10.64527679843435	7.4029446	2.7208352
10.662879571852143	7.2472525	2.6920722
10.680482597614331	7.1541886	2.6747315
10.698085876147173	7.097723	2.6641552
10.715689407876988	7.018606	2.6492653
10.733293193230146	6.906476	2.6280174
10.750897232633072	6.7955317	2.6068242
10.76850152651225	6.725166	2.5932925
10.786106075294207	6.60437	2.569897
10.803710879405534	6.4765644	2.5449095
10.821315939272877	6.37874	2.5256166
10.83892125532294	6.3235354	2.5146642
10.856526827982472	6.250729	2.500146
10.874132657678285	6.269388	2.5038745
10.891738744837243	6.2965155	2.509286
10.909345089886271	6.1833954	2.4866433
10.926951693252343	6.062561	2.4622269
10.944558555362494	6.0240846	2.454401
10.96216567664381	5.9441648	2.4380658
10.979773057523436	5.9299417	2.435147
10.997380698428573	5.8654375	2.4218664
11.014988599786477	5.7946105	2.4071996
11.032596762024461	5.7582426	2.399634
11.050205185569892	5.758419	2.3996706
11.067813870850198	5.6956553	2.386557
11.085422818292859	5.657224	2.3784919
11.10303202832541	5.492721	2.3436556
11.120641501375454	5.414277	2.32686
11.138251237870636	5.3128004	2.3049512
11.155861238238671	5.2925696	2.3005586
11.173471502907317	5.247446	2.2907305
11.191082032304402	5.2037935	2.2811825
11.208692826857805	5.1324434	2.2654896
11.226303886995465	5.0351534	2.2439148
11.243915213145371	4.9464817	2.2240686
11.261526805735578	4.8849263	2.210187
11.279138665194196	4.849689	2.202201
11.296750791949393	4.833032	2.1984158
11.314363186429393	4.83721	2.1993659
11.331975849062479	4.7985377	2.1905565
11.34958878027699	4.738189	2.1767383
11.36720198050133	4.6477265	2.1558588
11.384815450163948	4.551192	2.1333523
11.402429189693366	4.505143	2.1225324
11.420043199518153	4.452922	2.1101947
11.437657480066942	63.40327	7.962617
11.455272031768422	85.16524	9.228501
11.472886855051353	107.55358	10.370804
11.490501950344528	99.15612	9.957717
11.508117318076819	84.46497	9.190483
11.52573295867715	45.838432	6.7704086
11.543348872574514	4.166407	2.041178
11.560965060197946	4.155944	2.0386133
11.57858152197655	4.1333075	2.0330536
11.59619825833949	4.0741134	2.0184433
11.613815269715985	3.944967	1.9861941
11.631432556535323	38.441654	6.2001333
11.649050119226837	82.96045	9.108263
11.666667958219929	93.40045	9.664391
11.68428607394406	107.63965	10.374953
11.701904466828756	82.46897	9.081243
11.719523137303586	65.32712	8.08252
11.737142085798196	4.5836463	2.1409452
11.754761312742286	3.7009327	1.9237808
11.772380818565619	3.6639533	1.9141456
11.790000603698015	3.6265514	1.9043506
11.80762066856935	3.591245	1.895058
11.825241013609572	3.5527604	1.8848767
11.842861639248683	3.5486841	1.8837951
11.860482545916748	3.527311	1.8781137
11.878103734043883	3.508475	1.8730924
11.895725204060282	3.4289365	1.8517388
11.91334695639619	3.3686616	1.8353914
11.930968991481919	3.3008425	1.816822
11.948591309747824	3.2943518	1.815035
11.966213911624347	3.2712538	1.8086607
11.98383679754198	3.3077426	1.8187201
12.001459967931268	3.2853289	1.8125476
12.019083423222835	3.2972987	1.8158466
12.036707163847352	3.2640867	1.8066784
12.05433119023556	3.2505744	1.8029349
12.071955502818259	3.1720622	1.7810284
12.089580102026313	3.1276333	1.7685117
12.107204988290643	3.105175	1.7621506
12.12483016204224	3.1249428	1.7677507
12.142455623712152	3.1110015	1.7638031
12.16008137373149	3.1359746	1.7708683
12.177707412531431	3.1089623	1.763225
12.19533374054321	3.0807831	1.755216
12.212960358198126	3.037234	1.7427663
12.230587265927545	3.0363305	1.742507
12.248214464162889	3.024272	1.7390434
12.265841953335649	3.032001	1.7412642
12.283469733877375	2.9984534	1.7316043
12.301097806219685	2.960212	1.7205267
12.31872617079425	2.9386055	1.7142361
12.336354828032825	2.9410434	1.7149471
12.353983778367205	2.9524608	1.7182726
12.371613022229262	2.947827	1.7169237
12.389242560050928	2.9618106	1.7209911
12.406872392264201	2.9367962	1.7137083
12.424502519301143	2.9073982	1.7051095
12.442132941593874	2.852857	1.6890403
12.459763659574586	2.819572	1.6791581
12.477394673675532	2.7972722	1.6725048
12.49502598432903	2.7983444	1.6728252
12.51265759196746	2.7776902	1.6666404
12.530289497023267	2.777435	1.6665639
12.547921699928967	2.773514	1.665387
12.565554201117134	2.7939386	1.6715078
12.583187001020404	2.778174	1.6667855
12.600820100071486	2.7635486	1.6623924
12.618453498703152	2.7906497	1.6705238
12.636087197348235	2.8369467	1.6843238
12.65372119643964	2.8463383	1.6871095
12.671355496410326	2.8034103	1.6743388
12.68899009769333	2.8016176	1.6738033
12.706625000721749	2.8415146	1.6856793
12.724260205928752	2.9410806	1.7149578
12.741895713747551	2.9712458	1.7237302
12.759531524611454	2.9838676	1.7273875
12.777167638953818	2.9593112	1.7202649
12.794804057208072	2.9675214	1.7226496
12.812440779807702	3.0194592	1.7376591
12.830077807186271	3.2214622	1.7948432
12.847715139777405	3.2638946	1.8066251
12.865352778014795	3.4967618	1.869963
12.882990722332197	3.610686	1.9001806
12.90062897316344	3.6678066	1.9151518
12.918267530942412	3.7069862	1.9253535
12.935906396103071	3.5868955	1.89391
12.953545569079449	3.7680492	1.9411464
12.971185050305628	3.5693455	1.8892711
12.988824840215775	3.5792468	1.8918897
13.006464939244115	3.5946496	1.8959562
13.024105347824943	3.4713495	1.8631558
13.041746066392617	3.5604918	1.8869265
13.05938709538157	3.3186674	1.821721
13.077028435226296	3.3232465	1.8229774
13.094670086361363	3.2251647	1.7958744
13.112312049221401	3.1584032	1.7771897
13.129954324241112	3.0916266	1.7583022
13.147596911855258	2.9106479	1.7060621
13.165239812498685	2.8783748	1.6965774
13.182883026606293	2.8125837	1.677076
13.200526554613058	2.741945	1.655882
13.218170396954017	2.6890655	1.639837
13.235814554064284	2.6518633	1.6284543
13.253459026379034	2.65651	1.6298804
13.271103814333523	2.65093	1.6281676
13.288748918363058	2.6492639	1.627656
13.306394338903031	2.6313272	1.6221366
13.32404007638889	2.636376	1.623692
13.341686131256164	2.6743357	1.6353396
13.359332503940449	2.6343064	1.6230546
13.376979194877402	2.6288655	1.6213777
13.394626204502751	2.6776297	1.6363465
13.412273533252307	2.7635503	1.662393
13.429921181561937	2.7733805	1.665347
13.447569149867581	2.7391386	1.6550343
13.465217438605247	2.6863601	1.639012
13.482866048211022	2.639571	1.6246756
13.500514979121052	2.6273196	1.6209009
13.518164231771568	2.609943	1.6155318
13.535813806598844	2.5896769	1.6092473
13.553463704039254	2.6302423	1.6218022
13.571113924529229	2.6324859	1.6224937
13.588764468505275	2.664988	1.6324791
13.606415336403956	2.7115407	1.6466757
13.624066528661917	2.7339883	1.6534777
13.641718045715882	2.7602224	1.6613917
13.659369888002635	2.8049958	1.6748122
13.67702205595903	2.8727791	1.6949275
13.694674550021993	2.9950714	1.7306274
13.712327370628532	3.0960047	1.7595468
13.729980518215713	3.1250722	1.7677873
13.747633993220681	3.1739278	1.7815521
13.765287796080647	3.2119224	1.7921838
13.7829419272329	3.309348	1.8191614
13.800596387114801	3.331087	1.8251266
13.818251176163775	3.3282776	1.8243568
13.835906294817324	3.3144753	1.82057
13.853561743513023	3.377296	1.8377421
13.871217522688525	3.4219592	1.8498539
13.888873632781538	3.4609153	1.8603536
13.906530074229858	3.4759765	1.864397
13.92418684747135	3.5012531	1.8711636
13.941843952943948	3.4887226	1.8678123
13.959501391085665	3.4915202	1.868561
13.977159162334578	3.4446485	1.8559765
13.994817267128846	3.3951428	1.8425913
14.012475705906693	3.2841258	1.8122157
14.030134479106424	3.1897962	1.786
14.047793587166414	3.165671	1.7792333
14.065453030525108	3.1124923	1.7642257
14.083112809621026	3.026168	1.7395885
14.100772924892766	2.9152048	1.7073971
14.118433376778997	2.8477433	1.6875257
14.136094165718458	2.7882326	1.6698002
14.153755292149969	2.7698486	1.6642863
14.171416756512416	2.7188137	1.6488825
14.189078559244768	2.6373336	1.623987
14.20674070078606	2.5659802	1.6018677
14.224403181575408	2.5141082	1.5855939
14.242066002051999	2.50825	1.5837456
14.259729162655093	2.4737077	1.5728025
14.277392663824022	2.4445455	1.5635042
14.295056505998208	2.4214575	1.5561033
14.312720689617128	2.43136	1.559282
14.330385215120348	2.4476423	1.5644943
14.348050082947497	2.4136252	1.5535847
14.3657152935383	2.391122	1.5463253
14.383380847332528	2.3633075	1.5373052
14.401046744770051	2.3447452	1.5312561
14.418712986290798	2.3144324	1.5213258
14.436379572334793	2.3214927	1.5236446
14.454046503342123	2.347168	1.532047
14.471713779752946	2.3805072	1.5428892
14.489381402007504	2.4029338	1.5501399
14.507049370546113	2.399599	1.5490639
14.524717685809168	2.4045606	1.5506645
14.542386348237134	2.401515	1.5496823
14.560055358270553	2.3718736	1.5400889
14.577724716350051	2.3872905	1.5450859
14.595394422916325	2.3901114	1.5459986
14.61306447841015	2.449251	1.5650083
14.63073488327237	2.4483008	1.5647047
14.648405637943917	2.506421	1.583168
14.6660767428658	2.4648068	1.5699704
14.683748198479094	2.4476955	1.5645113
14.701420005224954	2.4699895	1.57162
14.719092163544628	2.5423892	1.5944871
14.73676467387942	2.5860276	1.608113
14.754437536670727	2.6118221	1.6161133
14.772110752360014	2.6367154	1.6237966
14.78978432138882	2.64325	1.6258075
14.807458244198777	2.6603153	1.6310472
14.82513252123159	2.6417818	1.625356
14.842807152929028	2.683764	1.6382197
14.860482139732962	2.6600437	1.630964
14.87815748208531	2.62587	1.6204536
14.8958331804281	2.639952	1.6247929
14.91350923520342	2.6252217	1.6202536
14.931185646853438	2.6647758	1.6324141
14.948862415820408	2.6714694	1.6344631
14.966539542546656	2.6921773	1.6407856
14.98421702747459	2.651661	1.6283921
15.001894871046696	2.5861957	1.6081653
15.019573073705542	2.5786486	1.6058171
15.037251635893766	2.5971336	1.6115625
15.054930558054092	2.6806593	1.6372719
15.072609840629323	2.763668	1.6624284
15.090289484062351	2.9236312	1.709863
15.107969488796124	3.1768966	1.7823851
15.125649855273691	3.5846632	1.8933207
15.14333058393817	4.030684	2.0076563
15.161011675232768	4.950054	2.2248716
15.17869312960076	6.1968184	2.489341
15.196374947485506	8.014568	2.8310013
15.214057129330447	11.023416	3.320153
15.231739675579114	15.7208	3.9649465
15.249422586675102	20.920706	4.573916
15.267105863062092	24.277927	4.9272637
15.284789505183847	24.918156	4.991809
15.302473513484218	23.121115	4.808442
15.320157888407127	19.66589	4.434624
15.337842630396578	15.37335	3.9208865
15.355527739896656	11.934865	3.4546874
15.37321321735153	9.195059	3.0323355
15.39089906320545	6.6352186	2.5758917
15.408585277902748	4.9507265	2.2250228
15.42627186188783	3.8447075	1.9607925
15.443958815605198	3.2459526	1.8016528
15.461646139499424	2.9159007	1.7076008
15.479333834015168	2.7585783	1.6608968
15.497021899597165	2.7000237	1.6431749
15.514710336690234	2.6810641	1.6373955
15.53239914573928	2.5949745	1.6108924
15.550088327189297	2.5764844	1.6051431
15.567777881485336	2.5481675	1.5962981
15.58546780907256	2.5502322	1.5969447
15.6031581103962	2.5231419	1.5884401
15.620848785901568	2.489256	1.5777376
15.638539836034063	2.455756	1.5670851
15.656231261239173	2.4844258	1.5762061
15.673923061962451	2.4619048	1.5690458
15.691615238649552	2.4468684	1.5642469
15.709307791746202	2.4200773	1.5556598
15.727000721698221	2.4254138	1.557374
15.744694028951498	2.4162626	1.5544332
15.76238771395202	2.4104364	1.5525581
15.780081777145844	2.4079535	1.5517582
15.797776218979125	2.4071918	1.5515127
15.815471039898094	2.405739	1.5510445
15.833166240349064	2.396675	1.5481199
15.850861820778437	2.3751216	1.541143
15.868557781632699	2.338467	1.5292046
15.886254123358412	2.3370728	1.5287488
15.903950846402232	2.3539236	1.5342501
15.921647951210897	2.3629289	1.5371821
15.939345438231225	2.3572183	1.5353235
15.957043307910133	2.380312	1.5428259
15.974741560694602	2.3820055	1.5433747
15.992440197031714	2.391063	1.5463063
16.01013921736862	2.3811948	1.543112
16.02783862215259	2.385816	1.5446087
16.045538411830933	2.3586662	1.535795
16.06323858685107	2.3442497	1.5310943
16.080939147660512	2.369582	1.5393447
16.09864009470684	2.3648527	1.5378077
16.11634142843774	2.367794	1.5387638
16.134043149300954	2.3610346	1.5365659
16.15174525774433	2.387159	1.5450433
16.169447754215817	2.398639	1.548754
16.18715063916342	2.4125805	1.5532484
16.204853913035244	2.3841805	1.5440792
16.222557576279478	2.390639	1.5461692
16.240261629344403	22.386494	4.7314367
16.257966072678386	42.95352	6.5538936
16.275670906729868	38.086945	6.171462
16.293376131947387	2.5308468	1.5908636
16.31108174877957	2.55505	1.5984523
16.328787757675133	2.5591998	1.5997499
16.34649415908287	2.5669787	1.6021794
16.364200953451657	2.5995445	1.6123103
16.38190814123048	2.6509612	1.6281773
16.39961572286839	2.6806953	1.6372828
16.41732369881455	2.6925566	1.6409012
16.43503206951817	2.721189	1.6496027
16.45274083542859	2.7856393	1.6690234
16.47044999699522	2.8118463	1.676856
16.488159554667558	2.8336585	1.6833473
16.505869508895184	2.8428292	1.6860691
16.523579860127786	2.8958538	1.7017208
16.541290608815117	2.9576294	1.719776
16.559001755407035	3.028173	1.7401646
16.57671330035348	3.0596051	1.7491727
16.59442524410448	3.1253536	1.767867
16.61213758711015	3.1836932	1.7842907
16.629850329820705	3.2462685	1.8017404
16.647563472686436	3.2883427	1.8133788
16.665277016157724	3.3283935	1.8243885
16.682990960685053	3.3470495	1.8294944
16.70070530671898	3.408324	1.8461647
16.718420054710155	3.4394314	1.8545704
16.736135205109335	3.500462	1.8709521
16.753850758367335	3.5432165	1.8823433
16.771566714935087	3.590013	1.894733
16.789283075263597	3.6474743	1.9098362
16.80699983980398	3.691968	1.9214494
16.82471700900741	3.7988377	1.9490607
16.84243458332518	3.881374	1.9701203
16.860152563208665	4.0062613	2.0015647
16.87787094910932	4.0628047	2.01564
16.89558974147871	4.08742	2.0217369
16.913308940768466	4.118981	2.0295272
16.931028547430333	4.1796803	2.0444267
16.94874856191613	4.212822	2.052516
16.966468984677785	4.282841	2.0695026
16.98418981616729	4.3392634	2.0830898
17.00191105683676	4.441688	2.1075313
17.019632707138374	4.518107	2.125584
17.03735476752442	4.5566344	2.1346276
17.05507723844728	4.5685105	2.1374075
17.072800120359403	4.5473504	2.1324518
17.090523413713353	4.5955396	2.1437209
17.108247118961785	4.6629925	2.1593964
17.125971236557437	4.748557	2.1791184
17.143695766953133	4.7062335	2.1693854
17.161420710601806	4.6509395	2.1566036
17.179146067956477	4.617644	2.1488705
17.19687183947025	4.652909	2.1570601
17.21459802559634	4.714334	2.1712518
17.232324626788028	4.728074	2.1744134
17.25005164349871	4.739745	2.1770957
17.267779076181863	4.6805344	2.1634543
17.285506925291074	4.613369	2.1478755
17.30323519127999	4.5691495	2.1375568
17.320963874602384	4.5634828	2.136231
17.33869297571211	4.5771937	2.1394377
17.356422495063114	4.5708714	2.1379597
17.37415243310944	4.5325475	2.128978
17.391882790305218	4.4834657	2.1174195
17.40961356710468	4.4574676	2.1112716
17.42734476396215	4.4646587	2.112974
17.445076381332044	4.5054016	2.1225932
17.462808419668868	4.5806866	2.1402538
17.48054087942723	4.660162	2.1587408
17.498273761061835	4.907472	2.2152815
17.51600706502747	5.38576	2.320724
17.533740791779024	6.1091866	2.4716768
17.551474941771485	7.4636927	2.731976
17.56920951545993	8.614081	2.9349756
17.586944513299528	10.925255	3.3053374
17.60467993574556	12.709207	3.5649974
17.622415783253373	14.603647	3.821472
17.64015205627843	16.170048	4.0211997
17.657888755276293	17.47356	4.1801386
17.675625880702604	17.986595	4.2410607
17.69336343301311	17.847324	4.2246094
17.71110141266366	16.830542	4.1025043
17.728839820110178	15.75727	3.9695427
17.746578655808705	14.576245	3.817885
17.764317920215372	12.917786	3.5941322
17.7820576137864	11.2534895	3.3546221
17.79979773697811	9.295245	3.0488105
17.81753829024692	7.373951	2.715502
17.835279274049356	5.716747	2.390972
17.85302068884201	4.675596	2.1623127
17.870762535081607	4.0991807	2.0246434
17.888504813224934	3.802351	1.9499618
17.90624752372891	3.6431289	1.9086982
17.923990667050536	3.5906336	1.8948967
17.941734243646895	3.5105433	1.8736444
17.959478253975185	3.465022	1.861457
17.9772226984927	3.3949072	1.8425274
17.994967577656833	3.381882	1.8389894
18.01271289192506	3.3576481	1.8323886
18.030458641754965	3.3329318	1.8256319
18.04820482760425	3.277941	1.8105085
18.06595144993067	3.2704394	1.8084356
18.083698509192125	3.2360682	1.7989075
18.101446005846576	3.229912	1.7971956
18.119193940352105	3.2337549	1.7982644
18.136942313166887	3.2204907	1.7945726
18.1546911247492	3.217147	1.7936407
18.1724403755574	3.1977394	1.7882224
18.19019006604997	3.1569183	1.7767719
18.207940196685467	3.1141245	1.7646883
18.225690767922575	3.1064386	1.7625092
18.243441780220046	3.0935686	1.7588544
18.261193234036764	3.06527	1.7507912
18.278945129831676	3.0401042	1.7435894
18.29669746806386	3.0293097	1.7404913
18.314450249192483	3.01724	1.7370205
18.3322034736768	3.051655	1.7468987
18.349957141976184	3.0753274	1.7536612
18.3677112545501	3.0579193	1.7486907
18.385465811858108	3.0848808	1.7563828
18.403220814359884	3.1213696	1.7667398
18.420976262515172	3.164614	1.7789361
18.43873215678387	3.161838	1.7781558
18.456488497625923	3.12557	1.7679281
18.474245285501407	3.2338953	1.7983035
18.492002520870486	3.2949536	1.8152007
18.50976020419343	3.3686483	1.8353878
18.527518335930615	3.6236036	1.9035765
18.545276916542516	4.199748	2.0493286
18.563035946489688	4.369521	2.09034
18.580795426232832	4.843381	2.2007682
18.598555356232698	4.72452	2.1735961
18.616315736950185	5.0120416	2.238759
18.63407656884626	4.647325	2.1557655
18.65183785238201	4.846522	2.2014818
18.669599588018617	4.580431	2.1401942
18.68736177621737	4.550729	2.1332438
18.705124417439652	4.513511	2.1245027
18.72288751214696	4.3680773	2.0899947
18.740651060800886	4.5828547	2.1407604
18.758415063863115	4.3181705	2.0780208
18.77617952179546	4.4656105	2.1131992
18.793944435059814	4.1649694	2.0408256
18.811709804118184	4.182786	2.045186
18.829475629432675	4.1564074	2.0387268
18.8472419114655	3.9923415	1.9980844
18.86500865067897	4.1000767	2.0248647
18.88277584753551	3.7739384	1.9426627
18.90054350249763	3.75882	1.9387677
18.918311616027957	3.4457588	1.8562756
18.936080188589226	3.3552663	1.8317386
18.953849220644265	3.0115054	1.735369
18.971618712656007	2.8054852	1.6749582
18.9893886650875	2.7372577	1.654466
19.007159078401887	8.002551	2.8288782
19.024929953062408	32.936523	5.739035
19.042701289532435	32.877888	5.7339244
19.060473088275405	25.413149	5.041146
19.07824534975489	2.6306145	1.6219169
19.096018074434568	2.628194	1.6211706
19.113791262778197	2.6178305	1.6179711
19.13156491524966	2.6212401	1.6190244
19.149339032312945	2.5865347	1.6082708
19.167113614432136	2.5786486	1.6058171
19.184888662071433	2.5495422	1.5967286
19.202664175695123	2.5379221	1.5930858
19.220440155767623	2.4924855	1.5787607
19.238216602753447	2.4648902	1.5699968
19.2559935171172	2.4726007	1.5724505
19.27377089932361	2.5077431	1.5835855
19.291548749837514	2.5695486	1.6029812
19.309327069123835	2.5418644	1.5943226
19.32710585764763	2.5277307	1.5898839
19.344885115874032	2.510847	1.5845653
19.362664844268313	2.5379508	1.5930947
19.380445043295822	2.5396721	1.5936348
19.39822571342203	2.5218935	1.588047
19.41600685511252	2.483684	1.5759709
19.43378846883297	2.4407039	1.5622752
19.451570555049173	2.438141	1.5614548
19.469353114227037	2.459459	1.5682663
19.48713614683254	2.5239973	1.5887094
19.50491965333182	2.5138102	1.5855
19.52270363419109	2.495645	1.579761
19.540488089876686	2.4872928	1.5771153
19.55827302085503	2.4994867	1.5809765
19.576058427592674	2.4921687	1.5786604
19.593844310556282	2.4454134	1.5637817
19.611630670212598	2.4609761	1.5687499
19.629417507028506	2.5051186	1.5827566
19.64720482147098	2.5056627	1.5829285
19.6649926140071	2.4886198	1.577536
19.682780885104084	2.4549997	1.5668439
19.70056963522921	2.4748101	1.5731529
19.718358864849908	2.479165	1.5745364
19.7361485744337	2.481212	1.5751863
19.753938764448215	2.471706	1.572166
19.771729435361202	2.4565263	1.567331
19.789520587640506	2.5112846	1.5847033
19.807312221754092	2.5407102	1.5939605
19.825104338170043	2.516259	1.586272
19.842896937356517	2.490118	1.5780108
19.860690019781824	2.4947245	1.5794697
19.87848358591436	2.5408576	1.5940068
19.896277636222635	2.5366364	1.5926821
19.914072171175278	2.4975016	1.5803486
19.931867191241015	2.4604206	1.5685728
19.94966269688869	2.469864	1.57158
19.967458688587264	2.4770687	1.5738705
19.985255166805807	2.4534574	1.5663517
20.00305213201348	2.4745898	1.5730829
20.020849584679578	2.4584954	1.567959
20.038647525273507	2.4137306	1.5536186
20.05644595426477	2.3948584	1.547533
20.07424487212299	2.3994317	1.5490099
20.092044279317903	2.4170086	1.5546732
20.109844176319353	2.4083273	1.5518787
20.127644563597304	2.3817027	1.5432765
20.145445441621817	2.3863723	1.5447887
20.16324681086307	2.3733377	1.5405641
20.181048671791373	2.402163	1.5498914
20.198851024877122	2.4470854	1.5643163
20.216653870590836	2.4416401	1.5625749
20.234457209403146	2.395125	1.5476191
20.252261041784802	2.36099	1.5365514
20.270065368206662	2.3805585	1.5429058
20.287870189139685	2.3680434	1.5388448
20.305675505054968	2.354267	1.5343621
20.323481316423702	2.3270998	1.5254835
20.341287623717207	2.351907	1.5335928
20.359094427406884	2.3472648	1.5320786
20.376901727964288	2.3380015	1.5290525
20.39470952586107	2.3068125	1.5188195
20.41251782156899	2.3001244	1.5166161
20.430326615559935	2.2933676	1.5143869
20.448135908305886	2.308018	1.5192162
20.465945700278965	2.3086703	1.5194309
20.483755991951384	2.2718968	1.5072813
20.50156678379548	2.2751997	1.5083765
20.519378076283708	2.3031802	1.5176232
20.537189869888635	2.3369973	1.5287241
20.55500216508294	2.335858	1.5283514
20.572814962339415	2.3101716	1.5199249
20.59062826213098	2.296793	1.5155174
20.60844206493066	2.3135843	1.5210471
20.626256371211593	2.3192368	1.522904
20.644071181447032	2.3082328	1.519287
20.66188649611036	2.3268096	1.5253884
20.67970231567506	2.34944	1.5327884
20.697518640614742	2.3452067	1.5314068
20.715335471403122	2.305258	1.5183076
20.73315280851404	2.289789	1.5132048
20.750970652421447	2.2706513	1.506868
20.768789003599412	2.2499063	1.4999688
20.786607862522136	2.2401154	1.4967015
20.8044272296639	2.279789	1.509897
20.82224710549913	2.3292594	1.5261911
20.84006749050237	2.3087115	1.5194445
20.857888385148268	3.8382282	1.9591397
20.8757097899116	45.93238	6.7773433
20.893531705267254	64.78491	8.048907
20.911354131690224	83.80288	9.154391
20.92917706965566	69.060135	8.310243
20.94700051963877	50.122234	7.0797057
20.96482448211493	29.413364	5.423409
20.982648957559622	4.1777196	2.043947
21.00047394644843	2.2728055	1.5075827
21.01829944925707	2.253904	1.5013008
21.036125466461375	2.232293	1.494086
21.053951998537297	2.2424846	1.4974928
21.071779045960906	2.2538567	1.501285
21.089606609208378	2.2498999	1.4999666
21.10743468875603	2.178119	1.4758452
21.12526328508028	2.151042	1.4666431
21.143092398657675	2.1839762	1.4778281
21.16092202996488	2.2181637	1.4893501
21.17875217947867	2.2215562	1.4904885
21.19658284767596	2.1678617	1.472366
21.21441403503377	2.1709943	1.4734294
21.232245742029225	2.1774938	1.4756334
21.2500779691396	2.1802177	1.4765561
21.26791071684227	2.1713731	1.473558
21.28574398561475	2.175476	1.4749495
21.30357777593465	2.1924336	1.4806869
21.321412088279704	2.2134347	1.4877616
21.339246923127792	2.1719959	1.4737693
21.357082280956888	2.13014	1.4595
21.3749181622451	2.1122532	1.4533592
21.392754567470647	2.1238725	1.4573512
21.41059149711187	2.1306071	1.4596599
21.42842895164726	2.1231523	1.4571041
21.446266931555378	2.1534355	1.4674588
21.464105437314945	2.1595716	1.4695481
21.481944469404798	2.1319659	1.4601253
21.49978402830388	2.1166656	1.4548765
21.51762411449127	2.125682	1.4579719
21.53546472844617	2.1172898	1.455091
21.553305870647876	2.0806234	1.4424366
21.571147541575865	2.0579588	1.4345587
21.58898974170967	2.0664928	1.4375302
21.60683247152899	2.089702	1.4455801
21.62467573151363	2.0761704	1.4408922
21.642519522143523	2.0599031	1.4352362
21.660363843898722	2.0573575	1.4343492
21.6782086972594	2.0555658	1.4337244
21.696054082705864	2.0407114	1.4285347
21.713900000718535	2.024733	1.4229312
21.73174645177795	2.0049138	1.4159498
21.749593436364794	2.017135	1.4202588
21.767440954959845	2.027252	1.423816
21.785289008044032	2.0302124	1.4248552
21.803137596098388	1.9898992	1.4106379
21.820986719604086	1.9917587	1.4112968
21.838836379042412	2.0006452	1.4144416
21.85668657489478	2.0132983	1.4189074
21.87453730764273	2.003185	1.4153392
21.892388577767914	2.008374	1.4171711
21.91024038575213	2.0225973	1.4221805
21.928092732077285	2.0291543	1.4244839
21.945945617225426	2.0314074	1.4252745
21.963799041678694	2.012053	1.4184686
21.981653005919398	31.328856	5.5972185
21.999507510429943	78.11152	8.838072
22.01736255569286	73.077126	8.548516
22.035218142190818	4.171262	2.0423667
22.05307427040661	1.9834665	1.408356
22.07093094082315	1.9547917	1.3981386
22.088788153923474	1.9381673	1.3921808
22.106645910190746	1.9577721	1.3992041
22.12450421010827	1.9664629	1.4023063
22.142363054159464	1.9771795	1.4061222
22.16022244282787	1.9530933	1.3975312
22.178082376597164	1.9893662	1.4104489
22.195942855951145	2.0170498	1.4202288
22.213803881373742	2.03549	1.426706
22.231665453349002	2.025307	1.4231328
22.24952757236111	2.0383296	1.4277008
22.26739023889438	2.0062566	1.4164239
22.28525345343323	2.006012	1.4163375
22.30311721646225	1.9779915	1.4064108
22.320981528466113	1.9501309	1.3964709
22.33884638992964	1.9245968	1.3872983
22.356711801337788	1.9511116	1.396822
22.37457776317561	1.9653028	1.4018925
22.392444275928337	1.9642732	1.4015253
22.410311340081282	1.9404106	1.3929862
22.428178956119904	1.9447893	1.394557
22.446047124529805	1.9418424	1.3935001
22.46391584579669	1.9389769	1.3924716
22.481785120406414	1.9339267	1.390657
22.49965494884496	1.9058411	1.380522
22.51752533159841	1.8814293	1.371652
22.53539626915302	1.9026526	1.3793668
22.553267761995137	1.8903736	1.3749086
22.571139810611264	1.9064112	1.3807285
22.589012415488025	1.9273578	1.3882931
22.60688557711216	1.943559	1.3941159
22.624759295970566	1.8951231	1.3766347
22.642633572550263	1.888985	1.3744035
22.660508407338362	1.9576596	1.3991638
22.67838380082217	1.9862329	1.4093378
22.696259753489077	1.9519175	1.3971105
22.714136265826614	1.906676	1.3808244
22.73201333832246	1.9109797	1.3823819
22.74989097146439	1.9194009	1.3854245
22.76776916574035	1.9281139	1.3885654
22.785647921638393	1.948118	1.3957499
22.803527239646712	1.9654223	1.4019352
22.82140712025363	1.9374727	1.3919313
22.839287563947593	1.9614643	1.4005228
22.85716857121719	1.9371346	1.3918098
22.875050142551135	1.9354724	1.3912126
22.892932278438277	1.897973	1.3776693
22.910814979367604	1.8470991	1.3590802
22.928698245828222	1.8203123	1.3491895
22.946582078309387	1.8395141	1.3562869
22.96446647730047	1.8695192	1.3673036
22.98235144329098	1.9062948	1.3806864
23.000236976770562	1.9111848	1.3824561
23.018123078229	1.896349	1.3770798
23.03600974815619	1.8706486	1.3677166
23.053896987042194	1.868838	1.3670545
23.071784795377173	1.8947787	1.3765097
23.08967317365145	1.8814093	1.3716447
23.10756212235546	1.8769284	1.3700104
23.125451641979787	1.8729694	1.3685647
23.143341733015134	1.9126308	1.3829789
23.161232395952357	1.9432626	1.3940096
23.179123631282426	1.944412	1.3944217
23.197015439496468	1.9425706	1.3937613
23.214907821085717	1.9123901	1.3828919
23.23280077654157	1.928123	1.3885686
23.250694306355538	1.9555838	1.3984219
23.268588411019277	1.9453818	1.3947694
23.28648309102458	1.9359274	1.3913761
23.304378346863356	1.9085724	1.381511
23.322274179027676	1.9106549	1.3822644
23.340170588009723	1.9355419	1.3912375
23.358067574301852	1.964447	1.4015874
23.37596513839651	1.9748672	1.4052997
23.39386328078629	1.9288019	1.3888131
23.411762001963947	1.9070044	1.3809433
23.429661302422353	1.9147333	1.3837389
23.4475611826545	1.8504134	1.360299
23.46546164315356	1.8609892	1.3641808
23.48336268441279	1.8620254	1.3645605
23.501264306925638	1.9086084	1.381524
23.51916651118564	1.9306762	1.3894877
23.537069297686497	1.939986	1.3928338
23.554972666922037	1.942342	1.3936793
23.57287661938623	1.9762974	1.4058084
23.59078115557318	1.9865026	1.4094335
23.608686275977128	1.9784726	1.4065819
23.62659198109246	1.9410701	1.3932229
23.6444982714137	1.9126122	1.3829722
23.66240514743549	1.8759575	1.369656
23.68031260965263	1.8855734	1.3731618
23.698220658560068	1.8949475	1.3765709
23.716129294652845	1.9377179	1.3920194
23.7340385184262	1.9538516	1.3978024
23.75194833037546	1.9553907	1.3983529
23.769858730996123	1.8841308	1.3726364
23.78776972078382	1.8660034	1.3660173
23.80568130023431	1.8601096	1.3638583
23.823593469843495	1.8976276	1.377544
23.841506230107424	1.9178623	1.3848691
23.859419581522275	1.937633	1.3919889
23.87733352458438	1.9373255	1.3918784
23.89524805979019	1.903405	1.3796394
23.913163187636318	1.8780267	1.3704112
23.931078908619508	1.8719766	1.368202
23.948995223236633	1.8986347	1.3779095
23.966912131984735	1.9386836	1.3923662
23.98482963536096	1.9961494	1.4128516
24.002747733862616	2.012322	1.4185634
24.020666427987155	2.024269	1.4227681
24.038585718232156	2.0922654	1.4464666
24.056505605095353	2.1094701	1.4524015
24.074426089074617	2.098249	1.4485334
24.092347170667946	2.0478952	1.4310468
24.110268850373515	2.033382	1.425967
24.128191128689586	2.0140023	1.4191555
24.146114006114626	2.0129602	1.4187883
24.164037483147187	2.0432458	1.4294215
24.181961560286005	2.0437264	1.4295896
24.199886238029926	2.062915	1.4362851
24.21781151687797	2.0608356	1.4355611
24.235737397329274	2.0706236	1.4389662
24.253663879883135	2.0719707	1.4394342
24.271590965038975	2.0410256	1.4286447
24.289518653296376	2.0169623	1.420198
24.30744694515505	2.0217872	1.4218956
24.32537584111486	2.04347	1.4294999
24.34330534167581	2.05462	1.4333946
24.361235447338046	2.0269623	1.4237143
24.379166158601876	1.9910691	1.4110525
24.39709747596772	1.9607093	1.4002533
24.41502939993615	2.0089402	1.4173709
24.432961931007917	2.0347822	1.4264579
24.450895069683856	2.0341032	1.4262199
24.468828816465	1.9854778	1.4090699
24.4867631718525	1.9918499	1.4113292
24.504698136347656	1.9951828	1.4125093
24.52263371045192	1.954038	1.3978691
24.540569894666874	1.9386078	1.392339
24.558506689494266	1.9060307	1.3805907
24.57644409543597	1.9539155	1.3978252
24.594382112994012	1.9421703	1.3936176
24.61232074267057	1.9463872	1.3951298
24.630259984967953	1.9628949	1.4010335
24.64819984038863	2.0232618	1.4224141
24.66614030943522	2.0552866	1.4336271
24.684081392610462	1.9926919	1.4116274
24.702023090417274	1.960525	1.4001875
24.7199654033587	1.9525807	1.3973477
24.737908331937927	1.9800829	1.4071542
24.755851876658305	2.0035715	1.4154757
24.773796038023324	2.0259533	1.4233599
24.79174081653661	2.027927	1.424053
24.809686212701962	2.032831	1.4257739
24.827632227023294	2.0257154	1.4232763
24.8455788600047	2.0521262	1.4325244
24.8635261121504	2.0769124	1.4411497
24.88147398396475	2.1297016	1.4593498
24.899422475952303	2.1684258	1.4725575
24.917371588617698	2.162733	1.4706234
24.935321322465768	2.1738276	1.4743906
24.953271678001478	2.2432947	1.4977633
24.97122265572994	2.4278247	1.5581479
24.989174256156414	2.789156	1.6700766
25.00712647978632	3.3114552	1.8197404
25.02507932712521	3.8689163	1.9669561
25.043032798678798	4.3722973	2.091004
25.060986894952933	5.030298	2.2428327
25.078941616453637	5.8403497	2.4166815
25.096896963687055	6.8541236	2.6180382
25.114852937159508	8.044807	2.836337
25.132809537377444	8.539917	2.9223137
25.150766764847468	8.555792	2.9250286
25.168724620076347	7.995155	2.8275704
25.186683103570985	6.8263044	2.6127198
25.204642215838426	5.5708294	2.3602605
25.222601957385894	4.1683474	2.0416532
25.24056232872074	3.2067552	1.7907416
25.25852333035048	2.6341727	1.6230135
25.276484962782778	2.27853	1.50948
25.294447226525435	2.0797248	1.4421251
25.312410122086423	1.994712	1.4123428
25.330373649973843	1.9273475	1.3882895
25.348337810695988	1.9413515	1.3933239
25.366302604761245	1.9285419	1.3887196
25.384268032678207	1.9362297	1.3914847
25.40223409495558	1.9202135	1.3857176
25.420200792102257	1.948863	1.3960168
25.438168124627246	1.950439	1.3965812
25.45613609303974	1.9190762	1.3853073
25.474104697849057	1.8714489	1.3680091
25.492073939564698	1.8625014	1.3647349
25.510043818696285	1.8986417	1.377912
25.528014335753614	1.8579712	1.3630742
25.54598549124664	1.8529406	1.3612276
25.56395728568544	1.8932619	1.3759586
25.58192971958028	1.9149169	1.3838052
25.59990279344156	1.9063402	1.3807029
25.617876507779833	1.8741359	1.3689908
25.635850863105826	1.8680582	1.3667693
25.653825859930386	1.8524864	1.3610607
25.671801498764548	1.8821104	1.3719003
25.68977778011949	1.8760443	1.3696877
25.707754704506524	1.9168674	1.3845098
25.725732272437153	1.9306402	1.3894747
25.743710484423012	1.9364251	1.391555
25.761689340975888	1.8996783	1.3782881
25.77966884260774	1.8563616	1.3624836
25.797648989830662	1.801606	1.3422391
25.815629783156922	1.7945691	1.3396153
25.83361122309895	1.8256965	1.3511834
25.85159331016929	1.8402923	1.3565737
25.869576044880695	1.794692	1.3396611
25.887559427746034	1.79295	1.3390108
25.90554345927836	1.823227	1.3502692
25.92352813999086	1.840197	1.3565387
25.94151347039689	1.8290836	1.3524362
25.959499451009965	1.7941381	1.3394544
25.97748608234374	1.7926395	1.3388948
25.995473364912062	1.8114616	1.3459054
26.013461299228904	1.865302	1.3657606
26.03144988580839	1.8992132	1.3781195
26.04943912516483	1.8698367	1.3674197
26.067429017812675	1.807024	1.3442559
26.085419564266537	1.7596632	1.326523
26.103410765041186	1.7569377	1.3254952
26.12140262065155	1.7816683	1.3347915
26.139395131612723	1.772169	1.3312284
26.157388298439948	1.7741804	1.3319837
26.17538212164861	1.8022907	1.3424942
26.193376601754295	1.8270967	1.3517014
26.211371739272714	1.8290868	1.3524374
26.229367534719746	1.8585759	1.363296
26.247363988611433	1.8512585	1.3606097
26.26536110146397	1.8539206	1.3615875
26.283358873793727	1.8817681	1.3717755
26.301357306117204	1.8762716	1.3697706
26.319356398951104	1.8486677	1.3596572
26.33735615281224	1.8158327	1.3475283
26.35535656821762	1.841168	1.3568965
26.373357645684404	1.8576444	1.3629543
26.39135938572991	1.88545	1.3731169
26.409361788871614	1.8328453	1.3538262
26.427364855627165	1.7703193	1.3305335
26.445368586514352	1.7470529	1.3217613
26.46337298205115	1.7767955	1.3329649
26.48137804275568	1.8044415	1.343295
26.499383769146217	1.8585323	1.3632799
26.517390161741215	1.8956506	1.3768263
26.53539722105928	1.8364849	1.3551697
26.553404947619182	1.8131863	1.346546
26.571413341939856	1.8091644	1.3450518
26.589422404540397	1.8321608	1.3535733
26.60743213594006	1.852803	1.3611771
26.62544253665827	1.8382343	1.355815
26.64345360721459	1.8039653	1.3431177
26.66146534812879	1.8141294	1.3468962
26.679477759920758	1.8194107	1.3488554
26.69749084311057	1.7938354	1.3393414
26.71550459821847	1.810656	1.3456062
26.733519025764842	1.8360649	1.3550147
26.751534126270258	1.788461	1.3373336
26.769549900255434	1.7831713	1.3353543
26.787566348241267	1.7988632	1.341217
26.80558347074881	1.7939264	1.3393754
26.823601268299267	1.7830026	1.3352913
26.841619741414036	1.8212396	1.3495331
26.85963889061465	1.8146719	1.3470975
26.877658716422832	1.8048389	1.3434429
26.89567921936045	1.7989849	1.3412625
26.913700399949544	1.821218	1.3495251
26.93172225871233	1.8459356	1.3586521
26.949744796171174	1.849332	1.3599014
26.967768012848605	1.7990708	1.3412944
26.98579190926733	1.8011404	1.3420657
27.003816485950225	1.8309648	1.3531315
27.021841743420318	1.8333367	1.3540076
27.039867682200814	1.8051486	1.3435582
27.057894302815072	1.818619	1.3485619
27.07592160578664	1.8255128	1.3511153
27.0939495916392	1.8246776	1.3508062
27.111978260896635	1.7618725	1.3273555
27.13000761408296	1.7433654	1.3203657
27.148037651722397	1.7711413	1.3308424
27.166068374339304	1.7929139	1.3389974
27.184099782458215	1.7832141	1.3353704
27.20213187660384	1.7510239	1.3232626
27.22016465730105	1.7592938	1.3263837
27.23819812507487	1.7697774	1.3303298
27.256232280450533	1.8083049	1.3447323
27.274267123953383	1.8161479	1.3476453
27.292302656108987	1.8147664	1.3471327
27.31033887744306	1.8125263	1.346301
27.32837578848146	1.8050386	1.3435172
27.34641338975026	1.8345195	1.3544444
27.364451681775673	1.8355707	1.3548323
27.382490665084074	1.8248279	1.3508619
27.400530340202046	1.7875673	1.3369993
27.41857070765629	1.7459655	1.3213499
27.436611767973726	1.795291	1.3398846
27.454653521681404	1.8173406	1.3480878
27.472695969306564	1.809809	1.3452914
27.490739111376627	1.8137895	1.34677
27.508782948419153	1.8422074	1.3572794
27.526827480961902	1.8377254	1.3556273
27.54487270953279	1.7780156	1.3334225
27.562918634659898	1.7574264	1.3256795
27.580965256871508	1.7952727	1.3398778
27.599012576696026	1.8545618	1.361823
27.617060594662068	1.8406243	1.3566961
27.63510931129842	1.8035889	1.3429776
27.65315872713401	1.8131113	1.3465182
27.67120884269797	1.8469617	1.3590297
27.68925965851958	1.8450637	1.3583312
27.707311175128307	1.8023044	1.3424993
27.725363393053787	1.7721549	1.3312231
27.74341631282583	1.8115437	1.345936
27.7614699349744	1.8073466	1.3443758
27.77952426002968	1.9830618	1.4082123
27.797579288521973	2.0824652	1.443075
27.815635020981784	2.4472034	1.564354
27.83369145793979	2.5037718	1.5823312
27.85174859992682	2.3758361	1.5413748
27.869806447473923	2.2059302	1.4852375
27.887865001112267	1.9267932	1.3880898
27.905924261373233	1.8682116	1.3668253
27.92398422878836	1.8915071	1.3753208
27.94204490388936	1.8938636	1.3761772
27.96010628720813	1.8603202	1.3639356
27.978168379276728	1.8258706	1.3512478
27.9962311806274	1.8421334	1.3572521
28.014294691792568	1.8485334	1.3596078
28.0323589133048	1.8418694	1.3571548
28.050423845696887	1.8458897	1.3586352
28.068489489501758	1.8563492	1.3624791
28.086555845252523	1.8797525	1.3710407
28.104622913482487	1.8898504	1.3747183
28.122690694725115	1.8691784	1.367179
28.14075918951405	1.8568022	1.3626453
28.15882839838312	1.8438959	1.3579013
28.176898321866304	1.8818952	1.3718219
28.1949689604978	1.9260485	1.3878216
28.213040314811945	1.9855188	1.4090844
28.23111238534327	1.9395593	1.3926806
28.249185172626493	1.9195107	1.3854641
28.267258677196473	1.9091566	1.3817223
28.285332899588294	1.9237056	1.3869772
28.303407840337172	1.9472629	1.3954436
28.321483499978545	1.9767987	1.4059867
28.33955987904799	1.9831214	1.4082334
28.357636978081285	1.9485778	1.3959147
28.37571479761439	1.9322541	1.3900554
28.393793338183425	1.9411937	1.3932673
28.41187260032469	1.9380242	1.3921294
28.429952584574686	1.9219769	1.3863539
28.448033291470065	1.9255433	1.3876395
28.46611472154769	1.9509625	1.3967686
28.484196875344566	1.9320899	1.3899964
28.502279753397914	1.9707564	1.4038364
28.52036335624511	1.9423919	1.3936971
28.538447684423716	1.9509858	1.3967769
28.556532738471482	1.9909817	1.4110215
28.574618518926325	1.995482	1.4126153
28.59270502632635	1.9606476	1.4002312
28.61079226120985	1.9436929	1.3941638
28.628880224115274	1.9342289	1.3907655
28.646968915581287	1.9378275	1.3920587
28.66505833614671	1.9716631	1.4041592
28.68314848635055	1.9766004	1.4059162
28.701239366732004	1.9459604	1.3949769
28.71933097783044	2.0161908	1.4199263
28.737423320185403	2.0962312	1.4478368
28.75551639433665	2.1685052	1.4725845
28.773610200824074	2.1498713	1.466244
28.791704740187793	2.1278844	1.458727
28.80980001296809	2.1490476	1.465963
28.827896019705413	2.158544	1.4691985
28.845992760940433	2.1217096	1.4566089
28.86409023721397	2.0744808	1.4403058
28.88218844906704	2.0939097	1.4470348
28.900287397040845	2.2172973	1.4890592
28.918387081676755	2.337804	1.5289879
28.936487503516343	2.3336563	1.5276309
28.954588663101365	2.3021555	1.5172856
28.97269056097374	2.2868977	1.5122492
28.990793197675597	2.3297002	1.5263356
29.00889657374923	2.4059055	1.5510981
29.027000689737125	2.4491513	1.5649765
29.04510554618196	2.381165	1.5431024
29.06321114362659	2.3678937	1.5387962
29.08131748261405	2.4097512	1.5523373
29.099424563687567	2.472228	1.572332
29.11753238739057	2.5075579	1.5835271
29.13564095426663	2.5575135	1.5992228
29.15375026485954	2.6136928	1.616692
29.171860319713275	2.6331215	1.6226896
29.18997111937199	2.614764	1.6170232
29.20808266438002	2.6559858	1.6297196
29.226194955281898	2.7385445	1.6548548
29.244307992622335	2.809705	1.6762174
29.26242177694624	2.7907503	1.6705539
29.2805363087987	2.7840054	1.6685339
29.29865158872498	2.8250506	1.6807886
29.316767617270557	2.870426	1.6942332
29.334884394981064	2.90154	1.7033907
29.353001922402367	2.9156902	1.7075392
29.37112020008047	3.069724	1.7520628
29.389239228561596	3.188804	1.7857223
29.407359008392152	3.3127491	1.8200959
29.42547954011872	3.6009064	1.8976054
29.44360082428809	4.1877394	2.0463967
29.46172286144722	5.318551	2.3061984
29.479845652143283	6.888701	2.6246336
29.497969196923606	9.059291	3.0098655
29.516093496335728	11.646663	3.4127207
29.5342185509274	14.721678	3.8368838
29.55234436124651	17.25453	4.153857
29.570470927841175	18.955622	4.3538055
29.588598251259686	18.791819	4.3349533
29.60672633205055	17.402641	4.1716475
29.624855170762405	14.985274	3.8710818
29.642984767944146	12.021323	3.467178
29.66111512414481	9.1892395	3.031376
29.67924623991366	6.950543	2.6363883
29.697378115800138	5.305037	2.3032665
29.71551075235387	4.3038955	2.0745833
29.733644150124675	3.788807	1.9464858
29.751778309662576	3.563473	1.8877163
29.769913231517766	3.453648	1.8583994
29.78804891624066	3.360993	1.8333011
29.806185364381818	3.3168178	1.8212132
29.82432257649206	3.2930934	1.8146882
29.842460553122333	3.2120786	1.7922273
29.86059929482382	3.1756215	1.7820274
29.878738802147872	3.2453175	1.8014765
29.896879075646048	3.329844	1.8247861
29.915020115870114	3.3130612	1.8201816
29.933161923371976	3.2310174	1.7975031
29.951304498703777	3.1912699	1.7864126
29.969447842417857	3.192059	1.7866335
29.987591955066733	3.2232099	1.79533
30.005736837203123	3.1962726	1.7878122
30.023882489379943	3.1623247	1.7782927
30.04202891215028	3.1177247	1.765708
30.060176106067455	3.0212255	1.7381673
30.078324071684946	3.071287	1.7525088
30.09647280955646	3.1471195	1.7740122
30.114622320235863	3.1813874	1.7836444
30.132772604277257	3.158611	1.7772481
30.1509236622349	3.205312	1.7903385
30.16907549466328	3.1744885	1.7817094
30.18722810211705	3.0975418	1.7599834
30.205381485151097	3.0954204	1.7593807
30.22353564432045	3.0993578	1.7604994
30.241690580180403	3.0426378	1.7443159
30.25984629328638	3.0024755	1.7327653
30.278002784194037	3.0123951	1.7356253
30.296160053459246	2.9865546	1.7281651
30.314318101638033	2.9233813	1.7097899
30.332476929286646	2.9282575	1.7112153
30.35063653696153	2.8608866	1.6914155
30.368796925219307	2.8157868	1.6780306
30.386958094616844	2.8008723	1.6735806
30.40512004571115	2.7937417	1.671449
30.423282779059463	2.7933006	1.671317
30.441446295219233	2.7964118	1.6722475
30.459610594748067	2.7814126	1.6677568
30.47777567820382	2.7816682	1.6678333
30.495941546144504	2.7753403	1.6659353
30.51410819912835	2.7600396	1.6613367
30.532275637713795	2.8062222	1.6751783
30.55044386245946	2.8026316	1.6741062
30.56861287392416	2.7884817	1.6698748
30.586782672666956	2.6985795	1.6427354
30.604953259247047	2.6531262	1.628842
30.623124634223885	2.7214675	1.649687
30.641296798157075	2.6961653	1.6420004
30.659469751606462	2.7324572	1.6530145
30.677643495132074	2.8027785	1.6741501
30.695818029294152	2.7584946	1.6608716
30.713993354653116	2.7273426	1.6514668
30.73216947176962	2.7763445	1.6662366
30.75034638120448	2.7681377	1.6637721
30.768524083518756	2.701005	1.6434735
30.786702579273673	2.676768	1.6360831
30.80488186903069	2.7496324	1.6582016
30.82306195335144	2.8538563	1.6893361
30.841242832797782	3.123789	1.7674245
30.85942450793176	3.4229674	1.8501264
30.877606979315637	3.716553	1.9278363
30.895790247511883	4.186019	2.0459764
30.913974313083134	4.6526217	2.1569936
30.932159176592283	4.94869	2.224565
30.95034483860237	5.0035315	2.2368574
30.968531299676698	4.8116345	2.193544
30.98671856037873	4.467511	2.113649
31.00490662127215	3.973026	1.9932451
31.023095482920848	3.461286	1.8604532
31.04128514588892	3.0506463	1.7466099
31.059475610740662	2.7184691	1.6487781
31.07766687804056	2.5405161	1.5938996
31.09585894835335	2.5570192	1.5990683
31.11405182224393	2.5643957	1.6013731
31.132245500277417	2.467021	1.5706754
31.15043998301914	2.419026	1.5553218
31.168635271034628	2.4666016	1.5705419
31.18683136488964	2.4771068	1.5738827
31.20502826515008	2.4461064	1.5640033
31.223225972382135	2.4287515	1.5584452
31.241424487152155	2.3985293	1.5487186
31.259623810026692	2.4454522	1.5637941
31.27782394157253	2.4906878	1.5781913
31.296024882356644	2.4817913	1.5753702
31.314226632946237	2.4030478	1.5501767
31.332429193908684	2.4091468	1.5521426
31.350632565811598	2.4277837	1.5581347
31.368836749222787	2.4658837	1.5703132
31.387041744710295	2.4975848	1.580375
31.40524755284232	2.4827092	1.5756615
31.423454174187317	2.452756	1.5661277
31.441661609313922	2.5526268	1.5976943
31.459869858791002	2.5100458	1.5843124
31.478078923187628	2.3873882	1.5451175
31.496288803073064	2.331167	1.526816
31.514499499016807	2.3595247	1.5360744
31.532711011588546	2.3910584	1.5463048
31.550923341358178	2.428621	1.5584034
31.56913648889584	2.442457	1.5628362
31.587350454771844	2.35267	1.5338416
31.605565239556732	2.2918322	1.5138799
31.62378084382127	2.2512798	1.5004265
31.641997268136382	2.3174136	1.5223054
31.660214513073274	2.4319012	1.5594554
31.67843257920331	2.4318986	1.5594546
31.6966514670981	2.2644727	1.5048165
31.71487117732944	2.2069135	1.4855684
31.733091710469346	2.274401	1.5081117
31.751313067090052	2.3583047	1.5356773
31.769535247764008	2.366272	1.5382692
31.787758253063878	2.3250551	1.5248132
31.805982083562526	2.2991421	1.5162922
31.824206739833024	2.2447798	1.498259
31.84243222244869	2.2186553	1.4895152
31.860658531983013	2.237872	1.4959519
31.878885669009737	2.2055979	1.4851255
31.897113634102784	2.1721122	1.4738088
31.91534242783632	2.2189093	1.4896004
31.933572050784694	2.3175948	1.5223649
31.951802503522508	2.307571	1.5190691
31.970033786624548	2.2268844	1.4922749
31.988265900665834	2.1074622	1.4517101
32.006498846221575	2.15936	1.4694761
32.02473262386724	2.1433368	1.4640139
32.04296723417845	2.1802542	1.4765683
32.0612026777311	2.1780026	1.4758058
32.07943895510129	2.2195392	1.4898118
32.097676066865304	2.2372937	1.4957585
32.115914013599685	2.2753644	1.5084311
32.13415279588115	2.273899	1.5079453
32.152392414286666	2.2529616	1.5009869
32.1706328693934	2.1712635	1.4735208
32.18887416177875	2.1610112	1.4700378
32.20711629202032	2.1729195	1.4740826
32.225359260695924	2.1864245	1.4786563
32.243603068383614	2.1591718	1.4694121
32.26184771566166	2.1563566	1.4684538
32.28009320310852	2.1147318	1.4542117
32.2983395313029	2.1421168	1.4635972
32.31658670082372	2.137281	1.4619442
32.33483471225012	2.0969925	1.4480996
32.35308356616143	2.1132267	1.4536941
32.371333263137245	2.1337032	1.4607201
32.38958380375734	2.1808746	1.4767785
32.407835188601744	2.1382632	1.4622802
32.42608741825067	2.105913	1.4511764
32.444340493284585	2.0141153	1.4191953
32.46259441428416	1.9966621	1.413033
32.48084918183028	2.0736063	1.4400022
32.49910479650405	2.1144662	1.4541204
32.51736125888683	1.97874	1.4066769
32.53561856956014	1.9424658	1.3937237
32.5538767291058	2.036638	1.4271083
32.572135738105764	2.059111	1.4349604
32.59039559714228	2.0247557	1.4229391
32.608656306797776	1.9505281	1.3966131
32.62691786765491	1.9090437	1.3816814
32.645180280296586	1.8805392	1.3713275
32.663443545305896	1.9716438	1.4041524
32.68170766326619	2.088457	1.4451495
32.69997263476099	2.0830429	1.4432751
32.7182384603741	2.0501058	1.4318191
32.7365051406895	2.0347571	1.4264492
32.75477267629144	1.9563947	1.3987118
32.77304106776434	1.9086753	1.3815482
32.79131031569289	1.9594812	1.3998147
32.809580420661966	1.9809521	1.4074631
32.827851383256714	1.9816225	1.4077011
32.84612320406245	2.0579028	1.4345392
32.86439588366476	2.0549617	1.4335138
32.88266942264945	2.0089371	1.4173698
32.9009438216025	1.9530029	1.3974988
32.9192190811102	1.9224259	1.3865157
32.937495201758985	1.9671755	1.4025604
32.95577218413556	2.028543	1.4242693
32.974050028826866	2.032342	1.4256023
32.992328736420035	1.952365	1.3972706
33.010608307502444	1.9029871	1.379488
33.02888874266169	1.9144777	1.3836465
33.047170042485604	1.9518578	1.397089
33.06545220756225	1.941031	1.3932089
33.083735238479896	1.9560102	1.3985744
33.10201913582707	1.9848112	1.4088333
33.12030390019248	1.9775733	1.4062622
33.138589532165135	1.9885193	1.4101487
33.15687603233419	1.9373993	1.391905
33.17516340128909	1.9450226	1.3946407
33.19345163961947	1.9731567	1.404691
33.211740747915215	1.9992555	1.4139503
33.23003072676643	1.9652083	1.4018589
33.248321576763466	1.99837	1.4136372
33.266613298496885	2.012033	1.4184614
33.28490589255747	1.9442816	1.394375
33.30319935953626	1.8040377	1.3431447
33.32149370002451	1.7713804	1.3309321
33.339788914613706	1.8203712	1.3492113
33.358085003895575	1.847224	1.3591262
33.376381968462034	1.9217452	1.3862703
33.39467980890529	1.9942664	1.412185
33.41297852581774	2.022923	1.422295
33.43127811979204	2.0470288	1.4307442
33.44957859142105	1.9823986	1.4079767
33.467879941297866	1.9044051	1.3800019
33.486182170015844	1.7718568	1.3311111
33.50448527816853	1.778757	1.3337005
33.522789266349754	1.8588794	1.3634073
33.541094135153514	1.8887222	1.3743079
33.55939988517411	1.917816	1.3848524
33.57770651700602	1.9873322	1.4097277
33.59601403124398	2.0038524	1.4155749
33.61432242848296	1.9080269	1.3813134
33.632631709318154	1.8109995	1.3457338
33.650941874344994	1.8136439	1.3467159
33.66925292415916	1.7845572	1.3358732
33.68756485935654	1.9015132	1.3789537
33.70587768053328	2.0043159	1.4157386
33.724191388285746	1.864355	1.3654139
33.74250598321054	1.6593896	1.288173
33.760821465904506	1.6979092	1.3030385
33.77913783696474	1.8132944	1.3465862
33.79745509698852	1.9785312	1.4066027
33.815773246573414	2.1066651	1.4514356
33.8340922863172	1.9714181	1.4040719
33.852412216817896	1.8606291	1.3640488
33.87073303867377	1.8986468	1.377914
33.889054752483304	1.9942882	1.4121927
33.907377358845245	1.9104676	1.3821967
33.92570085835853	1.8216108	1.3496706
33.94402525162239	1.8709952	1.3678433
33.96235053923627	1.998232	1.4135883
33.980676721799824	1.9891714	1.4103799
33.999003799912984	1.9254081	1.3875908
34.01733177417592	1.8690995	1.3671502
34.03566064518901	1.882908	1.372191
34.0539904135529	2.0696454	1.4386262
34.07232107986846	2.2947166	1.5148323
34.090652644736785	2.2762988	1.5087408
34.108985108759235	2.1301875	1.4595162
34.12731847253742	1.9072618	1.3810365
34.14565273667313	1.8483484	1.3595397
34.16398790176847	1.8728662	1.368527
34.18232396842574	1.7976521	1.3407655
34.20066093724749	1.7846355	1.3359026
34.21899880883651	1.9800644	1.4071476
34.23733758379583	2.0394125	1.42808
34.25567726272874	2.118822	1.4556174
34.27401784623872	2.0451403	1.430084
34.29235933492957	1.9162736	1.3842953
34.31070172940526	1.9246664	1.3873235
34.32904503027003	2.070173	1.4388096
34.347389238128386	2.1110604	1.4529488
34.36573435358502	2.067219	1.4377826
34.38408037724492	2.0794415	1.4420269
34.402427309713296	2.051171	1.432191
34.42077515159559	2.0481431	1.4311335
34.43912390349752	2.0817938	1.4428422
34.45747356602499	2.1657279	1.4716412
34.47582413978423	2.1919055	1.4805086
34.49417562538163	2.066781	1.4376304
34.51252802342388	1.8447359	1.3582106
34.53088133451789	1.928543	1.3887199
34.54923555927084	1.9290526	1.3889034
34.567590698290104	1.9303467	1.3893691
34.58594675218336	1.9466411	1.3952208
34.6043037215585	2.1027205	1.450076
34.62266160702365	2.0421102	1.4290242
34.641020409187234	1.8213987	1.3495921
34.65938012865785	1.8391854	1.3561656
34.677740766044394	1.8250542	1.3509457
34.69610232195598	1.9314809	1.3897773
34.714464797002016	1.9533075	1.3976078
34.73282819179208	2.044185	1.42975
34.751192506936064	2.1207182	1.4562685
34.76955774304408	2.0035152	1.4154558
34.7879239007265	1.980327	1.4072409
34.80629098059391	2.112892	1.453579
34.824658983257194	2.0210273	1.4216284
34.843027909327446	1.8358986	1.3549534
34.86139775941603	1.8380525	1.3557479
34.879768534134534	1.9481219	1.3957514
34.89814023409483	1.9696218	1.4034321
34.91651285990901	1.8494529	1.3599459
34.93488641218944	1.887836	1.3739854
34.95326089154871	1.9600506	1.4000181
34.97163629859967	1.929865	1.3891958
34.99001263395542	2.0157318	1.4197648
35.00838989822934	2.0937107	1.446966
35.02676809203499	1.9353123	1.391155
35.04514721598624	1.8425131	1.3573921
35.063527270697215	1.915963	1.3841832
35.081908256782256	1.9782715	1.4065104
35.10029017485597	2.036623	1.427103
35.11867302553321	2.0627522	1.4362285
35.137056809429104	2.0140905	1.4191866
35.155441527159006	1.9279227	1.3884965
35.173827179338524	1.913396	1.3832556
35.19221376658354	1.8010077	1.3420163
35.21060128951017	1.7389498	1.3186924
35.2289897487348	1.7322181	1.3161376
35.24737914487405	1.7475332	1.3219429
35.26576947854479	1.8584608	1.3632537
35.28416075036418	1.899629	1.3782703
35.30255296094958	1.6473525	1.2834923
35.32094611091867	1.4627262	1.2094322
35.33934020088932	1.914104	1.3835114
35.35773523147969	2.2672646	1.5057439
35.3761312033082	2.2251937	1.4917083
35.394528116993506	1.855751	1.3622595
35.41292597315452	1.7233793	1.3127754
35.431324772410434	2.1152055	1.4543747
35.449724515380666	2.433828	1.5600731
35.46812520268491	2.2251	1.4916769
35.486526834943106	2.0076582	1.4169185
35.504929412775454	2.0221593	1.4220265
35.52333293680242	1.7106438	1.3079158
35.54173740764471	1.4453326	1.2022198
35.560142825923286	1.3220661	1.1498113
35.5785491922594	1.5691758	1.2526675
35.59695650727454	1.6553675	1.2866108
35.61536477159042	1.5382273	1.240253
