0.008763373481513119	0.0	0.0
0.026290120649546365	0.0	0.0
0.043816868432600686	0.0	0.0
0.06134361724069026	0.0	0.0
0.07887036748382949	0.0	0.0
0.0963971195720331	0.028871369	0.16991577
0.11392387391531617	0.0930868	0.3051013
0.1314506309236943	0.09527432	0.3086654
0.1489773910071836	0.19422957	0.44071484
0.16650415457580078	0.22166908	0.47081745
0.18403092203956356	0.19500591	0.44159472
0.20155769380849	0.14878339	0.38572448
0.2190844702925996	0.08178519	0.2859811
0.2366112519019124	0.14307556	0.37825328
0.2541380390464497	0.21086483	0.4592002
0.27166483213623416	0.2163615	0.46514675
0.28919163158128947	0.24577957	0.4957616
0.3067184377916406	0.27644664	0.5257819
0.324245251177314	0.2552916	0.5052639
0.34177207214833777	0.19216406	0.43836522
0.3592989011147415	0.19314905	0.43948725
0.37682573848655654	0.18442014	0.42944166
0.39435258467381573	0.21675713	0.46557182
0.41187944008655414	0.15880728	0.3985063
0.42940630513480854	0.10775796	0.32826507
0.446933180228618	0.07492783	0.27372947
0.4644600657780234	0.10125536	0.31820646
0.48198696219306775	0.1408693	0.3753256
0.49951386988379676	0.190785	0.43678942
0.5170407892602581	0.16297261	0.40369865
0.5345677207325025	0.14893647	0.38592288
0.5520946647105822	0.13073035	0.3615665
0.5696216216045534	0.117246024	0.34241205
0.5871485918244737	0.16348046	0.40432718
0.6046755757804043	0.1812089	0.4256864
0.6222025738824094	0.17875607	0.42279553
0.6397295865405557	0.14729334	0.38378814
0.6572566141649129	0.14117268	0.37572953
0.6747836571655547	0.14868012	0.3855906
0.6923107159525568	0.14923267	0.38630643
0.7098377909359992	0.11520314	0.33941588
0.7273648825259653	0.0874356	0.29569513
0.7448919911325411	0.089473926	0.29912192
0.762419117165817	0.1107754	0.3328294
0.7799462610358868	0.13529395	0.36782324
0.7974734231528482	0.15096046	0.3885363
0.8150006039268024	0.17853138	0.42252973
0.8325278037678551	0.18106519	0.42551756
0.8500550230861152	0.16537787	0.4066668
0.8675822622916969	0.14946379	0.38660547
0.8851095217947171	0.18274903	0.42749155
0.9026368020052984	0.19597659	0.44269243
0.9201641033335665	0.21211347	0.4605578
0.9376914261896523	0.20286189	0.45040193
0.9552187709836915	0.22582805	0.47521368
0.9727461381258234	0.2562186	0.5061804
0.990273528026193	0.24341847	0.4933746
1.0078009410949496	0.24104135	0.4909596
1.0253283777422473	0.23558718	0.48537323
1.0428558383782454	0.27276593	0.52226996
1.0603833234131086	0.27633962	0.5256801
1.0779108332570058	0.3203071	0.56595683
1.0954383683201119	0.3391326	0.5823509
1.112965929012607	0.35958487	0.59965396
1.1304935157446763	0.43760177	0.66151476
1.1480211289265108	0.46265104	0.68018454
1.1655487689683062	1.3432841	1.1590014
1.1830764362802655	1.702274	1.3047122
1.200604131272596	2.1423907	1.4636908
1.2181318543555117	2.4786975	1.574388
1.235659605939232	2.4935026	1.5790828
1.253187386433982	4.169637	2.041969
1.270715196249994	6.552879	2.559859
1.2882430357975057	12.042179	3.4701843
1.3057709054867608	16.69051	4.085402
1.3232988057280106	22.60945	4.7549396
1.3408267369315112	27.677704	5.2609606
1.358354699507526	31.411642	5.604609
1.3758826938663256	35.482647	5.9567313
1.3934107204181858	37.43683	6.118564
1.410938779573391	38.08875	6.1716084
1.4284668717422309	38.1412	6.175856
1.4459949973350033	37.6913	6.139324
1.4635231567620117	37.49769	6.1235356
1.4810513504335687	37.033108	6.0854836
1.4985795787599925	36.655144	6.054349
1.5161078421516088	36.683872	6.056721
1.5336361410187505	36.056873	6.0047374
1.5511644757717598	35.796608	5.9830265
1.5686928468209842	36.15853	6.0131965
1.58622125457678	36.7444	6.061716
1.6037496994495108	38.038864	6.1675653
1.621278181849548	37.7941	6.147691
1.6388067021872719	38.53203	6.207417
1.6563352608730693	37.614735	6.1330853
1.673863858317336	37.04661	6.0865927
1.6913924949304753	36.346786	6.0288296
1.7089211711228998	35.22907	5.935408
1.7264498873050296	34.437508	5.868348
1.7439786438872935	33.490562	5.787103
1.7615074412801288	32.063473	5.6624618
1.779036279893981	31.332333	5.597529
1.796565160139305	30.411646	5.5146756
1.814094082426564	29.901005	5.468181
1.8316230471662298	29.203705	5.404045
1.849152054768784	28.128023	5.303586
1.8666811056447168	27.784676	5.271117
1.8842102002045273	26.961468	5.1924434
1.901739338858724	26.428059	5.140823
1.9192685220178245	26.179346	5.1165757
1.9367977500923557	25.716722	5.0711656
1.9543270234928547	25.154716	5.0154476
1.971856342629867	24.30069	4.929573
1.9893857079139496	23.736488	4.8720107
2.006915119755667	23.0818	4.8043523
2.0244445785655945	22.48366	4.741694
2.0419740847543175	21.979492	4.688229
2.0595036387324317	21.720943	4.6605735
2.0770332409105414	21.443302	4.6306915
2.094562891699263	21.277407	4.612744
2.1120925915092217	20.619892	4.540913
2.129622340751053	20.302332	4.5058107
2.1471521398354043	188.32272	13.723073
2.1646819891729323	444.5722	21.08488
2.182211889174303	440.72235	20.99339
2.1997418402501974	452.9027	21.281511
2.2172718428113023	432.65616	20.800388
2.234801897268317	320.74277	17.909292
2.2523320040319548	17.397528	4.1710343
2.269862163512935	17.230736	4.150992
2.287392376121992	16.989866	4.1218767
2.304922642269869	16.599588	4.0742593
2.322452962367322	16.231705	4.028859
2.3399833368251164	15.850038	3.9812105
2.357513766054032	15.571681	3.946097
2.3750442504648586	15.345607	3.917347
2.3925747904683963	15.010732	3.8743687
2.410105386475459	14.7430315	3.8396657
2.4276360388968707	14.329292	3.7854052
2.445166748143469	14.081093	3.7524781
2.4626975146261025	13.779746	3.7121081
2.4802283387556323	13.637864	3.6929479
2.4977592209429305	13.484097	3.6720698
2.5152901615988825	13.300688	3.6470108
2.5328211611343865	13.053722	3.6129935
2.5503522199603523	12.7429	3.5697198
2.5678833384877024	12.542196	3.5414963
2.5854145171273712	12.391301	3.520128
2.6029457562903064	12.205253	3.4936016
2.620477056387469	12.119597	3.4813213
2.6380084178298326	11.772699	3.4311368
2.655539841028383	11.565352	3.400787
2.673071326394119	11.343404	3.367997
2.6906028743380523	11.280622	3.3586636
2.708134485271211	11.069854	3.327139
2.7256661596046325	10.976068	3.313015
2.743197897749369	10.77567	3.2826316
2.760729700116486	10.522252	3.243802
2.778261567117063	10.482236	3.2376282
2.795793499162193	10.444066	3.231728
2.8133254966629817	10.303144	3.2098513
2.830857560030551	10.025581	3.1663198
2.8483896896760337	9.724369	3.118392
2.865921886010578	9.656855	3.107548
2.883454149445347	9.504026	3.08286
2.9009864803915177	9.373388	3.061599
2.91851887926028	9.241507	3.0399847
2.9360513464628384	9.283532	3.0468888
2.953583882410413	9.185019	3.0306795
2.9711164875142373	9.10835	3.0180042
2.9886491621855606	9.076208	3.0126746
3.0061819068356455	8.872182	2.9786208
3.023714721875769	8.738829	2.956151
3.041247607717225	8.556282	2.9251122
3.0587805647713213	8.46916	2.9101822
3.0763135934493806	8.4141245	2.900711
3.0938466941627407	8.247499	2.871846
3.1113798673227544	8.190848	2.861966
3.1289131133407904	8.109035	2.8476367
3.1464464326282315	8.014702	2.831025
3.1639798255964786	7.9840612	2.825608
3.1815132926569443	7.7894325	2.7909555
3.1990468342210603	7.597386	2.7563355
3.216580450700272	7.3771877	2.7160978
3.2341141425060416	7.2806764	2.698273
3.251647910049847	7.385617	2.7176492
3.2691817537431813	7.380561	2.7167187
3.286715673997555	7.352404	2.7115316
3.3042496712244938	7.197903	2.682891
3.32178374583554	7.069969	2.6589413
3.339317898242251	7.0822988	2.661259
3.3568521288562034	6.9845657	2.642833
3.3743864380889876	6.960003	2.6381817
3.3919208263522127	6.815436	2.610639
3.4094552940575023	6.7063003	2.5896525
3.4269898416164972	6.7154884	2.591426
3.444524469440858	6.5083365	2.5511441
3.4620591779422587	6.4120283	2.5321984
3.479593967532391	6.3321443	2.5163753
3.4971288386229658	6.450522	2.5397878
3.5146637916257086	6.447965	2.5392845
3.5321988269523628	6.4127026	2.5323315
3.5497339450146903	6.407677	2.531339
3.5672691462244708	6.394442	2.5287235
3.5848044309934988	6.3646493	2.5228257
3.60233979973359	6.291756	2.5083373
3.619875252856575	6.1597295	2.4818802
3.6374107907743034	6.165025	2.4829469
3.6549464138986427	6.2085156	2.4916892
3.6724821226414788	6.270925	2.5041816
3.690017917414714	6.294248	2.5088341
3.7075537986302702	6.3220296	2.5143647
3.7250897667000857	6.408991	2.5315986
3.7426258220361235	6.5630503	2.561845
3.7601619650503553	6.8507476	2.6173933
3.777698196154779	7.375414	2.7157714
3.7952345157614067	8.41771	2.901329
3.8127709242822716	9.197854	3.0327964
3.830307422129425	11.330735	3.3661158
3.847844009714936	30.155724	5.4914227
3.8653806874508954	97.650475	9.881825
3.882917455749409	96.91741	9.844665
3.900454315022606	96.71663	9.834461
3.917991265682631	41.30589	6.4269657
3.9355283081416506	10.967662	3.3117461
3.9530654428118495	8.714973	2.9521134
3.970602670105433	7.4509816	2.7296486
3.9881399904346244	6.608393	2.5706794
4.005677404211669	6.5309143	2.5555654
4.023214911848827	6.5400753	2.557357
4.0407525137583855	6.628855	2.5746562
4.058290210352644	6.696006	2.5876641
4.075828002043927	6.619326	2.5728052
4.0933658892445814	6.5720563	2.5636022
4.110903872366966	6.3764033	2.525154
4.128441951823468	6.2554545	2.5010908
4.145980128026488	6.2811437	2.506221
4.163518401388452	6.2145286	2.4928956
4.181056772321807	6.1619015	2.4823177
4.1985952412390155	6.162892	2.4825172
4.216133808552567	6.1610184	2.4821398
4.233672474674966	6.2501836	2.5000367
4.251211240018741	6.4571543	2.541093
4.268750104996445	6.7104135	2.5904465
4.286289070020643	7.7350507	2.7811959
4.303828135503928	9.455212	3.0749328
4.3213673018589125	29.71973	5.4515805
4.3389065694982305	90.85148	9.531604
4.356445938834537	166.02892	12.885221
4.3739854102805085	171.65569	13.101744
4.391524984248844	172.50563	13.13414
4.409064661152262	136.53075	11.684637
4.426604441403504	96.780106	9.837688
4.444144325415337	75.62153	8.696064
4.461684313600543	21.712374	4.6596537
4.47922440637193	21.995552	4.6899414
4.496764604142329	20.44589	4.5217133
4.5143049073245916	18.644205	4.3178935
4.531845316331589	16.6469	4.0800614
4.5493858315762195	13.945172	3.7343235
4.566926453471405	11.548026	3.3982387
4.584467182430081	9.435975	3.0718033
4.602008018865218	8.260345	2.8740816
4.619548963189798	7.6002226	2.75685
4.637090015816834	7.164505	2.6766593
4.654631177159353	6.9292946	2.6323552
4.672172447630417	6.600763	2.569195
4.689713827643102	6.4096737	2.5317333
4.7072553176105085	6.1147256	2.4727972
4.724796917945764	5.971484	2.443662
4.742338629062015	5.8960886	2.4281862
4.759880451372434	5.941761	2.4375727
4.777422385290215	5.9305573	2.4352736
4.794964431228581	5.883829	2.4256606
4.812506589600768	5.8336773	2.4153006
4.830048860820047	5.7763796	2.40341
4.847591245299709	5.6799254	2.3832593
4.8651337434530655	5.5874815	2.3637855
4.882676355693457	5.593025	2.3649578
4.900219082434242	5.6389	2.374637
4.917761924088813	5.5729904	2.3607183
4.935304881070575	5.4954457	2.3442366
4.952847953792969	5.45662	2.335941
4.970391142669449	5.4848886	2.3419838
4.9879344481135055	5.5185018	2.3491492
5.005477870538642	5.5968795	2.3657725
5.023021410358394	5.6271925	2.3721704
5.040565067986324	5.612064	2.3689795
5.05810884383601	5.572521	2.3606188
5.075652738321066	5.4920607	2.3435147
5.09319675185512	5.4295106	2.330131
5.110740884851836	5.3726935	2.317907
5.128285137724894	5.363683	2.3159628
5.145829510888007	5.4085937	2.3256383
5.163374004754908	5.516084	2.3486345
5.1809186197393595	5.6264424	2.3720124
5.198463356255145	5.578564	2.3618984
5.216008214716077	5.5447116	2.354721
5.233553195535998	5.439071	2.3321817
5.251098299128764	5.4151015	2.327037
5.268643525908272	5.3622465	2.3156526
5.286188876288432	5.4287443	2.3299665
5.3037343506831895	5.422531	2.3286328
5.32127994950651	5.3640194	2.3160353
5.3388256731723915	5.2933807	2.3007348
5.356371522094851	5.3047957	2.3032143
5.373917496687938	5.2999396	2.3021598
5.391463597365729	5.3465953	2.3122706
5.40900982454232	5.3006988	2.3023245
5.426556178631843	5.2601247	2.2934961
5.444102660048449	5.1547847	2.270415
5.4616492692063225	5.0982857	2.2579384
5.479196006519669	5.223671	2.285535
5.496742872402727	5.289719	2.299939
5.514289867269756	5.327605	2.3081605
5.531836991535049	5.232101	2.2873785
5.549384245612924	5.15766	2.2710483
5.566931629917724	5.1573486	2.2709796
5.584479144863822	5.169637	2.2736835
5.6020267908656205	5.147352	2.2687776
5.619574568337545	5.1679134	2.2733045
5.637122477694054	5.2335978	2.287706
5.654670519349629	5.2789197	2.29759
5.672218693718784	5.3260922	2.3078327
5.689767001216059	5.3091207	2.304153
5.707315442256021	5.3033576	2.302902
5.724864017253266	5.268108	2.2952359
5.7424127266224225	5.2324114	2.2874465
5.75996157077814	5.2125926	2.2831104
5.777510550135105	5.193385	2.2789
5.795059665108022	5.189341	2.2780125
5.812608916111639	5.1992188	2.2801795
5.830158303560715	5.32501	2.3075984
5.847707827870055	5.357218	2.3145664
5.86525748945448	5.403411	2.3245237
5.8828072887288485	5.5695186	2.3599827
5.900357226108044	5.6564636	2.3783321
5.917907302006979	5.605907	2.3676796
5.9354575168406	6.1485953	2.4796362
5.9530078710238765	6.78672	2.6051333
5.970558364971812	7.3575892	2.7124877
5.988108999099438	7.670946	2.7696474
6.005659773821818	8.126726	2.8507414
6.023210689554039	7.9176865	2.8138385
6.040761746711227	8.366436	2.8924792
6.058312945708531	7.714139	2.7774339
6.075864286961132	7.252805	2.6931033
6.093415770884244	6.6095233	2.5708992
6.1109673978931065	6.192318	2.488437
6.128519168402993	5.601812	2.3668146
6.146071082829204	5.431982	2.3306613
6.163623141587075	5.2803607	2.2979035
6.181175345091969	5.2140455	2.2834284
6.198727693759281	5.173205	2.274468
6.216280188004435	5.1862254	2.2773285
6.233832828242885	5.188494	2.2778265
6.251385614890126	5.188676	2.2778666
6.268938548361669	5.199405	2.2802205
6.286491629073067	5.230811	2.2870967
6.304044857439898	5.212079	2.2829978
6.321598233877777	5.1524787	2.2699072
6.339151758802344	5.1143446	2.2614918
6.356705432629277	5.0640087	2.2503352
6.37425925577428	5.087314	2.2555075
6.391813228653095	5.0866327	2.2553566
6.409367351681486	5.110045	2.260541
6.426921625275259	5.0689015	2.2514222
6.44447604985025	5.076865	2.25319
6.46203062582232	5.0690937	2.2514648
6.47958535360737	5.1010857	2.2585583
6.497140233621328	5.09968	2.2582471
6.514695266280161	5.15564	2.2706034
6.532250451999859	5.151477	2.2696865
6.549805791196454	5.2775097	2.2972832
6.567361284286002	5.2312016	2.287182
6.584916931684597	5.173185	2.2744637
6.602472733808367	5.033088	2.2434545
6.6200286910734665	4.9875464	2.2332816
6.637584803896092	4.949635	2.2247775
6.655141072692462	4.9732633	2.2300816
6.672697497878842	5.0183153	2.2401597
6.690254079871514	5.076524	2.2531142
6.707810819086808	5.1175394	2.262198
6.725367715941078	5.1149387	2.2616231
6.742924770850719	5.097728	2.257815
6.760481984232151	5.118645	2.2624424
6.778039356501836	5.05054	2.2473407
6.795596888076266	5.038273	2.2446098
6.813154579371963	4.986609	2.2330716
6.830712430805492	4.989195	2.2336507
6.84827044279344	5.046771	2.246502
6.865828615752445	5.082405	2.254419
6.883386950099159	5.1438017	2.267995
6.900945446250287	5.1422973	2.2676635
6.918504104622553	5.1326714	2.26554
6.936062925632727	5.106126	2.2596738
6.953621909697607	5.1632113	2.2722702
6.971181057234028	5.2126465	2.283122
6.988740368658859	5.237016	2.2884529
7.006299844389007	5.219355	2.2845907
7.023859484841407	5.2897243	2.29994
7.041419290433036	5.4659796	2.3379436
7.058979261580902	5.5494313	2.3557231
7.0765393987020495	5.734217	2.3946226
7.094099702213559	6.041177	2.4578805
7.111660172532549	6.361039	2.52211
7.129220810076164	6.7511597	2.5982993
7.146781615261595	7.4096828	2.7220733
7.16434258850606	7.716539	2.777866
7.181903730226821	8.181407	2.8603158
7.1994650408411704	8.245909	2.8715692
7.217026520766437	8.310405	2.8827772
7.234588170419983	8.454487	2.90766
7.252149990219215	8.443286	2.9057333
7.269711980581568	8.399358	2.8981645
7.2872741419245175	8.19618	2.8628972
7.304836474665574	7.799171	2.7926996
7.322398979222286	7.461279	2.7315342
7.339961656012233	7.23267	2.6893623
7.357524505453039	6.8807	2.6231089
7.375087527962357	6.5904236	2.567182
7.392650723957886	6.3017373	2.5103261
7.410214093857353	5.93085	2.4353337
7.427777638078528	5.7106833	2.3897035
7.445341357039213	5.51503	2.3484101
7.4629052511572525	5.386264	2.3208325
7.480469320850524	5.3318157	2.3090725
7.498033566536948	5.2754593	2.2968369
7.5155979886344735	5.25119	2.2915475
7.5331625875610975	5.2936506	2.3007934
7.550727363734844	5.301332	2.302462
7.568292317573788	5.2974396	2.3016167
7.585857449496025	5.2692156	2.2954772
7.603422759919705	5.2742825	2.2965806
7.620988249263007	5.280073	2.297841
7.638553917944147	5.260791	2.2936413
7.656119766381391	5.259128	2.293279
7.673685794993023	5.272034	2.296091
7.691252004197388	5.301767	2.3025565
7.70881839441285	5.3173723	2.3059428
7.726384966057826	5.2974973	2.3016293
7.743951719550762	5.3036485	2.3029652
7.761518655310149	5.319066	2.30631
7.779085773754511	5.352757	2.3136027
7.796653075302419	5.396196	2.3229713
7.814220560372475	5.426652	2.3295176
7.831788229383323	5.4137006	2.326736
7.8493560827536495	5.4442077	2.3332827
7.866924120902174	5.4492927	2.334372
7.884492344247663	5.473274	2.339503
7.9020607532089135	5.4721227	2.3392568
7.919629348204771	5.4250717	2.3291783
7.937198129654115	5.418402	2.3277462
7.954767097975865	5.4490776	2.334326
7.972336253588986	5.4532657	2.3352227
7.989905596912472	5.4074736	2.3253975
8.007475128365371	5.3992248	2.3236232
8.025044848366756	5.449133	2.3343377
8.042614757335754	5.5687904	2.3598285
8.060184855691523	5.6392956	2.37472
8.07775514385327	5.8502803	2.4187353
8.095325622240228	5.8600655	2.4207573
8.112896291271687	5.86714	2.4222178
8.130467151366968	5.9018593	2.4293742
8.148038202945436	5.968862	2.4431255
8.165609446426497	6.0411572	2.4578767
8.183180882229594	6.1640167	2.4827437
8.200752510774217	6.199354	2.4898503
8.218324332479893	6.23464	2.496926
8.235896347766193	6.060873	2.461884
8.253468557052724	6.000356	2.4495625
8.27104096075914	5.9936924	2.448202
8.288613559305137	6.104533	2.4707353
8.306186353110448	6.1656127	2.4830651
8.32375934259485	6.2202954	2.494052
8.341332528178162	6.2744713	2.5048895
8.358905910280246	6.309217	2.5118155
8.376479489321003	6.3495007	2.5198216
8.394053265720377	6.4001803	2.5298579
8.411627239898356	6.363869	2.522671
8.42920141227497	6.389904	2.5278258
8.44677578327029	6.4037795	2.530569
8.464350353304427	6.3012843	2.510236
8.48192512279754	6.3139133	2.5127501
8.499500092169827	6.2174864	2.4934888
8.51707526184153	6.2931943	2.508624
8.534650632232934	6.353634	2.5206416
8.552226203764365	6.380912	2.5260468
8.569801976856192	6.3768044	2.5252335
8.587377951928834	6.386793	2.5272105
8.60495412940274	6.354455	2.5208044
8.622530509698416	6.351579	2.5202339
8.6401070932364	6.4666324	2.5429573
8.657683880437283	6.5338616	2.5561419
8.675260871721695	6.749554	2.5979905
8.692838067510303	6.887038	2.6243167
8.710415468223834	7.0619335	2.65743
8.727993074283043	7.1653323	2.6768138
8.745570886108737	7.1205773	2.668441
8.763148904121765	7.200509	2.6833763
8.78072712874302	7.319172	2.705397
8.798305560393441	7.609916	2.7586076
8.815884199494006	7.7798066	2.7892306
8.833463046465745	7.909123	2.8123162
8.851042101729728	8.015394	2.8311472
8.86862136570707	8.201752	2.8638701
8.886200838818924	8.396343	2.8976445
8.903780521486505	8.480083	2.9120584
8.921360414131055	8.621397	2.9362216
8.938940517173874	8.777292	2.9626496
8.956520831036297	8.874848	2.9790683
8.97410135613971	9.163973	3.0272055
8.99168209290554	9.252548	3.0418003
9.009263041755265	9.558104	3.0916183
9.026844203110405	9.842528	3.1372805
9.044425577392525	10.047084	3.1697135
9.062007165023239	10.058644	3.1715367
9.079588966424197	10.243167	3.2004948
9.097170982017108	10.362834	3.2191355
9.11475321222372	11.364376	3.371109
9.132335657465825	12.218379	3.4954798
9.149918318165264	12.256163	3.5008802
9.167501194743924	12.843472	3.5837789
9.18508428762374	12.605297	3.5503938
9.202667597226693	12.561997	3.5442908
9.220251123974803	12.1345825	3.4834728
9.237834868290143	11.772911	3.4311676
9.255418830594836	11.63193	3.4105616
9.273003011311046	11.133103	3.3366306
9.290587410860985	10.87853	3.2982616
9.308172029666911	10.2215605	3.1971176
9.32575686815113	9.989309	3.1605868
9.343341926735997	8.83335	2.9720953
9.360927205843916	8.602824	2.933057
9.378512705897327	8.3908825	2.896702
9.396098427318728	8.216258	2.8664017
9.413684370530664	8.178891	2.8598762
9.431270535955722	8.132507	2.8517551
9.448856924016539	8.059901	2.8389964
9.466443535135806	7.894296	2.809679
9.484030369736251	7.879471	2.8070395
9.501617428240658	7.816058	2.7957213
9.519204711071852	7.811467	2.7949002
9.536792218652714	7.8280745	2.7978697
9.55437995140617	7.85972	2.8035192
9.571967909755191	7.9155054	2.8134508
9.589556094122802	7.9212894	2.8144786
9.60714450493207	7.9441814	2.8185425
9.624733142606116	7.9726253	2.8235838
9.642322007568108	8.042755	2.8359752
9.659911100241267	8.1041155	2.846773
9.677500421048851	8.10743	2.847355
9.695089970414175	8.160746	2.8567019
9.712679748760609	8.151178	2.855027
9.730269756511557	8.181604	2.8603504
9.747859994090492	8.213754	2.8659647
9.765450461920915	8.171281	2.8585453
9.78304116042639	8.177033	2.8595512
9.800632090030527	8.105486	2.8470135
9.81822325115699	8.183967	2.8607633
9.835814644229481	8.261105	2.8742137
9.853406269671762	8.291382	2.879476
9.870998127907646	8.35526	2.8905466
9.888590219360985	8.344224	2.888637
9.906182544455698	8.453961	2.9075696
9.923775103615734	8.464763	2.9094265
9.941367897265108	8.379618	2.894757
9.958960925827878	8.292928	2.8797443
9.97655418972816	8.271726	2.8760607
9.994147689390106	8.316593	2.8838503
10.011741425237934	8.340865	2.8880556
10.029335397695904	8.34213	2.8882744
10.04692960718833	8.307507	2.8822746
10.06452405413958	8.344374	2.888663
10.082118738974064	8.355723	2.890627
10.099713662116246	8.368129	2.8927717
10.117308823990651	8.328944	2.885991
10.134904225021844	8.365805	2.89237
10.152499865634445	8.330834	2.8863184
10.170095746253125	8.346409	2.8890152
10.18769186730261	8.355765	2.890634
10.205288229207675	8.343204	2.8884604
10.222884832393145	8.266641	2.8751767
10.2404816772839	8.165538	2.8575406
10.258078764304868	8.087487	2.8438509
10.275676093881035	8.146196	2.8541543
10.293273666437438	8.1461315	2.854143
10.310871482399158	8.284864	2.878344
10.32846954219134	8.234206	2.8695307
10.346067846239173	8.224314	2.8678064
10.363666394967908	8.211897	2.8656406
10.38126518880283	8.177091	2.8595612
10.398864228169298	8.232373	2.8692112
10.416463513492713	8.340368	2.8879695
10.434063045198531	8.500991	2.9156458
10.451662823712262	8.534975	2.921468
10.469262849459467	8.4629755	2.9091194
10.486863122865758	8.241997	2.8708878
10.504463644356806	8.213286	2.865883
10.522064414358338	8.167879	2.8579502
10.539665433296118	8.06109	2.839206
10.557266701595987	7.9323483	2.8164425
10.574868219683818	7.7927337	2.7915468
10.592469987985552	7.7270894	2.7797642
10.610072006927185	7.6831956	2.7718577
10.627674276934751	7.6034145	2.757429
10.64527679843435	7.5311737	2.7442985
10.662879571852143	7.4091806	2.721981
10.680482597614331	7.3158493	2.7047827
10.698085876147173	7.140988	2.6722627
10.715689407876988	6.9952364	2.644851
10.733293193230146	6.91511	2.6296597
10.750897232633072	6.8261375	2.6126878
10.76850152651225	6.733733	2.5949438
10.786106075294207	6.631339	2.5751386
10.803710879405534	6.5800185	2.5651548
10.821315939272877	6.518818	2.5531976
10.83892125532294	6.5567513	2.5606153
10.856526827982472	6.5292807	2.5552456
10.874132657678285	6.4821286	2.5460024
10.891738744837243	6.3056564	2.5111067
10.909345089886271	6.1996346	2.4899065
10.926951693252343	6.151447	2.480211
10.944558555362494	6.093168	2.4684343
10.96216567664381	6.0174923	2.4530578
10.979773057523436	5.891009	2.42714
10.997380698428573	5.8784943	2.4245605
11.014988599786477	5.865914	2.421965
11.032596762024461	5.800431	2.4084084
11.050205185569892	5.696303	2.3866928
11.067813870850198	5.592428	2.3648314
11.085422818292859	5.528085	2.351188
11.10303202832541	5.4588475	2.3364177
11.120641501375454	5.392917	2.3222656
11.138251237870636	5.335921	2.3099613
11.155861238238671	5.312005	2.3047788
11.173471502907317	5.300093	2.3021932
11.191082032304402	5.219944	2.2847197
11.208692826857805	5.112752	2.2611396
11.226303886995465	5.0563145	2.248625
11.243915213145371	5.04822	2.2468245
11.261526805735578	5.009465	2.2381835
11.279138665194196	4.9928985	2.2344794
11.296750791949393	4.970313	2.22942
11.314363186429393	4.917575	2.2175605
11.331975849062479	4.8292003	2.197544
11.34958878027699	4.734231	2.1758287
11.36720198050133	4.677736	2.1628075
11.384815450163948	4.70362	2.168783
11.402429189693366	4.672006	2.1614823
11.420043199518153	4.603185	2.1455035
11.437657480066942	63.53214	7.970705
11.455272031768422	85.25666	9.233454
11.472886855051353	107.69285	10.377517
11.490501950344528	99.25266	9.9625635
11.508117318076819	84.57045	9.196219
11.52573295867715	45.919384	6.7763844
11.543348872574514	4.2125745	2.0524557
11.560965060197946	4.167713	2.0414977
11.57858152197655	4.1279483	2.0317352
11.59619825833949	4.104644	2.0259922
11.613815269715985	4.114855	2.0285106
11.631432556535323	38.629272	6.2152452
11.649050119226837	83.12695	9.117398
11.666667958219929	93.50254	9.669671
11.68428607394406	107.74296	10.3799305
11.701904466828756	82.56586	9.0865755
11.719523137303586	65.395905	8.086774
11.737142085798196	4.621269	2.1497138
11.754761312742286	3.714535	1.9273129
11.772380818565619	3.6842425	1.9194381
11.790000603698015	3.6819785	1.9188482
11.80762066856935	3.6362224	1.9068881
11.825241013609572	3.586734	1.8938675
11.842861639248683	3.5554063	1.8855785
11.860482545916748	3.5782	1.8916131
11.878103734043883	3.5793118	1.891907
11.895725204060282	3.5795474	1.8919692
11.91334695639619	3.54674	1.8832791
11.930968991481919	3.4941378	1.8692613
11.948591309747824	3.4473965	1.8567166
11.966213911624347	3.399088	1.8436615
11.98383679754198	3.3174956	1.8213993
12.001459967931268	3.29101	1.8141141
12.019083423222835	3.2719483	1.8088528
12.036707163847352	3.27161	1.8087592
12.05433119023556	3.179167	1.7830219
12.071955502818259	3.1382515	1.7715111
12.089580102026313	3.125964	1.7680396
12.107204988290643	3.181855	1.7837754
12.12483016204224	3.1875756	1.7853782
12.142455623712152	3.1892748	1.7858541
12.16008137373149	3.147183	1.7740301
12.177707412531431	3.1787763	1.7829123
12.19533374054321	3.1538675	1.7759131
12.212960358198126	3.1570873	1.7768195
12.230587265927545	3.099827	1.7606325
12.248214464162889	3.070294	1.7522254
12.265841953335649	3.0423772	1.7442411
12.283469733877375	3.0295928	1.7405726
12.301097806219685	3.0076084	1.7342458
12.31872617079425	2.9810097	1.7265601
12.336354828032825	2.9915538	1.7296109
12.353983778367205	3.0152133	1.736437
12.371613022229262	3.0175073	1.7370974
12.389242560050928	2.9770982	1.7254269
12.406872392264201	2.901782	1.7034618
12.424502519301143	2.8573844	1.69038
12.442132941593874	2.7953522	1.6719307
12.459763659574586	2.8010406	1.673631
12.477394673675532	2.815802	1.6780351
12.49502598432903	2.830069	1.6822809
12.51265759196746	2.8355768	1.683917
12.530289497023267	2.8071153	1.6754448
12.547921699928967	2.8087847	1.6759429
12.565554201117134	2.8419106	1.6857967
12.583187001020404	2.8132083	1.6772622
12.600820100071486	2.7787666	1.6669633
12.618453498703152	2.772222	1.6649991
12.636087197348235	2.8221486	1.6799252
12.65372119643964	2.8674276	1.693348
12.671355496410326	2.8446424	1.6866068
12.68899009769333	2.8421147	1.6858573
12.706625000721749	2.843174	1.6861714
12.724260205928752	2.878902	1.6967328
12.741895713747551	2.9092345	1.7056478
12.759531524611454	2.9739418	1.7245121
12.777167638953818	3.007366	1.7341759
12.794804057208072	3.073935	1.7532641
12.812440779807702	3.1142313	1.7647185
12.830077807186271	3.2799578	1.8110653
12.847715139777405	3.286446	1.8128558
12.865352778014795	3.4973543	1.8701215
12.882990722332197	3.635316	1.9066504
12.90062897316344	3.6709914	1.9159832
12.918267530942412	3.7408023	1.9341154
12.935906396103071	3.6023781	1.8979932
12.953545569079449	3.8159857	1.9534549
12.971185050305628	3.631127	1.9055517
12.988824840215775	3.6841764	1.9194208
13.006464939244115	3.6720564	1.9162611
13.024105347824943	3.5310009	1.8790958
13.041746066392617	3.6082647	1.8995433
13.05938709538157	3.3957605	1.8427589
13.077028435226296	3.3986914	1.843554
13.094670086361363	3.310124	1.8193746
13.112312049221401	3.2109861	1.7919225
13.129954324241112	3.0847688	1.756351
13.147596911855258	2.8597248	1.6910721
13.165239812498685	2.8302183	1.6823252
13.182883026606293	2.768853	1.663987
13.200526554613058	2.7309828	1.6525686
13.218170396954017	2.725476	1.6509016
13.235814554064284	2.725118	1.6507931
13.253459026379034	2.7061563	1.6450399
13.271103814333523	2.6917124	1.6406438
13.288748918363058	2.685501	1.6387498
13.306394338903031	2.7140887	1.6474491
13.32404007638889	2.7265654	1.6512315
13.341686131256164	2.7325444	1.653041
13.359332503940449	2.7209861	1.6495411
13.376979194877402	2.7122195	1.6468817
13.394626204502751	2.7587852	1.6609591
13.412273533252307	2.8261883	1.6811271
13.429921181561937	2.8239388	1.680458
13.447569149867581	2.7859583	1.669119
13.465217438605247	2.767023	1.6634371
13.482866048211022	2.7077324	1.6455189
13.500514979121052	2.7022984	1.6438669
13.518164231771568	2.6857471	1.6388249
13.535813806598844	2.672697	1.6348386
13.553463704039254	2.664802	1.6324222
13.571113924529229	2.6587389	1.630564
13.588764468505275	2.6991105	1.642897
13.606415336403956	2.765202	1.6628897
13.624066528661917	2.7466223	1.6572937
13.641718045715882	2.763024	1.6622347
13.659369888002635	2.8062396	1.6751834
13.67702205595903	2.877235	1.6962414
13.694674550021993	2.971228	1.723725
13.712327370628532	3.0451982	1.7450496
13.729980518215713	3.1438816	1.7730994
13.747633993220681	3.2026532	1.7895958
13.765287796080647	3.2122557	1.7922767
13.7829419272329	3.2804697	1.8112067
13.800596387114801	3.3189857	1.8218083
13.818251176163775	3.3994982	1.8437728
13.835906294817324	3.4572196	1.85936
13.853561743513023	3.4982586	1.8703632
13.871217522688525	3.5330272	1.8796349
13.888873632781538	3.5630593	1.8876067
13.906530074229858	3.5505493	1.8842901
13.92418684747135	3.4957316	1.8696876
13.941843952943948	3.4912994	1.8685019
13.959501391085665	3.5189855	1.875896
13.977159162334578	3.4919221	1.8686686
13.994817267128846	3.4282598	1.8515561
14.012475705906693	3.322817	1.8228596
14.030134479106424	3.1909363	1.7863193
14.047793587166414	3.1260822	1.768073
14.065453030525108	3.084019	1.7561375
14.083112809621026	3.0516863	1.7469076
14.100772924892766	2.9777734	1.7256227
14.118433376778997	2.9388306	1.7143018
14.136094165718458	2.869597	1.6939884
14.153755292149969	2.7766073	1.6663154
14.171416756512416	2.6898816	1.6400858
14.189078559244768	2.642333	1.6255255
14.20674070078606	2.59694	1.6115024
14.224403181575408	2.5793395	1.6060323
14.242066002051999	2.5453498	1.5954152
14.259729162655093	2.526205	1.589404
14.277392663824022	2.4779096	1.5741377
14.295056505998208	2.4279308	1.5581819
14.312720689617128	2.424426	1.5570569
14.330385215120348	2.3871355	1.5450357
14.348050082947497	2.3981166	1.5485853
14.3657152935383	2.3925643	1.5467917
14.383380847332528	2.4087155	1.5520037
14.401046744770051	2.4163508	1.5544616
14.418712986290798	2.39792	1.5485219
14.436379572334793	2.39526	1.5476627
14.454046503342123	2.3985088	1.548712
14.471713779752946	2.3961163	1.5479393
14.489381402007504	2.3882878	1.5454086
14.507049370546113	2.3780236	1.5420842
14.524717685809168	2.3781114	1.5421126
14.542386348237134	2.4085252	1.5519423
14.560055358270553	2.4459436	1.5639513
14.577724716350051	2.5149617	1.5858631
14.595394422916325	2.5498881	1.5968369
14.61306447841015	2.587052	1.6084316
14.63073488327237	2.5819905	1.6068573
14.648405637943917	2.5616004	1.6005001
14.6660767428658	2.5096796	1.5841968
14.683748198479094	2.501126	1.5814949
14.701420005224954	2.5174348	1.5866426
14.719092163544628	2.6165905	1.6175879
14.73676467387942	2.6942713	1.6414236
14.754437536670727	2.7554991	1.6599696
14.772110752360014	2.7645378	1.6626899
14.78978432138882	2.7585063	1.6608752
14.807458244198777	2.7380514	1.6547059
14.82513252123159	2.6984394	1.6426927
14.842807152929028	2.6791728	1.6368179
14.860482139732962	2.6556385	1.6296129
14.87815748208531	2.6735432	1.6350973
14.8958331804281	2.7121067	1.6468475
14.91350923520342	2.6845763	1.6384677
14.931185646853438	2.693185	1.6410927
14.948862415820408	2.6733184	1.6350286
14.966539542546656	2.7076678	1.6454992
14.98421702747459	2.6482675	1.6273499
15.001894871046696	2.6305723	1.6219039
15.019573073705542	2.610662	1.6157544
15.037251635893766	2.6765707	1.6360228
15.054930558054092	2.697774	1.6424901
15.072609840629323	2.7891247	1.6700673
15.090289484062351	2.9387555	1.7142799
15.107969488796124	3.2737331	1.8093461
15.125649855273691	3.6699831	1.91572
15.14333058393817	4.1504216	2.0372584
15.161011675232768	5.033987	2.2436547
15.17869312960076	6.3699026	2.5238667
15.196374947485506	8.235114	2.8696887
15.214057129330447	11.393512	3.3754277
15.231739675579114	16.162876	4.020308
15.249422586675102	21.126621	4.59637
15.267105863062092	24.2076	4.920122
15.284789505183847	24.374998	4.937104
15.302473513484218	22.312609	4.7236223
15.320157888407127	18.80142	4.3360605
15.337842630396578	14.71806	3.8364124
15.355527739896656	11.437632	3.3819568
15.37321321735153	8.892666	2.9820573
15.39089906320545	6.5461445	2.5585434
15.408585277902748	4.8898463	2.2112997
15.42627186188783	3.827629	1.9564327
15.443958815605198	3.296825	1.8157161
15.461646139499424	2.9878118	1.7285287
15.479333834015168	2.7941396	1.671568
15.497021899597165	2.7224278	1.6499782
15.514710336690234	2.72883	1.6519171
15.53239914573928	2.715016	1.6477305
15.550088327189297	2.662474	1.6317089
15.567777881485336	2.5653384	1.6016674
15.58546780907256	2.5228162	1.5883375
15.6031581103962	2.499513	1.5809848
15.620848785901568	2.4802232	1.5748724
15.638539836034063	2.4358037	1.5607061
15.656231261239173	2.444804	1.5635868
15.673923061962451	2.4898093	1.5779129
15.691615238649552	2.5221803	1.5881374
15.709307791746202	2.5079038	1.5836363
15.727000721698221	2.4634037	1.5695235
15.744694028951498	2.4449887	1.563646
15.76238771395202	2.4006758	1.5494114
15.780081777145844	2.4116244	1.5529406
15.797776218979125	2.43056	1.5590254
15.815471039898094	2.408113	1.5518095
15.833166240349064	2.4119446	1.5530437
15.850861820778437	2.4002345	1.549269
15.868557781632699	2.3969202	1.548199
15.886254123358412	2.4185684	1.5551747
15.903950846402232	2.4089928	1.552093
15.921647951210897	2.391073	1.5463095
15.939345438231225	2.403863	1.5504396
15.957043307910133	2.426267	1.5576478
15.974741560694602	2.4657218	1.5702617
15.992440197031714	2.4776444	1.5740535
16.01013921736862	2.441916	1.5626631
16.02783862215259	2.4089148	1.5520679
16.045538411830933	2.4168162	1.5546113
16.06323858685107	2.4617913	1.5690097
16.080939147660512	2.4487336	1.5648429
16.09864009470684	2.4413006	1.5624661
16.11634142843774	2.4130569	1.5534017
16.134043149300954	2.4075959	1.551643
16.15174525774433	2.4022052	1.549905
16.169447754215817	2.4007044	1.5494207
16.18715063916342	2.4684346	1.5711253
16.204853913035244	2.5196006	1.587325
16.222557576279478	2.516818	1.5864482
16.240261629344403	22.465631	4.7397923
16.257966072678386	42.94568	6.553295
16.275670906729868	38.04286	6.167889
16.293376131947387	2.462384	1.5691985
16.31108174877957	2.5314465	1.591052
16.328787757675133	2.5787156	1.605838
16.34649415908287	2.5984974	1.6119856
16.364200953451657	2.6095073	1.615397
16.38190814123048	2.6115372	1.6160251
16.39961572286839	2.645905	1.6266239
16.41732369881455	2.6720247	1.634633
16.43503206951817	2.7415502	1.6557627
16.45274083542859	2.7868285	1.6693797
16.47044999699522	2.8253884	1.6808891
16.488159554667558	2.8670704	1.6932425
16.505869508895184	2.9192874	1.7085923
16.523579860127786	2.9477808	1.7169102
16.541290608815117	2.9674354	1.7226245
16.559001755407035	2.9986823	1.7316704
16.57671330035348	3.049656	1.7463264
16.59442524410448	3.1266897	1.7682447
16.61213758711015	3.1810472	1.7835491
16.629850329820705	3.265196	1.8069854
16.647563472686436	3.3479156	1.829731
16.665277016157724	3.417058	1.8485286
16.682990960685053	3.4875104	1.8674878
16.70070530671898	3.5233204	1.877051
16.718420054710155	3.5240674	1.87725
16.736135205109335	3.5273159	1.8781149
16.753850758367335	3.5490258	1.8838859
16.771566714935087	3.589591	1.8946216
16.789283075263597	3.6554067	1.9119118
16.80699983980398	3.7525585	1.9371521
16.82471700900741	3.8789604	1.9695077
16.84243458332518	3.9379938	1.984438
16.860152563208665	3.9722404	1.9930481
16.87787094910932	4.04458	2.0111141
16.89558974147871	4.0993295	2.0246801
16.913308940768466	4.1903787	2.0470414
16.931028547430333	4.2417808	2.0595584
16.94874856191613	4.316905	2.0777164
16.966468984677785	4.320738	2.0786386
16.98418981616729	4.392595	2.095852
17.00191105683676	4.446819	2.1087482
17.019632707138374	4.5127487	2.1243231
17.03735476752442	4.5160384	2.1250973
17.05507723844728	4.5878625	2.1419296
17.072800120359403	4.6516886	2.1567774
17.090523413713353	4.733089	2.1755664
17.108247118961785	4.7400603	2.177168
17.125971236557437	4.7067475	2.169504
17.143695766953133	4.653039	2.1570904
17.161420710601806	4.673263	2.1617732
17.179146067956477	4.7100816	2.1702724
17.19687183947025	4.75076	2.1796238
17.21459802559634	4.746783	2.1787112
17.232324626788028	4.7342353	2.17583
17.25005164349871	4.7531238	2.180166
17.267779076181863	4.705223	2.1691527
17.285506925291074	4.7033877	2.1687295
17.30323519127999	4.6809645	2.1635537
17.320963874602384	4.66931	2.1608586
17.33869297571211	4.6345696	2.152805
17.356422495063114	4.5803127	2.1401665
17.37415243310944	4.5146246	2.1247647
17.391882790305218	4.5096483	2.1235933
17.40961356710468	4.4947386	2.1200798
17.42734476396215	4.5745225	2.1388133
17.445076381332044	4.5916266	2.1428082
17.462808419668868	4.5975237	2.1441836
17.48054087942723	4.7261934	2.173981
17.498273761061835	5.008211	2.2379034
17.51600706502747	5.5746017	2.3610594
17.533740791779024	6.2714586	2.504288
17.551474941771485	7.64698	2.7653172
17.56920951545993	8.721935	2.9532924
17.586944513299528	10.916254	3.3039756
17.60467993574556	12.565504	3.5447855
17.622415783253373	14.196812	3.7678657
17.64015205627843	15.51972	3.9395075
17.657888755276293	16.594032	4.0735774
17.675625880702604	17.103779	4.1356716
17.69336343301311	16.865875	4.106808
17.71110141266366	16.044422	4.005549
17.728839820110178	15.077584	3.8829865
17.746578655808705	14.201096	3.768434
17.764317920215372	12.893631	3.5907702
17.7820576137864	11.389287	3.3748019
17.79979773697811	9.47203	3.0776663
17.81753829024692	7.5648074	2.7504196
17.835279274049356	5.924465	2.4340224
17.85302068884201	4.8916774	2.2117138
17.870762535081607	4.2799244	2.0687978
17.888504813224934	3.952511	1.9880923
17.90624752372891	3.7775562	1.9435936
17.923990667050536	3.635945	1.9068154
17.941734243646895	3.5841916	1.8931961
17.959478253975185	3.5715656	1.8898586
17.9772226984927	3.543668	1.8824633
17.994967577656833	3.4962718	1.869832
18.01271289192506	3.414945	1.8479569
18.030458641754965	3.4061506	1.8455759
18.04820482760425	3.3759336	1.8373713
18.06595144993067	3.3540447	1.8314052
18.083698509192125	3.2990968	1.8163416
18.101446005846576	3.2343419	1.7984276
18.119193940352105	3.2011929	1.7891878
18.136942313166887	3.1792316	1.78304
18.1546911247492	3.182066	1.7838346
18.1724403755574	3.1796892	1.7831683
18.19019006604997	3.1576605	1.7769808
18.207940196685467	3.139466	1.7718538
18.225690767922575	3.092207	1.7584672
18.243441780220046	3.0746157	1.7534583
18.261193234036764	3.0691056	1.7518862
18.278945129831676	3.0974452	1.759956
18.29669746806386	3.0563087	1.7482302
18.314450249192483	3.0459163	1.7452554
18.3322034736768	3.0532148	1.7473451
18.349957141976184	3.073742	1.753209
18.3677112545501	3.0297081	1.7406057
18.385465811858108	3.022285	1.738472
18.403220814359884	3.02839	1.740227
18.420976262515172	3.1060352	1.7623948
18.43873215678387	3.173724	1.7814949
18.456488497625923	3.204801	1.7901958
18.474245285501407	3.2926505	1.8145661
18.492002520870486	3.379095	1.8382316
18.50976020419343	3.4952948	1.8695707
18.527518335930615	3.7629757	1.9398391
18.545276916542516	4.325402	2.07976
18.563035946489688	4.4929476	2.1196575
18.580795426232832	4.975502	2.2305834
18.598555356232698	4.8558187	2.2035923
18.616315736950185	5.1686826	2.2734737
18.63407656884626	4.8077254	2.1926527
18.65183785238201	5.0047603	2.237132
18.669599588018617	4.7393193	2.1769977
18.68736177621737	4.728176	2.174437
18.705124417439652	4.6821904	2.163837
18.72288751214696	4.478909	2.1163433
18.740651060800886	4.612822	2.1477482
18.758415063863115	4.3484516	2.0852942
18.77617952179546	4.509166	2.1234796
18.793944435059814	4.2924666	2.071827
18.811709804118184	4.314067	2.0770333
18.829475629432675	4.2455297	2.0604682
18.8472419114655	4.01777	2.0044374
18.86500865067897	4.1384797	2.0343254
18.88277584753551	3.8893952	1.972155
18.90054350249763	3.936249	1.9839983
18.918311616027957	3.5572932	1.8860788
18.936080188589226	3.4190922	1.8490788
18.953849220644265	3.0587468	1.7489274
18.971618712656007	2.8859978	1.6988225
18.9893886650875	2.846989	1.6873022
19.007159078401887	8.02306	2.8325007
19.024929953062408	32.944023	5.7396884
19.042701289532435	32.91263	5.736953
19.060473088275405	25.496565	5.0494123
19.07824534975489	2.7497864	1.658248
19.096018074434568	2.7191353	1.64898
19.113791262778197	2.6603997	1.6310731
19.13156491524966	2.6145434	1.616955
19.149339032312945	2.5933752	1.610396
19.167113614432136	2.5601194	1.6000373
19.184888662071433	2.516902	1.5864747
19.202664175695123	2.518968	1.5871258
19.220440155767623	2.5493238	1.5966603
19.238216602753447	2.5585701	1.5995531
19.2559935171172	2.547394	1.5960557
19.27377089932361	2.5277433	1.5898879
19.291548749837514	2.5157464	1.5861105
19.309327069123835	2.495121	1.5795952
19.32710585764763	2.4935582	1.5791005
19.344885115874032	2.5008354	1.581403
19.362664844268313	2.539722	1.5936505
19.380445043295822	2.5301678	1.5906501
19.39822571342203	2.4774413	1.573989
19.41600685511252	2.4515364	1.5657383
19.43378846883297	2.4717114	1.5721678
19.451570555049173	2.4853694	1.5765054
19.469353114227037	2.5056598	1.5829276
19.48713614683254	2.4977596	1.5804302
19.50491965333182	2.4843493	1.5761819
19.52270363419109	2.520052	1.5874672
19.540488089876686	2.5415916	1.594237
19.55827302085503	2.5359926	1.5924801
19.576058427592674	2.526231	1.5894122
19.593844310556282	2.5096855	1.5841987
19.611630670212598	2.5241678	1.588763
19.629417507028506	2.5082543	1.5837469
19.64720482147098	2.517873	1.5867807
19.6649926140071	2.5042446	1.5824805
19.682780885104084	2.506305	1.5831314
19.70056963522921	2.5108263	1.5845587
19.718358864849908	2.5072868	1.5834415
19.7361485744337	2.5218518	1.5880339
19.753938764448215	2.5553493	1.598546
19.771729435361202	2.5947914	1.6108357
19.789520587640506	2.5801268	1.6062773
19.807312221754092	2.550472	1.5970197
19.825104338170043	2.5476308	1.5961299
19.842896937356517	2.5510712	1.5972073
19.860690019781824	2.5701432	1.6031666
19.87848358591436	2.5613966	1.6004363
19.896277636222635	2.5245311	1.5888773
19.914072171175278	2.4784827	1.5743197
19.931867191241015	2.4590018	1.5681205
19.94966269688869	2.498971	1.5808134
19.967458688587264	2.5375772	1.5929774
19.985255166805807	2.5460324	1.5956292
20.00305213201348	2.5510318	1.597195
20.020849584679578	2.5517156	1.597409
20.038647525273507	2.539568	1.5936022
20.05644595426477	2.5299442	1.5905799
20.07424487212299	2.5283973	1.5900935
20.092044279317903	2.4899046	1.5779432
20.109844176319353	2.4458039	1.5639066
20.127644563597304	2.4035213	1.5503294
20.145445441621817	2.388743	1.5455558
20.16324681086307	2.381164	1.5431021
20.181048671791373	2.4033277	1.550267
20.198851024877122	2.4462042	1.5640346
20.216653870590836	2.4427416	1.5629272
20.234457209403146	2.4287004	1.5584289
20.252261041784802	2.3986726	1.5487648
20.270065368206662	2.395353	1.5476928
20.287870189139685	2.4061377	1.551173
20.305675505054968	2.4043484	1.5505961
20.323481316423702	2.3962543	1.547984
20.341287623717207	2.3997555	1.5491145
20.359094427406884	2.3920488	1.546625
20.376901727964288	2.3724985	1.5402917
20.39470952586107	2.3565423	1.5351033
20.41251782156899	2.3602054	1.536296
20.430326615559935	2.3749683	1.5410932
20.448135908305886	2.3459268	1.5316418
20.465945700278965	2.3387263	1.5292895
20.483755991951384	2.349496	1.5328065
20.50156678379548	2.3385873	1.5292441
20.519378076283708	2.3617668	1.5368041
20.537189869888635	2.3621283	1.5369217
20.55500216508294	2.3586752	1.535798
20.572814962339415	2.3425913	1.5305526
20.59062826213098	2.335956	1.5283835
20.60844206493066	2.3293068	1.5262067
20.626256371211593	2.3046865	1.5181195
20.644071181447032	2.2882028	1.5126806
20.66188649611036	2.3044233	1.5180327
20.67970231567506	2.327362	1.5255694
20.697518640614742	2.3524854	1.5337814
20.715335471403122	2.3602118	1.5362982
20.73315280851404	2.3746085	1.5409765
20.750970652421447	2.3492217	1.5327171
20.768789003599412	2.3381069	1.529087
20.786607862522136	2.3264887	1.5252832
20.8044272296639	2.3624976	1.5370418
20.82224710549913	2.3482473	1.5323992
20.84006749050237	2.3669577	1.538492
20.857888385148268	3.9138165	1.9783368
20.8757097899116	45.967762	6.779953
20.893531705267254	64.79283	8.049399
20.911354131690224	83.8002	9.154245
20.92917706965566	69.079475	8.311406
20.94700051963877	50.12772	7.0800934
20.96482448211493	29.400488	5.4222217
20.982648957559622	4.13152	2.032614
21.00047394644843	2.2641227	1.5047002
21.01829944925707	2.269597	1.5065182
21.036125466461375	2.261621	1.5038687
21.053951998537297	2.2239027	1.4912755
21.071779045960906	2.1971586	1.4822816
21.089606609208378	2.207221	1.4856719
21.10743468875603	2.2190993	1.4896642
21.12526328508028	2.2130458	1.487631
21.143092398657675	2.218487	1.4894587
21.16092202996488	2.2308846	1.4936146
21.17875217947867	2.2476187	1.4992061
21.19658284767596	2.2323442	1.4941031
21.21441403503377	2.2331219	1.4943633
21.232245742029225	2.2386148	1.4962001
21.2500779691396	2.2368479	1.4956095
21.26791071684227	2.187029	1.4788606
21.28574398561475	2.1624782	1.4705367
21.30357777593465	2.1934042	1.4810146
21.321412088279704	2.2232404	1.4910535
21.339246923127792	2.22365	1.4911908
21.357082280956888	2.1882584	1.4792763
21.3749181622451	2.1558695	1.468288
21.392754567470647	2.1448002	1.4645137
21.41059149711187	2.1822064	1.4772292
21.42842895164726	2.2003706	1.4833646
21.446266931555378	2.1753194	1.4748964
21.464105437314945	2.165104	1.4714292
21.481944469404798	2.1964319	1.4820364
21.49978402830388	2.1802926	1.4765813
21.51762411449127	2.1710377	1.4734441
21.53546472844617	2.1182656	1.4554262
21.553305870647876	2.1115077	1.4531028
21.571147541575865	2.087855	1.4449412
21.58898974170967	2.0711281	1.4391415
21.60683247152899	2.0664074	1.4375004
21.62467573151363	2.095248	1.4474971
21.642519522143523	2.0922935	1.4464762
21.660363843898722	2.0875704	1.4448427
21.6782086972594	2.0708625	1.4390491
21.696054082705864	2.0786996	1.4417696
21.713900000718535	2.0667758	1.4376285
21.73174645177795	2.0646744	1.4368975
21.749593436364794	2.0862546	1.4443873
21.767440954959845	2.0941818	1.4471288
21.785289008044032	2.0698824	1.4387085
21.803137596098388	2.0435634	1.4295325
21.820986719604086	2.0351682	1.4265932
21.838836379042412	2.0346618	1.4264157
21.85668657489478	2.0538735	1.4331342
21.87453730764273	2.0396209	1.4281529
21.892388577767914	2.0082536	1.4171287
21.91024038575213	2.0110462	1.4181136
21.928092732077285	1.9988503	1.413807
21.945945617225426	1.9972057	1.4132253
21.963799041678694	2.0126681	1.4186853
21.981653005919398	31.343117	5.598492
21.999507510429943	78.15483	8.840522
22.01736255569286	73.09534	8.549582
22.035218142190818	4.18222	2.0450478
22.05307427040661	2.0095992	1.4176034
22.07093094082315	2.0473635	1.4308611
22.088788153923474	2.0292156	1.4245054
22.106645910190746	2.006057	1.4163535
22.12450421010827	1.9932319	1.4118186
22.142363054159464	1.9992709	1.4139558
22.16022244282787	2.0149777	1.4194992
22.178082376597164	2.0362527	1.4269732
22.195942855951145	2.033846	1.4261297
22.213803881373742	2.0006592	1.4144466
22.231665453349002	1.9996984	1.414107
22.24952757236111	2.0067115	1.4165845
22.26739023889438	2.0027332	1.4151796
22.28525345343323	2.0008118	1.4145006
22.30311721646225	1.9763391	1.4058232
22.320981528466113	1.9631107	1.4011105
22.33884638992964	1.9788649	1.4067214
22.356711801337788	1.990217	1.4107505
22.37457776317561	1.9785763	1.4066187
22.392444275928337	1.9579809	1.3992786
22.410311340081282	1.9541904	1.3979236
22.428178956119904	1.9469959	1.395348
22.446047124529805	1.9124999	1.3829316
22.46391584579669	1.892052	1.3755188
22.481785120406414	1.9082798	1.381405
22.49965494884496	1.9421718	1.3936182
22.51752533159841	1.9585334	1.3994762
22.53539626915302	1.9455838	1.3948419
22.553267761995137	1.9660666	1.4021649
22.571139810611264	1.967662	1.4027338
22.589012415488025	1.9798398	1.4070678
22.60688557711216	1.9911478	1.4110804
22.624759295970566	1.9830652	1.4082135
22.642633572550263	1.9949409	1.4124237
22.660508407338362	1.9809716	1.4074699
22.67838380082217	1.9612097	1.400432
22.696259753489077	1.9204413	1.3857999
22.714136265826614	1.9212172	1.3860798
22.73201333832246	1.9597589	1.3999139
22.74989097146439	1.9932097	1.4118108
22.76776916574035	1.9891684	1.4103788
22.785647921638393	1.9794053	1.4069134
22.803527239646712	1.964983	1.4017785
22.82140712025363	1.9636523	1.4013038
22.839287563947593	1.9540675	1.3978796
22.85716857121719	1.9521446	1.3971916
22.875050142551135	1.9628634	1.4010223
22.892932278438277	1.972225	1.4043592
22.910814979367604	1.9703281	1.4036838
22.928698245828222	1.9729626	1.4046218
22.946582078309387	1.9630027	1.401072
22.96446647730047	1.9367418	1.3916687
22.98235144329098	1.9061813	1.3806453
23.000236976770562	1.9124691	1.3829205
23.018123078229	1.944695	1.3945233
23.03600974815619	1.9556041	1.3984292
23.053896987042194	1.9597075	1.3998955
23.071784795377173	1.9064711	1.3807502
23.08967317365145	1.9199693	1.3856295
23.10756212235546	1.9217279	1.386264
23.125451641979787	1.9243145	1.3871967
23.143341733015134	1.8993205	1.3781583
23.161232395952357	1.9026285	1.379358
23.179123631282426	1.9195482	1.3854775
23.197015439496468	1.9429915	1.3939123
23.214907821085717	1.9341028	1.3907202
23.23280077654157	1.9516835	1.3970267
23.250694306355538	1.9733591	1.404763
23.268588411019277	1.9893434	1.4104408
23.28648309102458	1.9356778	1.3912864
23.304378346863356	1.8823216	1.3719772
23.322274179027676	1.8985649	1.3778843
23.340170588009723	1.92072	1.3859004
23.358067574301852	1.9365352	1.3915945
23.37596513839651	1.9424531	1.3937192
23.39386328078629	1.9330622	1.390346
23.411762001963947	1.916998	1.384557
23.429661302422353	1.9605356	1.4001913
23.4475611826545	1.9727585	1.4045492
23.46546164315356	1.9248403	1.3873862
23.48336268441279	1.8869202	1.3736521
23.501264306925638	1.9044509	1.3800185
23.51916651118564	1.9194658	1.3854479
23.537069297686497	1.8944126	1.3763766
23.554972666922037	1.8939403	1.3762051
23.57287661938623	1.9017453	1.3790379
23.59078115557318	1.931372	1.3897381
23.608686275977128	1.9432323	1.3939986
23.62659198109246	1.9436375	1.394144
23.6444982714137	1.9251819	1.3875092
23.66240514743549	1.9001167	1.3784472
23.68031260965263	1.8859147	1.3732861
23.698220658560068	1.8980992	1.3777152
23.716129294652845	1.9001564	1.3784616
23.7340385184262	1.8446988	1.3581969
23.75194833037546	1.7905799	1.3381255
23.769858730996123	1.8049148	1.3434712
23.78776972078382	1.8571194	1.3627617
23.80568130023431	1.9402864	1.3929416
23.823593469843495	1.9519631	1.3971267
23.841506230107424	1.9290508	1.3889028
23.859419581522275	1.8679506	1.3667299
23.87733352458438	1.8417705	1.3571185
23.89524805979019	1.8610238	1.3641934
23.913163187636318	1.8785484	1.3706014
23.931078908619508	1.9118692	1.3827035
23.948995223236633	1.963444	1.4012295
23.966912131984735	2.050853	1.4320799
23.98482963536096	2.0981526	1.4485002
24.002747733862616	2.0739045	1.4401057
24.020666427987155	2.0467784	1.4306567
24.038585718232156	2.0785754	1.4417266
24.056505605095353	2.081427	1.4427152
24.074426089074617	2.1169548	1.4549758
24.092347170667946	2.1060472	1.4512227
24.110268850373515	2.0965145	1.4479345
24.128191128689586	2.0841331	1.4436527
24.146114006114626	2.0804765	1.4423857
24.164037483147187	2.1000721	1.4491626
24.181961560286005	2.0542352	1.4332603
24.199886238029926	2.0285256	1.4242631
24.21781151687797	2.0160332	1.4198709
24.235737397329274	1.9898272	1.4106123
24.253663879883135	2.0201137	1.4213071
24.271590965038975	2.0561943	1.4339436
24.289518653296376	2.0494614	1.431594
24.30744694515505	2.0380497	1.4276028
24.32537584111486	2.0438886	1.4296463
24.34330534167581	2.0926068	1.4465846
24.361235447338046	2.1002197	1.4492135
24.379166158601876	2.1060786	1.4512335
24.39709747596772	2.0669284	1.4376816
24.41502939993615	2.049795	1.4317105
24.432961931007917	2.019489	1.4210873
24.450895069683856	1.9942412	1.412176
24.468828816465	1.9577267	1.3991879
24.4867631718525	1.9662572	1.4022329
24.504698136347656	1.9793433	1.4068913
24.52263371045192	1.9814187	1.4076288
24.540569894666874	1.97969	1.4070146
24.558506689494266	1.9387548	1.3923918
24.57644409543597	1.8716948	1.368099
24.594382112994012	1.8697287	1.3673803
24.61232074267057	1.916853	1.3845046
24.630259984967953	1.9359382	1.39138
24.64819984038863	1.9534014	1.3976414
24.66614030943522	1.9926429	1.41161
24.684081392610462	2.043151	1.4293883
24.702023090417274	2.0603068	1.4353769
24.7199654033587	2.0225425	1.4221612
24.737908331937927	1.9621913	1.4007823
24.755851876658305	1.9862673	1.4093499
24.773796038023324	2.0371063	1.4272723
24.79174081653661	2.045103	1.430071
24.809686212701962	2.040382	1.4284194
24.827632227023294	2.0789855	1.4418688
24.8455788600047	2.1225905	1.4569113
24.8635261121504	2.131889	1.460099
24.88147398396475	2.106437	1.4513569
24.899422475952303	2.1258292	1.4580224
24.917371588617698	2.1493924	1.4660807
24.935321322465768	2.1824372	1.4773074
24.953271678001478	2.299028	1.5162545
24.97122265572994	2.5096252	1.5841796
24.989174256156414	2.7921555	1.6709744
25.00712647978632	3.2311351	1.7975359
25.02507932712521	3.8055704	1.9507871
25.043032798678798	4.3448935	2.0844407
25.060986894952933	4.9330397	2.2210448
25.078941616453637	5.5611057	2.3581996
25.096896963687055	6.481345	2.5458486
25.114852937159508	7.655388	2.7668371
25.132809537377444	8.192655	2.8622813
25.150766764847468	8.230065	2.868809
25.168724620076347	7.650756	2.766
25.186683103570985	6.6399527	2.5768106
25.204642215838426	5.4541507	2.3354123
25.222601957385894	4.143018	2.0354404
25.24056232872074	3.204826	1.7902029
25.25852333035048	2.6153972	1.617219
25.276484962782778	2.2617283	1.5039043
25.294447226525435	2.1257694	1.4580019
25.312410122086423	2.0467892	1.4306604
25.330373649973843	1.9531153	1.397539
25.348337810695988	1.896018	1.3769597
25.366302604761245	1.9398184	1.3927736
25.384268032678207	1.9918655	1.4113346
25.40223409495558	1.9659706	1.4021307
25.420200792102257	1.9514688	1.3969499
25.438168124627246	1.9138252	1.3834107
25.45613609303974	1.9056239	1.3804433
25.474104697849057	1.8626366	1.3647845
25.492073939564698	1.8738976	1.3689038
25.510043818696285	1.8798311	1.3710693
25.528014335753614	1.8738582	1.3688895
25.54598549124664	1.9012161	1.3788459
25.56395728568544	1.9288274	1.3888223
25.58192971958028	1.910017	1.3820337
25.59990279344156	1.8791249	1.3708117
25.617876507779833	1.858239	1.3631724
25.635850863105826	1.8319715	1.3535035
25.653825859930386	1.8691374	1.367164
25.671801498764548	1.8967414	1.3772223
25.68977778011949	1.8854625	1.3731215
25.707754704506524	1.8875244	1.373872
25.725732272437153	1.8749747	1.3692971
25.743710484423012	1.8813407	1.3716197
25.761689340975888	1.9037905	1.3797791
25.77966884260774	1.9368359	1.3917025
25.797648989830662	1.8993295	1.3781617
25.815629783156922	1.8465528	1.3588792
25.83361122309895	1.8400967	1.3565017
25.85159331016929	1.8594105	1.363602
25.869576044880695	1.8469615	1.3590297
25.887559427746034	1.8575249	1.3629104
25.90554345927836	1.9088937	1.3816272
25.92352813999086	1.8976086	1.3775371
25.94151347039689	1.8812895	1.3716011
25.959499451009965	1.8482995	1.3595217
25.97748608234374	1.8399627	1.3564522
25.995473364912062	1.8684111	1.3668983
26.013461299228904	1.8734658	1.368746
26.03144988580839	1.8592849	1.363556
26.04943912516483	1.8562624	1.3624473
26.067429017812675	1.8729614	1.3685617
26.085419564266537	1.8600311	1.3638296
26.103410765041186	1.8561119	1.362392
26.12140262065155	1.8673736	1.3665187
26.139395131612723	1.8610234	1.3641933
26.157388298439948	1.8371034	1.3553978
26.17538212164861	1.8313435	1.3532714
26.193376601754295	1.8459578	1.3586602
26.211371739272714	1.865396	1.365795
26.229367534719746	1.8621228	1.3645962
26.247363988611433	1.7955449	1.3399794
26.26536110146397	1.7585548	1.3261051
26.283358873793727	1.8080157	1.3446248
26.301357306117204	1.8075819	1.3444635
26.319356398951104	1.8107263	1.3456323
26.33735615281224	1.7663661	1.3290471
26.35535656821762	1.7809649	1.334528
26.373357645684404	1.7897407	1.337812
26.39135938572991	1.827767	1.3519493
26.409361788871614	1.8205366	1.3492726
26.427364855627165	1.8216715	1.3496931
26.445368586514352	1.8448566	1.358255
26.46337298205115	1.8465818	1.3588899
26.48137804275568	1.8694761	1.3672879
26.499383769146217	1.9030359	1.3795056
26.517390161741215	1.9243748	1.3872184
26.53539722105928	1.9326953	1.3902141
26.553404947619182	1.88737	1.3738159
26.571413341939856	1.8505292	1.3603415
26.589422404540397	1.8559595	1.362336
26.60743213594006	1.8598703	1.3637706
26.62544253665827	1.8596509	1.3636901
26.64345360721459	1.8857254	1.3732171
26.66146534812879	1.9346333	1.390911
26.679477759920758	1.9205215	1.3858289
26.69749084311057	1.8612088	1.3642613
26.71550459821847	1.7874222	1.336945
26.733519025764842	1.7675779	1.3295028
26.751534126270258	1.7213063	1.3119856
26.769549900255434	1.7290055	1.3149165
26.787566348241267	1.7423866	1.3199949
26.80558347074881	1.7850453	1.3360559
26.823601268299267	1.8048266	1.3434384
26.841619741414036	1.8169513	1.3479433
26.85963889061465	1.8252374	1.3510134
26.877658716422832	1.8033313	1.3428817
26.89567921936045	1.7795986	1.334016
26.913700399949544	1.8288952	1.3523666
26.93172225871233	1.8300512	1.3527938
26.949744796171174	1.8164207	1.3477465
26.967768012848605	1.8185993	1.3485545
26.98579190926733	1.8473121	1.3591586
27.003816485950225	1.8952466	1.3766795
27.021841743420318	1.8768787	1.3699923
27.039867682200814	1.8657452	1.3659228
27.057894302815072	1.8275977	1.3518867
27.07592160578664	1.8094298	1.3451505
27.0939495916392	1.832701	1.3537729
27.111978260896635	1.7963413	1.3402766
27.13000761408296	1.7760351	1.3326796
27.148037651722397	1.7724931	1.3313501
27.166068374339304	1.7887312	1.3374345
27.184099782458215	1.7980409	1.3409104
27.20213187660384	1.7582296	1.3259825
27.22016465730105	1.7332062	1.3165128
27.23819812507487	1.7863022	1.3365262
27.256232280450533	1.8679762	1.3667393
27.274267123953383	1.878011	1.3704054
27.292302656108987	1.8439988	1.3579391
27.31033887744306	1.8487414	1.3596843
27.32837578848146	1.8334057	1.3540331
27.34641338975026	1.8214972	1.3496286
27.364451681775673	1.8209487	1.3494253
27.382490665084074	1.8234599	1.3503555
27.400530340202046	1.7943399	1.3395298
27.41857070765629	1.77357	1.3317544
27.436611767973726	1.8128488	1.3464208
27.454653521681404	1.8575724	1.3629279
27.472695969306564	1.8556603	1.3622262
27.490739111376627	1.8174908	1.3481435
27.508782948419153	1.7904775	1.3380872
27.526827480961902	1.7734715	1.3317175
27.54487270953279	1.7856331	1.3362758
27.562918634659898	1.7982631	1.3409933
27.580965256871508	1.8458269	1.3586121
27.599012576696026	1.8417066	1.3570949
27.617060594662068	1.8707514	1.3677541
27.63510931129842	1.8383316	1.3558508
27.65315872713401	1.8689799	1.3671064
27.67120884269797	1.8599024	1.3637824
27.68925965851958	1.860147	1.363872
27.707311175128307	1.8402568	1.3565607
27.725363393053787	1.8730444	1.3685921
27.74341631282583	1.9195683	1.3854848
27.7614699349744	1.8950863	1.3766214
27.77952426002968	2.026538	1.4235651
27.797579288521973	2.139477	1.4626951
27.815635020981784	2.6721017	1.6346564
27.83369145793979	2.6862776	1.6389868
27.85174859992682	2.43648	1.5609229
27.869806447473923	2.288503	1.5127798
27.887865001112267	1.996353	1.4129236
27.905924261373233	1.873546	1.3687754
27.92398422878836	1.838861	1.3560461
27.94204490388936	1.8481275	1.3594586
27.96010628720813	1.8440022	1.3579404
27.978168379276728	1.8279637	1.352022
27.9962311806274	1.8262445	1.3513862
28.014294691792568	1.842075	1.3572307
28.0323589133048	1.8686671	1.366992
28.050423845696887	1.8863549	1.3734463
28.068489489501758	1.8410083	1.3568376
28.086555845252523	1.8449554	1.3582914
28.104622913482487	1.9071151	1.3809834
28.122690694725115	1.9511229	1.396826
28.14075918951405	1.9485435	1.3959024
28.15882839838312	1.9144628	1.3836411
28.176898321866304	1.9090366	1.3816789
28.1949689604978	1.8899163	1.3747423
28.213040314811945	1.9096053	1.3818847
28.23111238534327	1.947471	1.3955182
28.249185172626493	1.9491088	1.3961049
28.267258677196473	1.9688787	1.4031674
28.285332899588294	1.9350709	1.3910682
28.303407840337172	1.9108889	1.382349
28.321483499978545	1.9143401	1.3835968
28.33955987904799	1.9594442	1.3998015
28.357636978081285	1.9411179	1.3932401
28.37571479761439	1.9090374	1.3816792
28.393793338183425	1.9268638	1.3881152
28.41187260032469	1.9365885	1.3916136
28.429952584574686	1.9169598	1.3845432
28.448033291470065	1.9149138	1.3838041
28.46611472154769	1.932313	1.3900766
28.484196875344566	1.9237305	1.3869861
28.502279753397914	1.8647901	1.3655732
28.52036335624511	1.9088466	1.3816102
28.538447684423716	2.020556	1.4214627
28.556532738471482	2.044348	1.429807
28.574618518926325	2.0040045	1.4156287
28.59270502632635	2.0209596	1.4216046
28.61079226120985	2.0416086	1.4288487
28.628880224115274	2.0866985	1.444541
28.646968915581287	2.1201437	1.4560713
28.66505833614671	2.0948296	1.4473526
28.68314848635055	2.0693166	1.438512
28.701239366732004	2.060909	1.4355867
28.71933097783044	2.1032908	1.4502727
28.737423320185403	2.1038966	1.4504815
28.75551639433665	2.101963	1.4498148
28.773610200824074	2.0751934	1.4405532
28.791704740187793	2.0541248	1.4332218
28.80980001296809	2.145703	1.4648218
28.827896019705413	2.2533565	1.5011184
28.845992760940433	2.3087306	1.5194508
28.86409023721397	2.2684584	1.5061402
28.88218844906704	2.2609348	1.5036405
28.900287397040845	2.2614887	1.5038247
28.918387081676755	2.272805	1.5075825
28.936487503516343	2.3107543	1.5201166
28.954588663101365	2.332419	1.5272259
28.97269056097374	2.3566737	1.5351461
28.990793197675597	2.377409	1.5418849
29.00889657374923	2.410803	1.5526761
29.027000689737125	2.4534264	1.5663418
29.04510554618196	2.4606516	1.5686464
29.06321114362659	2.4516222	1.5657657
29.08131748261405	2.4459543	1.5639547
29.099424563687567	2.506688	1.5832524
29.11753238739057	2.5390234	1.5934314
29.13564095426663	2.5863924	1.6082264
29.15375026485954	2.624383	1.6199948
29.171860319713275	2.6687922	1.6336439
29.18997111937199	2.6651716	1.6325353
29.20808266438002	2.7029614	1.6440686
29.226194955281898	2.704083	1.6444097
29.244307992622335	2.7259803	1.6510543
29.26242177694624	2.829239	1.6820341
29.2805363087987	2.88549	1.698673
29.29865158872498	2.9125936	1.7066323
29.316767617270557	2.9312127	1.7120785
29.334884394981064	2.992238	1.7298087
29.353001922402367	2.995619	1.7307857
29.37112020008047	3.0290132	1.740406
29.389239228561596	3.2505643	1.8029321
29.407359008392152	3.544815	1.8827679
29.42547954011872	3.8576882	1.9640999
29.44360082428809	4.4172645	2.101729
29.46172286144722	5.3809566	2.3196888
29.479845652143283	6.869519	2.6209767
29.497969196923606	9.012942	3.0021563
29.516093496335728	11.330891	3.366139
29.5342185509274	13.84116	3.720371
29.55234436124651	16.044775	4.005593
29.570470927841175	17.305368	4.159972
29.588598251259686	17.032146	4.1270022
29.60672633205055	15.745992	3.968122
29.624855170762405	13.923615	3.731436
29.642984767944146	11.332729	3.366412
29.66111512414481	8.645015	2.9402406
29.67924623991366	6.497716	2.5490618
29.697378115800138	5.0864	2.2553048
29.71551075235387	4.187881	2.0464313
29.733644150124675	3.6591742	1.9128968
29.751778309662576	3.4072216	1.8458661
29.769913231517766	3.3688815	1.8354512
29.78804891624066	3.4174948	1.8486468
29.806185364381818	3.415702	1.8481618
29.82432257649206	3.3860157	1.8401129
29.842460553122333	3.3803418	1.8385706
29.86059929482382	3.3472	1.8295355
29.878738802147872	3.2775376	1.810397
29.896879075646048	3.2161798	1.7933711
29.915020115870114	3.2667737	1.8074218
29.933161923371976	3.2569041	1.8046895
29.951304498703777	3.3214395	1.8224816
29.969447842417857	3.341415	1.8279537
29.987591955066733	3.2861495	1.812774
30.005736837203123	3.2080677	1.7911079
30.023882489379943	3.1156964	1.7651335
30.04202891215028	3.0540748	1.7475911
30.060176106067455	3.099818	1.76063
30.078324071684946	3.1380925	1.7714663
30.09647280955646	3.1260283	1.7680578
30.114622320235863	3.1084158	1.76307
30.132772604277257	3.1261823	1.7681013
30.1509236622349	3.1148114	1.7648828
30.16907549466328	3.0802157	1.7550544
30.18722810211705	3.066636	1.7511814
30.205381485151097	3.0354226	1.7422464
30.22353564432045	3.0483246	1.7459452
30.241690580180403	3.096187	1.7595986
30.25984629328638	3.083398	1.7559607
30.278002784194037	3.003847	1.733161
30.296160053459246	2.9512453	1.7179189
30.314318101638033	2.9583442	1.7199838
30.332476929286646	3.0044677	1.73334
30.35063653696153	2.970344	1.7234687
30.368796925219307	2.998234	1.7315409
30.386958094616844	2.9997904	1.7319903
30.40512004571115	3.009923	1.734913
30.423282779059463	3.0372765	1.7427784
30.441446295219233	3.01574	1.7365886
30.459610594748067	2.8917575	1.7005168
30.47777567820382	2.8670774	1.6932446
30.495941546144504	2.8429503	1.6861051
30.51410819912835	2.829192	1.6820202
30.532275637713795	2.8136165	1.6773838
30.55044386245946	2.7782514	1.6668087
30.56861287392416	2.7340028	1.6534821
30.586782672666956	2.7352657	1.6538639
30.604953259247047	2.8038688	1.6744757
30.623124634223885	2.8739076	1.6952603
30.641296798157075	2.839218	1.6849979
30.659469751606462	2.7542896	1.6596053
30.677643495132074	2.7614906	1.6617733
30.695818029294152	2.8322866	1.6829399
30.713993354653116	2.8084056	1.6758299
30.73216947176962	2.7180073	1.648638
30.75034638120448	2.634087	1.622987
30.768524083518756	2.644383	1.6261559
30.786702579273673	2.725847	1.651014
30.80488186903069	2.787852	1.6696862
30.82306195335144	2.9390066	1.7143531
30.841242832797782	3.1286452	1.7687976
30.85942450793176	3.449921	1.8573962
30.877606979315637	3.9047348	1.9760402
30.895790247511883	4.292045	2.0717251
30.913974313083134	4.6899195	2.1656222
30.932159176592283	4.9419327	2.2230458
30.95034483860237	4.8813205	2.209371
30.968531299676698	4.651446	2.156721
30.98671856037873	4.30308	2.0743866
31.00490662127215	3.858789	1.96438
31.023095482920848	3.415901	1.8482156
31.04128514588892	3.0310876	1.741002
31.059475610740662	2.772461	1.6650709
31.07766687804056	2.6203258	1.618742
31.09585894835335	2.482226	1.5755081
31.11405182224393	2.3614054	1.5366865
31.132245500277417	2.38834	1.5454255
31.15043998301914	2.4026496	1.5500482
31.168635271034628	2.3780792	1.5421022
31.18683136488964	2.4048183	1.5507476
31.20502826515008	2.464132	1.5697554
31.223225972382135	2.4612412	1.5688343
31.241424487152155	2.4870625	1.5770423
31.259623810026692	2.4749749	1.5732052
31.27782394157253	2.4065182	1.5512956
31.296024882356644	2.3774326	1.5418925
31.314226632946237	2.3664804	1.5383369
31.332429193908684	2.4163687	1.5544673
31.350632565811598	2.4709442	1.5719237
31.368836749222787	2.4562738	1.5672504
31.387041744710295	2.411869	1.5530193
31.40524755284232	2.468175	1.5710427
31.423454174187317	2.4894886	1.5778114
31.441661609313922	2.4509463	1.5655499
31.459869858791002	2.4265966	1.5577537
31.478078923187628	2.4428494	1.5629617
31.496288803073064	2.436131	1.560811
31.514499499016807	2.421973	1.5562689
31.532711011588546	2.4116786	1.552958
31.550923341358178	2.3993042	1.5489688
31.56913648889584	2.3115838	1.5203893
31.587350454771844	2.3233023	1.5242382
31.605565239556732	2.3735843	1.540644
31.62378084382127	2.3977406	1.548464
31.641997268136382	2.3171535	1.5222199
31.660214513073274	2.2639263	1.504635
31.67843257920331	2.2854106	1.5117575
31.6966514670981	2.311387	1.5203247
31.71487117732944	2.2441936	1.4980633
31.733091710469346	2.1982322	1.4826436
31.751313067090052	2.1961432	1.481939
31.769535247764008	2.3327825	1.527345
31.787758253063878	2.3724751	1.5402842
31.805982083562526	2.330923	1.5267361
31.824206739833024	2.2793012	1.5097355
31.84243222244869	2.2862275	1.5120276
31.860658531983013	2.2958822	1.515217
31.878885669009737	2.3610346	1.5365659
31.897113634102784	2.2941558	1.5146471
31.91534242783632	2.2275908	1.4925116
31.933572050784694	2.205356	1.4850441
31.951802503522508	2.2290726	1.4930079
31.970033786624548	2.1692684	1.4728436
31.988265900665834	2.1816363	1.4770364
32.006498846221575	2.1423223	1.4636674
32.02473262386724	2.1085534	1.4520859
32.04296723417845	2.1168659	1.4549453
32.0612026777311	2.1669788	1.4720662
32.07943895510129	2.2047987	1.4848565
32.097676066865304	2.1895955	1.4797282
32.115914013599685	2.1685054	1.4725846
32.13415279588115	2.114106	1.4539965
32.152392414286666	2.082526	1.4430959
32.1706328693934	2.10307	1.4501965
32.18887416177875	2.0873542	1.4447678
32.20711629202032	2.062651	1.4361932
32.225359260695924	2.0551386	1.4335755
32.243603068383614	2.074302	1.4402437
32.26184771566166	2.2060637	1.4852824
32.28009320310852	2.1867132	1.4787539
32.2983395313029	2.1837616	1.4777555
32.31658670082372	2.186872	1.4788077
32.33483471225012	2.1986833	1.4827957
32.35308356616143	2.1842186	1.4779103
32.371333263137245	2.1703331	1.4732051
32.38958380375734	2.0998428	1.4490834
32.407835188601744	2.0615082	1.4357953
32.42608741825067	2.0921354	1.4464216
32.444340493284585	2.0736017	1.4400007
32.46259441428416	2.0304246	1.4249297
32.48084918183028	1.9934826	1.4119074
32.49910479650405	1.9791948	1.4068385
32.51736125888683	2.0093005	1.417498
32.53561856956014	1.9465975	1.3952051
32.5538767291058	1.9026579	1.3793687
32.572135738105764	1.9469165	1.3953195
32.59039559714228	2.0192442	1.4210011
32.608656306797776	2.0341132	1.4262234
32.62691786765491	2.0482779	1.4311806
32.645180280296586	2.025302	1.423131
32.663443545305896	2.050801	1.4320618
32.68170766326619	2.0455577	1.4302299
32.69997263476099	2.0863647	1.4444253
32.7182384603741	2.1630855	1.4707432
32.7365051406895	2.1483703	1.465732
32.75477267629144	2.0942624	1.4471567
32.77304106776434	2.0259132	1.4233458
32.79131031569289	1.9642727	1.4015251
32.809580420661966	1.9708529	1.4038707
32.827851383256714	2.0054834	1.4161509
32.84612320406245	1.9798111	1.4070576
32.86439588366476	1.9511566	1.3968381
32.88266942264945	2.0515065	1.4323081
32.9009438216025	2.1261766	1.4581414
32.9192190811102	2.1161304	1.4546925
32.937495201758985	1.9956368	1.4126701
32.95577218413556	1.9882582	1.4100561
32.974050028826866	1.9921696	1.4114424
32.992328736420035	2.0127928	1.4187293
33.010608307502444	1.9976646	1.4133877
33.02888874266169	1.9699433	1.4035467
33.047170042485604	1.928373	1.3886586
33.06545220756225	1.946992	1.3953465
33.083735238479896	1.9972106	1.4132271
33.10201913582707	2.0162518	1.4199479
33.12030390019248	2.0340636	1.426206
33.138589532165135	1.9972309	1.4132342
33.15687603233419	1.9057744	1.3804978
33.17516340128909	1.942116	1.3935982
33.19345163961947	1.9407084	1.3930931
33.211740747915215	1.971785	1.4042026
33.23003072676643	1.899602	1.3782605
33.248321576763466	1.8622046	1.3646262
33.266613298496885	1.9834689	1.4083568
33.28490589255747	2.0341785	1.4262463
33.30319935953626	1.989439	1.4104748
33.32149370002451	1.8809577	1.3714801
33.339788914613706	1.7992883	1.3413755
33.358085003895575	1.8087655	1.3449036
33.376381968462034	1.8911575	1.3751936
33.39467980890529	1.9425807	1.393765
33.41297852581774	1.9309697	1.3895934
33.43127811979204	1.895563	1.3767945
33.44957859142105	1.8198599	1.3490218
33.467879941297866	1.8569367	1.3626946
33.486182170015844	1.8759356	1.369648
33.50448527816853	1.8469263	1.3590167
33.522789266349754	1.8821557	1.3719168
33.541094135153514	2.0027804	1.4151963
33.55939988517411	1.9716152	1.4041421
33.57770651700602	1.9110137	1.3823942
33.59601403124398	1.952435	1.3972956
33.61432242848296	1.9684772	1.4030243
33.632631709318154	1.834952	1.354604
33.650941874344994	1.8041309	1.3431793
33.66925292415916	1.8729271	1.3685492
33.68756485935654	1.9090847	1.3816963
33.70587768053328	1.9412181	1.3932761
33.724191388285746	1.9229662	1.3867105
33.74250598321054	1.8017485	1.3422923
33.760821465904506	1.8144093	1.3470001
33.77913783696474	1.9610953	1.4003911
33.79745509698852	2.0085022	1.4172164
33.815773246573414	1.8445189	1.3581307
33.8340922863172	1.8190256	1.3487126
33.852412216817896	1.9390616	1.392502
33.87073303867377	2.0298321	1.4247217
33.889054752483304	2.0889673	1.445326
33.907377358845245	2.0604632	1.4354314
33.92570085835853	2.015876	1.4198155
33.94402525162239	2.0148227	1.4194446
33.96235053923627	2.0512764	1.4322278
33.980676721799824	2.0064833	1.4165039
33.999003799912984	1.989708	1.41057
34.01733177417592	1.9229518	1.3867054
34.03566064518901	1.9678043	1.4027845
34.0539904135529	2.122939	1.4570309
34.07232107986846	2.1206293	1.456238
34.090652644736785	2.0638323	1.4366044
34.108985108759235	2.0022337	1.4150031
34.12731847253742	2.0221448	1.4220214
34.14565273667313	1.9459627	1.3949777
34.16398790176847	1.9608895	1.4003177
34.18232396842574	2.0175638	1.4204097
34.20066093724749	1.9917428	1.4112912
34.21899880883651	1.9296893	1.3891326
34.23733758379583	1.9354477	1.3912036
34.25567726272874	1.9430209	1.3939228
34.27401784623872	1.9816236	1.4077015
34.29235933492957	1.9231739	1.3867855
34.31070172940526	1.9502013	1.396496
34.32904503027003	1.9323677	1.3900963
34.347389238128386	2.049926	1.4317563
34.36573435358502	2.1153235	1.4544152
34.38408037724492	2.0427349	1.4292427
34.402427309713296	1.9231735	1.3867853
34.42077515159559	1.9012923	1.3788736
34.43912390349752	1.7790082	1.3337946
34.45747356602499	1.751497	1.3234414
34.47582413978423	1.8299419	1.3527534
34.49417562538163	1.9038364	1.3797958
34.51252802342388	2.0213103	1.4217279
34.53088133451789	2.1109622	1.4529151
34.54923555927084	2.1131952	1.4536833
34.567590698290104	1.9847217	1.4088016
34.58594675218336	1.7794716	1.3339684
34.6043037215585	1.633234	1.2779804
34.62266160702365	1.8133247	1.3465974
34.641020409187234	1.9058557	1.3805273
34.65938012865785	1.7800696	1.3341925
34.677740766044394	1.681114	1.2965778
34.69610232195598	1.667165	1.2911874
34.714464797002016	1.8237414	1.3504597
34.73282819179208	1.9971812	1.4132166
34.751192506936064	2.156116	1.4683719
34.76955774304408	2.223553	1.4911582
34.7879239007265	2.1383677	1.4623158
34.80629098059391	2.0352113	1.4266083
34.824658983257194	2.0426016	1.4291961
34.843027909327446	2.1554658	1.4681505
34.86139775941603	2.0108283	1.4180368
34.879768534134534	1.9612496	1.4004462
34.89814023409483	1.9728752	1.4045907
34.91651285990901	2.101262	1.449573
34.93488641218944	2.2138174	1.4878902
34.95326089154871	2.3005497	1.5167563
34.97163629859967	2.0856023	1.4441614
34.99001263395542	1.9792739	1.4068667
35.00838989822934	2.0290136	1.4244345
35.02676809203499	1.9826779	1.4080759
35.04514721598624	1.8778003	1.3703285
35.063527270697215	1.8393708	1.3562341
35.081908256782256	1.8344352	1.3544133
35.10029017485597	1.7915643	1.3384933
35.11867302553321	1.8075577	1.3444544
35.137056809429104	1.8443547	1.3580703
35.155441527159006	1.808222	1.3447015
35.173827179338524	1.7865503	1.336619
35.19221376658354	1.6972716	1.3027937
35.21060128951017	1.5822239	1.2578648
35.2289897487348	1.844723	1.3582058
35.24737914487405	2.1568458	1.4686204
35.26576947854479	2.2920294	1.513945
35.28416075036418	2.335781	1.5283263
35.30255296094958	2.322714	1.5240453
35.32094611091867	2.3559523	1.5349112
35.33934020088932	2.2821977	1.5106945
35.35773523147969	1.8792444	1.3708553
35.3761312033082	1.8251834	1.3509935
35.394528116993506	2.0640948	1.4366958
35.41292597315452	2.1284769	1.45893
35.431324772410434	2.1821883	1.4772232
35.449724515380666	2.244824	1.4982736
35.46812520268491	2.0887008	1.4452338
35.486526834943106	2.1598938	1.4696577
35.504929412775454	2.1274605	1.4585817
35.52333293680242	1.8525944	1.3611004
35.54173740764471	1.8333094	1.3539976
35.560142825923286	1.5998396	1.2648476
35.5785491922594	1.067825	1.0333562
35.59695650727454	1.3281134	1.152438
35.61536477159042	2.5249293	1.5890026
