0.008763373481513119	0.0	0.0
0.026290120649546365	0.22485419	0.4741879
0.043816868432600686	0.33292386	0.57699555
0.06134361724069026	0.3502984	0.5918601
0.07887036748382949	0.28526434	0.5341014
0.0963971195720331	0.24114834	0.49106857
0.11392387391531617	0.20383829	0.45148453
0.1314506309236943	0.22067603	0.46976167
0.1489773910071836	0.2742121	0.5236527
0.16650415457580078	0.27137685	0.52093846
0.18403092203956356	0.29825684	0.546129
0.20155769380849	0.21330602	0.46185064
0.2190844702925996	0.16187066	0.40233153
0.2366112519019124	0.12658636	0.35578978
0.2541380390464497	0.08383236	0.28953817
0.27166483213623416	0.0842688	0.2902909
0.28919163158128947	0.07565413	0.27505296
0.3067184377916406	0.080764145	0.28419033
0.324245251177314	0.11547211	0.33981186
0.34177207214833777	0.11135421	0.3336978
0.3592989011147415	0.10627191	0.32599372
0.37682573848655654	0.09811909	0.31323966
0.39435258467381573	0.07875542	0.28063396
0.41187944008655414	0.11622246	0.34091416
0.42940630513480854	0.13383888	0.36583996
0.446933180228618	0.15236728	0.3903425
0.4644600657780234	0.12849353	0.35845995
0.48198696219306775	0.09798205	0.31302086
0.49951386988379676	0.09913498	0.3148571
0.5170407892602581	0.123314746	0.351162
0.5345677207325025	0.13765617	0.37102044
0.5520946647105822	0.13762254	0.3709751
0.5696216216045534	0.103275664	0.32136533
0.5871485918244737	0.12598196	0.35493937
0.6046755757804043	0.14607842	0.38220206
0.6222025738824094	0.17766424	0.42150235
0.6397295865405557	0.18726012	0.43273562
0.6572566141649129	0.18098919	0.42542824
0.6747836571655547	0.22951944	0.47908187
0.6923107159525568	0.20733188	0.4553371
0.7098377909359992	0.20858002	0.4567056
0.7273648825259653	0.16713084	0.4088164
0.7448919911325411	0.16598177	0.4074086
0.762419117165817	0.17438014	0.41758847
0.7799462610358868	0.124718525	0.3531551
0.7974734231528482	0.123080455	0.35082823
0.8150006039268024	0.11949027	0.34567365
0.8325278037678551	0.16370766	0.40460804
0.8500550230861152	0.21584985	0.46459642
0.8675822622916969	0.22001794	0.4690607
0.8851095217947171	0.22525173	0.47460693
0.9026368020052984	0.2149939	0.46367434
0.9201641033335665	0.23304681	0.48274922
0.9376914261896523	0.25998968	0.5098918
0.9552187709836915	0.2404325	0.49033916
0.9727461381258234	0.24016482	0.49006614
0.990273528026193	0.21480434	0.4634699
1.0078009410949496	0.22663766	0.47606477
1.0253283777422473	0.280126	0.52926934
1.0428558383782454	0.31184396	0.5584299
1.0603833234131086	0.33371907	0.5776842
1.0779108332570058	0.27964884	0.52881837
1.0954383683201119	0.30313194	0.5505742
1.112965929012607	0.36190474	0.6015852
1.1304935157446763	0.5187688	0.72025603
1.1480211289265108	0.5926223	0.7698196
1.1655487689683062	1.3167369	1.1474916
1.1830764362802655	1.5556983	1.2472763
1.200604131272596	1.937677	1.3920047
1.2181318543555117	2.3194454	1.5229726
1.235659605939232	2.336051	1.5284145
1.253187386433982	3.9606986	1.9901505
1.270715196249994	6.4801726	2.5456183
1.2882430357975057	12.040395	3.4699273
1.3057709054867608	16.673372	4.083304
1.3232988057280106	22.44776	4.7379065
1.3408267369315112	27.181746	5.2136116
1.358354699507526	30.714804	5.5420938
1.3758826938663256	34.67707	5.888724
1.3934107204181858	37.122128	6.092793
1.410938779573391	37.809135	6.1489134
1.4284668717422309	38.560658	6.209723
1.4459949973350033	37.749355	6.1440506
1.4635231567620117	37.63444	6.1346917
1.4810513504335687	36.63384	6.0525894
1.4985795787599925	36.182514	6.01519
1.5161078421516088	35.865147	5.988752
1.5336361410187505	35.02492	5.9181857
1.5511644757717598	34.800644	5.899207
1.5686928468209842	35.385662	5.948585
1.58622125457678	36.301403	6.0250645
1.6037496994495108	37.60728	6.1324778
1.621278181849548	37.25874	6.103994
1.6388067021872719	37.809334	6.1489296
1.6563352608730693	37.300575	6.1074195
1.673863858317336	36.380623	6.0316353
1.6913924949304753	35.6717	5.972579
1.7089211711228998	34.56009	5.8787827
1.7264498873050296	34.037846	5.834196
1.7439786438872935	33.064228	5.75015
1.7615074412801288	32.162243	5.6711764
1.779036279893981	31.6799	5.62849
1.796565160139305	30.919653	5.5605445
1.814094082426564	30.378803	5.511697
1.8316230471662298	29.12238	5.3965154
1.849152054768784	28.172321	5.3077607
1.8666811056447168	27.741522	5.267022
1.8842102002045273	26.929604	5.189374
1.901739338858724	26.074917	5.1063604
1.9192685220178245	25.506506	5.0503964
1.9367977500923557	24.985455	4.998545
1.9543270234928547	24.898935	4.9898834
1.971856342629867	24.347351	4.9343033
1.9893857079139496	23.848726	4.883516
2.006915119755667	23.067429	4.8028564
2.0244445785655945	22.52282	4.7458215
2.0419740847543175	21.895197	4.67923
2.0595036387324317	21.465162	4.633051
2.0770332409105414	20.94086	4.5761185
2.094562891699263	20.772709	4.5577087
2.1120925915092217	20.242256	4.4991393
2.129622340751053	19.959213	4.4675736
2.1471521398354043	187.95558	13.709689
2.1646819891729323	444.3913	21.080591
2.182211889174303	440.39886	20.985682
2.1997418402501974	452.93048	21.282164
2.2172718428113023	432.84445	20.804914
2.234801897268317	320.78918	17.91059
2.2523320040319548	17.204233	4.1477985
2.269862163512935	17.00658	4.1239038
2.287392376121992	16.696617	4.086149
2.304922642269869	16.34997	4.0435095
2.322452962367322	16.020218	4.0025263
2.3399833368251164	15.6553335	3.9566822
2.357513766054032	15.134862	3.8903549
2.3750442504648586	15.19456	3.89802
2.3925747904683963	14.80697	3.8479826
2.410105386475459	14.584693	3.8189912
2.4276360388968707	14.140104	3.760333
2.445166748143469	14.12915	3.7588763
2.4626975146261025	13.957945	3.7360332
2.4802283387556323	13.808448	3.715972
2.4977592209429305	13.511181	3.6757557
2.5152901615988825	13.281115	3.6443264
2.5328211611343865	12.91675	3.593988
2.5503522199603523	12.655011	3.5573883
2.5678833384877024	12.389778	3.5199118
2.5854145171273712	12.099784	3.4784744
2.6029457562903064	11.813004	3.437005
2.620477056387469	11.630625	3.41037
2.6380084178298326	11.550023	3.3985324
2.655539841028383	11.438244	3.3820472
2.673071326394119	11.268002	3.3567843
2.6906028743380523	11.044438	3.3233173
2.708134485271211	10.876966	3.2980247
2.7256661596046325	10.855566	3.2947786
2.743197897749369	10.730672	3.2757704
2.760729700116486	10.574963	3.2519166
2.778261567117063	10.309692	3.210871
2.795793499162193	10.119913	3.1811812
2.8133254966629817	9.985439	3.1599746
2.830857560030551	9.793983	3.129534
2.8483896896760337	9.748737	3.1222968
2.865921886010578	9.613672	3.1005921
2.883454149445347	9.579538	3.095083
2.9009864803915177	9.264225	3.043719
2.91851887926028	9.16741	3.0277731
2.9360513464628384	9.149368	3.0247922
2.953583882410413	9.128744	3.0213811
2.9711164875142373	8.940405	2.990051
2.9886491621855606	8.778041	2.962776
3.0061819068356455	8.627865	2.9373226
3.023714721875769	8.598243	2.932276
3.041247607717225	8.510283	2.917239
3.0587805647713213	8.263471	2.8746252
3.0763135934493806	8.208427	2.8650353
3.0938466941627407	7.973478	2.8237348
3.1113798673227544	7.9729805	2.8236468
3.1289131133407904	7.9741564	2.823855
3.1464464326282315	7.9967003	2.8278437
3.1639798255964786	7.9256673	2.815256
3.1815132926569443	7.7291307	2.7801313
3.1990468342210603	7.65822	2.7673488
3.216580450700272	7.4826317	2.73544
3.2341141425060416	7.390442	2.7185366
3.251647910049847	7.1689506	2.6774895
3.2691817537431813	7.097432	2.6641006
3.286715673997555	7.039273	2.6531627
3.3042496712244938	6.9566145	2.6375394
3.32178374583554	6.830527	2.6135278
3.339317898242251	6.6802754	2.5846229
3.3568521288562034	6.7186093	2.5920281
3.3743864380889876	6.771191	2.6021512
3.3919208263522127	6.686454	2.5858178
3.4094552940575023	6.5212274	2.5536695
3.4269898416164972	6.509251	2.5513234
3.444524469440858	6.5260463	2.5546126
3.4620591779422587	6.5602245	2.5612936
3.479593967532391	6.5182753	2.5530913
3.4971288386229658	6.501201	2.5497453
3.5146637916257086	6.4478216	2.539256
3.5321988269523628	6.374203	2.5247185
3.5497339450146903	6.2196803	2.4939287
3.5672691462244708	6.1207123	2.4740074
3.5848044309934988	6.204624	2.4909084
3.60233979973359	6.28092	2.5061765
3.619875252856575	6.34225	2.5183823
3.6374107907743034	6.3391857	2.5177739
3.6549464138986427	6.242934	2.4985864
3.6724821226414788	6.210618	2.4921112
3.690017917414714	6.12698	2.4752736
3.7075537986302702	6.2103167	2.4920506
3.7250897667000857	6.335529	2.5170476
3.7426258220361235	6.567555	2.562724
3.7601619650503553	6.8851857	2.6239638
3.777698196154779	7.404129	2.721053
3.7952345157614067	8.341571	2.8881779
3.8127709242822716	9.086556	3.0143917
3.830307422129425	11.030316	3.321192
3.847844009714936	29.852255	5.4637218
3.8653806874508954	97.38941	9.8686075
3.882917455749409	96.75488	9.836406
3.900454315022606	96.59561	9.828306
3.917991265682631	41.14681	6.414578
3.9355283081416506	10.74858	3.2785027
3.9530654428118495	8.642398	2.9397955
3.970602670105433	7.437291	2.7271397
3.9881399904346244	6.593941	2.567867
4.005677404211669	6.491573	2.5478566
4.023214911848827	6.435341	2.5367973
4.0407525137583855	6.401807	2.5301793
4.058290210352644	6.4140964	2.5326066
4.075828002043927	6.317181	2.5134003
4.0933658892445814	6.2622657	2.502452
4.110903872366966	6.170421	2.4840333
4.128441951823468	6.099805	2.4697783
4.145980128026488	6.0896053	2.4677126
4.163518401388452	6.0391183	2.4574618
4.181056772321807	6.056924	2.4610817
4.1985952412390155	6.0874133	2.4672685
4.216133808552567	6.047905	2.4592488
4.233672474674966	6.1674576	2.4834366
4.251211240018741	6.3678823	2.5234663
4.268750104996445	6.520939	2.553613
4.286289070020643	7.4572873	2.7308035
4.303828135503928	9.14924	3.024771
4.3213673018589125	29.466312	5.428288
4.3389065694982305	90.727554	9.525102
4.356445938834537	166.03165	12.885326
4.3739854102805085	171.89581	13.110905
4.391524984248844	172.75186	13.14351
4.409064661152262	136.74536	11.693817
4.426604441403504	96.95253	9.846448
4.444144325415337	75.70814	8.701042
4.461684313600543	21.56905	4.644249
4.47922440637193	21.703413	4.6586924
4.496764604142329	19.913204	4.4624214
4.5143049073245916	18.225414	4.2691236
4.531845316331589	16.262438	4.0326715
4.5493858315762195	13.592975	3.686865
4.566926453471405	11.263862	3.3561678
4.584467182430081	9.453214	3.0746078
4.602008018865218	8.319414	2.8843396
4.619548963189798	7.5395074	2.7458162
4.637090015816834	6.9374533	2.6339045
4.654631177159353	6.594242	2.5679257
4.672172447630417	6.3696423	2.523815
4.689713827643102	6.1879544	2.48756
4.7072553176105085	6.005702	2.4506533
4.724796917945764	5.9060183	2.4302301
4.742338629062015	5.7756896	2.4032664
4.759880451372434	5.655931	2.37822
4.777422385290215	5.5491133	2.3556557
4.794964431228581	5.547703	2.3553562
4.812506589600768	5.566497	2.3593426
4.830048860820047	5.575686	2.361289
4.847591245299709	5.5702767	2.3601434
4.8651337434530655	5.592159	2.3647745
4.882676355693457	5.5840535	2.3630602
4.900219082434242	5.623667	2.371427
4.917761924088813	5.506996	2.346699
4.935304881070575	5.489888	2.343051
4.952847953792969	5.4703016	2.3388677
4.970391142669449	5.5085444	2.347029
4.9879344481135055	5.4971437	2.3445988
5.005477870538642	5.42263	2.328654
5.023021410358394	5.4365015	2.3316307
5.040565067986324	5.588512	2.3640034
5.05810884383601	5.619434	2.3705344
5.075652738321066	5.535687	2.3528042
5.09319675185512	5.393488	2.3223884
5.110740884851836	5.383927	2.320329
5.128285137724894	5.430835	2.3304152
5.145829510888007	5.4175167	2.327556
5.163374004754908	5.3862257	2.3208244
5.1809186197393595	5.363543	2.3159325
5.198463356255145	5.297249	2.3015752
5.216008214716077	5.3112	2.304604
5.233553195535998	5.328841	2.3084283
5.251098299128764	5.2647543	2.2945054
5.268643525908272	5.277463	2.297273
5.286188876288432	5.228648	2.2866237
5.3037343506831895	5.2400713	2.2891202
5.32127994950651	5.2457747	2.2903657
5.3388256731723915	5.2806344	2.2979631
5.356371522094851	5.260616	2.2936032
5.373917496687938	5.2154336	2.2837324
5.391463597365729	5.1854105	2.2771497
5.40900982454232	5.147028	2.2687063
5.426556178631843	5.119333	2.2625942
5.444102660048449	5.1533794	2.2701056
5.4616492692063225	5.1630526	2.2722352
5.479196006519669	5.1906114	2.2782912
5.496742872402727	5.224332	2.2856798
5.514289867269756	5.163516	2.2723372
5.531836991535049	5.1830907	2.2766402
5.549384245612924	5.169425	2.273637
5.566931629917724	5.1787734	2.2756917
5.584479144863822	5.130111	2.2649748
5.6020267908656205	5.1338153	2.2657924
5.619574568337545	5.0913763	2.2564077
5.637122477694054	5.1175866	2.2622085
5.654670519349629	5.1589327	2.2713284
5.672218693718784	5.219581	2.2846403
5.689767001216059	5.2133503	2.2832763
5.707315442256021	5.109675	2.260459
5.724864017253266	5.074217	2.2526023
5.7424127266224225	5.0757976	2.252953
5.75996157077814	5.130161	2.2649858
5.777510550135105	5.232753	2.2875211
5.795059665108022	5.28936	2.299861
5.812608916111639	5.3275213	2.3081424
5.830158303560715	5.3443327	2.3117812
5.847707827870055	5.2644362	2.294436
5.86525748945448	5.267415	2.295085
5.8828072887288485	5.386679	2.3209221
5.900357226108044	5.486972	2.3424287
5.917907302006979	5.611957	2.368957
5.9354575168406	6.1506453	2.4800494
5.9530078710238765	6.725064	2.5932727
5.970558364971812	7.169436	2.6775804
5.988108999099438	7.5075064	2.7399828
6.005659773821818	8.060456	2.8390942
6.023210689554039	7.9371324	2.8172917
6.040761746711227	8.431503	2.9037051
6.058312945708531	7.855242	2.8027203
6.075864286961132	7.4032965	2.7208998
6.093415770884244	6.7326536	2.5947359
6.1109673978931065	6.1356444	2.4770234
6.128519168402993	5.544344	2.354643
6.146071082829204	5.324424	2.3074713
6.163623141587075	5.184419	2.276932
6.181175345091969	5.183962	2.2768316
6.198727693759281	5.1901355	2.2781868
6.216280188004435	5.1601796	2.2716029
6.233832828242885	5.013691	2.2391272
6.251385614890126	5.041326	2.2452898
6.268938548361669	5.115045	2.2616465
6.286491629073067	5.1449685	2.2682524
6.304044857439898	5.1887884	2.2778912
6.321598233877777	5.085454	2.255095
6.339151758802344	5.0385156	2.2446637
6.356705432629277	4.975334	2.2305458
6.37425925577428	5.013991	2.2391942
6.391813228653095	5.0937047	2.2569237
6.409367351681486	5.098022	2.25788
6.426921625275259	5.025475	2.2417572
6.44447604985025	4.9412203	2.2228856
6.46203062582232	4.907284	2.215239
6.47958535360737	4.937547	2.2220592
6.497140233621328	5.010907	2.2385056
6.514695266280161	5.091288	2.2563882
6.532250451999859	5.0584884	2.2491083
6.549805791196454	5.103935	2.259189
6.567361284286002	5.1251364	2.2638764
6.584916931684597	5.2036448	2.2811499
6.602472733808367	5.1610785	2.2718008
6.6200286910734665	5.0724516	2.2522104
6.637584803896092	5.001887	2.2364898
6.655141072692462	4.969819	2.229309
6.672697497878842	4.985579	2.232841
6.690254079871514	4.9952617	2.2350082
6.707810819086808	5.0277486	2.2422643
6.725367715941078	4.942443	2.2231605
6.742924770850719	4.928152	2.2199442
6.760481984232151	4.8657	2.2058332
6.778039356501836	4.8902445	2.2113898
6.795596888076266	4.899329	2.2134428
6.813154579371963	4.921866	2.2185278
6.830712430805492	4.959479	2.2269888
6.84827044279344	4.965503	2.2283409
6.865828615752445	4.988765	2.2335544
6.883386950099159	4.984926	2.2326949
6.900945446250287	4.99456	2.2348511
6.918504104622553	4.9442754	2.2235727
6.936062925632727	4.958331	2.226731
6.953621909697607	4.989362	2.2336879
6.971181057234028	5.055737	2.2484965
6.988740368658859	5.0221777	2.2410216
7.006299844389007	5.1126056	2.2611072
7.023859484841407	5.214595	2.2835488
7.041419290433036	5.331731	2.3090541
7.058979261580902	5.47707	2.3403141
7.0765393987020495	5.7044973	2.388409
7.094099702213559	6.0545487	2.4605992
7.111660172532549	6.4070444	2.531214
7.129220810076164	6.692595	2.5870051
7.146781615261595	7.3385596	2.7089777
7.16434258850606	7.582786	2.753686
7.181903730226821	8.060422	2.8390882
7.1994650408411704	8.122812	2.8500547
7.217026520766437	8.223829	2.867722
7.234588170419983	8.513819	2.9178448
7.252149990219215	8.559496	2.9256616
7.269711980581568	8.495761	2.914749
7.2872741419245175	8.262344	2.8744295
7.304836474665574	7.762635	2.7861507
7.322398979222286	7.428811	2.7255845
7.339961656012233	7.1708307	2.6778407
7.357524505453039	6.8917284	2.62521
7.375087527962357	6.583315	2.565797
7.392650723957886	6.275113	2.5050175
7.410214093857353	5.94164	2.437548
7.427777638078528	5.762992	2.4006233
7.445341357039213	5.5665317	2.3593497
7.4629052511572525	5.4002366	2.3238409
7.480469320850524	5.3462353	2.3121927
7.498033566536948	5.352599	2.3135686
7.5155979886344735	5.361187	2.3154237
7.5331625875610975	5.306426	2.3035681
7.550727363734844	5.2568665	2.2927856
7.568292317573788	5.19195	2.278585
7.585857449496025	5.174959	2.2748537
7.603422759919705	5.194808	2.2792122
7.620988249263007	5.2295265	2.286816
7.638553917944147	5.2329493	2.287564
7.656119766381391	5.1942368	2.2790868
7.673685794993023	5.154082	2.2702603
7.691252004197388	5.141061	2.2673907
7.70881839441285	5.183814	2.276799
7.726384966057826	5.2175603	2.284198
7.743951719550762	5.223612	2.2855222
7.761518655310149	5.170656	2.2739077
7.779085773754511	5.1789827	2.2757378
7.796653075302419	5.1714044	2.2740722
7.814220560372475	5.2168274	2.2840376
7.831788229383323	5.241801	2.2894979
7.8493560827536495	5.2722754	2.2961435
7.866924120902174	5.3369555	2.3101852
7.884492344247663	5.3789053	2.3192468
7.9020607532089135	5.379528	2.319381
7.919629348204771	5.339033	2.3106349
7.937198129654115	5.2774954	2.29728
7.954767097975865	5.239615	2.2890205
7.972336253588986	5.2349524	2.2880018
7.989905596912472	5.3132944	2.3050585
8.007475128365371	5.3572125	2.3145654
8.025044848366756	5.339205	2.310672
8.042614757335754	5.431133	2.3304791
8.060184855691523	5.502925	2.3458314
8.07775514385327	5.7294006	2.3936167
8.095325622240228	5.792038	2.4066653
8.112896291271687	5.7745857	2.4030368
8.130467151366968	5.781668	2.40451
8.148038202945436	5.8256087	2.4136298
8.165609446426497	5.900394	2.4290726
8.183180882229594	5.927938	2.4347358
8.200752510774217	5.9123955	2.4315417
8.218324332479893	5.9393167	2.4370713
8.235896347766193	5.9258943	2.434316
8.253468557052724	5.909012	2.430846
8.27104096075914	5.9748454	2.4443498
8.288613559305137	6.0751004	2.464772
8.306186353110448	6.1783543	2.4856296
8.32375934259485	6.22926	2.4958487
8.341332528178162	6.247217	2.4994433
8.358905910280246	6.283872	2.5067654
8.376479489321003	6.351483	2.5202148
8.394053265720377	6.412205	2.5322332
8.411627239898356	6.348468	2.5196166
8.42920141227497	6.285031	2.5069964
8.44677578327029	6.241258	2.498251
8.464350353304427	6.2211895	2.4942312
8.48192512279754	6.228713	2.495739
8.499500092169827	6.176889	2.4853349
8.51707526184153	6.1568794	2.481306
8.534650632232934	6.123094	2.4744887
8.552226203764365	6.200413	2.490063
8.569801976856192	6.2613907	2.5022771
8.587377951928834	6.359953	2.5218947
8.60495412940274	6.333185	2.516582
8.622530509698416	6.273156	2.504627
8.6401070932364	6.3721967	2.524321
8.657683880437283	6.54019	2.5573795
8.675260871721695	6.781116	2.6040576
8.692838067510303	6.9637833	2.6388981
8.710415468223834	7.087053	2.6621518
8.727993074283043	7.1699796	2.6776817
8.745570886108737	7.1417294	2.6724014
8.763148904121765	7.200832	2.6834366
8.78072712874302	7.1683297	2.6773736
8.798305560393441	7.371905	2.715125
8.815884199494006	7.448701	2.7292309
8.833463046465745	7.7204967	2.7785783
8.851042101729728	7.837271	2.7995126
8.86862136570707	8.145996	2.854119
8.886200838818924	8.285597	2.8784714
8.903780521486505	8.354675	2.8904455
8.921360414131055	8.538594	2.9220872
8.938940517173874	8.72544	2.9538856
8.956520831036297	8.830067	2.9715428
8.97410135613971	9.065525	3.010901
8.99168209290554	9.179462	3.0297627
9.009263041755265	9.466711	3.076802
9.026844203110405	9.6453285	3.1056929
9.044425577392525	9.781751	3.127579
9.062007165023239	9.926184	3.1505847
9.079588966424197	10.188061	3.1918743
9.097170982017108	10.326302	3.2134564
9.11475321222372	11.125967	3.335561
9.132335657465825	11.967057	3.4593434
9.149918318165264	12.093047	3.477506
9.167501194743924	12.564094	3.5445864
9.18508428762374	12.23712	3.4981594
9.202667597226693	12.233358	3.4976218
9.220251123974803	11.95566	3.4576957
9.237834868290143	11.764497	3.4299412
9.255418830594836	11.6407385	3.4118526
9.273003011311046	11.111797	3.3334363
9.290587410860985	10.875341	3.2977784
9.308172029666911	10.22911	3.198298
9.32575686815113	9.990811	3.1608245
9.343341926735997	8.794448	2.9655435
9.360927205843916	8.57724	2.9286926
9.378512705897327	8.381868	2.8951457
9.396098427318728	8.11979	2.8495245
9.413684370530664	7.980461	2.824971
9.431270535955722	7.7712975	2.7877047
9.448856924016539	7.680551	2.7713807
9.466443535135806	7.646874	2.7652981
9.484030369736251	7.6907735	2.7732244
9.501617428240658	7.700621	2.7749994
9.519204711071852	7.6767483	2.7706945
9.536792218652714	7.7426853	2.7825682
9.55437995140617	7.836061	2.7992966
9.571967909755191	7.8921366	2.8092947
9.589556094122802	7.9288282	2.8158176
9.60714450493207	7.8929505	2.8094397
9.624733142606116	7.833418	2.7988243
9.642322007568108	7.809946	2.7946281
9.659911100241267	7.788136	2.7907233
9.677500421048851	7.884544	2.807943
9.695089970414175	7.978468	2.824618
9.712679748760609	8.105414	2.8470008
9.730269756511557	8.124866	2.850415
9.747859994090492	8.132401	2.8517365
9.765450461920915	8.117785	2.8491728
9.78304116042639	8.147934	2.8544586
9.800632090030527	8.171923	2.8586576
9.81822325115699	8.213145	2.8658586
9.835814644229481	8.251935	2.8726182
9.853406269671762	8.290834	2.879381
9.870998127907646	8.319018	2.884271
9.888590219360985	8.32624	2.8855224
9.906182544455698	8.357529	2.890939
9.923775103615734	8.38079	2.8949594
9.941367897265108	8.349091	2.8894794
9.958960925827878	8.304785	2.8818023
9.97655418972816	8.24337	2.871127
9.994147689390106	8.234796	2.8696334
10.011741425237934	8.276277	2.8768518
10.029335397695904	8.341919	2.888238
10.04692960718833	8.312752	2.8831842
10.06452405413958	8.30388	2.8816452
10.082118738974064	8.2932005	2.8797917
10.099713662116246	8.291122	2.879431
10.117308823990651	8.232876	2.869299
10.134904225021844	8.163613	2.8572037
10.152499865634445	8.16963	2.8582566
10.170095746253125	8.219072	2.8668923
10.18769186730261	8.232094	2.8691626
10.205288229207675	8.138216	2.8527558
10.222884832393145	8.137803	2.8526835
10.2404816772839	8.169521	2.8582375
10.258078764304868	8.202722	2.8640394
10.275676093881035	8.163793	2.8572352
10.293273666437438	8.163668	2.8572133
10.310871482399158	8.173715	2.8589709
10.32846954219134	8.134601	2.852122
10.346067846239173	8.093271	2.8448675
10.363666394967908	8.081443	2.842788
10.38126518880283	8.117301	2.8490877
10.398864228169298	8.230194	2.8688314
10.416463513492713	8.315041	2.8835812
10.434063045198531	8.282044	2.877854
10.451662823712262	8.242695	2.8710093
10.469262849459467	8.238462	2.8702722
10.486863122865758	8.201284	2.8637884
10.504463644356806	8.128052	2.8509738
10.522064414358338	8.049354	2.8371382
10.539665433296118	8.01879	2.8317468
10.557266701595987	8.006991	2.8296628
10.574868219683818	7.868395	2.8050659
10.592469987985552	7.790436	2.7911353
10.610072006927185	7.636037	2.763338
10.627674276934751	7.582513	2.7536364
10.64527679843435	7.414965	2.7230434
10.662879571852143	7.2934003	2.7006297
10.680482597614331	7.133839	2.6709247
10.698085876147173	7.047609	2.6547332
10.715689407876988	6.9584856	2.6378942
10.733293193230146	6.861697	2.6194842
10.750897232633072	6.8122535	2.6100295
10.76850152651225	6.725469	2.593351
10.786106075294207	6.6441207	2.577619
10.803710879405534	6.5689545	2.562997
10.821315939272877	6.4697533	2.543571
10.83892125532294	6.355231	2.5209584
10.856526827982472	6.271986	2.5043933
10.874132657678285	6.248272	2.4996543
10.891738744837243	6.174766	2.4849076
10.909345089886271	6.157458	2.4814224
10.926951693252343	6.0702567	2.463789
10.944558555362494	6.0448937	2.4586365
10.96216567664381	6.0358906	2.456805
10.979773057523436	6.004054	2.4503171
10.997380698428573	5.8715453	2.4231272
11.014988599786477	5.7906346	2.4063737
11.032596762024461	5.6986904	2.387193
11.050205185569892	5.6140094	2.36939
11.067813870850198	5.5301704	2.3516314
11.085422818292859	5.4926248	2.3436348
11.10303202832541	5.4776497	2.340438
11.120641501375454	5.4375997	2.331866
11.138251237870636	5.348895	2.3127677
11.155861238238671	5.2632585	2.2941792
11.173471502907317	5.18034	2.276036
11.191082032304402	5.1065516	2.259768
11.208692826857805	5.0179715	2.240083
11.226303886995465	4.954505	2.2258718
11.243915213145371	4.9477377	2.2243512
11.261526805735578	4.928303	2.219978
11.279138665194196	4.869164	2.2066183
11.296750791949393	4.804559	2.1919305
11.314363186429393	4.730737	2.1750257
11.331975849062479	4.721399	2.172878
11.34958878027699	4.6961226	2.167054
11.36720198050133	4.663516	2.1595175
11.384815450163948	4.581876	2.1405318
11.402429189693366	4.488107	2.1185153
11.420043199518153	4.437711	2.1065874
11.437657480066942	63.366272	7.9602933
11.455272031768422	85.05721	9.222647
11.472886855051353	107.48509	10.367501
11.490501950344528	99.12874	9.956342
11.508117318076819	84.49478	9.192104
11.52573295867715	45.91052	6.77573
11.543348872574514	4.192818	2.0476372
11.560965060197946	4.146466	2.0362873
11.57858152197655	4.074388	2.0185113
11.59619825833949	4.022166	2.0055337
11.613815269715985	4.0013385	2.0003345
11.631432556535323	38.513477	6.2059226
11.649050119226837	83.06344	9.1139145
11.666667958219929	93.48674	9.668854
11.68428607394406	107.73292	10.379447
11.701904466828756	82.51313	9.0836735
11.719523137303586	65.3548	8.084231
11.737142085798196	4.559373	2.135269
11.754761312742286	3.7282212	1.9308602
11.772380818565619	3.6644423	1.9142733
11.790000603698015	3.6810057	1.9185947
11.80762066856935	3.6274333	1.9045821
11.825241013609572	3.6139472	1.9010384
11.842861639248683	3.5586867	1.8864481
11.860482545916748	3.5023754	1.8714634
11.878103734043883	3.4093728	1.8464487
11.895725204060282	3.311514	1.8197565
11.91334695639619	3.289587	1.8137219
11.930968991481919	3.3145971	1.8206035
11.948591309747824	3.3932314	1.8420726
11.966213911624347	3.3754826	1.8372487
11.98383679754198	3.3514667	1.8307011
12.001459967931268	3.2808259	1.811305
12.019083423222835	3.1819518	1.7838026
12.036707163847352	3.1646504	1.7789464
12.05433119023556	3.160848	1.7778773
12.071955502818259	3.183678	1.7842864
12.089580102026313	3.1599798	1.7776332
12.107204988290643	3.140059	1.7720212
12.12483016204224	3.1410258	1.7722939
12.142455623712152	3.1378062	1.7713854
12.16008137373149	3.1288223	1.7688477
12.177707412531431	3.1100917	1.7635452
12.19533374054321	3.048669	1.7460438
12.212960358198126	3.0501635	1.7464718
12.230587265927545	3.0493205	1.7462304
12.248214464162889	3.045596	1.7451636
12.265841953335649	3.0449526	1.7449793
12.283469733877375	3.033095	1.7415782
12.301097806219685	2.9990814	1.7317857
12.31872617079425	2.9643953	1.7217419
12.336354828032825	2.964836	1.7218698
12.353983778367205	2.9986184	1.7316519
12.371613022229262	3.0146003	1.7362604
12.389242560050928	2.9705255	1.7235212
12.406872392264201	2.936562	1.71364
12.424502519301143	2.8962877	1.7018483
12.442132941593874	2.8793228	1.6968567
12.459763659574586	2.879029	1.6967702
12.477394673675532	2.8557045	1.689883
12.49502598432903	2.8422968	1.6859113
12.51265759196746	2.817621	1.6785771
12.530289497023267	2.8122864	1.6769873
12.547921699928967	2.8240993	1.6805056
12.565554201117134	2.8187997	1.6789281
12.583187001020404	2.7602677	1.6614053
12.600820100071486	2.7119217	1.6467913
12.618453498703152	2.7060256	1.6450002
12.636087197348235	2.7273045	1.6514553
12.65372119643964	2.7649176	1.6628041
12.671355496410326	2.8060634	1.6751308
12.68899009769333	2.843466	1.686258
12.706625000721749	2.8465946	1.6871854
12.724260205928752	2.896656	1.7019565
12.741895713747551	2.9462037	1.7164509
12.759531524611454	2.9904053	1.7292788
12.777167638953818	2.947591	1.716855
12.794804057208072	2.9357166	1.7133933
12.812440779807702	2.9550545	1.7190272
12.830077807186271	3.1192796	1.7661482
12.847715139777405	3.2134366	1.7926061
12.865352778014795	3.428396	1.8515928
12.882990722332197	3.562658	1.8875005
12.90062897316344	3.6426468	1.908572
12.918267530942412	3.709759	1.9260734
12.935906396103071	3.6054811	1.8988105
12.953545569079449	3.716477	1.9278166
12.971185050305628	3.5187101	1.8758225
12.988824840215775	3.5009372	1.8710792
13.006464939244115	3.5067568	1.8726337
13.024105347824943	3.4331195	1.852868
13.041746066392617	3.5016143	1.87126
13.05938709538157	3.326789	1.8239487
13.077028435226296	3.322098	1.8226624
13.094670086361363	3.232495	1.7979141
13.112312049221401	3.1457863	1.7736365
13.129954324241112	3.0736196	1.7531742
13.147596911855258	2.8988383	1.7025975
13.165239812498685	2.9027314	1.7037405
13.182883026606293	2.8469374	1.687287
13.200526554613058	2.8040278	1.6745231
13.218170396954017	2.739926	1.6552722
13.235814554064284	2.7295103	1.652123
13.253459026379034	2.7385557	1.6548582
13.271103814333523	2.7373362	1.6544898
13.288748918363058	2.753202	1.6592776
13.306394338903031	2.7578278	1.6606709
13.32404007638889	2.731071	1.6525953
13.341686131256164	2.721269	1.6496269
13.359332503940449	2.651056	1.6282064
13.376979194877402	2.659219	1.6307112
13.394626204502751	2.7090113	1.6459074
13.412273533252307	2.7649248	1.6628063
13.429921181561937	2.7601807	1.6613792
13.447569149867581	2.7379024	1.6546608
13.465217438605247	2.7480626	1.6577282
13.482866048211022	2.7213972	1.6496657
13.500514979121052	2.6895432	1.6399827
13.518164231771568	2.6121743	1.6162223
13.535813806598844	2.6140318	1.6167967
13.553463704039254	2.6390445	1.6245136
13.571113924529229	2.6472433	1.6270351
13.588764468505275	2.6504898	1.6280324
13.606415336403956	2.6580272	1.6303457
13.624066528661917	2.6928036	1.6409764
13.641718045715882	2.739278	1.6550765
13.659369888002635	2.8027036	1.6741277
13.67702205595903	2.9010663	1.7032517
13.694674550021993	2.9698145	1.723315
13.712327370628532	3.0006065	1.7322259
13.729980518215713	3.0666618	1.7511886
13.747633993220681	3.1421127	1.7726005
13.765287796080647	3.1736238	1.7814667
13.7829419272329	3.2311985	1.7975535
13.800596387114801	3.2392187	1.799783
13.818251176163775	3.2497058	1.8026941
13.835906294817324	3.2752926	1.8097769
13.853561743513023	3.3611805	1.8333523
13.871217522688525	3.4244716	1.8505328
13.888873632781538	3.4684992	1.8623908
13.906530074229858	3.4905975	1.868314
13.92418684747135	3.5281267	1.8783308
13.941843952943948	3.5105343	1.873642
13.959501391085665	3.4677424	1.8621875
13.977159162334578	3.4011796	1.8442287
13.994817267128846	3.3370757	1.8267665
14.012475705906693	3.2580001	1.8049932
14.030134479106424	3.1599915	1.7776365
14.047793587166414	3.109901	1.7634912
14.065453030525108	3.0884194	1.7573899
14.083112809621026	3.006091	1.7338083
14.100772924892766	2.9306004	1.7118996
14.118433376778997	2.8679001	1.6934875
14.136094165718458	2.839165	1.6849822
14.153755292149969	2.8041081	1.6745472
14.171416756512416	2.732311	1.6529703
14.189078559244768	2.6623921	1.6316838
14.20674070078606	2.5997155	1.6123633
14.224403181575408	2.5191493	1.5871828
14.242066002051999	2.5061808	1.5830921
14.259729162655093	2.477833	1.5741134
14.277392663824022	2.5015492	1.5816287
14.295056505998208	2.4816556	1.5753272
14.312720689617128	2.470625	1.5718222
14.330385215120348	2.4341125	1.5601642
14.348050082947497	2.3991508	1.5489192
14.3657152935383	2.3575206	1.535422
14.383380847332528	2.3303468	1.5265473
14.401046744770051	2.3440852	1.5310405
14.418712986290798	2.407287	1.5515434
14.436379572334793	2.4333518	1.5599204
14.454046503342123	2.404116	1.5505211
14.471713779752946	2.3493764	1.5327675
14.489381402007504	2.3562837	1.5350192
14.507049370546113	2.4032762	1.5502504
14.524717685809168	2.3829422	1.5436782
14.542386348237134	2.3507473	1.5332147
14.560055358270553	2.3523695	1.5337436
14.577724716350051	2.4284196	1.5583388
14.595394422916325	2.426832	1.5578293
14.61306447841015	2.471388	1.5720649
14.63073488327237	2.495152	1.579605
14.648405637943917	2.5138602	1.5855157
14.6660767428658	2.502134	1.5818136
14.683748198479094	2.5009625	1.5814432
14.701420005224954	2.5583081	1.5994712
14.719092163544628	2.6407514	1.6250389
14.73676467387942	2.6901746	1.6401752
14.754437536670727	2.688368	1.6396244
14.772110752360014	2.688869	1.6397771
14.78978432138882	2.6773155	1.6362504
14.807458244198777	2.7162247	1.6480973
14.82513252123159	2.7239358	1.6504351
14.842807152929028	2.7794929	1.6671811
14.860482139732962	2.8051312	1.6748526
14.87815748208531	2.778744	1.6669565
14.8958331804281	2.7313309	1.6526738
14.91350923520342	2.6691968	1.6337677
14.931185646853438	2.6654577	1.632623
14.948862415820408	2.6581273	1.6303765
14.966539542546656	2.6565645	1.6298971
14.98421702747459	2.6277788	1.6210425
15.001894871046696	2.6525667	1.6286702
15.019573073705542	2.6713848	1.6344372
15.037251635893766	2.6817858	1.6376159
15.054930558054092	2.718873	1.6489005
15.072609840629323	2.7861314	1.6691709
15.090289484062351	2.9160368	1.7076408
15.107969488796124	3.1662357	1.7793919
15.125649855273691	3.5456276	1.8829837
15.14333058393817	4.0419316	2.0104556
15.161011675232768	5.0124106	2.2388413
15.17869312960076	6.4119577	2.5321844
15.196374947485506	8.233488	2.8694055
15.214057129330447	11.247767	3.353769
15.231739675579114	15.775887	3.971887
15.249422586675102	20.575056	4.5359735
15.267105863062092	23.517714	4.8495064
15.284789505183847	23.69289	4.867534
15.302473513484218	21.620949	4.649833
15.320157888407127	18.166706	4.262242
15.337842630396578	14.200586	3.7683666
15.355527739896656	11.114357	3.33382
15.37321321735153	8.666822	2.9439468
15.39089906320545	6.3413153	2.5181968
15.408585277902748	4.7629876	2.182427
15.42627186188783	3.6802773	1.9184049
15.443958815605198	3.2201107	1.7944667
15.461646139499424	2.9776866	1.7255975
15.479333834015168	2.8545628	1.6895452
15.497021899597165	2.8073645	1.6755191
15.514710336690234	2.742119	1.6559345
15.53239914573928	2.657872	1.6302981
15.550088327189297	2.5515978	1.5973722
15.567777881485336	2.5083277	1.5837702
15.58546780907256	2.4951696	1.5796106
15.6031581103962	2.507424	1.5834848
15.620848785901568	2.5142097	1.585626
15.638539836034063	2.4972012	1.5802535
15.656231261239173	2.4603813	1.5685602
15.673923061962451	2.4510288	1.5655762
15.691615238649552	2.4639883	1.5697097
15.709307791746202	2.474286	1.5729864
15.727000721698221	2.4952269	1.5796287
15.744694028951498	2.4285097	1.5583676
15.76238771395202	2.425604	1.5574352
15.780081777145844	2.394961	1.5475662
15.797776218979125	2.3950803	1.5476047
15.815471039898094	2.3680005	1.5388309
15.833166240349064	2.374078	1.5408044
15.850861820778437	2.37547	1.541256
15.868557781632699	2.3878975	1.5452824
15.886254123358412	2.3559642	1.5349151
15.903950846402232	2.350586	1.5331621
15.921647951210897	2.3096914	1.5197669
15.939345438231225	2.3204274	1.5232949
15.957043307910133	2.3430536	1.5307037
15.974741560694602	2.3762817	1.5415193
15.992440197031714	2.3673012	1.5386037
16.01013921736862	2.3743982	1.5409082
16.02783862215259	2.3580437	1.5355923
16.045538411830933	2.3735225	1.540624
16.06323858685107	2.3865223	1.5448374
16.080939147660512	2.415404	1.554157
16.09864009470684	2.4043286	1.5505898
16.11634142843774	2.3509843	1.5332919
16.134043149300954	2.357361	1.53537
16.15174525774433	2.361002	1.5365552
16.169447754215817	2.406775	1.5513784
16.18715063916342	2.427123	1.5579227
16.204853913035244	2.4904966	1.5781307
16.222557576279478	2.4877234	1.5772518
16.240261629344403	22.448673	4.7380033
16.257966072678386	42.931767	6.5522337
16.275670906729868	38.037354	6.167443
16.293376131947387	2.4427798	1.5629395
16.31108174877957	2.4882112	1.5774064
16.328787757675133	2.5009758	1.5814474
16.34649415908287	2.5413604	1.5941645
16.364200953451657	2.573591	1.6042416
16.38190814123048	2.592135	1.6100109
16.39961572286839	2.5922992	1.6100619
16.41732369881455	2.6498456	1.6278347
16.43503206951817	2.7091537	1.6459507
16.45274083542859	2.7784767	1.6668763
16.47044999699522	2.7827716	1.6681641
16.488159554667558	2.8098962	1.6762745
16.505869508895184	2.8283103	1.681758
16.523579860127786	2.9020302	1.7035346
16.541290608815117	2.934969	1.713175
16.559001755407035	2.9670906	1.7225245
16.57671330035348	3.0272732	1.7399061
16.59442524410448	3.1214414	1.7667601
16.61213758711015	3.187785	1.7854369
16.629850329820705	3.2270603	1.7964021
16.647563472686436	3.274328	1.8095105
16.665277016157724	3.3300679	1.8248473
16.682990960685053	3.3898125	1.8411443
16.70070530671898	3.436242	1.8537104
16.718420054710155	3.468399	1.8623638
16.736135205109335	3.4966302	1.8699279
16.753850758367335	3.516549	1.8752464
16.771566714935087	3.5924315	1.8953711
16.789283075263597	3.6842084	1.9194292
16.80699983980398	3.76317	1.9398892
16.82471700900741	3.8623998	1.9652989
16.84243458332518	3.9255137	1.9812909
16.860152563208665	4.0137177	2.0034266
16.87787094910932	4.073301	2.0182421
16.89558974147871	4.0833764	2.0207367
16.913308940768466	4.1169105	2.0290172
16.931028547430333	4.115566	2.0286858
16.94874856191613	4.2523527	2.0621233
16.966468984677785	4.3029866	2.0743642
16.98418981616729	4.3608155	2.0882566
17.00191105683676	4.415694	2.1013553
17.019632707138374	4.473909	2.1151617
17.03735476752442	4.532526	2.128973
17.05507723844728	4.5676775	2.1372125
17.072800120359403	4.578888	2.1398337
17.090523413713353	4.584239	2.1410837
17.108247118961785	4.589679	2.1423535
17.125971236557437	4.551249	2.1333656
17.143695766953133	4.5644374	2.1364543
17.161420710601806	4.5295405	2.1282718
17.179146067956477	4.565868	2.136789
17.19687183947025	4.5561147	2.1345057
17.21459802559634	4.6205845	2.1495545
17.232324626788028	4.6493144	2.1562269
17.25005164349871	4.640754	2.154241
17.267779076181863	4.611039	2.1473331
17.285506925291074	4.5899725	2.1424222
17.30323519127999	4.5923843	2.1429849
17.320963874602384	4.573228	2.1385107
17.33869297571211	4.52975	2.128321
17.356422495063114	4.4755545	2.1155505
17.37415243310944	4.4642363	2.112874
17.391882790305218	4.477019	2.1158967
17.40961356710468	4.494534	2.1200316
17.42734476396215	4.458864	2.1116023
17.445076381332044	4.4423757	2.1076944
17.462808419668868	4.480991	2.116835
17.48054087942723	4.606011	2.1461618
17.498273761061835	4.903555	2.2143972
17.51600706502747	5.422486	2.328623
17.533740791779024	6.1952486	2.4890256
17.551474941771485	7.6093984	2.7585137
17.56920951545993	8.734088	2.955349
17.586944513299528	10.835484	3.2917295
17.60467993574556	12.376355	3.5180044
17.622415783253373	13.840271	3.7202516
17.64015205627843	15.04032	3.8781853
17.657888755276293	16.009674	4.0012093
17.675625880702604	16.513952	4.0637364
17.69336343301311	16.39435	4.0489936
17.71110141266366	15.600654	3.9497662
17.728839820110178	14.608091	3.8220532
17.746578655808705	13.87269	3.724606
17.764317920215372	12.6024885	3.5499983
17.7820576137864	11.320907	3.3646555
17.79979773697811	9.348182	3.0574796
17.81753829024692	7.4879375	2.7364097
17.835279274049356	5.8363566	2.4158552
17.85302068884201	4.8246603	2.196511
17.870762535081607	4.205805	2.0508058
17.888504813224934	3.926243	1.981475
17.90624752372891	3.7498024	1.9364406
17.923990667050536	3.6241486	1.9037197
17.941734243646895	3.5090075	1.8732345
17.959478253975185	3.480629	1.8656443
17.9772226984927	3.4554832	1.858893
17.994967577656833	3.3688054	1.8354306
18.01271289192506	3.3275719	1.8241633
18.030458641754965	3.2917848	1.8143276
18.04820482760425	3.3545806	1.8315514
18.06595144993067	3.3538823	1.8313608
18.083698509192125	3.3377082	1.8269396
18.101446005846576	3.280436	1.8111974
18.119193940352105	3.2535346	1.8037556
18.136942313166887	3.224962	1.795818
18.1546911247492	3.1853886	1.7847657
18.1724403755574	3.138519	1.7715865
18.19019006604997	3.1418018	1.7725129
18.207940196685467	3.1198764	1.7663171
18.225690767922575	3.0803287	1.7550865
18.243441780220046	3.0466437	1.7454637
18.261193234036764	3.0358155	1.7423592
18.278945129831676	3.031897	1.7412343
18.29669746806386	3.0330691	1.7415708
18.314450249192483	2.9993556	1.7318648
18.3322034736768	2.9919388	1.7297221
18.349957141976184	3.0179853	1.737235
18.3677112545501	3.0078819	1.7343246
18.385465811858108	2.9963677	1.731002
18.403220814359884	2.9761539	1.7251533
18.420976262515172	3.0228376	1.738631
18.43873215678387	3.0798643	1.7549542
18.456488497625923	3.150749	1.7750349
18.474245285501407	3.2032394	1.7897596
18.492002520870486	3.2666543	1.8073888
18.50976020419343	3.3499327	1.8302821
18.527518335930615	3.648767	1.9101746
18.545276916542516	4.206262	2.0509174
18.563035946489688	4.398568	2.0972764
18.580795426232832	4.925253	2.219291
18.598555356232698	4.807458	2.1925917
18.616315736950185	5.076053	2.2530098
18.63407656884626	4.6870093	2.1649501
18.65183785238201	4.8909526	2.2115498
18.669599588018617	4.6721683	2.16152
18.68736177621737	4.685251	2.164544
18.705124417439652	4.608883	2.1468308
18.72288751214696	4.3834844	2.0936773
18.740651060800886	4.556645	2.13463
18.758415063863115	4.259034	2.0637426
18.77617952179546	4.473132	2.114978
18.793944435059814	4.2438345	2.060057
18.811709804118184	4.2783756	2.0684235
18.829475629432675	4.1834116	2.045339
18.8472419114655	3.973432	1.9933469
18.86500865067897	4.1065035	2.0264509
18.88277584753551	3.8265057	1.9561456
18.90054350249763	3.8546932	1.9633373
18.918311616027957	3.5118651	1.8739971
18.936080188589226	3.3908846	1.8414354
18.953849220644265	3.04188	1.7440985
18.971618712656007	2.8513865	1.688605
18.9893886650875	2.8211389	1.6796247
19.007159078401887	7.983449	2.8254998
19.024929953062408	32.869026	5.7331514
19.042701289532435	32.782276	5.7255807
19.060473088275405	25.354053	5.0352807
19.07824534975489	2.6573212	1.6301292
19.096018074434568	2.6596167	1.6308331
19.113791262778197	2.6306086	1.6219151
19.13156491524966	2.639395	1.6246215
19.149339032312945	2.6133516	1.6165864
19.167113614432136	2.631067	1.6220564
19.184888662071433	2.6059494	1.6142954
19.202664175695123	2.584324	1.6075833
19.220440155767623	2.5396788	1.593637
19.238216602753447	2.508884	1.5839456
19.2559935171172	2.508533	1.5838349
19.27377089932361	2.5148997	1.5858436
19.291548749837514	2.519655	1.5873421
19.309327069123835	2.5159643	1.5861791
19.32710585764763	2.539935	1.5937173
19.344885115874032	2.4956057	1.5797486
19.362664844268313	2.4908373	1.5782387
19.380445043295822	2.4529321	1.5661839
19.39822571342203	2.4516459	1.5657732
19.41600685511252	2.4528737	1.5661653
19.43378846883297	2.4753187	1.5733145
19.451570555049173	2.4819353	1.5754158
19.469353114227037	2.4642584	1.5697956
19.48713614683254	2.4747715	1.5731406
19.50491965333182	2.4574769	1.5676341
19.52270363419109	2.4623585	1.5691904
19.540488089876686	2.4920924	1.5786363
19.55827302085503	2.4967391	1.5801073
19.576058427592674	2.4754977	1.5733714
19.593844310556282	2.439692	1.5619514
19.611630670212598	2.425117	1.5572788
19.629417507028506	2.454677	1.5667409
19.64720482147098	2.4736433	1.572782
19.6649926140071	2.5033646	1.5822024
19.682780885104084	2.4633908	1.5695193
19.70056963522921	2.4478147	1.5645493
19.718358864849908	2.455629	1.5670447
19.7361485744337	2.492829	1.5788696
19.753938764448215	2.4771132	1.5738847
19.771729435361202	2.4841144	1.5761074
19.789520587640506	2.468206	1.5710524
19.807312221754092	2.4910803	1.5783156
19.825104338170043	2.487069	1.5770444
19.842896937356517	2.5034013	1.582214
19.860690019781824	2.5034788	1.5822386
19.87848358591436	2.5065963	1.5832233
19.896277636222635	2.5160005	1.5861906
19.914072171175278	2.5093787	1.5841018
19.931867191241015	2.493672	1.5791365
19.94966269688869	2.4775407	1.5740205
19.967458688587264	2.454705	1.5667498
19.985255166805807	2.428141	1.5582494
20.00305213201348	2.445576	1.5638337
20.020849584679578	2.471292	1.5720344
20.038647525273507	2.4384005	1.5615379
20.05644595426477	2.4322672	1.5595728
20.07424487212299	2.4506845	1.5654663
20.092044279317903	2.4688804	1.5712671
20.109844176319353	2.4355047	1.5606103
20.127644563597304	2.4328227	1.5597508
20.145445441621817	2.405376	1.5509274
20.16324681086307	2.3751585	1.541155
20.181048671791373	2.3336766	1.5276376
20.198851024877122	2.332446	1.5272348
20.216653870590836	2.3432932	1.5307819
20.234457209403146	2.362636	1.5370868
20.252261041784802	2.342268	1.530447
20.270065368206662	2.35658	1.5351156
20.287870189139685	2.321854	1.5237632
20.305675505054968	2.310994	1.5201954
20.323481316423702	2.31665	1.5220546
20.341287623717207	2.3288064	1.5260427
20.359094427406884	2.3378675	1.5290086
20.376901727964288	2.3384123	1.5291868
20.39470952586107	2.3428702	1.5306437
20.41251782156899	2.3517606	1.5335451
20.430326615559935	2.3286304	1.5259851
20.448135908305886	2.3230479	1.5241548
20.465945700278965	2.3213525	1.5235986
20.483755991951384	2.329974	1.5264252
20.50156678379548	2.3396304	1.529585
20.519378076283708	2.3445954	1.5312072
20.537189869888635	2.3589432	1.5358852
20.55500216508294	2.3688362	1.5391024
20.572814962339415	2.3890285	1.5456482
20.59062826213098	2.3477256	1.532229
20.60844206493066	2.2891798	1.5130036
20.626256371211593	2.2616358	1.5038736
20.644071181447032	2.3021889	1.5172966
20.66188649611036	2.3394103	1.5295131
20.67970231567506	2.34475	1.5312576
20.697518640614742	2.3527231	1.5338589
20.715335471403122	2.3444204	1.53115
20.73315280851404	2.3254828	1.5249534
20.750970652421447	2.3461132	1.5317028
20.768789003599412	2.3289053	1.5260751
20.786607862522136	2.2583702	1.5027875
20.8044272296639	2.2364664	1.495482
20.82224710549913	2.276866	1.5089288
20.84006749050237	2.3127615	1.5207766
20.857888385148268	3.836488	1.9586955
20.8757097899116	45.903515	6.7752132
20.893531705267254	64.76631	8.047752
20.911354131690224	83.800514	9.154263
20.92917706965566	69.067856	8.310707
20.94700051963877	50.153477	7.081912
20.96482448211493	29.439997	5.4258637
20.982648957559622	4.1746974	2.0432076
21.00047394644843	2.2576065	1.5025333
21.01829944925707	2.246255	1.4987512
21.036125466461375	2.2236927	1.4912051
21.053951998537297	2.2145858	1.4881485
21.071779045960906	2.1997292	1.4831485
21.089606609208378	2.2256413	1.4918584
21.10743468875603	2.2363377	1.4954389
21.12526328508028	2.2268791	1.4922731
21.143092398657675	2.2040935	1.4846189
21.16092202996488	2.1556895	1.4682267
21.17875217947867	2.1285264	1.4589471
21.19658284767596	2.1303747	1.4595803
21.21441403503377	2.1622968	1.470475
21.232245742029225	2.1630354	1.4707261
21.2500779691396	2.1507492	1.4665433
21.26791071684227	2.144971	1.464572
21.28574398561475	2.1336014	1.4606853
21.30357777593465	2.1004486	1.4492924
21.321412088279704	2.102283	1.4499252
21.339246923127792	2.1291132	1.459148
21.357082280956888	2.1502416	1.4663702
21.3749181622451	2.1299658	1.4594402
21.392754567470647	2.104511	1.4506932
21.41059149711187	2.065375	1.4371413
21.42842895164726	2.0581884	1.4346387
21.446266931555378	2.095377	1.4475417
21.464105437314945	2.0981524	1.4485
21.481944469404798	2.0877297	1.4448978
21.49978402830388	2.0779626	1.441514
21.51762411449127	2.1074145	1.4516937
21.53546472844617	2.1108606	1.4528801
21.553305870647876	2.1096303	1.4524567
21.571147541575865	2.0711336	1.4391434
21.58898974170967	2.0532908	1.4329308
21.60683247152899	2.053708	1.4330764
21.62467573151363	2.0426235	1.4292037
21.642519522143523	2.049654	1.4316612
21.660363843898722	2.0550153	1.4335325
21.6782086972594	2.0913346	1.4461447
21.696054082705864	2.0750544	1.4405049
21.713900000718535	2.0760663	1.4408561
21.73174645177795	2.0277996	1.4240083
21.749593436364794	2.0064275	1.4164842
21.767440954959845	2.0136254	1.4190227
21.785289008044032	2.0475311	1.4309196
21.803137596098388	2.04836	1.4312093
21.820986719604086	2.068662	1.4382844
21.838836379042412	2.0380754	1.4276118
21.85668657489478	1.9863669	1.4093853
21.87453730764273	1.9647148	1.4016829
21.892388577767914	1.9824517	1.4079956
21.91024038575213	2.0020957	1.4149543
21.928092732077285	2.0153344	1.4196247
21.945945617225426	2.0393364	1.4280534
21.963799041678694	2.0240982	1.422708
21.981653005919398	31.307907	5.595347
21.999507510429943	78.10612	8.837767
22.01736255569286	73.08773	8.549136
22.035218142190818	4.194724	2.0481026
22.05307427040661	1.9979914	1.4135033
22.07093094082315	1.9592097	1.3997177
22.088788153923474	1.9579048	1.3992515
22.106645910190746	1.9578508	1.3992323
22.12450421010827	1.9659659	1.402129
22.142363054159464	1.975836	1.4056443
22.16022244282787	1.9691257	1.4032555
22.178082376597164	1.9543226	1.3979709
22.195942855951145	1.9261273	1.3878499
22.213803881373742	1.9435549	1.3941144
22.231665453349002	1.9683758	1.4029882
22.24952757236111	1.9878466	1.4099102
22.26739023889438	1.9862603	1.4093474
22.28525345343323	1.9761337	1.4057503
22.30311721646225	1.9783723	1.4065462
22.320981528466113	1.9839364	1.4085227
22.33884638992964	1.9628003	1.4009998
22.356711801337788	1.9304645	1.3894116
22.37457776317561	1.9151418	1.3838865
22.392444275928337	1.9237541	1.3869946
22.410311340081282	1.9637115	1.4013249
22.428178956119904	1.9975215	1.413337
22.446047124529805	2.004095	1.4156606
22.46391584579669	2.0335968	1.4260423
22.481785120406414	2.0276942	1.4239713
22.49965494884496	2.006822	1.4166235
22.51752533159841	1.9522963	1.397246
22.53539626915302	1.945142	1.3946835
22.553267761995137	1.9422727	1.3936545
22.571139810611264	1.9381657	1.3921802
22.589012415488025	1.9190612	1.3853018
22.60688557711216	1.9154449	1.383996
22.624759295970566	1.9151787	1.3838998
22.642633572550263	1.9143023	1.3835832
22.660508407338362	1.897092	1.3773496
22.67838380082217	1.8526864	1.3611343
22.696259753489077	1.8470988	1.3590802
22.714136265826614	1.8610333	1.3641969
22.73201333832246	1.8915597	1.3753399
22.74989097146439	1.9098318	1.3819666
22.76776916574035	1.9323807	1.390101
22.785647921638393	1.9122689	1.3828481
22.803527239646712	1.9274694	1.3883333
22.82140712025363	1.941989	1.3935527
22.839287563947593	1.9572239	1.3990082
22.85716857121719	1.9332255	1.3904048
22.875050142551135	1.9059544	1.380563
22.892932278438277	1.8817703	1.3717763
22.910814979367604	1.9152789	1.383936
22.928698245828222	1.9417896	1.3934811
22.946582078309387	1.9588836	1.3996012
22.96446647730047	1.92679	1.3880886
22.98235144329098	1.8933821	1.3760022
23.000236976770562	1.8620547	1.3645712
23.018123078229	1.8349674	1.3546097
23.03600974815619	1.8436259	1.3578019
23.053896987042194	1.8913665	1.3752697
23.071784795377173	1.9151639	1.3838944
23.08967317365145	1.8753805	1.3694453
23.10756212235546	1.8776679	1.3702803
23.125451641979787	1.9065135	1.3807656
23.143341733015134	1.9414846	1.3933717
23.161232395952357	1.936538	1.3915955
23.179123631282426	1.926159	1.3878614
23.197015439496468	1.9363598	1.3915315
23.214907821085717	1.9135752	1.3833203
23.23280077654157	1.9255059	1.3876259
23.250694306355538	1.9150178	1.3838418
23.268588411019277	1.9450601	1.3946542
23.28648309102458	1.93674	1.3916681
23.304378346863356	1.9133584	1.383242
23.322274179027676	1.8854069	1.3731012
23.340170588009723	1.8780446	1.3704177
23.358067574301852	1.8915843	1.3753488
23.37596513839651	1.9107797	1.3823096
23.39386328078629	1.9293909	1.3890252
23.411762001963947	1.9127295	1.3830147
23.429661302422353	1.9452224	1.3947123
23.4475611826545	1.9818022	1.407765
23.46546164315356	1.9564328	1.3987254
23.48336268441279	1.9115877	1.3826017
23.501264306925638	1.9178618	1.3848689
23.51916651118564	1.9308631	1.389555
23.537069297686497	1.9139842	1.3834682
23.554972666922037	1.8843135	1.372703
23.57287661938623	1.871957	1.3681948
23.59078115557318	1.863314	1.3650326
23.608686275977128	1.8810406	1.3715103
23.62659198109246	1.9296377	1.389114
23.6444982714137	1.947342	1.3954719
23.66240514743549	1.9185982	1.3851347
23.68031260965263	1.9298058	1.3891745
23.698220658560068	1.9629159	1.401041
23.716129294652845	1.9503464	1.396548
23.7340385184262	1.9040368	1.3798684
23.75194833037546	1.8739306	1.3689158
23.769858730996123	1.8663738	1.3661529
23.78776972078382	1.9017553	1.3790414
23.80568130023431	1.8744009	1.3690876
23.823593469843495	1.8464973	1.3588588
23.841506230107424	1.840835	1.3567737
23.859419581522275	1.8695191	1.3673036
23.87733352458438	1.8848374	1.3728938
23.89524805979019	1.8903965	1.3749169
23.913163187636318	1.9043323	1.3799754
23.931078908619508	1.935172	1.3911046
23.948995223236633	1.9835804	1.4083964
23.966912131984735	1.9846822	1.4087875
23.98482963536096	2.0114605	1.4182597
24.002747733862616	2.0108683	1.4180509
24.020666427987155	2.063009	1.4363179
24.038585718232156	2.0874841	1.4448128
24.056505605095353	2.1117043	1.4531704
24.074426089074617	2.0700884	1.4387802
24.092347170667946	2.0601485	1.4353217
24.110268850373515	2.066553	1.4375511
24.128191128689586	2.0039122	1.415596
24.146114006114626	1.9503963	1.3965659
24.164037483147187	1.9750279	1.4053569
24.181961560286005	2.0153174	1.4196187
24.199886238029926	2.028517	1.4242601
24.21781151687797	2.0430753	1.4293618
24.235737397329274	2.093367	1.4468473
24.253663879883135	2.0985172	1.4486259
24.271590965038975	2.0727048	1.4396892
24.289518653296376	2.0689812	1.4383954
24.30744694515505	2.06719	1.4377725
24.32537584111486	2.0707855	1.4390224
24.34330534167581	2.065456	1.4371694
24.361235447338046	2.077612	1.4413923
24.379166158601876	2.0376482	1.4274621
24.39709747596772	2.047009	1.4307373
24.41502939993615	2.0475774	1.4309359
24.432961931007917	1.9991448	1.4139112
24.450895069683856	1.9398351	1.3927796
24.468828816465	1.9191991	1.3853517
24.4867631718525	1.922736	1.3866276
24.504698136347656	1.952713	1.3973951
24.52263371045192	1.9618251	1.4006517
24.540569894666874	1.9824532	1.4079962
24.558506689494266	1.9774811	1.4062294
24.57644409543597	1.9733391	1.4047558
24.594382112994012	1.9993029	1.413967
24.61232074267057	2.017883	1.4205221
24.630259984967953	2.0060723	1.4163588
24.64819984038863	1.9637887	1.4013525
24.66614030943522	1.9919212	1.4113544
24.684081392610462	1.9907472	1.4109384
24.702023090417274	1.9901408	1.4107234
24.7199654033587	1.9733466	1.4047586
24.737908331937927	2.0121791	1.4185131
24.755851876658305	2.0043294	1.4157435
24.773796038023324	1.9940959	1.4121246
24.79174081653661	2.0422368	1.4290686
24.809686212701962	2.09029	1.4457835
24.827632227023294	2.1147485	1.4542174
24.8455788600047	2.0706644	1.4389803
24.8635261121504	2.0254786	1.4231931
24.88147398396475	2.0874546	1.4448026
24.899422475952303	2.1402545	1.4629608
24.917371588617698	2.1395333	1.4627143
24.935321322465768	2.1320777	1.4601636
24.953271678001478	2.2069864	1.485593
24.97122265572994	2.4394667	1.5618793
24.989174256156414	2.7745354	1.6656936
25.00712647978632	3.1630886	1.7785074
25.02507932712521	3.6246803	1.9038593
25.043032798678798	4.1295114	2.03212
25.060986894952933	4.829009	2.1975007
25.078941616453637	5.5226073	2.3500228
25.096896963687055	6.3350596	2.5169544
25.114852937159508	7.335675	2.708445
25.132809537377444	7.868658	2.8051128
25.150766764847468	7.9546294	2.8203952
25.168724620076347	7.457163	2.7307806
25.186683103570985	6.5131936	2.552096
25.204642215838426	5.5079107	2.3468938
25.222601957385894	4.2704825	2.0665145
25.24056232872074	3.2373514	1.7992641
25.25852333035048	2.6066568	1.6145145
25.276484962782778	2.254917	1.501638
25.294447226525435	2.1182818	1.4554318
25.312410122086423	2.0786216	1.4417425
25.330373649973843	2.05126	1.432222
25.348337810695988	1.9580437	1.3993012
25.366302604761245	1.8924016	1.3756459
25.384268032678207	1.9081162	1.3813457
25.40223409495558	1.934022	1.3906912
25.420200792102257	1.9111623	1.382448
25.438168124627246	1.8650469	1.3656672
25.45613609303974	1.8570406	1.3627328
25.474104697849057	1.8556381	1.3622181
25.492073939564698	1.8642154	1.3653628
25.510043818696285	1.8538754	1.361571
25.528014335753614	1.8554248	1.3621398
25.54598549124664	1.8503286	1.3602679
25.56395728568544	1.8160045	1.3475921
25.58192971958028	1.8080083	1.344622
25.59990279344156	1.8256944	1.3511826
25.617876507779833	1.8661067	1.3660551
25.635850863105826	1.864572	1.3654933
25.653825859930386	1.8746207	1.3691679
25.671801498764548	1.8439647	1.3579266
25.68977778011949	1.7983071	1.3410097
25.707754704506524	1.7962073	1.3402265
25.725732272437153	1.8446928	1.3581947
25.743710484423012	1.8740023	1.368942
25.761689340975888	1.8541628	1.3616765
25.77966884260774	1.8419602	1.3571883
25.797648989830662	1.8508523	1.3604603
25.815629783156922	1.8699205	1.3674504
25.83361122309895	1.8859706	1.3733064
25.85159331016929	1.857106	1.3627567
25.869576044880695	1.846386	1.3588178
25.887559427746034	1.8589106	1.3634187
25.90554345927836	1.8833569	1.3723545
25.92352813999086	1.8317475	1.3534207
25.94151347039689	1.8037407	1.3430341
25.959499451009965	1.7917004	1.3385441
25.97748608234374	1.7707858	1.3307087
25.995473364912062	1.7530353	1.3240224
26.013461299228904	1.7844379	1.3358285
26.03144988580839	1.830557	1.3529807
26.04943912516483	1.8231364	1.3502357
26.067429017812675	1.7573744	1.32566
26.085419564266537	1.7466375	1.3216041
26.103410765041186	1.8217137	1.3497088
26.12140262065155	1.8198383	1.3490138
26.139395131612723	1.7836157	1.3355207
26.157388298439948	1.7864107	1.3365668
26.17538212164861	1.830498	1.3529589
26.193376601754295	1.8632128	1.3649956
26.211371739272714	1.8541312	1.3616649
26.229367534719746	1.8214353	1.3496057
26.247363988611433	1.7514938	1.3234402
26.26536110146397	1.7412018	1.319546
26.283358873793727	1.7756819	1.3325472
26.301357306117204	1.8155092	1.3474083
26.319356398951104	1.8229893	1.3501812
26.33735615281224	1.8141098	1.3468889
26.35535656821762	1.7979002	1.340858
26.373357645684404	1.838923	1.356069
26.39135938572991	1.8356503	1.3548617
26.409361788871614	1.8548629	1.3619335
26.427364855627165	1.7978028	1.3408217
26.445368586514352	1.7925761	1.3388712
26.46337298205115	1.7887887	1.337456
26.48137804275568	1.815787	1.3475114
26.499383769146217	1.8181682	1.3483946
26.517390161741215	1.7938019	1.3393289
26.53539722105928	1.7893001	1.3376472
26.553404947619182	1.7640076	1.3281595
26.571413341939856	1.7716975	1.3310512
26.589422404540397	1.8085475	1.3448225
26.60743213594006	1.8453325	1.3584301
26.62544253665827	1.7905332	1.3381081
26.64345360721459	1.753493	1.3241953
26.66146534812879	1.7204531	1.3116604
26.679477759920758	1.7409657	1.3194566
26.69749084311057	1.7390978	1.3187486
26.71550459821847	1.745012	1.320989
26.733519025764842	1.8200344	1.3490865
26.751534126270258	1.8688151	1.3670461
26.769549900255434	1.8700857	1.3675108
26.787566348241267	1.8566707	1.3625971
26.80558347074881	1.8313115	1.3532596
26.823601268299267	1.7985255	1.3410912
26.841619741414036	1.7766907	1.3329257
26.85963889061465	1.766223	1.3289932
26.877658716422832	1.8283256	1.3521559
26.89567921936045	1.8396504	1.3563371
26.913700399949544	1.8088464	1.3449336
26.93172225871233	1.7560327	1.3251538
26.949744796171174	1.725268	1.3134946
26.967768012848605	1.7094138	1.3074455
26.98579190926733	1.752745	1.3239127
27.003816485950225	1.7731407	1.3315933
27.021841743420318	1.7838724	1.3356168
27.039867682200814	1.7897068	1.3377992
27.057894302815072	1.7709724	1.3307788
27.07592160578664	1.7766861	1.3329239
27.0939495916392	1.7667252	1.3291821
27.111978260896635	1.7732431	1.3316318
27.13000761408296	1.7767389	1.3329437
27.148037651722397	1.7843238	1.3357859
27.166068374339304	1.7116022	1.3082821
27.184099782458215	1.7129993	1.308816
27.20213187660384	1.7724532	1.3313351
27.22016465730105	1.8201865	1.3491429
27.23819812507487	1.8467923	1.3589674
27.256232280450533	1.825426	1.3510833
27.274267123953383	1.8250159	1.3509315
27.292302656108987	1.8178679	1.3482833
27.31033887744306	1.8040032	1.3431319
27.32837578848146	1.767632	1.3295232
27.34641338975026	1.7516166	1.3234866
27.364451681775673	1.7855703	1.3362523
27.382490665084074	1.8377404	1.3556329
27.400530340202046	1.8427775	1.3574895
27.41857070765629	1.844644	1.3581767
27.436611767973726	1.8374128	1.355512
27.454653521681404	1.8377159	1.3556238
27.472695969306564	1.8210484	1.3494623
27.490739111376627	1.781074	1.3345689
27.508782948419153	1.74457	1.3208218
27.526827480961902	1.754028	1.3243972
27.54487270953279	1.7741354	1.3319668
27.562918634659898	1.8049262	1.3434755
27.580965256871508	1.8478206	1.3593457
27.599012576696026	1.8209949	1.3494425
27.617060594662068	1.7572416	1.3256099
27.63510931129842	1.7711098	1.3308305
27.65315872713401	1.8240763	1.3505837
27.67120884269797	1.8369323	1.3553348
27.68925965851958	1.8169646	1.3479483
27.707311175128307	1.7854019	1.3361894
27.725363393053787	1.7604519	1.3268203
27.74341631282583	1.8058604	1.3438231
27.7614699349744	1.8383317	1.3558509
27.77952426002968	2.026935	1.4237047
27.797579288521973	2.1074896	1.4517195
27.815635020981784	2.546379	1.5957378
27.83369145793979	2.5939891	1.6105865
27.85174859992682	2.5202005	1.5875139
27.869806447473923	2.3558364	1.5348734
27.887865001112267	1.9999193	1.414185
27.905924261373233	1.864727	1.36555
27.92398422878836	1.8402218	1.3565477
27.94204490388936	1.8444538	1.3581067
27.96010628720813	1.9024916	1.3793083
27.978168379276728	1.9069933	1.3809392
27.9962311806274	1.8500229	1.3601555
28.014294691792568	1.811826	1.3460408
28.0323589133048	1.8135848	1.346694
28.050423845696887	1.8135462	1.3466797
28.068489489501758	1.8638936	1.3652449
28.086555845252523	1.8965887	1.3771669
28.104622913482487	1.9024456	1.3792917
28.122690694725115	1.897389	1.3774575
28.14075918951405	1.8581743	1.3631487
28.15882839838312	1.8728682	1.3685278
28.176898321866304	1.8381048	1.3557673
28.1949689604978	1.8850937	1.3729872
28.213040314811945	1.9486715	1.3959482
28.23111238534327	1.9835147	1.408373
28.249185172626493	1.8819164	1.3718296
28.267258677196473	1.8153088	1.3473339
28.285332899588294	1.8430032	1.3575726
28.303407840337172	1.9215088	1.3861849
28.321483499978545	1.9385284	1.3923105
28.33955987904799	1.9219902	1.3863586
28.357636978081285	1.9072409	1.3810289
28.37571479761439	1.9066374	1.3808104
28.393793338183425	1.9571301	1.3989747
28.41187260032469	1.9456371	1.394861
28.429952584574686	1.8792114	1.3708433
28.448033291470065	1.880535	1.371326
28.46611472154769	1.9354154	1.3911921
28.484196875344566	1.9700515	1.4035852
28.502279753397914	1.937877	1.3920765
28.52036335624511	1.9742002	1.4050623
28.538447684423716	2.0383825	1.4277194
28.556532738471482	2.0062578	1.4164243
28.574618518926325	1.938217	1.3921987
28.59270502632635	1.934229	1.3907657
28.61079226120985	1.9375061	1.3919432
28.628880224115274	1.9776491	1.4062891
28.646968915581287	1.9965659	1.4129989
28.66505833614671	1.9700339	1.403579
28.68314848635055	1.983542	1.4083828
28.701239366732004	2.0398636	1.4282379
28.71933097783044	2.0300496	1.4247981
28.737423320185403	2.0373764	1.427367
28.75551639433665	2.128872	1.4590654
28.773610200824074	2.139734	1.462783
28.791704740187793	2.1359732	1.461497
28.80980001296809	2.1470242	1.4652727
28.827896019705413	2.145581	1.4647802
28.845992760940433	2.1597602	1.4696122
28.86409023721397	2.1999118	1.48321
28.88218844906704	2.157802	1.4689459
28.900287397040845	2.1205835	1.4562223
28.918387081676755	2.1959174	1.4818628
28.936487503516343	2.2993166	1.5163498
28.954588663101365	2.2870066	1.5122852
28.97269056097374	2.2232354	1.4910518
28.990793197675597	2.2775497	1.5091553
29.00889657374923	2.3122993	1.5206246
29.027000689737125	2.3515155	1.5334651
29.04510554618196	2.380169	1.5427796
29.06321114362659	2.4110332	1.5527502
29.08131748261405	2.430106	1.5588797
29.099424563687567	2.4103563	1.5525322
29.11753238739057	2.4501514	1.5652959
29.13564095426663	2.4823217	1.5755385
29.15375026485954	2.5708501	1.6033871
29.171860319713275	2.5747657	1.6046076
29.18997111937199	2.5895417	1.6092052
29.20808266438002	2.6861117	1.6389362
29.226194955281898	2.7077072	1.6455113
29.244307992622335	2.7062564	1.6450703
29.26242177694624	2.763927	1.6625062
29.2805363087987	2.812574	1.677073
29.29865158872498	2.92006	1.7088183
29.316767617270557	3.0031848	1.7329699
29.334884394981064	3.0203402	1.7379127
29.353001922402367	2.9197476	1.7087269
29.37112020008047	2.9733238	1.7243328
29.389239228561596	3.0799208	1.7549703
29.407359008392152	3.248112	1.8022519
29.42547954011872	3.6131349	1.9008248
29.44360082428809	4.248114	2.0610955
29.46172286144722	5.271367	2.295946
29.479845652143283	6.768536	2.601641
29.497969196923606	8.72497	2.953806
29.516093496335728	10.894868	3.3007374
29.5342185509274	13.418269	3.6630955
29.55234436124651	15.680158	3.959818
29.570470927841175	16.913496	4.112602
29.588598251259686	16.824236	4.1017356
29.60672633205055	15.64617	3.955524
29.624855170762405	13.610738	3.6892734
29.642984767944146	11.149528	3.3390908
29.66111512414481	8.633097	2.938213
29.67924623991366	6.5029044	2.5500793
29.697378115800138	5.1325374	2.2655103
29.71551075235387	4.3219275	2.0789247
29.733644150124675	3.85872	1.9643625
29.751778309662576	3.588421	1.8943129
29.769913231517766	3.4547148	1.8586863
29.78804891624066	3.3083916	1.8188984
29.806185364381818	3.1723454	1.7811079
29.82432257649206	3.2219222	1.7949713
29.842460553122333	3.242484	1.8006899
29.86059929482382	3.272204	1.8089234
29.878738802147872	3.281785	1.8115698
29.896879075646048	3.2688866	1.8080063
29.915020115870114	3.2080069	1.791091
29.933161923371976	3.2339578	1.7983208
29.951304498703777	3.2647095	1.8068507
29.969447842417857	3.264741	1.8068594
29.987591955066733	3.2079742	1.7910819
30.005736837203123	3.2329934	1.7980527
30.023882489379943	3.2154076	1.7931558
30.04202891215028	3.1700234	1.780456
30.060176106067455	3.1185513	1.765942
30.078324071684946	3.1140056	1.7646545
30.09647280955646	3.0914948	1.7582647
30.114622320235863	3.052903	1.7472558
30.132772604277257	3.0247169	1.7391713
30.1509236622349	3.009716	1.7348533
30.16907549466328	2.9922116	1.729801
30.18722810211705	3.0563657	1.7482464
30.205381485151097	3.0914528	1.7582527
30.22353564432045	3.0409324	1.743827
30.241690580180403	3.0030026	1.7329174
30.25984629328638	2.9332368	1.7126695
30.278002784194037	2.9279692	1.711131
30.296160053459246	2.9714913	1.7238014
30.314318101638033	2.923236	1.7097473
30.332476929286646	2.9203064	1.7088904
30.35063653696153	2.937003	1.7137686
30.368796925219307	2.9111447	1.7062078
30.386958094616844	2.8566928	1.6901754
30.40512004571115	2.8575234	1.6904211
30.423282779059463	2.846331	1.6871072
30.441446295219233	2.8171117	1.6784254
30.459610594748067	2.7740119	1.6655365
30.47777567820382	2.7923563	1.6710345
30.495941546144504	2.8759892	1.6958742
30.51410819912835	2.878157	1.6965132
30.532275637713795	2.8767977	1.6961125
30.55044386245946	2.786461	1.6692697
30.56861287392416	2.747253	1.6574839
30.586782672666956	2.7605531	1.6614913
30.604953259247047	2.7562783	1.6602043
30.623124634223885	2.7456112	1.6569886
30.641296798157075	2.7222037	1.6499102
30.659469751606462	2.7663922	1.6632475
30.677643495132074	2.775818	1.6660787
30.695818029294152	2.7170894	1.6483597
30.713993354653116	2.6743608	1.6353472
30.73216947176962	2.6465812	1.6268317
30.75034638120448	2.7120032	1.6468161
30.768524083518756	2.7701774	1.664385
30.786702579273673	2.7980585	1.6727399
30.80488186903069	2.87699	1.6961693
30.82306195335144	2.9431357	1.715557
30.841242832797782	3.0314038	1.7410927
30.85942450793176	3.27331	1.8092291
30.877606979315637	3.5827498	1.8928154
30.895790247511883	3.8852675	1.9711082
30.913974313083134	4.230678	2.0568612
30.932159176592283	4.595545	2.1437223
30.95034483860237	4.7718544	2.1844575
30.968531299676698	4.599506	2.144646
30.98671856037873	4.2973113	2.0729957
31.00490662127215	3.8931813	1.9731146
31.023095482920848	3.4127204	1.847355
31.04128514588892	2.9654539	1.7220494
31.059475610740662	2.66026	1.6310303
31.07766687804056	2.5121164	1.5849657
31.09585894835335	2.456137	1.5672067
31.11405182224393	2.4549952	1.5668424
31.132245500277417	2.4824877	1.5755912
31.15043998301914	2.494909	1.5795281
31.168635271034628	2.4346497	1.5603364
31.18683136488964	2.3977034	1.5484519
31.20502826515008	2.4065204	1.5512964
31.223225972382135	2.4253871	1.5573654
31.241424487152155	2.4067938	1.5513844
31.259623810026692	2.3555195	1.5347701
31.27782394157253	2.3690693	1.5391781
31.296024882356644	2.4104488	1.552562
31.314226632946237	2.4896889	1.5778748
31.332429193908684	2.535805	1.592421
31.350632565811598	2.5441523	1.5950398
31.368836749222787	2.4288468	1.5584759
31.387041744710295	2.4511437	1.5656129
31.40524755284232	2.529278	1.5903704
31.423454174187317	2.5453196	1.5954058
31.441661609313922	2.4863567	1.5768186
31.459869858791002	2.4267855	1.5578144
31.478078923187628	2.3814003	1.5431787
31.496288803073064	2.3430264	1.5306947
31.514499499016807	2.3395045	1.5295439
31.532711011588546	2.3045733	1.5180821
31.550923341358178	2.285182	1.5116818
31.56913648889584	2.2661786	1.5053833
31.587350454771844	2.2810082	1.5103008
31.605565239556732	2.270954	1.5069685
31.62378084382127	2.2739172	1.5079514
31.641997268136382	2.2695365	1.5064981
31.660214513073274	2.2451284	1.4983753
31.67843257920331	2.285772	1.5118771
31.6966514670981	2.3176444	1.5223812
31.71487117732944	2.2813134	1.5104017
31.733091710469346	2.2990158	1.5162506
31.751313067090052	2.3588016	1.5358391
31.769535247764008	2.363842	1.5374792
31.787758253063878	2.2929094	1.5142356
31.805982083562526	2.282439	1.5107743
31.824206739833024	2.2763784	1.5087671
31.84243222244869	2.30375	1.517811
31.860658531983013	2.3082967	1.519308
31.878885669009737	2.3148553	1.5214648
31.897113634102784	2.292174	1.5139928
31.91534242783632	2.2546713	1.5015563
31.933572050784694	2.2089267	1.4862459
31.951802503522508	2.147816	1.4655429
31.970033786624548	2.0785062	1.4417026
31.988265900665834	2.0946565	1.4472928
32.006498846221575	2.1911736	1.4802613
32.02473262386724	2.230432	1.4934632
32.04296723417845	2.1591096	1.4693909
32.0612026777311	2.1435976	1.464103
32.07943895510129	2.117232	1.4550712
32.097676066865304	2.1841004	1.4778702
32.115914013599685	2.2444267	1.498141
32.13415279588115	2.2212806	1.4903961
32.152392414286666	2.1398919	1.462837
32.1706328693934	2.0728557	1.4397415
32.18887416177875	2.0541763	1.4332398
32.20711629202032	2.0780187	1.4415334
32.225359260695924	2.090962	1.4460158
32.243603068383614	2.033885	1.4261434
32.26184771566166	2.0950975	1.4474452
32.28009320310852	2.1653075	1.4714984
32.2983395313029	2.162014	1.4703789
32.31658670082372	2.1648571	1.4713453
32.33483471225012	2.0942323	1.4471463
32.35308356616143	2.0795798	1.4420748
32.371333263137245	2.0325894	1.4256891
32.38958380375734	1.9676645	1.4027346
32.407835188601744	2.0406091	1.4284989
32.42608741825067	2.143353	1.4640194
32.444340493284585	2.0833528	1.4433824
32.46259441428416	2.013967	1.4191431
32.48084918183028	2.033067	1.4258566
32.49910479650405	2.0438583	1.4296358
32.51736125888683	2.1038768	1.4504747
32.53561856956014	2.090858	1.44598
32.5538767291058	2.0067155	1.4165859
32.572135738105764	2.0158393	1.4198025
32.59039559714228	2.0364423	1.4270397
32.608656306797776	2.0276973	1.4239724
32.62691786765491	2.029034	1.4244416
32.645180280296586	2.1519423	1.4669499
32.663443545305896	2.1757662	1.4750478
32.68170766326619	2.1342664	1.4609128
32.69997263476099	2.0101273	1.4177896
32.7182384603741	1.950915	1.3967515
32.7365051406895	1.9339951	1.3906815
32.75477267629144	1.9248533	1.3873909
32.77304106776434	2.0039763	1.4156187
32.79131031569289	2.015537	1.4196961
32.809580420661966	1.9909447	1.4110084
32.827851383256714	1.9906883	1.4109175
32.84612320406245	2.0453699	1.4301643
32.86439588366476	1.9600809	1.4000288
32.88266942264945	1.8604089	1.363968
32.9009438216025	1.9163473	1.3843219
32.9192190811102	1.9341564	1.3907396
32.937495201758985	1.920669	1.385882
32.95577218413556	1.8916082	1.3753575
32.974050028826866	1.8778789	1.3703573
32.992328736420035	1.93214	1.3900144
33.010608307502444	2.0200222	1.4212748
33.02888874266169	2.04305	1.429353
33.047170042485604	2.0353913	1.4266714
33.06545220756225	1.9712784	1.4040222
33.083735238479896	2.0160773	1.4198864
33.10201913582707	2.0093663	1.4175211
33.12030390019248	1.9310366	1.3896174
33.138589532165135	1.910312	1.3821404
33.15687603233419	1.9884903	1.4101384
33.17516340128909	2.0324838	1.425652
33.19345163961947	2.0275872	1.4239337
33.211740747915215	1.9012033	1.3788413
33.23003072676643	1.7809068	1.3345062
33.248321576763466	1.8842065	1.372664
33.266613298496885	1.9428082	1.3938465
33.28490589255747	1.9038246	1.3797915
33.30319935953626	1.9402843	1.3929409
33.32149370002451	1.9704505	1.4037274
33.339788914613706	1.9358206	1.3913378
33.358085003895575	2.0310347	1.4251437
33.376381968462034	2.0478992	1.4310483
33.39467980890529	2.038283	1.4276845
33.41297852581774	2.0392156	1.4280111
33.43127811979204	1.9525163	1.3973247
33.44957859142105	1.926653	1.3880392
33.467879941297866	1.9438852	1.3942329
33.486182170015844	1.9063683	1.380713
33.50448527816853	1.8033762	1.3428985
33.522789266349754	1.8504999	1.3603308
33.541094135153514	1.9619119	1.4006827
33.55939988517411	1.9823697	1.4079665
33.57770651700602	1.963804	1.4013579
33.59601403124398	1.9162146	1.384274
33.61432242848296	1.8153629	1.347354
33.632631709318154	1.7750468	1.3323089
33.650941874344994	1.7966849	1.3404047
33.66925292415916	1.8462615	1.358772
33.68756485935654	1.8694746	1.3672873
33.70587768053328	1.9984347	1.41366
33.724191388285746	2.1107953	1.4528576
33.74250598321054	2.0263135	1.4234864
33.760821465904506	1.9611378	1.4004062
33.77913783696474	1.9474667	1.3955166
33.79745509698852	1.8372498	1.3554518
33.815773246573414	1.7634524	1.3279505
33.8340922863172	1.7957174	1.3400438
33.852412216817896	1.8025306	1.3425835
33.87073303867377	1.8638566	1.3652313
33.889054752483304	1.9513992	1.3969249
33.907377358845245	1.9301621	1.3893027
33.92570085835853	1.8454818	1.3584851
33.94402525162239	1.8324921	1.3536958
33.96235053923627	1.9036486	1.3797277
33.980676721799824	1.9483775	1.3958429
33.999003799912984	1.9790188	1.4067761
34.01733177417592	2.0101457	1.417796
34.03566064518901	1.886266	1.373414
34.0539904135529	1.7369844	1.317947
34.07232107986846	1.724772	1.3133057
34.090652644736785	1.8628746	1.3648716
34.108985108759235	2.021825	1.421909
34.12731847253742	2.0783255	1.4416399
34.14565273667313	2.0830488	1.4432771
34.16398790176847	2.0621965	1.436035
34.18232396842574	1.9494487	1.3962266
34.20066093724749	1.8222008	1.3498892
34.21899880883651	1.8069121	1.3442143
34.23733758379583	1.8440199	1.357947
34.25567726272874	1.8436543	1.3578123
34.27401784623872	1.8523053	1.3609942
34.29235933492957	1.8483344	1.3595346
34.31070172940526	1.8456645	1.3585523
34.32904503027003	1.8641651	1.3653443
34.347389238128386	1.7464389	1.321529
34.36573435358502	1.799823	1.3415748
34.38408037724492	1.9111195	1.3824325
34.402427309713296	1.9860502	1.4092729
34.42077515159559	1.9696541	1.4034437
34.43912390349752	1.8844699	1.3727599
34.45747356602499	1.8342795	1.3543558
34.47582413978423	1.777058	1.3330634
34.49417562538163	1.9784924	1.4065889
34.51252802342388	1.9915509	1.4112232
34.53088133451789	1.8722125	1.3682882
34.54923555927084	1.8162118	1.347669
34.567590698290104	1.7621168	1.3274474
34.58594675218336	1.757209	1.3255975
34.6043037215585	1.8238007	1.3504816
34.62266160702365	1.940945	1.393178
34.641020409187234	1.8863747	1.3734536
34.65938012865785	1.7795321	1.333991
34.677740766044394	1.7838587	1.3356117
34.69610232195598	1.9343593	1.3908125
34.714464797002016	1.9620866	1.400745
34.73282819179208	1.9390275	1.3924897
34.751192506936064	2.0461714	1.4304445
34.76955774304408	2.118535	1.4555188
34.7879239007265	2.016385	1.4199947
34.80629098059391	1.9719682	1.4042678
34.824658983257194	2.079573	1.4420724
34.843027909327446	1.9273098	1.3882759
34.86139775941603	1.9377244	1.3920217
34.879768534134534	2.1867487	1.478766
34.89814023409483	2.0689218	1.4383748
34.91651285990901	1.8258033	1.3512229
34.93488641218944	1.8372253	1.3554429
34.95326089154871	1.8533664	1.361384
34.97163629859967	1.8892914	1.3745149
34.99001263395542	1.901836	1.3790708
35.00838989822934	1.9192652	1.3853755
35.02676809203499	1.9734312	1.4047887
35.04514721598624	2.0212994	1.4217241
35.063527270697215	1.9161426	1.384248
35.081908256782256	1.8811485	1.3715496
35.10029017485597	2.0202632	1.4213597
35.11867302553321	2.082444	1.4430676
35.137056809429104	1.8431698	1.357634
35.155441527159006	1.6322324	1.2775885
35.173827179338524	1.700131	1.3038907
35.19221376658354	2.0501182	1.4318234
35.21060128951017	2.2360084	1.4953289
35.2289897487348	2.138446	1.4623426
35.24737914487405	2.038155	1.4276397
35.26576947854479	2.0471342	1.430781
35.28416075036418	1.9283105	1.3886362
35.30255296094958	2.079847	1.4421675
35.32094611091867	2.4938293	1.5791863
35.33934020088932	2.4987268	1.5807362
35.35773523147969	2.1715386	1.4736141
35.3761312033082	2.1134577	1.4537736
35.394528116993506	2.0166762	1.4200972
35.41292597315452	2.02496	1.423011
35.431324772410434	2.1155365	1.4544884
35.449724515380666	1.9660921	1.4021741
35.46812520268491	1.7752095	1.3323699
35.486526834943106	1.9133216	1.3832287
35.504929412775454	2.114035	1.4539721
35.52333293680242	1.9899058	1.4106402
35.54173740764471	1.85287	1.3612016
35.560142825923286	1.864171	1.3653464
35.5785491922594	1.448219	1.2034197
35.59695650727454	1.2219253	1.1054072
35.61536477159042	1.3578206	1.1652557
