0.008763373481513119	0.0	0.0
0.026290120649546365	0.0	0.0
0.043816868432600686	0.12575132	0.35461432
0.06134361724069026	0.26504183	0.5148221
0.07887036748382949	0.20704503	0.455022
0.0963971195720331	0.1424327	0.37740257
0.11392387391531617	0.048122473	0.21936835
0.1314506309236943	0.06223009	0.2494596
0.1489773910071836	0.15372023	0.39207172
0.16650415457580078	0.18620878	0.43151915
0.18403092203956356	0.16771512	0.40953037
0.20155769380849	0.17661825	0.42025974
0.2190844702925996	0.15423015	0.39272147
0.2366112519019124	0.19048661	0.4364477
0.2541380390464497	0.13538167	0.36794248
0.27166483213623416	0.1405073	0.37484303
0.28919163158128947	0.14963697	0.38682938
0.3067184377916406	0.16104239	0.40130088
0.324245251177314	0.12352676	0.35146374
0.34177207214833777	0.16677539	0.40838143
0.3592989011147415	0.19230391	0.4385247
0.37682573848655654	0.19821234	0.44521046
0.39435258467381573	0.16173974	0.40216878
0.41187944008655414	0.12741858	0.35695738
0.42940630513480854	0.16027452	0.400343
0.446933180228618	0.14888948	0.385862
0.4644600657780234	0.12516384	0.353785
0.48198696219306775	0.096560314	0.31074154
0.49951386988379676	0.09757111	0.31236374
0.5170407892602581	0.12163001	0.34875494
0.5345677207325025	0.13005398	0.36062998
0.5520946647105822	0.13810141	0.37162
0.5696216216045534	0.14565338	0.38164562
0.5871485918244737	0.14944108	0.3865761
0.6046755757804043	0.17887314	0.42293397
0.6222025738824094	0.2278843	0.4773723
0.6397295865405557	0.2505839	0.5005835
0.6572566141649129	0.21851656	0.46745753
0.6747836571655547	0.192243	0.43845522
0.6923107159525568	0.14198558	0.37680975
0.7098377909359992	0.14260241	0.37762734
0.7273648825259653	0.121128984	0.3480359
0.7448919911325411	0.16907069	0.41118208
0.762419117165817	0.18554309	0.43074712
0.7799462610358868	0.23073025	0.48034388
0.7974734231528482	0.22957903	0.47914407
0.8150006039268024	0.25131193	0.5013102
0.8325278037678551	0.24403384	0.4939978
0.8500550230861152	0.21409898	0.4627083
0.8675822622916969	0.22458455	0.47390354
0.8851095217947171	0.23663342	0.4864498
0.9026368020052984	0.27074736	0.5203339
0.9201641033335665	0.26721153	0.5169251
0.9376914261896523	0.25312078	0.5031111
0.9552187709836915	0.25691727	0.5068701
0.9727461381258234	0.29252532	0.5408561
0.990273528026193	0.31048277	0.5572098
1.0078009410949496	0.33200336	0.5761973
1.0253283777422473	0.31149495	0.55811733
1.0428558383782454	0.29944593	0.54721653
1.0603833234131086	0.26948938	0.5191237
1.0779108332570058	0.29166442	0.5400596
1.0954383683201119	0.30825955	0.55521125
1.112965929012607	0.33986917	0.582983
1.1304935157446763	0.4785602	0.69178045
1.1480211289265108	0.50377566	0.7097716
1.1655487689683062	1.4638903	1.2099134
1.1830764362802655	1.7405984	1.3193175
1.200604131272596	2.074892	1.4404485
1.2181318543555117	2.253305	1.5011013
1.235659605939232	2.2093844	1.4863998
1.253187386433982	3.842307	1.9601804
1.270715196249994	6.2451353	2.4990268
1.2882430357975057	11.795301	3.434429
1.3057709054867608	16.790424	4.097612
1.3232988057280106	22.6423	4.7583923
1.3408267369315112	27.510288	5.245025
1.358354699507526	30.950909	5.563354
1.3758826938663256	34.90946	5.9084225
1.3934107204181858	37.19524	6.09879
1.410938779573391	37.65916	6.136706
1.4284668717422309	38.277126	6.186851
1.4459949973350033	37.76352	6.145203
1.4635231567620117	37.684753	6.138791
1.4810513504335687	37.057907	6.0875206
1.4985795787599925	36.209835	6.017461
1.5161078421516088	35.956665	5.9963875
1.5336361410187505	35.07884	5.922739
1.5511644757717598	34.723072	5.8926287
1.5686928468209842	34.915764	5.908956
1.58622125457678	35.574444	5.964432
1.6037496994495108	37.386166	6.114423
1.621278181849548	37.82045	6.149833
1.6388067021872719	38.44031	6.200025
1.6563352608730693	37.606304	6.132398
1.673863858317336	36.33583	6.0279207
1.6913924949304753	35.4464	5.953688
1.7089211711228998	34.415607	5.866482
1.7264498873050296	33.742115	5.8087964
1.7439786438872935	32.951645	5.740352
1.7615074412801288	31.894188	5.647494
1.779036279893981	31.2987	5.594524
1.796565160139305	30.423456	5.515746
1.814094082426564	29.879623	5.4662256
1.8316230471662298	29.217009	5.405276
1.849152054768784	28.239674	5.314101
1.8666811056447168	27.88949	5.28105
1.8842102002045273	27.13673	5.209293
1.901739338858724	26.697594	5.166971
1.9192685220178245	26.163387	5.115016
1.9367977500923557	25.375814	5.0374413
1.9543270234928547	24.796055	4.9795637
1.971856342629867	24.072935	4.906418
1.9893857079139496	23.58449	4.8563867
2.006915119755667	23.281384	4.8250785
2.0244445785655945	22.752909	4.770001
2.0419740847543175	22.623688	4.7564363
2.0595036387324317	21.935972	4.683585
2.0770332409105414	21.460917	4.6325927
2.094562891699263	20.724325	4.5523977
2.1120925915092217	20.058731	4.4786973
2.129622340751053	19.497757	4.4156265
2.1471521398354043	187.6919	13.700069
2.1646819891729323	444.1091	21.073896
2.182211889174303	440.44675	20.986824
2.1997418402501974	452.9884	21.283524
2.2172718428113023	432.97284	20.807999
2.234801897268317	321.08835	17.918938
2.2523320040319548	17.499773	4.183273
2.269862163512935	17.025162	4.126156
2.287392376121992	16.567808	4.0703573
2.304922642269869	16.236998	4.0295157
2.322452962367322	15.961441	3.9951773
2.3399833368251164	15.80676	3.9757717
2.357513766054032	15.679391	3.959721
2.3750442504648586	15.325513	3.9147813
2.3925747904683963	15.212978	3.9003818
2.410105386475459	14.975802	3.8698583
2.4276360388968707	14.708251	3.8351338
2.445166748143469	14.204204	3.7688465
2.4626975146261025	13.774599	3.7114148
2.4802283387556323	13.675727	3.6980708
2.4977592209429305	13.531028	3.6784546
2.5152901615988825	13.320147	3.6496775
2.5328211611343865	13.142345	3.6252372
2.5503522199603523	12.631914	3.5541403
2.5678833384877024	12.351588	3.5144827
2.5854145171273712	12.024923	3.4676971
2.6029457562903064	11.95813	3.4580529
2.620477056387469	11.839796	3.4409006
2.6380084178298326	11.605106	3.406627
2.655539841028383	11.363265	3.3709443
2.673071326394119	11.153895	3.3397448
2.6906028743380523	10.94646	3.3085434
2.708134485271211	10.825567	3.290223
2.7256661596046325	10.811085	3.2880213
2.743197897749369	10.766356	3.2812126
2.760729700116486	10.578943	3.2525287
2.778261567117063	10.416183	3.2274113
2.795793499162193	10.244873	3.2007613
2.8133254966629817	10.092575	3.1768813
2.830857560030551	9.906263	3.1474216
2.8483896896760337	9.910926	3.1481624
2.865921886010578	9.761434	3.1243293
2.883454149445347	9.655465	3.1073244
2.9009864803915177	9.376621	3.0621269
2.91851887926028	9.086989	3.0144634
2.9360513464628384	9.059124	3.0098379
2.953583882410413	9.041513	3.006911
2.9711164875142373	8.917029	2.9861395
2.9886491621855606	8.798935	2.9662998
3.0061819068356455	8.737912	2.955996
3.023714721875769	8.75543	2.9589577
3.041247607717225	8.677474	2.9457552
3.0587805647713213	8.473842	2.9109864
3.0763135934493806	8.201934	2.8639019
3.0938466941627407	8.054403	2.838028
3.1113798673227544	7.963394	2.8219485
3.1289131133407904	7.8737783	2.8060253
3.1464464326282315	7.812821	2.7951424
3.1639798255964786	7.716349	2.7778318
3.1815132926569443	7.5749464	2.752262
3.1990468342210603	7.516878	2.7416925
3.216580450700272	7.5001044	2.738632
3.2341141425060416	7.4293747	2.725688
3.251647910049847	7.37982	2.7165823
3.2691817537431813	7.2384896	2.6904442
3.286715673997555	7.076086	2.6600914
3.3042496712244938	7.013033	2.6482131
3.32178374583554	6.8693213	2.620939
3.339317898242251	6.8488455	2.61703
3.3568521288562034	6.7690787	2.6017454
3.3743864380889876	6.72653	2.5935555
3.3919208263522127	6.6519465	2.5791368
3.4094552940575023	6.5730696	2.5637999
3.4269898416164972	6.5748215	2.5641415
3.444524469440858	6.5781794	2.5647962
3.4620591779422587	6.567432	2.5627
3.479593967532391	6.4783335	2.545257
3.4971288386229658	6.376722	2.5252173
3.5146637916257086	6.2753696	2.5050688
3.5321988269523628	6.244199	2.4988394
3.5497339450146903	6.278333	2.5056603
3.5672691462244708	6.2235084	2.4946961
3.5848044309934988	6.182331	2.4864295
3.60233979973359	6.1347356	2.4768398
3.619875252856575	6.070098	2.4637568
3.6374107907743034	6.0951524	2.4688363
3.6549464138986427	6.084942	2.4667675
3.6724821226414788	6.194731	2.4889216
3.690017917414714	6.2745523	2.5049057
3.7075537986302702	6.356594	2.5212288
3.7250897667000857	6.4638953	2.5424192
3.7426258220361235	6.636148	2.5760722
3.7601619650503553	6.9593167	2.6380517
3.777698196154779	7.3928857	2.718986
3.7952345157614067	8.305011	2.8818417
3.8127709242822716	9.080513	3.0133889
3.830307422129425	11.178986	3.343499
3.847844009714936	30.123032	5.4884453
3.8653806874508954	97.56719	9.87761
3.882917455749409	97.01701	9.849722
3.900454315022606	96.9915	9.848426
3.917991265682631	41.606106	6.4502797
3.9355283081416506	11.15377	3.3397262
3.9530654428118495	8.856785	2.976035
3.970602670105433	7.578563	2.752919
3.9881399904346244	6.7090893	2.590191
4.005677404211669	6.624225	2.573757
4.023214911848827	6.4696293	2.5435467
4.0407525137583855	6.3558025	2.5210717
4.058290210352644	6.422786	2.5343215
4.075828002043927	6.373141	2.524508
4.0933658892445814	6.3772616	2.525324
4.110903872366966	6.332724	2.5164905
4.128441951823468	6.192866	2.4885468
4.145980128026488	6.0841913	2.4666154
4.163518401388452	6.03208	2.4560294
4.181056772321807	6.079056	2.465574
4.1985952412390155	6.1666265	2.4832692
4.216133808552567	6.1691027	2.4837677
4.233672474674966	6.2176805	2.4935277
4.251211240018741	6.430493	2.5358417
4.268750104996445	6.688971	2.5863044
4.286289070020643	7.570686	2.751488
4.303828135503928	9.199281	3.0330317
4.3213673018589125	29.46009	5.427715
4.3389065694982305	90.601974	9.518507
4.356445938834537	165.87321	12.879177
4.3739854102805085	171.74486	13.105146
4.391524984248844	172.73517	13.142876
4.409064661152262	136.78152	11.695363
4.426604441403504	97.07326	9.852576
4.444144325415337	75.976875	8.716472
4.461684313600543	21.934519	4.68343
4.47922440637193	22.180477	4.709615
4.496764604142329	20.281937	4.503547
4.5143049073245916	18.439014	4.2940674
4.531845316331589	16.399532	4.0496335
4.5493858315762195	13.64738	3.694236
4.566926453471405	11.382111	3.3737383
4.584467182430081	9.425806	3.0701475
4.602008018865218	8.225415	2.8679984
4.619548963189798	7.5797796	2.75314
4.637090015816834	7.073674	2.659638
4.654631177159353	6.837776	2.6149142
4.672172447630417	6.546203	2.558555
4.689713827643102	6.336994	2.5173388
4.7072553176105085	6.0866756	2.467119
4.724796917945764	5.877725	2.424402
4.742338629062015	5.791236	2.4064987
4.759880451372434	5.739802	2.3957884
4.777422385290215	5.7092886	2.3894117
4.794964431228581	5.7132053	2.3902311
4.812506589600768	5.6313705	2.373051
4.830048860820047	5.5857162	2.363412
4.847591245299709	5.5432787	2.3544168
4.8651337434530655	5.520546	2.349584
4.882676355693457	5.56391	2.3587942
4.900219082434242	5.568564	2.3597806
4.917761924088813	5.6075273	2.3680217
4.935304881070575	5.5879326	2.3638809
4.952847953792969	5.6226673	2.3712165
4.970391142669449	5.5636935	2.3587482
4.9879344481135055	5.5230083	2.3501081
5.005477870538642	5.476738	2.340243
5.023021410358394	5.374927	2.318389
5.040565067986324	5.340448	2.310941
5.05810884383601	5.356097	2.3143244
5.075652738321066	5.360928	2.3153677
5.09319675185512	5.3393865	2.3107111
5.110740884851836	5.307257	2.3037486
5.128285137724894	5.3903103	2.3217041
5.145829510888007	5.396919	2.323127
5.163374004754908	5.4220004	2.3285189
5.1809186197393595	5.4732413	2.339496
5.198463356255145	5.3964906	2.3230348
5.216008214716077	5.3643885	2.316115
5.233553195535998	5.3404994	2.310952
5.251098299128764	5.375724	2.3185608
5.268643525908272	5.356115	2.3143282
5.286188876288432	5.3824716	2.3200154
5.3037343506831895	5.4200177	2.328093
5.32127994950651	5.409584	2.3258512
5.3388256731723915	5.350949	2.3132117
5.356371522094851	5.310684	2.3044922
5.373917496687938	5.288604	2.2996964
5.391463597365729	5.343186	2.3115332
5.40900982454232	5.330655	2.3088212
5.426556178631843	5.332484	2.3092172
5.444102660048449	5.252859	2.2919116
5.4616492692063225	5.1763597	2.2751615
5.479196006519669	5.1511927	2.269624
5.496742872402727	5.1218033	2.2631402
5.514289867269756	5.151025	2.269587
5.531836991535049	5.143592	2.2679489
5.549384245612924	5.127054	2.2642999
5.566931629917724	5.1782274	2.2755718
5.584479144863822	5.19269	2.2787476
5.6020267908656205	5.25162	2.2916412
5.619574568337545	5.2056594	2.2815914
5.637122477694054	5.1643686	2.2725248
5.654670519349629	5.1407037	2.267312
5.672218693718784	5.2545304	2.2922761
5.689767001216059	5.2883005	2.2996304
5.707315442256021	5.2485824	2.2909784
5.724864017253266	5.127233	2.2643394
5.7424127266224225	5.0927467	2.2567115
5.75996157077814	5.141469	2.2674809
5.777510550135105	5.2427616	2.2897077
5.795059665108022	5.3163805	2.3057277
5.812608916111639	5.343812	2.3116686
5.830158303560715	5.341037	2.3110683
5.847707827870055	5.317813	2.3060384
5.86525748945448	5.3612638	2.3154402
5.8828072887288485	5.485976	2.342216
5.900357226108044	5.5663285	2.3593068
5.917907302006979	5.6474757	2.3764417
5.9354575168406	6.2072263	2.4914305
5.9530078710238765	6.7979035	2.607279
5.970558364971812	7.3431053	2.7098165
5.988108999099438	7.695316	2.7740433
6.005659773821818	8.118518	2.8493013
6.023210689554039	7.8730893	2.8059025
6.040761746711227	8.160261	2.856617
6.058312945708531	7.597573	2.7563696
6.075864286961132	7.1381583	2.6717331
6.093415770884244	6.5601697	2.5612829
6.1109673978931065	6.119412	2.4737446
6.128519168402993	5.666305	2.3804002
6.146071082829204	5.505863	2.3464575
6.163623141587075	5.2923713	2.3005154
6.181175345091969	5.1554847	2.2705693
6.198727693759281	5.058325	2.249072
6.216280188004435	5.051854	2.247633
6.233832828242885	5.06624	2.250831
6.251385614890126	5.1329694	2.2656057
6.268938548361669	5.1262026	2.2641118
6.286491629073067	5.0667973	2.2509546
6.304044857439898	5.0129495	2.2389617
6.321598233877777	4.9912305	2.2341063
6.339151758802344	4.964545	2.2281258
6.356705432629277	4.9804206	2.2316856
6.37425925577428	4.987512	2.2332737
6.391813228653095	5.0547466	2.2482765
6.409367351681486	5.0926533	2.2566907
6.426921625275259	5.014747	2.2393632
6.44447604985025	4.9565163	2.2263236
6.46203062582232	4.899349	2.2134473
6.47958535360737	4.943008	2.2232876
6.497140233621328	4.925023	2.2192392
6.514695266280161	4.9708214	2.229534
6.532250451999859	5.0002723	2.2361288
6.549805791196454	5.0625916	2.2500203
6.567361284286002	5.0648155	2.2505145
6.584916931684597	5.113104	2.2612174
6.602472733808367	5.1066794	2.2597964
6.6200286910734665	5.077385	2.2533054
6.637584803896092	5.0847573	2.2549407
6.655141072692462	5.0152593	2.2394774
6.672697497878842	4.9838076	2.2324443
6.690254079871514	4.9853477	2.2327893
6.707810819086808	5.003966	2.2369547
6.725367715941078	5.0628424	2.250076
6.742924770850719	5.0594697	2.2493265
6.760481984232151	5.0628633	2.2500808
6.778039356501836	5.003263	2.2367976
6.795596888076266	4.9921083	2.2343028
6.813154579371963	5.0409465	2.2452052
6.830712430805492	5.0364885	2.2442122
6.84827044279344	5.0204854	2.240644
6.865828615752445	4.957058	2.2264452
6.883386950099159	4.9557405	2.2261493
6.900945446250287	4.9527526	2.2254782
6.918504104622553	4.9947815	2.2349007
6.936062925632727	5.0364876	2.244212
6.953621909697607	5.031599	2.2431226
6.971181057234028	5.0432553	2.2457194
6.988740368658859	5.063804	2.2502897
7.006299844389007	5.2034764	2.281113
7.023859484841407	5.2566133	2.2927306
7.041419290433036	5.3654737	2.3163493
7.058979261580902	5.484571	2.341916
7.0765393987020495	5.6636257	2.3798373
7.094099702213559	6.051311	2.4599411
7.111660172532549	6.449633	2.5396128
7.129220810076164	6.868115	2.620709
7.146781615261595	7.4371867	2.7271206
7.16434258850606	7.6259437	2.761511
7.181903730226821	8.06708	2.8402605
7.1994650408411704	8.195956	2.862858
7.217026520766437	8.350439	2.8897126
7.234588170419983	8.557448	2.9253116
7.252149990219215	8.485162	2.91293
7.269711980581568	8.37806	2.8944879
7.2872741419245175	8.208801	2.8651006
7.304836474665574	7.822083	2.7967987
7.322398979222286	7.441626	2.7279344
7.339961656012233	7.1810813	2.679754
7.357524505453039	6.8569803	2.6185837
7.375087527962357	6.6110406	2.5711944
7.392650723957886	6.338128	2.5175638
7.410214093857353	5.9559803	2.4404876
7.427777638078528	5.7160945	2.3908355
7.445341357039213	5.5197263	2.3494098
7.4629052511572525	5.429336	2.3300936
7.480469320850524	5.3600073	2.3151689
7.498033566536948	5.2835193	2.2985907
7.5155979886344735	5.1867156	2.2774363
7.5331625875610975	5.1327868	2.2655654
7.550727363734844	5.1055403	2.2595444
7.568292317573788	5.133105	2.2656357
7.585857449496025	5.1873693	2.2775798
7.603422759919705	5.1807528	2.2761266
7.620988249263007	5.1899743	2.2781515
7.638553917944147	5.179637	2.2758815
7.656119766381391	5.241071	2.2893386
7.673685794993023	5.252388	2.2918088
7.691252004197388	5.3001633	2.3022084
7.70881839441285	5.2120967	2.2830017
7.726384966057826	5.257485	2.2929206
7.743951719550762	5.215164	2.2836733
7.761518655310149	5.218787	2.2844665
7.779085773754511	5.136976	2.2664897
7.796653075302419	5.130516	2.2650642
7.814220560372475	5.2001467	2.280383
7.831788229383323	5.24823	2.2909017
7.8493560827536495	5.27855	2.2975097
7.866924120902174	5.3106503	2.3044848
7.884492344247663	5.2990985	2.3019772
7.9020607532089135	5.37723	2.3188856
7.919629348204771	5.397943	2.3233473
7.937198129654115	5.434747	2.3312545
7.954767097975865	5.389257	2.3214774
7.972336253588986	5.382715	2.320068
7.989905596912472	5.345184	2.3119655
8.007475128365371	5.352921	2.313638
8.025044848366756	5.4129357	2.3265717
8.042614757335754	5.540474	2.353821
8.060184855691523	5.5746727	2.3610744
8.07775514385327	5.7593756	2.39987
8.095325622240228	5.848346	2.4183354
8.112896291271687	5.985412	2.44651
8.130467151366968	6.0562153	2.460938
8.148038202945436	6.09137	2.46807
8.165609446426497	6.0356684	2.4567597
8.183180882229594	6.0672913	2.4631872
8.200752510774217	6.056954	2.461088
8.218324332479893	6.138728	2.4776456
8.235896347766193	6.095283	2.4688628
8.253468557052724	6.0244565	2.4544768
8.27104096075914	5.9897037	2.4473872
8.288613559305137	6.0691595	2.4635663
8.306186353110448	6.214278	2.4928453
8.32375934259485	6.31636	2.513237
8.341332528178162	6.2220845	2.4944108
8.358905910280246	6.2516174	2.5003235
8.376479489321003	6.257806	2.5015607
8.394053265720377	6.3612285	2.5221477
8.411627239898356	6.3589935	2.5217044
8.42920141227497	6.318934	2.513749
8.44677578327029	6.245648	2.4991295
8.464350353304427	6.165041	2.48295
8.48192512279754	6.140699	2.4780433
8.499500092169827	6.09535	2.4688761
8.51707526184153	6.128461	2.4755728
8.534650632232934	6.1826134	2.4864862
8.552226203764365	6.2472115	2.4994423
8.569801976856192	6.2997775	2.5099359
8.587377951928834	6.3127804	2.5125246
8.60495412940274	6.2983594	2.5096533
8.622530509698416	6.370525	2.52399
8.6401070932364	6.495481	2.5486233
8.657683880437283	6.5956354	2.568197
8.675260871721695	6.647302	2.5782363
8.692838067510303	6.7248244	2.5932267
8.710415468223834	6.8525968	2.6177466
8.727993074283043	7.079747	2.6607795
8.745570886108737	7.175974	2.6788008
8.763148904121765	7.293275	2.7006063
8.78072712874302	7.192485	2.681881
8.798305560393441	7.3823485	2.7170477
8.815884199494006	7.466286	2.7324505
8.833463046465745	7.661997	2.7680311
8.851042101729728	7.8714733	2.8056147
8.86862136570707	8.104605	2.8468587
8.886200838818924	8.323705	2.8850832
8.903780521486505	8.32205	2.8847964
8.921360414131055	8.571364	2.9276893
8.938940517173874	8.706222	2.9506307
8.956520831036297	8.8607235	2.9766967
8.97410135613971	9.061106	3.0101671
8.99168209290554	9.287703	3.0475733
9.009263041755265	9.524898	3.0862434
9.026844203110405	9.7662735	3.1251037
9.044425577392525	9.945245	3.1536083
9.062007165023239	10.038175	3.1683078
9.079588966424197	10.281019	3.2064028
9.097170982017108	10.400864	3.225037
9.11475321222372	11.259702	3.355548
9.132335657465825	12.131386	3.4830139
9.149918318165264	12.194569	3.4920723
9.167501194743924	12.736736	3.5688565
9.18508428762374	12.459746	3.5298367
9.202667597226693	12.392383	3.5202816
9.220251123974803	12.0446615	3.470542
9.237834868290143	11.665898	3.4155378
9.255418830594836	11.531214	3.395764
9.273003011311046	10.980197	3.313638
9.290587410860985	10.777162	3.2828588
9.308172029666911	10.156168	3.1868744
9.32575686815113	9.9678545	3.157191
9.343341926735997	8.748845	2.9578447
9.360927205843916	8.50087	2.915625
9.378512705897327	8.312206	2.8830898
9.396098427318728	8.161518	2.856837
9.413684370530664	8.141103	2.8532617
9.431270535955722	8.029833	2.833696
9.448856924016539	7.9289823	2.8158448
9.466443535135806	7.7882304	2.79074
9.484030369736251	7.7343097	2.7810626
9.501617428240658	7.6860275	2.7723687
9.519204711071852	7.7517567	2.7841976
9.536792218652714	7.7977734	2.7924492
9.55437995140617	7.8701863	2.8053854
9.571967909755191	7.814031	2.795359
9.589556094122802	7.818139	2.7960935
9.60714450493207	7.848676	2.801549
9.624733142606116	7.945211	2.818725
9.642322007568108	7.9940147	2.827369
9.659911100241267	7.944284	2.8185606
9.677500421048851	7.896143	2.8100076
9.695089970414175	7.956654	2.820754
9.712679748760609	7.979545	2.8248088
9.730269756511557	7.987613	2.8262365
9.747859994090492	8.056194	2.8383436
9.765450461920915	8.141504	2.853332
9.78304116042639	8.280159	2.8775265
9.800632090030527	8.280751	2.8776295
9.81822325115699	8.288581	2.8789895
9.835814644229481	8.255091	2.8731673
9.853406269671762	8.242228	2.870928
9.870998127907646	8.260873	2.8741734
9.888590219360985	8.308947	2.8825243
9.906182544455698	8.292859	2.8797324
9.923775103615734	8.266657	2.8751795
9.941367897265108	8.241241	2.8707561
9.958960925827878	8.244539	2.8713305
9.97655418972816	8.291902	2.8795662
9.994147689390106	8.287622	2.878823
10.011741425237934	8.317344	2.8839805
10.029335397695904	8.3378525	2.887534
10.04692960718833	8.309659	2.882648
10.06452405413958	8.311765	2.8830132
10.082118738974064	8.277634	2.8770876
10.099713662116246	8.259857	2.8739967
10.117308823990651	8.19088	2.8619714
10.134904225021844	8.134426	2.8520916
10.152499865634445	8.1040125	2.8467548
10.170095746253125	8.170393	2.8583899
10.18769186730261	8.197562	2.8631384
10.205288229207675	8.218934	2.8668683
10.222884832393145	8.136097	2.8523843
10.2404816772839	8.12443	2.8503385
10.258078764304868	8.13851	2.8528073
10.275676093881035	8.172353	2.8587327
10.293273666437438	8.171024	2.8585005
10.310871482399158	8.113094	2.8483493
10.32846954219134	8.020988	2.832135
10.346067846239173	7.9821277	2.825266
10.363666394967908	8.024801	2.832808
10.38126518880283	8.121718	2.8498628
10.398864228169298	8.263401	2.8746133
10.416463513492713	8.3125	2.8831406
10.434063045198531	8.276811	2.8769448
10.451662823712262	8.234217	2.8695326
10.469262849459467	8.26063	2.8741312
10.486863122865758	8.183488	2.8606796
10.504463644356806	8.073128	2.841325
10.522064414358338	7.9902	2.8266943
10.539665433296118	7.987041	2.8261354
10.557266701595987	7.999852	2.828401
10.574868219683818	7.9433484	2.8183947
10.592469987985552	7.7753897	2.7884386
10.610072006927185	7.6071057	2.7580981
10.627674276934751	7.4631596	2.7318783
10.64527679843435	7.273826	2.6970031
10.662879571852143	7.207202	2.6846232
10.680482597614331	7.175677	2.6787453
10.698085876147173	7.102732	2.665095
10.715689407876988	7.0719304	2.65931
10.733293193230146	6.9965262	2.6450946
10.750897232633072	6.882903	2.6235287
10.76850152651225	6.705149	2.5894303
10.786106075294207	6.5696287	2.5631287
10.803710879405534	6.4504533	2.5397742
10.821315939272877	6.4103904	2.531875
10.83892125532294	6.3655457	2.5230033
10.856526827982472	6.343503	2.5186312
10.874132657678285	6.375149	2.5249057
10.891738744837243	6.3165007	2.513265
10.909345089886271	6.2140884	2.4928074
10.926951693252343	6.0763135	2.465018
10.944558555362494	5.9956408	2.4485998
10.96216567664381	5.954276	2.4401386
10.979773057523436	5.8681674	2.42243
10.997380698428573	5.809342	2.4102576
11.014988599786477	5.708469	2.3892403
11.032596762024461	5.688196	2.384994
11.050205185569892	5.636953	2.3742268
11.067813870850198	5.599076	2.3662367
11.085422818292859	5.553428	2.3565712
11.10303202832541	5.530718	2.3517478
11.120641501375454	5.4914145	2.3433766
11.138251237870636	5.387519	2.3211029
11.155861238238671	5.2941117	2.3008938
11.173471502907317	5.1946526	2.2791781
11.191082032304402	5.1577134	2.27106
11.208692826857805	5.1494093	2.269231
11.226303886995465	5.0751705	2.2528138
11.243915213145371	5.0059943	2.237408
11.261526805735578	4.9167128	2.2173662
11.279138665194196	4.8624167	2.2050889
11.296750791949393	4.8096666	2.1930952
11.314363186429393	4.7312217	2.1751373
11.331975849062479	4.73584	2.1761985
11.34958878027699	4.660583	2.1588383
11.36720198050133	4.5827217	2.1407292
11.384815450163948	4.5167522	2.1252651
11.402429189693366	4.491917	2.1194143
11.420043199518153	4.49021	2.1190116
11.437657480066942	63.46807	7.9666853
11.455272031768422	85.20761	9.230797
11.472886855051353	107.59414	10.37276
11.490501950344528	99.19544	9.959691
11.508117318076819	84.51272	9.19308
11.52573295867715	45.87084	6.7728014
11.543348872574514	4.1794376	2.0443673
11.560965060197946	4.1976085	2.0488067
11.57858152197655	4.1378703	2.0341756
11.59619825833949	4.103638	2.025744
11.613815269715985	4.010001	2.0024986
11.631432556535323	38.51586	6.206115
11.649050119226837	83.06619	9.114066
11.666667958219929	93.50251	9.669669
11.68428607394406	107.78717	10.38206
11.701904466828756	82.57419	9.087034
11.719523137303586	65.391174	8.086481
11.737142085798196	4.624953	2.1505704
11.754761312742286	3.7438266	1.9348971
11.772380818565619	3.6787057	1.9179952
11.790000603698015	3.628217	1.9047879
11.80762066856935	3.5924816	1.8953843
11.825241013609572	3.569824	1.8893977
11.842861639248683	3.5397904	1.881433
11.860482545916748	3.5342987	1.879973
11.878103734043883	3.5274181	1.8781422
11.895725204060282	3.4757726	1.8643425
11.91334695639619	3.4529727	1.8582176
11.930968991481919	3.3823385	1.8391135
11.948591309747824	3.3292704	1.8246288
11.966213911624347	3.3014858	1.8169991
11.98383679754198	3.2819211	1.8116074
12.001459967931268	3.2696419	1.8082151
12.019083423222835	3.2352335	1.7986755
12.036707163847352	3.2136328	1.7926608
12.05433119023556	3.1676333	1.7797847
12.071955502818259	3.1361358	1.7709138
12.089580102026313	3.132291	1.769828
12.107204988290643	3.1560304	1.776522
12.12483016204224	3.176817	1.7823627
12.142455623712152	3.1565936	1.7766805
12.16008137373149	3.1489046	1.7745153
12.177707412531431	3.1261985	1.7681059
12.19533374054321	3.055518	1.748004
12.212960358198126	3.0250688	1.7392725
12.230587265927545	2.9758766	1.7250729
12.248214464162889	2.982407	1.7269647
12.265841953335649	2.9576182	1.7197727
12.283469733877375	2.9704044	1.7234861
12.301097806219685	2.9724991	1.7240937
12.31872617079425	2.9717631	1.7238803
12.336354828032825	2.9407172	1.714852
12.353983778367205	2.9535298	1.7185837
12.371613022229262	2.9419956	1.7152246
12.389242560050928	2.9267642	1.7107788
12.406872392264201	2.8925288	1.7007436
12.424502519301143	2.8789117	1.6967356
12.442132941593874	2.8491712	1.6879488
12.459763659574586	2.837652	1.6845331
12.477394673675532	2.836235	1.6841125
12.49502598432903	2.8518279	1.6887356
12.51265759196746	2.8316705	1.6827568
12.530289497023267	2.8247569	1.6807013
12.547921699928967	2.79174	1.67085
12.565554201117134	2.7509303	1.6585928
12.583187001020404	2.748798	1.6579499
12.600820100071486	2.7607343	1.6615458
12.618453498703152	2.771601	1.6648126
12.636087197348235	2.782926	1.6682104
12.65372119643964	2.8143857	1.6776131
12.671355496410326	2.7977498	1.6726475
12.68899009769333	2.830565	1.6824282
12.706625000721749	2.8527982	1.6890229
12.724260205928752	2.9057097	1.7046143
12.741895713747551	2.9106126	1.7060517
12.759531524611454	2.9333818	1.7127118
12.777167638953818	2.9416893	1.7151353
12.794804057208072	3.0170717	1.736972
12.812440779807702	3.1261506	1.7680924
12.830077807186271	3.3094282	1.8191833
12.847715139777405	3.309018	1.8190706
12.865352778014795	3.4921143	1.8687199
12.882990722332197	3.60958	1.8998895
12.90062897316344	3.697804	1.9229674
12.918267530942412	3.7703488	1.9417386
12.935906396103071	3.6569967	1.9123275
12.953545569079449	3.7832558	1.9450593
12.971185050305628	3.5952146	1.8961052
12.988824840215775	3.6255963	1.9040998
13.006464939244115	3.6039903	1.8984178
13.024105347824943	3.4286935	1.8516731
13.041746066392617	3.4706306	1.8629628
13.05938709538157	3.2916093	1.8142793
13.077028435226296	3.3118315	1.8198438
13.094670086361363	3.2584064	1.8051057
13.112312049221401	3.182508	1.7839586
13.129954324241112	3.1016414	1.7611477
13.147596911855258	2.9304283	1.7118493
13.165239812498685	2.8885827	1.699583
13.182883026606293	2.8227756	1.6801118
13.200526554613058	2.7853034	1.6689228
13.218170396954017	2.7386625	1.6548904
13.235814554064284	2.7023525	1.6438833
13.253459026379034	2.739132	1.6550323
13.271103814333523	2.746049	1.6571207
13.288748918363058	2.7647095	1.6627415
13.306394338903031	2.728438	1.6517984
13.32404007638889	2.6873448	1.6393123
13.341686131256164	2.69078	1.6403596
13.359332503940449	2.673725	1.6351528
13.376979194877402	2.6448145	1.6262885
13.394626204502751	2.6612504	1.631334
13.412273533252307	2.7006397	1.6433623
13.429921181561937	2.71729	1.6484205
13.447569149867581	2.7254848	1.6509043
13.465217438605247	2.7224696	1.6499908
13.482866048211022	2.7207572	1.6494718
13.500514979121052	2.7373064	1.6544807
13.518164231771568	2.6851468	1.6386417
13.535813806598844	2.6866925	1.6391133
13.553463704039254	2.7228935	1.6501192
13.571113924529229	2.7820868	1.6679589
13.588764468505275	2.7712145	1.6646965
13.606415336403956	2.7556164	1.660005
13.624066528661917	2.7182186	1.648702
13.641718045715882	2.765159	1.6628767
13.659369888002635	2.845041	1.6867249
13.67702205595903	2.969831	1.7233198
13.694674550021993	3.013801	1.7360302
13.712327370628532	3.0547948	1.7477971
13.729980518215713	3.1095293	1.7633858
13.747633993220681	3.1932895	1.7869778
13.765287796080647	3.220459	1.7945638
13.7829419272329	3.2491677	1.8025448
13.800596387114801	3.277828	1.8104773
13.818251176163775	3.315134	1.820751
13.835906294817324	3.3506851	1.8304877
13.853561743513023	3.3936234	1.842179
13.871217522688525	3.4289348	1.8517383
13.888873632781538	3.5178914	1.8756043
13.906530074229858	3.5425215	1.8821588
13.92418684747135	3.5447373	1.8827473
13.941843952943948	3.5085382	1.8731092
13.959501391085665	3.492275	1.868763
13.977159162334578	3.416638	1.848415
13.994817267128846	3.3562706	1.8320127
14.012475705906693	3.2271693	1.7964324
14.030134479106424	3.1918595	1.7865776
14.047793587166414	3.166056	1.7793415
14.065453030525108	3.1101503	1.7635618
14.083112809621026	3.031769	1.7411976
14.100772924892766	2.9293425	1.7115322
14.118433376778997	2.8349867	1.6837419
14.136094165718458	2.7721941	1.6649908
14.153755292149969	2.7616422	1.661819
14.171416756512416	2.743999	1.656502
14.189078559244768	2.6876328	1.6394001
14.20674070078606	2.6412103	1.6251801
14.224403181575408	2.5672798	1.6022733
14.242066002051999	2.5357583	1.5924064
14.259729162655093	2.4483018	1.564705
14.277392663824022	2.4172544	1.5547522
14.295056505998208	2.3834078	1.543829
14.312720689617128	2.4254515	1.5573862
14.330385215120348	2.4330118	1.5598115
14.348050082947497	2.450174	1.5653032
14.3657152935383	2.428878	1.5584859
14.383380847332528	2.4101875	1.5524778
14.401046744770051	2.3921945	1.5466721
14.418712986290798	2.3833847	1.5438215
14.436379572334793	2.4029782	1.5501542
14.454046503342123	2.4176002	1.5548633
14.471713779752946	2.4086094	1.5519695
14.489381402007504	2.3953862	1.5477035
14.507049370546113	2.3700712	1.5395036
14.524717685809168	2.3814132	1.5431828
14.542386348237134	2.3994362	1.5490113
14.560055358270553	2.4115438	1.5529146
14.577724716350051	2.4578958	1.5677677
14.595394422916325	2.4613383	1.5688653
14.61306447841015	2.512497	1.5850857
14.63073488327237	2.51567	1.5860864
14.648405637943917	2.5827165	1.6070832
14.6660767428658	2.586989	1.6084119
14.683748198479094	2.6225545	1.6194303
14.701420005224954	2.6026144	1.613262
14.719092163544628	2.6240206	1.619883
14.73676467387942	2.658248	1.6304134
14.754437536670727	2.6487303	1.6274921
14.772110752360014	2.6346874	1.623172
14.78978432138882	2.6433485	1.6258378
14.807458244198777	2.676849	1.6361078
14.82513252123159	2.663831	1.6321247
14.842807152929028	2.679836	1.6370205
14.860482139732962	2.6500983	1.6279123
14.87815748208531	2.6723175	1.6347225
14.8958331804281	2.740581	1.65547
14.91350923520342	2.721356	1.6496533
14.931185646853438	2.7271318	1.651403
14.948862415820408	2.7234101	1.6502758
14.966539542546656	2.7421744	1.6559513
14.98421702747459	2.6805906	1.6372509
15.001894871046696	2.651351	1.628297
15.019573073705542	2.6359549	1.6235625
15.037251635893766	2.647306	1.6270543
15.054930558054092	2.6691368	1.6337492
15.072609840629323	2.7059097	1.6449649
15.090289484062351	2.8616092	1.6916292
15.107969488796124	3.136727	1.7710807
15.125649855273691	3.544281	1.882626
15.14333058393817	4.036469	2.0090966
15.161011675232768	5.074903	2.2527544
15.17869312960076	6.4299054	2.5357258
15.196374947485506	8.249063	2.8721182
15.214057129330447	11.358327	3.3702116
15.231739675579114	15.986414	3.9983013
15.249422586675102	20.880398	4.5695076
15.267105863062092	23.788858	4.8773823
15.284789505183847	24.080479	4.9071865
15.302473513484218	21.950357	4.685121
15.320157888407127	18.453808	4.2957897
15.337842630396578	14.327198	3.7851286
15.355527739896656	11.170366	3.3422098
15.37321321735153	8.745169	2.9572232
15.39089906320545	6.4114313	2.5320804
15.408585277902748	4.840014	2.2000031
15.42627186188783	3.7399771	1.933902
15.443958815605198	3.21826	1.7939509
15.461646139499424	2.8960667	1.7017834
15.479333834015168	2.7539039	1.659489
15.497021899597165	2.7122757	1.6468989
15.514710336690234	2.67113	1.6343592
15.53239914573928	2.6197562	1.6185662
15.550088327189297	2.5559456	1.5987325
15.567777881485336	2.4936275	1.5791224
15.58546780907256	2.4546366	1.566728
15.6031581103962	2.4474099	1.56442
15.620848785901568	2.4300628	1.5588659
15.638539836034063	2.4624624	1.5692235
15.656231261239173	2.4625025	1.5692363
15.673923061962451	2.440952	1.5623547
15.691615238649552	2.440473	1.5622014
15.709307791746202	2.4276137	1.5580802
15.727000721698221	2.4173703	1.5547894
15.744694028951498	2.4043868	1.5506085
15.76238771395202	2.3782341	1.5421524
15.780081777145844	2.3778589	1.5420308
15.797776218979125	2.3792498	1.5424817
15.815471039898094	2.38059	1.542916
15.833166240349064	2.3416653	1.5302501
15.850861820778437	2.3242285	1.5245421
15.868557781632699	2.3570628	1.5352728
15.886254123358412	2.377847	1.5420269
15.903950846402232	2.367063	1.5385263
15.921647951210897	2.374399	1.5409085
15.939345438231225	2.367927	1.538807
15.957043307910133	2.3634245	1.5373434
15.974741560694602	2.3443995	1.5311432
15.992440197031714	2.3465948	1.5318599
16.01013921736862	2.3756588	1.5413172
16.02783862215259	2.4065843	1.551317
16.045538411830933	2.3986964	1.5487726
16.06323858685107	2.3877952	1.5452492
16.080939147660512	2.3736942	1.5406798
16.09864009470684	2.338226	1.5291259
16.11634142843774	2.3329585	1.5274025
16.134043149300954	2.3572433	1.5353316
16.15174525774433	2.4237971	1.5568548
16.169447754215817	2.4531782	1.5662625
16.18715063916342	2.4298272	1.5587903
16.204853913035244	2.4036653	1.5503758
16.222557576279478	2.4108834	1.552702
16.240261629344403	22.413546	4.7342944
16.257966072678386	42.96876	6.555056
16.275670906729868	38.09392	6.1720276
16.293376131947387	2.506955	1.5833366
16.31108174877957	2.5231752	1.5884506
16.328787757675133	2.5317907	1.5911602
16.34649415908287	2.5393183	1.5935239
16.364200953451657	2.554007	1.598126
16.38190814123048	2.5830684	1.6071928
16.39961572286839	2.5968463	1.6114733
16.41732369881455	2.6504858	1.6280313
16.43503206951817	2.7003722	1.643281
16.45274083542859	2.7140791	1.6474463
16.47044999699522	2.729845	1.6522243
16.488159554667558	2.7509427	1.6585966
16.505869508895184	2.826667	1.6812695
16.523579860127786	2.8978047	1.702294
16.541290608815117	2.9374347	1.7138946
16.559001755407035	2.9840581	1.7274426
16.57671330035348	3.0240939	1.7389922
16.59442524410448	3.114273	1.7647303
16.61213758711015	3.1861055	1.7849665
16.629850329820705	3.2330873	1.7980788
16.647563472686436	3.2936482	1.8148412
16.665277016157724	3.3699527	1.8357431
16.682990960685053	3.4335206	1.8529761
16.70070530671898	3.4774961	1.8648046
16.718420054710155	3.4955666	1.8696434
16.736135205109335	3.5369883	1.8806882
16.753850758367335	3.5937617	1.8957219
16.771566714935087	3.6494086	1.9103426
16.789283075263597	3.7114544	1.9265136
16.80699983980398	3.7448432	1.9351598
16.82471700900741	3.8166397	1.9536222
16.84243458332518	3.908783	1.9770643
16.860152563208665	3.9847915	1.9961942
16.87787094910932	4.0383635	2.009568
16.89558974147871	4.1033845	2.0256813
16.913308940768466	4.2053547	2.0506961
16.931028547430333	4.305321	2.0749269
16.94874856191613	4.3320622	2.0813606
16.966468984677785	4.3656845	2.089422
16.98418981616729	4.3762197	2.0919416
17.00191105683676	4.4586606	2.1115541
17.019632707138374	4.5104046	2.1237714
17.03735476752442	4.534376	2.1294074
17.05507723844728	4.540083	2.130747
17.072800120359403	4.5518465	2.1335056
17.090523413713353	4.5921926	2.1429403
17.108247118961785	4.640153	2.1541014
17.125971236557437	4.651036	2.156626
17.143695766953133	4.6653156	2.1599343
17.161420710601806	4.706354	2.1694133
17.179146067956477	4.70911	2.1700482
17.19687183947025	4.7078643	2.1697614
17.21459802559634	4.6931314	2.1663637
17.232324626788028	4.6382627	2.1536627
17.25005164349871	4.6061144	2.146186
17.267779076181863	4.567944	2.137275
17.285506925291074	4.518694	2.125722
17.30323519127999	4.4843884	2.1176374
17.320963874602384	4.511036	2.12392
17.33869297571211	4.525206	2.1272533
17.356422495063114	4.5056343	2.122648
17.37415243310944	4.4897823	2.1189106
17.391882790305218	4.447803	2.1089816
17.40961356710468	4.4332333	2.1055245
17.42734476396215	4.4304647	2.104867
17.445076381332044	4.498307	2.1209214
17.462808419668868	4.5605	2.1355329
17.48054087942723	4.679768	2.1632771
17.498273761061835	4.9514327	2.2251816
17.51600706502747	5.469545	2.3387058
17.533740791779024	6.21938	2.4938684
17.551474941771485	7.6969857	2.7743442
17.56920951545993	8.844768	2.9740155
17.586944513299528	10.970314	3.3121464
17.60467993574556	12.533802	3.540311
17.622415783253373	14.034895	3.7463176
17.64015205627843	15.306044	3.912294
17.657888755276293	16.285286	4.0355034
17.675625880702604	16.833448	4.1028585
17.69336343301311	16.677984	4.083869
17.71110141266366	15.939025	3.9923708
17.728839820110178	15.037034	3.8777614
17.746578655808705	14.312584	3.7831976
17.764317920215372	13.058538	3.61366
17.7820576137864	11.62792	3.4099736
17.79979773697811	9.601746	3.0986683
17.81753829024692	7.6680794	2.7691298
17.835279274049356	5.9383035	2.4368634
17.85302068884201	4.888006	2.2108836
17.870762535081607	4.25412	2.0625517
17.888504813224934	3.9339607	1.9834214
17.90624752372891	3.716896	1.9279253
17.923990667050536	3.5886366	1.8943697
17.941734243646895	3.4941971	1.8692771
17.959478253975185	3.4806879	1.8656602
17.9772226984927	3.458723	1.8597642
17.994967577656833	3.4286904	1.8516723
18.01271289192506	3.387328	1.8404695
18.030458641754965	3.374833	1.8370719
18.04820482760425	3.3627124	1.83377
18.06595144993067	3.3482773	1.8298298
18.083698509192125	3.2968636	1.8157268
18.101446005846576	3.2820683	1.8116479
18.119193940352105	3.2600572	1.8055629
18.136942313166887	3.2400742	1.8000206
18.1546911247492	3.1912403	1.7864043
18.1724403755574	3.1755326	1.7820024
18.19019006604997	3.1931906	1.7869501
18.207940196685467	3.1665092	1.7794688
18.225690767922575	3.1534748	1.7758026
18.243441780220046	3.1045682	1.7619785
18.261193234036764	3.0672855	1.7513667
18.278945129831676	3.0075927	1.7342412
18.29669746806386	2.992906	1.7300018
18.314450249192483	3.0232327	1.7387446
18.3322034736768	3.050317	1.7465156
18.349957141976184	3.039973	1.7435519
18.3677112545501	3.0490837	1.7461625
18.385465811858108	3.0435205	1.7445688
18.403220814359884	3.0509684	1.7467022
18.420976262515172	3.0910177	1.758129
18.43873215678387	3.1355984	1.7707621
18.456488497625923	3.1655948	1.7792119
18.474245285501407	3.2556896	1.804353
18.492002520870486	3.317408	1.8213754
18.50976020419343	3.381321	1.8388368
18.527518335930615	3.719258	1.9285378
18.545276916542516	4.2914233	2.0715752
18.563035946489688	4.4845605	2.1176782
18.580795426232832	4.871807	2.207217
18.598555356232698	4.770063	2.1840475
18.616315736950185	5.0488095	2.2469556
18.63407656884626	4.7050824	2.1691203
18.65183785238201	4.891529	2.2116802
18.669599588018617	4.7121468	2.170748
18.68736177621737	4.692888	2.1663074
18.705124417439652	4.655011	2.1575475
18.72288751214696	4.391062	2.0954862
18.740651060800886	4.486135	2.1180499
18.758415063863115	4.2613616	2.0643065
18.77617952179546	4.486865	2.1182222
18.793944435059814	4.254482	2.0626395
18.811709804118184	4.2433977	2.0599508
18.829475629432675	4.2481627	2.0611072
18.8472419114655	4.0394764	2.0098448
18.86500865067897	4.124073	2.0307813
18.88277584753551	3.7863405	1.9458522
18.90054350249763	3.835503	1.958444
18.918311616027957	3.5340593	1.8799094
18.936080188589226	3.4310145	1.8522998
18.953849220644265	3.0924296	1.7585305
18.971618712656007	2.8818119	1.69759
18.9893886650875	2.8176966	1.6785996
19.007159078401887	8.005984	2.8294847
19.024929953062408	32.876156	5.733773
19.042701289532435	32.778786	5.725276
19.060473088275405	25.330067	5.0328984
19.07824534975489	2.6170905	1.6177424
19.096018074434568	2.6429555	1.6257169
19.113791262778197	2.6193693	1.6184466
19.13156491524966	2.588078	1.6087505
19.149339032312945	2.5366685	1.5926923
19.167113614432136	2.4987423	1.580741
19.184888662071433	2.499304	1.5809188
19.202664175695123	2.5013523	1.5815665
19.220440155767623	2.5557265	1.5986639
19.238216602753447	2.6040363	1.6137027
19.2559935171172	2.5924542	1.61011
19.27377089932361	2.5176454	1.586709
19.291548749837514	2.4639127	1.5696856
19.309327069123835	2.4779937	1.5741645
19.32710585764763	2.4906435	1.5781772
19.344885115874032	2.459756	1.5683609
19.362664844268313	2.462933	1.5693735
19.380445043295822	2.4389095	1.5617008
19.39822571342203	2.4363306	1.5608749
19.41600685511252	2.4397297	1.5619634
19.43378846883297	2.4573143	1.5675822
19.451570555049173	2.4352655	1.5605338
19.469353114227037	2.4195611	1.5554938
19.48713614683254	2.4275854	1.558071
19.50491965333182	2.45355	1.5663812
19.52270363419109	2.4525328	1.5660565
19.540488089876686	2.4796138	1.5746789
19.55827302085503	2.4962895	1.579965
19.576058427592674	2.4978182	1.5804487
19.593844310556282	2.4739945	1.5728936
19.611630670212598	2.4630272	1.5694034
19.629417507028506	2.4694347	1.5714436
19.64720482147098	2.5112784	1.5847013
19.6649926140071	2.5287197	1.5901948
19.682780885104084	2.5440936	1.5950215
19.70056963522921	2.5417724	1.5942937
19.718358864849908	2.511857	1.5848839
19.7361485744337	2.4521394	1.5659308
19.753938764448215	2.4608226	1.5687009
19.771729435361202	2.514448	1.5857011
19.789520587640506	2.5634668	1.601083
19.807312221754092	2.5365603	1.5926583
19.825104338170043	2.5163388	1.5862972
19.842896937356517	2.5252743	1.5891112
19.860690019781824	2.5018427	1.5817214
19.87848358591436	2.4714582	1.5720872
19.896277636222635	2.4481199	1.5646468
19.914072171175278	2.462507	1.5692377
19.931867191241015	2.4593694	1.5682377
19.94966269688869	2.4425976	1.5628812
19.967458688587264	2.4463017	1.5640658
19.985255166805807	2.4509208	1.5655417
20.00305213201348	2.4824762	1.5755876
20.020849584679578	2.4691443	1.5713512
20.038647525273507	2.4520543	1.5659037
20.05644595426477	2.438978	1.5617228
20.07424487212299	2.449149	1.5649757
20.092044279317903	2.438624	1.5616094
20.109844176319353	2.4141834	1.5537642
20.127644563597304	2.425606	1.5574358
20.145445441621817	2.4380877	1.5614377
20.16324681086307	2.4757283	1.5734447
20.181048671791373	2.432779	1.5597368
20.198851024877122	2.4059064	1.5510985
20.216653870590836	2.3936374	1.5471385
20.234457209403146	2.407836	1.5517204
20.252261041784802	2.4030287	1.5501705
20.270065368206662	2.3842366	1.5440973
20.287870189139685	2.3571022	1.5352857
20.305675505054968	2.3215458	1.523662
20.323481316423702	2.2702122	1.5067223
20.341287623717207	2.287209	1.5123521
20.359094427406884	2.3145409	1.5213615
20.376901727964288	2.3547301	1.534513
20.39470952586107	2.3564212	1.5350639
20.41251782156899	2.375873	1.5413867
20.430326615559935	2.3855083	1.544509
20.448135908305886	2.3495574	1.5328267
20.465945700278965	2.3157065	1.5217446
20.483755991951384	2.3076246	1.5190867
20.50156678379548	2.3247974	1.5247287
20.519378076283708	2.3447611	1.5312613
20.537189869888635	2.380873	1.5430077
20.55500216508294	2.3742986	1.5408759
20.572814962339415	2.3527627	1.5338718
20.59062826213098	2.3194935	1.5229883
20.60844206493066	2.331713	1.5269947
20.626256371211593	2.359264	1.5359895
20.644071181447032	2.3651469	1.5379034
20.66188649611036	2.3432407	1.5307647
20.67970231567506	2.3100138	1.5198729
20.697518640614742	2.2967656	1.5155083
20.715335471403122	2.2675965	1.5058541
20.73315280851404	2.2396903	1.4965595
20.750970652421447	2.2302184	1.4933916
20.768789003599412	2.2465224	1.4988403
20.786607862522136	2.2555087	1.5018351
20.8044272296639	2.2534456	1.5011481
20.82224710549913	2.2425575	1.4975171
20.84006749050237	2.2611344	1.5037069
20.857888385148268	3.862811	1.9654036
20.8757097899116	45.989716	6.781572
20.893531705267254	64.82605	8.051462
20.911354131690224	83.81952	9.1553
20.92917706965566	69.05735	8.310075
20.94700051963877	50.09067	7.0774765
20.96482448211493	29.342266	5.41685
20.982648957559622	4.086113	2.0214136
21.00047394644843	2.2408082	1.496933
21.01829944925707	2.2557147	1.5019037
21.036125466461375	2.2944684	1.5147502
21.053951998537297	2.296401	1.5153881
21.071779045960906	2.2474835	1.4991609
21.089606609208378	2.1954312	1.4816988
21.10743468875603	2.1982436	1.4826475
21.12526328508028	2.2284145	1.4927875
21.143092398657675	2.203098	1.4842837
21.16092202996488	2.1644766	1.4712161
21.17875217947867	2.1714954	1.4735994
21.19658284767596	2.175812	1.4750634
21.21441403503377	2.1712906	1.4735299
21.232245742029225	2.1367	1.4617455
21.2500779691396	2.1265097	1.4582556
21.26791071684227	2.1448612	1.4645345
21.28574398561475	2.1816409	1.4770379
21.30357777593465	2.2119732	1.4872704
21.321412088279704	2.1926787	1.4807696
21.339246923127792	2.1857188	1.4784176
21.357082280956888	2.1674554	1.472228
21.3749181622451	2.1512291	1.4667069
21.392754567470647	2.1308603	1.4597467
21.41059149711187	2.1212823	1.4564623
21.42842895164726	2.1068463	1.4514979
21.446266931555378	2.103931	1.4504933
21.464105437314945	2.105263	1.4509524
21.481944469404798	2.098201	1.4485168
21.49978402830388	2.083373	1.4433894
21.51762411449127	2.0617182	1.4358685
21.53546472844617	2.0661526	1.4374118
21.553305870647876	2.0707884	1.4390234
21.571147541575865	2.070512	1.4389274
21.58898974170967	2.0763829	1.440966
21.60683247152899	2.1015515	1.4496729
21.62467573151363	2.1107452	1.4528403
21.642519522143523	2.1111484	1.4529791
21.660363843898722	2.0938575	1.4470167
21.6782086972594	2.0945756	1.4472649
21.696054082705864	2.0849361	1.4439307
21.713900000718535	2.0813336	1.4426827
21.73174645177795	2.0447898	1.4299614
21.749593436364794	2.0387456	1.4278466
21.767440954959845	2.0520809	1.4325086
21.785289008044032	2.0491278	1.4314775
21.803137596098388	2.0269692	1.4237167
21.820986719604086	2.0134556	1.4189628
21.838836379042412	2.018756	1.4208293
21.85668657489478	2.021844	1.4219155
21.87453730764273	2.0340111	1.4261876
21.892388577767914	2.0201557	1.4213217
21.91024038575213	2.0175705	1.4204121
21.928092732077285	2.0015404	1.4147581
21.945945617225426	2.0108063	1.4180291
21.963799041678694	2.0158484	1.4198058
21.981653005919398	31.307405	5.595302
21.999507510429943	78.11315	8.838164
22.01736255569286	73.08344	8.548885
22.035218142190818	4.1927695	2.0476253
22.05307427040661	2.0003917	1.414352
22.07093094082315	1.9647673	1.4017016
22.088788153923474	1.9571861	1.3989947
22.106645910190746	1.9650463	1.4018011
22.12450421010827	1.9882302	1.4100462
22.142363054159464	1.9850842	1.4089302
22.16022244282787	1.9926456	1.411611
22.178082376597164	2.0018733	1.4148757
22.195942855951145	2.000097	1.4142479
22.213803881373742	1.9872773	1.4097083
22.231665453349002	1.9744086	1.4051365
22.24952757236111	1.943264	1.3940101
22.26739023889438	1.935453	1.3912057
22.28525345343323	1.9742608	1.4050839
22.30311721646225	2.0321636	1.4255397
22.320981528466113	2.0645216	1.4368443
22.33884638992964	2.046447	1.4305408
22.356711801337788	2.0079627	1.417026
22.37457776317561	1.9880842	1.4099944
22.392444275928337	1.9668213	1.4024341
22.410311340081282	1.9601481	1.4000529
22.428178956119904	1.948296	1.3958137
22.446047124529805	1.956762	1.398843
22.46391584579669	1.9498225	1.3963605
22.481785120406414	1.965124	1.4018288
22.49965494884496	1.9648277	1.4017231
22.51752533159841	1.9447263	1.3945345
22.53539626915302	1.9316081	1.3898231
22.553267761995137	1.9521397	1.39719
22.571139810611264	1.9387621	1.3923944
22.589012415488025	1.9095186	1.3818533
22.60688557711216	1.9040571	1.3798758
22.624759295970566	1.9250072	1.3874463
22.642633572550263	1.9557786	1.3984915
22.660508407338362	1.9717765	1.4041996
22.67838380082217	1.9607955	1.400284
22.696259753489077	1.929811	1.3891764
22.714136265826614	1.929668	1.3891249
22.73201333832246	1.9591379	1.399692
22.74989097146439	1.9917544	1.4112953
22.76776916574035	1.9788616	1.4067202
22.785647921638393	1.9066453	1.3808132
22.803527239646712	1.9109156	1.3823587
22.82140712025363	1.8959816	1.3769464
22.839287563947593	1.9224423	1.3865217
22.85716857121719	1.9063883	1.3807203
22.875050142551135	1.9206731	1.3858836
22.892932278438277	1.9096274	1.3818927
22.910814979367604	1.9264098	1.3879516
22.928698245828222	1.9356565	1.3912787
22.946582078309387	1.929091	1.3889172
22.96446647730047	1.9321009	1.3900003
22.98235144329098	1.9254721	1.3876138
23.000236976770562	1.9064895	1.3807569
23.018123078229	1.8762286	1.3697549
23.03600974815619	1.8958259	1.37689
23.053896987042194	1.9063632	1.3807112
23.071784795377173	1.9223592	1.3864917
23.08967317365145	1.9591582	1.3996993
23.10756212235546	1.97351	1.4048167
23.125451641979787	1.9610156	1.4003626
23.143341733015134	1.9397061	1.3927333
23.161232395952357	1.8992441	1.3781307
23.179123631282426	1.9272416	1.3882513
23.197015439496468	1.9427892	1.3938397
23.214907821085717	1.9621756	1.4007767
23.23280077654157	1.961818	1.4006491
23.250694306355538	1.9692987	1.4033171
23.268588411019277	1.9752713	1.4054434
23.28648309102458	1.9786358	1.4066399
23.304378346863356	1.943171	1.3939767
23.322274179027676	1.962161	1.4007715
23.340170588009723	1.9297975	1.3891715
23.358067574301852	1.9577615	1.3992003
23.37596513839651	1.9374323	1.3919168
23.39386328078629	1.9612883	1.40046
23.411762001963947	1.9197583	1.3855535
23.429661302422353	1.9218873	1.3863215
23.4475611826545	1.9357176	1.3913007
23.46546164315356	1.9488151	1.3959997
23.48336268441279	1.9315164	1.38979
23.501264306925638	1.900279	1.3785061
23.51916651118564	1.9108374	1.3823304
23.537069297686497	1.9133408	1.3832356
23.554972666922037	1.9097583	1.38194
23.57287661938623	1.8710102	1.3678488
23.59078115557318	1.8580636	1.363108
23.608686275977128	1.8782439	1.3704904
23.62659198109246	1.9162791	1.3842974
23.6444982714137	1.9561872	1.3986377
23.66240514743549	1.9533025	1.397606
23.68031260965263	1.9157231	1.3840965
23.698220658560068	1.933772	1.3906013
23.716129294652845	1.9568874	1.3988879
23.7340385184262	1.9340296	1.3906939
23.75194833037546	1.8944259	1.3763814
23.769858730996123	1.9034542	1.3796573
23.78776972078382	1.9127846	1.3830346
23.80568130023431	1.9440134	1.3942788
23.823593469843495	1.92965	1.3891184
23.841506230107424	1.9335821	1.390533
23.859419581522275	1.91028	1.3821288
23.87733352458438	1.9245732	1.3872899
23.89524805979019	1.8909879	1.375132
23.913163187636318	1.8735198	1.3687658
23.931078908619508	1.8755102	1.3694927
23.948995223236633	1.950757	1.396695
23.966912131984735	1.9543406	1.3979774
23.98482963536096	2.0281878	1.4241446
24.002747733862616	2.0134182	1.4189497
24.020666427987155	2.0243428	1.422794
24.038585718232156	2.0095677	1.4175923
24.056505605095353	2.0064533	1.4164933
24.074426089074617	2.0178578	1.4205133
24.092347170667946	2.0195093	1.4210944
24.110268850373515	2.0548406	1.4334716
24.128191128689586	2.086393	1.4444352
24.146114006114626	2.0521648	1.4325379
24.164037483147187	2.006859	1.4166366
24.181961560286005	1.9811682	1.4075397
24.199886238029926	1.9825051	1.4080145
24.21781151687797	1.995155	1.4124995
24.235737397329274	2.017607	1.4204249
24.253663879883135	2.063657	1.4365435
24.271590965038975	2.0715098	1.4392741
24.289518653296376	2.0466151	1.4305996
24.30744694515505	2.0249257	1.4229988
24.32537584111486	2.0050035	1.4159814
24.34330534167581	1.9728073	1.4045665
24.361235447338046	1.9916722	1.4112662
24.379166158601876	1.9888189	1.410255
24.39709747596772	1.972486	1.4044522
24.41502939993615	1.9406861	1.3930851
24.432961931007917	1.959223	1.3997225
24.450895069683856	1.9662132	1.4022173
24.468828816465	1.9978169	1.4134415
24.4867631718525	1.9863839	1.4093913
24.504698136347656	1.9716285	1.4041469
24.52263371045192	1.9360895	1.3914343
24.540569894666874	1.9137661	1.3833894
24.558506689494266	1.9027231	1.3793923
24.57644409543597	1.938416	1.3922701
24.594382112994012	1.9784864	1.4065868
24.61232074267057	1.9703053	1.4036757
24.630259984967953	1.9140062	1.3834761
24.64819984038863	1.8769021	1.3700007
24.66614030943522	1.8894107	1.3745583
24.684081392610462	1.9521364	1.3971888
24.702023090417274	1.9887165	1.4102186
24.7199654033587	1.9779346	1.4063907
24.737908331937927	1.982125	1.4078796
24.755851876658305	2.0346189	1.4264007
24.773796038023324	2.071078	1.4391241
24.79174081653661	2.0779164	1.4414979
24.809686212701962	2.0582323	1.4346541
24.827632227023294	2.0830252	1.4432689
24.8455788600047	2.0983288	1.448561
24.8635261121504	2.1306272	1.4596668
24.88147398396475	2.1476493	1.465486
24.899422475952303	2.1313488	1.459914
24.917371588617698	2.0638092	1.4365964
24.935321322465768	2.091698	1.4462703
24.953271678001478	2.2239356	1.4912865
24.97122265572994	2.416976	1.5546627
24.989174256156414	2.7226932	1.6500585
25.00712647978632	3.1566122	1.7766857
25.02507932712521	3.7105927	1.9262899
25.043032798678798	4.2302594	2.0567594
25.060986894952933	4.8854356	2.210302
25.078941616453637	5.628461	2.3724377
25.096896963687055	6.5925193	2.5675902
25.114852937159508	7.7339044	2.78099
25.132809537377444	8.156796	2.8560107
25.150766764847468	8.131742	2.851621
25.168724620076347	7.570954	2.7515366
25.186683103570985	6.6605973	2.5808134
25.204642215838426	5.587748	2.3638418
25.222601957385894	4.318596	2.078123
25.24056232872074	3.3101957	1.8193944
25.25852333035048	2.6955702	1.6418192
25.276484962782778	2.2929387	1.5142453
25.294447226525435	2.1234188	1.4571955
25.312410122086423	2.0252116	1.4230993
25.330373649973843	2.0023263	1.4150357
25.348337810695988	1.9924928	1.4115568
25.366302604761245	1.9604968	1.4001774
25.384268032678207	1.9335306	1.3905145
25.40223409495558	1.9735932	1.4048463
25.420200792102257	1.9625298	1.4009032
25.438168124627246	1.9047612	1.3801309
25.45613609303974	1.859171	1.3635142
25.474104697849057	1.852116	1.3609247
25.492073939564698	1.867281	1.3664849
25.510043818696285	1.8705137	1.3676672
25.528014335753614	1.8659444	1.3659958
25.54598549124664	1.9263742	1.3879389
25.56395728568544	1.9543525	1.3979815
25.58192971958028	1.9398373	1.3927804
25.59990279344156	1.891013	1.3751411
25.617876507779833	1.8404572	1.3566345
25.635850863105826	1.8658222	1.3659511
25.653825859930386	1.9066778	1.380825
25.671801498764548	1.9360052	1.391404
25.68977778011949	1.9390048	1.3924816
25.707754704506524	1.9130557	1.3831326
25.725732272437153	1.8817434	1.3717666
25.743710484423012	1.8368573	1.3553071
25.761689340975888	1.8152441	1.34731
25.77966884260774	1.7676616	1.3295343
25.797648989830662	1.747814	1.3220491
25.815629783156922	1.7674718	1.329463
25.83361122309895	1.8101295	1.3454106
25.85159331016929	1.8250681	1.3509508
25.869576044880695	1.8437302	1.3578403
25.887559427746034	1.7977191	1.3407905
25.90554345927836	1.7328234	1.3163675
25.92352813999086	1.7357233	1.3174685
25.94151347039689	1.7812297	1.3346272
25.959499451009965	1.7493777	1.3226404
25.97748608234374	1.7293292	1.3150396
25.995473364912062	1.7652254	1.3286178
26.013461299228904	1.8097352	1.345264
26.03144988580839	1.822315	1.3499315
26.04943912516483	1.82888	1.3523608
26.067429017812675	1.8218375	1.3497546
26.085419564266537	1.8116597	1.3459791
26.103410765041186	1.7610888	1.3270602
26.12140262065155	1.7603856	1.3267952
26.139395131612723	1.7800183	1.3341733
26.157388298439948	1.822711	1.3500781
26.17538212164861	1.8197751	1.3489904
26.193376601754295	1.8179401	1.3483101
26.211371739272714	1.8099393	1.3453398
26.229367534719746	1.8111527	1.3457907
26.247363988611433	1.8313495	1.3532736
26.26536110146397	1.8513091	1.3606281
26.283358873793727	1.8585732	1.363295
26.301357306117204	1.7869661	1.3367745
26.319356398951104	1.7538664	1.3243362
26.33735615281224	1.740463	1.3192661
26.35535656821762	1.7664723	1.329087
26.373357645684404	1.7368265	1.3178872
26.39135938572991	1.7813092	1.334657
26.409361788871614	1.8076942	1.3445052
26.427364855627165	1.8172181	1.3480422
26.445368586514352	1.7824104	1.3350694
26.46337298205115	1.7326027	1.3162837
26.48137804275568	1.7084885	1.3070916
26.499383769146217	1.7449918	1.3209814
26.517390161741215	1.8414011	1.3569824
26.53539722105928	1.8707057	1.3677374
26.553404947619182	1.8581941	1.363156
26.571413341939856	1.8825735	1.372069
26.589422404540397	1.8724927	1.3683906
26.60743213594006	1.8080815	1.3446492
26.62544253665827	1.7789103	1.333758
26.64345360721459	1.7719898	1.331161
26.66146534812879	1.7641464	1.3282118
26.679477759920758	1.7984191	1.3410515
26.69749084311057	1.8551491	1.3620386
26.71550459821847	1.8553863	1.3621256
26.733519025764842	1.8699814	1.3674726
26.751534126270258	1.8350602	1.354644
26.769549900255434	1.7994622	1.3414403
26.787566348241267	1.7818924	1.3348755
26.80558347074881	1.8099375	1.3453392
26.823601268299267	1.8337159	1.3541477
26.841619741414036	1.8099455	1.3453422
26.85963889061465	1.8185565	1.3485386
26.877658716422832	1.8017994	1.3423113
26.89567921936045	1.8110876	1.3457665
26.913700399949544	1.7831314	1.3353394
26.93172225871233	1.7664644	1.329084
26.949744796171174	1.7317747	1.3159691
26.967768012848605	1.7858493	1.3363568
26.98579190926733	1.8086876	1.3448745
27.003816485950225	1.863713	1.3651787
27.021841743420318	1.8547959	1.3619089
27.039867682200814	1.8348835	1.3545787
27.057894302815072	1.8616463	1.3644216
27.07592160578664	1.8165936	1.3478107
27.0939495916392	1.7961679	1.3402119
27.111978260896635	1.7555828	1.3249841
27.13000761408296	1.7746557	1.332162
27.148037651722397	1.825749	1.3512028
27.166068374339304	1.8173232	1.3480814
27.184099782458215	1.7988431	1.3412095
27.20213187660384	1.7677681	1.3295745
27.22016465730105	1.773797	1.3318397
27.23819812507487	1.7848092	1.3359675
27.256232280450533	1.8302462	1.3528659
27.274267123953383	1.8652929	1.3657572
27.292302656108987	1.8624777	1.3647262
27.31033887744306	1.8543551	1.361747
27.32837578848146	1.8401705	1.3565289
27.34641338975026	1.8249093	1.3508921
27.364451681775673	1.8008525	1.3419585
27.382490665084074	1.770744	1.330693
27.400530340202046	1.7637292	1.3280547
27.41857070765629	1.7588806	1.326228
27.436611767973726	1.7510929	1.3232887
27.454653521681404	1.7511315	1.3233032
27.472695969306564	1.766093	1.3289443
27.490739111376627	1.7913235	1.3384033
27.508782948419153	1.8037713	1.3430455
27.526827480961902	1.8511227	1.3605597
27.54487270953279	1.8282046	1.3521112
27.562918634659898	1.8172742	1.3480631
27.580965256871508	1.8043282	1.3432529
27.599012576696026	1.8070533	1.3442669
27.617060594662068	1.8015567	1.3422208
27.63510931129842	1.7752218	1.3323745
27.65315872713401	1.739129	1.3187604
27.67120884269797	1.7627213	1.3276751
27.68925965851958	1.8005234	1.3418359
27.707311175128307	1.8355969	1.3548421
27.725363393053787	1.828995	1.3524034
27.74341631282583	1.8272294	1.3517505
27.7614699349744	1.8467345	1.3589461
27.77952426002968	2.0754232	1.4406329
27.797579288521973	2.1726866	1.4740036
27.815635020981784	2.656236	1.6297963
27.83369145793979	2.6570015	1.6300311
27.85174859992682	2.4349627	1.5604367
27.869806447473923	2.2449872	1.4983282
27.887865001112267	1.9638691	1.4013811
27.905924261373233	1.8879683	1.3740336
27.92398422878836	1.838542	1.3559284
27.94204490388936	1.797363	1.3406577
27.96010628720813	1.8222111	1.349893
27.978168379276728	1.8543463	1.3617438
27.9962311806274	1.8688394	1.367055
28.014294691792568	1.8999441	1.3783846
28.0323589133048	1.885796	1.3732429
28.050423845696887	1.8532593	1.3613447
28.068489489501758	1.8540038	1.361618
28.086555845252523	1.8574679	1.3628895
28.104622913482487	1.8758228	1.3696069
28.122690694725115	1.8841628	1.3726481
28.14075918951405	1.9068482	1.3808868
28.15882839838312	1.9044456	1.3800166
28.176898321866304	1.8691223	1.3671584
28.1949689604978	1.8329283	1.3538568
28.213040314811945	1.8291605	1.3524646
28.23111238534327	1.8407196	1.3567312
28.249185172626493	1.8563557	1.3624815
28.267258677196473	1.7895796	1.3377517
28.285332899588294	1.8378265	1.3556646
28.303407840337172	1.8848515	1.3728989
28.321483499978545	1.9207481	1.3859106
28.33955987904799	1.9312385	1.38969
28.357636978081285	1.92134	1.3861241
28.37571479761439	1.9129514	1.3830948
28.393793338183425	1.9425364	1.393749
28.41187260032469	1.9142308	1.3835573
28.429952584574686	1.9114307	1.382545
28.448033291470065	1.9701804	1.4036311
28.46611472154769	1.9712219	1.4040021
28.484196875344566	1.94964	1.3962951
28.502279753397914	1.9286273	1.3887502
28.52036335624511	1.9128085	1.3830432
28.538447684423716	1.9661272	1.4021865
28.556532738471482	1.9947201	1.4123456
28.574618518926325	1.992377	1.4115158
28.59270502632635	2.0120742	1.418476
28.61079226120985	2.0263646	1.4235044
28.628880224115274	2.0634046	1.4364556
28.646968915581287	2.0452552	1.4301242
28.66505833614671	2.0485468	1.4312745
28.68314848635055	2.084182	1.4436697
28.701239366732004	2.0873172	1.4447551
28.71933097783044	2.0624297	1.4361162
28.737423320185403	2.0274389	1.4238816
28.75551639433665	2.0754368	1.4406376
28.773610200824074	2.1498115	1.4662236
28.791704740187793	2.1769369	1.4754447
28.80980001296809	2.1157644	1.4545667
28.827896019705413	2.097119	1.4481434
28.845992760940433	2.1499486	1.4662703
28.86409023721397	2.1937501	1.4811313
28.88218844906704	2.1918979	1.480506
28.900287397040845	2.191846	1.4804884
28.918387081676755	2.1927805	1.480804
28.936487503516343	2.2071514	1.4856485
28.954588663101365	2.257891	1.502628
28.97269056097374	2.2652166	1.5050637
28.990793197675597	2.2911565	1.5136566
29.00889657374923	2.381573	1.5432346
29.027000689737125	2.4020953	1.5498694
29.04510554618196	2.4232624	1.5566832
29.06321114362659	2.452987	1.5662014
29.08131748261405	2.4836123	1.5759481
29.099424563687567	2.5159636	1.5861789
29.11753238739057	2.531668	1.5911216
29.13564095426663	2.4977195	1.5804175
29.15375026485954	2.546692	1.5958358
29.171860319713275	2.610815	1.6158017
29.18997111937199	2.6696827	1.6339164
29.20808266438002	2.7027712	1.6440107
29.226194955281898	2.7618773	1.6618897
29.244307992622335	2.804484	1.6746594
29.26242177694624	2.8446429	1.6866069
29.2805363087987	2.855499	1.6898222
29.29865158872498	2.859446	1.6909896
29.316767617270557	2.8443947	1.6865333
29.334884394981064	2.9489763	1.7172583
29.353001922402367	3.0544791	1.7477068
29.37112020008047	3.0850956	1.756444
29.389239228561596	3.0855699	1.756579
29.407359008392152	3.22946	1.7970698
29.42547954011872	3.582911	1.8928579
29.44360082428809	4.2373185	2.0584748
29.46172286144722	5.331157	2.30893
29.479845652143283	6.9641175	2.6389616
29.497969196923606	8.996862	2.999477
29.516093496335728	11.418968	3.3791964
29.5342185509274	14.077615	3.7520149
29.55234436124651	16.336792	4.0418797
29.570470927841175	17.47644	4.1804833
29.588598251259686	17.135353	4.1394873
29.60672633205055	15.804924	3.9755406
29.624855170762405	13.803776	3.7153432
29.642984767944146	11.190008	3.345147
29.66111512414481	8.633466	2.938276
29.67924623991366	6.4660935	2.5428514
29.697378115800138	5.0256224	2.24179
29.71551075235387	4.1565323	2.0387576
29.733644150124675	3.7215846	1.9291409
29.751778309662576	3.5366352	1.8805944
29.769913231517766	3.4067192	1.84573
29.78804891624066	3.2548501	1.8041203
29.806185364381818	3.240788	1.8002188
29.82432257649206	3.2742922	1.8095006
29.842460553122333	3.2001553	1.7888978
29.86059929482382	3.2128572	1.7924445
29.878738802147872	3.2506871	1.8029662
29.896879075646048	3.3070843	1.818539
29.915020115870114	3.2622867	1.8061801
29.933161923371976	3.2427096	1.8007525
29.951304498703777	3.2075856	1.7909733
29.969447842417857	3.210744	1.7918549
29.987591955066733	3.2288885	1.7969109
30.005736837203123	3.1923325	1.78671
30.023882489379943	3.161143	1.7779604
30.04202891215028	3.1870887	1.785242
30.060176106067455	3.1869519	1.7852036
30.078324071684946	3.1144257	1.7647735
30.09647280955646	3.1126814	1.7642792
30.114622320235863	3.150343	1.7749206
30.132772604277257	3.0537786	1.7475064
30.1509236622349	2.9475458	1.7168418
30.16907549466328	3.0306106	1.7408649
30.18722810211705	3.1451426	1.773455
30.205381485151097	3.14132	1.7723769
30.22353564432045	3.1484716	1.7743933
30.241690580180403	3.1502054	1.7748818
30.25984629328638	3.0620735	1.7498782
30.278002784194037	2.9949746	1.7305995
30.296160053459246	3.0411813	1.7438983
30.314318101638033	3.0014167	1.7324597
30.332476929286646	2.943861	1.7157683
30.35063653696153	2.9806538	1.726457
30.368796925219307	3.0408766	1.7438109
30.386958094616844	3.0300434	1.740702
30.40512004571115	3.0300975	1.7407175
30.423282779059463	2.919063	1.7085266
30.441446295219233	2.7785258	1.6668911
30.459610594748067	2.7682295	1.6637998
30.47777567820382	2.8285632	1.6818333
30.495941546144504	2.8516326	1.6886778
30.51410819912835	2.8226168	1.6800646
30.532275637713795	2.827979	1.6816596
30.55044386245946	2.8804345	1.6971843
30.56861287392416	2.9186609	1.7084088
30.586782672666956	2.8465998	1.687187
30.604953259247047	2.791912	1.6709015
30.623124634223885	2.745849	1.6570603
30.641296798157075	2.7266138	1.6512461
30.659469751606462	2.729162	1.6520176
30.677643495132074	2.7978697	1.6726834
30.695818029294152	2.7377937	1.6546279
30.713993354653116	2.6690872	1.6337341
30.73216947176962	2.684161	1.638341
30.75034638120448	2.6773176	1.6362511
30.768524083518756	2.6748755	1.6355046
30.786702579273673	2.7178411	1.6485876
30.80488186903069	2.7982547	1.6727985
30.82306195335144	2.9352052	1.7132441
30.841242832797782	3.109998	1.7635187
30.85942450793176	3.3860893	1.840133
30.877606979315637	3.700737	1.92373
30.895790247511883	3.9271605	1.9817065
30.913974313083134	4.261906	2.0644383
30.932159176592283	4.626384	2.150903
30.95034483860237	4.8131638	2.1938925
30.968531299676698	4.6804304	2.1634302
30.98671856037873	4.270551	2.0665312
31.00490662127215	3.7770228	1.9434564
31.023095482920848	3.4210253	1.8496014
31.04128514588892	3.0770726	1.7541586
31.059475610740662	2.7683082	1.6638234
31.07766687804056	2.6090114	1.6152434
31.09585894835335	2.5306518	1.5908023
31.11405182224393	2.5008476	1.5814068
31.132245500277417	2.4920053	1.5786086
31.15043998301914	2.4485986	1.5647999
31.168635271034628	2.480274	1.5748886
31.18683136488964	2.461806	1.5690143
31.20502826515008	2.5173602	1.5866191
31.223225972382135	2.521012	1.5877695
31.241424487152155	2.4585402	1.5679733
31.259623810026692	2.4447072	1.563556
31.27782394157253	2.4870825	1.5770487
31.296024882356644	2.4875727	1.5772041
31.314226632946237	2.474004	1.5728967
31.332429193908684	2.445833	1.5639158
31.350632565811598	2.4348307	1.5603944
31.368836749222787	2.416878	1.5546311
31.387041744710295	2.4182305	1.5550661
31.40524755284232	2.4532347	1.5662805
31.423454174187317	2.4878285	1.5772852
31.441661609313922	2.4971292	1.5802307
31.459869858791002	2.4559205	1.5671377
31.478078923187628	2.4173276	1.5547757
31.496288803073064	2.3095846	1.5197318
31.514499499016807	2.3196788	1.5230491
31.532711011588546	2.358016	1.5355833
31.550923341358178	2.3710487	1.539821
31.56913648889584	2.3501906	1.5330331
31.587350454771844	2.2899594	1.5132612
31.605565239556732	2.1987238	1.4828094
31.62378084382127	2.1877425	1.4791019
31.641997268136382	2.2259638	1.4919665
31.660214513073274	2.206439	1.4854087
31.67843257920331	2.1893384	1.4796413
31.6966514670981	2.2643785	1.5047852
31.71487117732944	2.281163	1.5103519
31.733091710469346	2.2756567	1.508528
31.751313067090052	2.3071294	1.5189238
31.769535247764008	2.2762055	1.5087099
31.787758253063878	2.274344	1.5080929
31.805982083562526	2.2709742	1.5069752
31.824206739833024	2.2804809	1.5101261
31.84243222244869	2.2228239	1.4909137
31.860658531983013	2.1623988	1.4705098
31.878885669009737	2.1656063	1.4715999
31.897113634102784	2.1480632	1.4656272
31.91534242783632	2.2327566	1.4942411
31.933572050784694	2.293536	1.5144424
31.951802503522508	2.2655823	1.5051851
31.970033786624548	2.1880307	1.4791994
31.988265900665834	2.1892345	1.4796062
32.006498846221575	2.1657279	1.4716412
32.02473262386724	2.151265	1.4667192
32.04296723417845	2.2048655	1.4848789
32.0612026777311	2.1904218	1.4800074
32.07943895510129	2.1902456	1.4799478
32.097676066865304	2.1741788	1.4745097
32.115914013599685	2.132807	1.4604133
32.13415279588115	2.0664856	1.4375277
32.152392414286666	2.0103447	1.4178662
32.1706328693934	1.9548903	1.3981739
32.18887416177875	2.0135214	1.4189861
32.20711629202032	2.0500314	1.4317931
32.225359260695924	2.0436597	1.4295663
32.243603068383614	2.0947173	1.4473138
32.26184771566166	2.2150397	1.4883009
32.28009320310852	2.2170992	1.4889927
32.2983395313029	2.1412861	1.4633135
32.31658670082372	2.0755987	1.4406939
32.33483471225012	1.9723197	1.404393
32.35308356616143	2.041894	1.4289485
32.371333263137245	2.099494	1.448963
32.38958380375734	2.097453	1.4482586
32.407835188601744	2.0797877	1.4421469
32.42608741825067	2.1211212	1.456407
32.444340493284585	2.140494	1.4630427
32.46259441428416	2.1900377	1.4798776
32.48084918183028	2.1140432	1.453975
32.49910479650405	2.1480672	1.4656286
32.51736125888683	2.1084092	1.4520363
32.53561856956014	2.0516531	1.4323593
32.5538767291058	2.0399158	1.4282562
32.572135738105764	2.0820146	1.4429188
32.59039559714228	2.0873423	1.4447638
32.608656306797776	2.0399692	1.4282749
32.62691786765491	1.9803388	1.4072452
32.645180280296586	1.9316032	1.3898213
32.663443545305896	1.9074366	1.3810998
32.68170766326619	1.9712915	1.4040269
32.69997263476099	2.0137916	1.4190812
32.7182384603741	1.9817256	1.4077377
32.7365051406895	2.0598047	1.435202
32.75477267629144	2.0708332	1.439039
32.77304106776434	2.0290914	1.4244617
32.79131031569289	2.0300343	1.4247928
32.809580420661966	1.9899412	1.4106528
32.827851383256714	2.008768	1.4173101
32.84612320406245	2.0615036	1.4357938
32.86439588366476	2.0630412	1.4363291
32.88266942264945	2.0596335	1.4351423
32.9009438216025	2.0174074	1.4203547
32.9192190811102	1.9787883	1.406694
32.937495201758985	2.0352452	1.4266202
32.95577218413556	2.0923831	1.4465072
32.974050028826866	2.1030567	1.450192
32.992328736420035	2.0101557	1.4177996
33.010608307502444	1.939822	1.3927749
33.02888874266169	1.9619812	1.4007074
33.047170042485604	1.9247631	1.3873583
33.06545220756225	1.9396427	1.3927106
33.083735238479896	1.9509195	1.3967532
33.10201913582707	2.0323908	1.4256195
33.12030390019248	2.0762315	1.4409134
33.138589532165135	2.0701253	1.4387931
33.15687603233419	2.0700123	1.4387537
33.17516340128909	2.0090084	1.417395
33.19345163961947	1.9737539	1.4049035
33.211740747915215	1.926265	1.3878995
33.23003072676643	2.0181549	1.4206178
33.248321576763466	1.9706266	1.4037901
33.266613298496885	1.9016083	1.3789881
33.28490589255747	1.8789196	1.3707368
33.30319935953626	1.9128355	1.383053
33.32149370002451	1.9226308	1.3865896
33.339788914613706	1.9056313	1.3804461
33.358085003895575	1.9894822	1.41049
33.376381968462034	1.9695367	1.4034019
33.39467980890529	1.96428	1.4015278
33.41297852581774	1.9735135	1.4048179
33.43127811979204	2.0124733	1.4186167
33.44957859142105	1.9892005	1.4103901
33.467879941297866	1.9675733	1.4027021
33.486182170015844	1.8898169	1.3747061
33.50448527816853	1.7798808	1.3341217
33.522789266349754	1.7887583	1.3374447
33.541094135153514	1.8402164	1.3565458
33.55939988517411	1.831045	1.3531611
33.57770651700602	1.8131982	1.3465505
33.59601403124398	1.7748201	1.3322238
33.61432242848296	1.8370628	1.3553829
33.632631709318154	2.0079162	1.4170096
33.650941874344994	2.1108167	1.452865
33.66925292415916	2.0212677	1.4217129
33.68756485935654	1.8552785	1.362086
33.70587768053328	1.8735375	1.3687723
33.724191388285746	1.8988414	1.3779845
33.74250598321054	1.8677241	1.366647
33.760821465904506	1.7535408	1.3242133
33.77913783696474	1.8152474	1.3473111
33.79745509698852	1.8364037	1.3551397
33.815773246573414	1.9782017	1.4064856
33.8340922863172	2.0904691	1.4458455
33.852412216817896	2.0686083	1.4382657
33.87073303867377	2.0190918	1.4209476
33.889054752483304	1.957128	1.398974
33.907377358845245	1.9737322	1.4048958
33.92570085835853	1.9676147	1.4027169
33.94402525162239	2.0029252	1.4152474
33.96235053923627	1.9801277	1.40717
33.980676721799824	1.9840128	1.4085499
33.999003799912984	2.0213401	1.4217384
34.01733177417592	1.963221	1.4011499
34.03566064518901	1.86881	1.3670443
34.0539904135529	1.784969	1.3360273
34.07232107986846	1.8746873	1.3691922
34.090652644736785	1.9957036	1.4126937
34.108985108759235	1.9671499	1.4025512
34.12731847253742	1.9171543	1.3846134
34.14565273667313	1.9410646	1.3932209
34.16398790176847	1.9038445	1.3797987
34.18232396842574	1.9420897	1.3935888
34.20066093724749	1.8332467	1.3539745
34.21899880883651	1.8127466	1.3463829
34.23733758379583	1.8180773	1.348361
34.25567726272874	1.8731676	1.3686372
34.27401784623872	1.8446378	1.3581744
34.29235933492957	1.8695228	1.3673049
34.31070172940526	1.8936032	1.3760825
34.32904503027003	1.8438144	1.3578713
34.347389238128386	1.957565	1.3991301
34.36573435358502	1.9012455	1.3788565
34.38408037724492	1.9106781	1.3822728
34.402427309713296	2.0355294	1.4267198
34.42077515159559	1.9932399	1.4118215
34.43912390349752	1.9833297	1.4083073
34.45747356602499	2.0310073	1.4251342
34.47582413978423	1.9804662	1.4072903
34.49417562538163	1.897212	1.3773932
34.51252802342388	1.8221846	1.3498832
34.53088133451789	1.7985449	1.3410984
34.54923555927084	1.8359382	1.354968
34.567590698290104	1.9533964	1.3976396
34.58594675218336	2.1479754	1.4655973
34.6043037215585	2.2229383	1.4909521
34.62266160702365	2.1667862	1.4720007
34.641020409187234	1.9507059	1.3966768
34.65938012865785	1.7806015	1.3343918
34.677740766044394	1.8573197	1.3628352
34.69610232195598	1.9505954	1.3966372
34.714464797002016	1.8945723	1.3764346
34.73282819179208	1.8805676	1.3713379
34.751192506936064	1.8218142	1.349746
34.76955774304408	1.7227454	1.312534
34.7879239007265	1.743437	1.3203927
34.80629098059391	1.8703699	1.3676146
34.824658983257194	1.9765259	1.4058897
34.843027909327446	1.9575946	1.3991407
34.86139775941603	1.9359841	1.3913965
34.879768534134534	2.040087	1.4283161
34.89814023409483	1.9531713	1.397559
34.91651285990901	1.8735319	1.3687702
34.93488641218944	2.0120704	1.4184747
34.95326089154871	2.1331708	1.4605379
34.97163629859967	2.0577784	1.4344958
34.99001263395542	2.0180316	1.4205744
35.00838989822934	1.8753585	1.3694373
35.02676809203499	1.7657512	1.3288157
35.04514721598624	1.7295783	1.3151343
35.063527270697215	1.9197307	1.3855435
35.081908256782256	1.9358089	1.3913335
35.10029017485597	1.8507344	1.360417
35.11867302553321	2.1041636	1.4505736
35.137056809429104	1.9884698	1.4101311
35.155441527159006	1.8807793	1.371415
35.173827179338524	2.070565	1.4389458
35.19221376658354	2.1400974	1.4629072
35.21060128951017	2.0962424	1.4478406
35.2289897487348	1.864434	1.3654428
35.24737914487405	1.8402483	1.3565575
35.26576947854479	1.9771348	1.4061062
35.28416075036418	1.8641295	1.3653313
35.30255296094958	1.8425926	1.3574213
35.32094611091867	2.0017552	1.414834
35.33934020088932	2.172758	1.4740279
35.35773523147969	2.3048973	1.5181888
35.3761312033082	2.3409193	1.5300063
35.394528116993506	2.0960252	1.4477656
35.41292597315452	2.0183444	1.4206845
35.431324772410434	2.1233864	1.4571844
35.449724515380666	2.1155002	1.4544759
35.46812520268491	2.112153	1.4533248
35.486526834943106	1.9941319	1.4121374
35.504929412775454	1.6944693	1.3017179
35.52333293680242	1.6947379	1.301821
35.54173740764471	1.7966089	1.3403764
35.560142825923286	1.9456687	1.3948723
35.5785491922594	1.8441476	1.357994
35.59695650727454	1.8515904	1.3607316
35.61536477159042	2.20624	1.4853417
