0.008763373481513119	0.0	0.0
0.026290120649546365	0.0	0.0
0.043816868432600686	0.0	0.0
0.06134361724069026	0.116039455	0.34064564
0.07887036748382949	0.1502021	0.38755915
0.0963971195720331	0.2210692	0.47017998
0.11392387391531617	0.20862222	0.45675182
0.1314506309236943	0.12674369	0.3560108
0.1489773910071836	0.09879678	0.31431955
0.16650415457580078	0.062273923	0.24954744
0.18403092203956356	0.08845214	0.29740903
0.20155769380849	0.10380484	0.3221876
0.2190844702925996	0.13127284	0.36231592
0.2366112519019124	0.13510552	0.36756703
0.2541380390464497	0.14699793	0.3834031
0.27166483213623416	0.11669758	0.34161028
0.28919163158128947	0.13242681	0.36390495
0.3067184377916406	0.1542254	0.39271542
0.324245251177314	0.22354993	0.4728107
0.34177207214833777	0.26247415	0.5123223
0.3592989011147415	0.25312275	0.50311303
0.37682573848655654	0.17807464	0.4219889
0.39435258467381573	0.17567518	0.41913623
0.41187944008655414	0.18722577	0.43269593
0.42940630513480854	0.19180423	0.4379546
0.446933180228618	0.19386128	0.4402968
0.4644600657780234	0.1588503	0.3985603
0.48198696219306775	0.1426796	0.37772954
0.49951386988379676	0.14030561	0.37457392
0.5170407892602581	0.12974948	0.36020756
0.5345677207325025	0.1388555	0.3726332
0.5520946647105822	0.15806405	0.3975727
0.5696216216045534	0.15252079	0.3905391
0.5871485918244737	0.13628204	0.369164
0.6046755757804043	0.14752308	0.38408732
0.6222025738824094	0.13318023	0.36493868
0.6397295865405557	0.16472909	0.40586832
0.6572566141649129	0.2164761	0.46526992
0.6747836571655547	0.2376322	0.48747534
0.6923107159525568	0.2521595	0.5021549
0.7098377909359992	0.22952339	0.47908598
0.7273648825259653	0.19842178	0.4454456
0.7448919911325411	0.20877516	0.4569192
0.762419117165817	0.19743717	0.44433904
0.7799462610358868	0.19158393	0.437703
0.7974734231528482	0.16588531	0.40729022
0.8150006039268024	0.16153815	0.40191808
0.8325278037678551	0.16119532	0.40149137
0.8500550230861152	0.19652046	0.4433063
0.8675822622916969	0.21274339	0.46124113
0.8851095217947171	0.20580187	0.4536539
0.9026368020052984	0.20405318	0.45172244
0.9201641033335665	0.19657579	0.44336867
0.9376914261896523	0.20540228	0.45321327
0.9552187709836915	0.21798697	0.46689075
0.9727461381258234	0.21259455	0.46107978
0.990273528026193	0.22537857	0.47474054
1.0078009410949496	0.23166516	0.4813161
1.0253283777422473	0.2412024	0.49112362
1.0428558383782454	0.23041739	0.4800181
1.0603833234131086	0.24088989	0.49080536
1.0779108332570058	0.2856163	0.5344308
1.0954383683201119	0.34317	0.58580714
1.112965929012607	0.37803712	0.61484724
1.1304935157446763	0.49089092	0.7006361
1.1480211289265108	0.4902718	0.7001941
1.1655487689683062	1.4505693	1.2043958
1.1830764362802655	1.8242494	1.3506478
1.200604131272596	2.1395829	1.4627314
1.2181318543555117	2.261683	1.5038893
1.235659605939232	2.2784421	1.5094509
1.253187386433982	3.9782798	1.9945625
1.270715196249994	6.3366966	2.5172796
1.2882430357975057	11.899379	3.4495475
1.3057709054867608	16.83628	4.103204
1.3232988057280106	22.709585	4.7654576
1.3408267369315112	27.780712	5.270741
1.358354699507526	31.183184	5.5841904
1.3758826938663256	35.12606	5.9267244
1.3934107204181858	36.95657	6.0791917
1.410938779573391	37.44968	6.1196146
1.4284668717422309	37.859768	6.153029
1.4459949973350033	37.3459	6.1111293
1.4635231567620117	37.344643	6.1110263
1.4810513504335687	36.42564	6.0353656
1.4985795787599925	36.04856	6.0040455
1.5161078421516088	35.512268	5.959217
1.5336361410187505	35.26062	5.9380655
1.5511644757717598	35.39601	5.949455
1.5686928468209842	36.058617	6.004883
1.58622125457678	35.96305	5.99692
1.6037496994495108	37.041924	6.086208
1.621278181849548	37.01823	6.084261
1.6388067021872719	37.935352	6.1591682
1.6563352608730693	37.434322	6.1183596
1.673863858317336	36.442398	6.036754
1.6913924949304753	35.860653	5.9883766
1.7089211711228998	35.012096	5.917102
1.7264498873050296	34.104275	5.8398867
1.7439786438872935	33.079575	5.7514844
1.7615074412801288	31.930847	5.6507387
1.779036279893981	31.4501	5.608039
1.796565160139305	30.413788	5.5148697
1.814094082426564	29.446161	5.4264317
1.8316230471662298	28.538479	5.3421416
1.849152054768784	27.913393	5.283313
1.8666811056447168	28.015856	5.2930007
1.8842102002045273	27.587233	5.252355
1.901739338858724	26.847654	5.1814723
1.9192685220178245	25.94529	5.093652
1.9367977500923557	25.061226	5.006119
1.9543270234928547	24.664198	4.966306
1.971856342629867	23.747168	4.8731065
1.9893857079139496	23.023975	4.7983303
2.006915119755667	22.296835	4.7219524
2.0244445785655945	21.641848	4.65208
2.0419740847543175	21.341164	4.61965
2.0595036387324317	20.896833	4.5713053
2.0770332409105414	20.617228	4.54062
2.094562891699263	20.301397	4.5057073
2.1120925915092217	19.958607	4.4675055
2.129622340751053	19.610302	4.428352
2.1471521398354043	187.79266	13.703747
2.1646819891729323	444.35544	21.07974
2.182211889174303	440.79813	20.995193
2.1997418402501974	453.16733	21.287727
2.2172718428113023	432.9031	20.806324
2.234801897268317	320.81244	17.911238
2.2523320040319548	17.183067	4.1452465
2.269862163512935	16.873106	4.1076884
2.287392376121992	16.686977	4.0849695
2.304922642269869	16.261028	4.0324965
2.322452962367322	16.06073	4.007584
2.3399833368251164	15.644922	3.9553664
2.357513766054032	15.255971	3.9058893
2.3750442504648586	15.025581	3.8762844
2.3925747904683963	14.778995	3.8443458
2.410105386475459	14.605559	3.821722
2.4276360388968707	14.230773	3.7723696
2.445166748143469	14.091002	3.7537985
2.4626975146261025	13.597488	3.6874774
2.4802283387556323	13.497919	3.6739514
2.4977592209429305	13.17206	3.6293333
2.5152901615988825	12.901849	3.5919144
2.5328211611343865	12.682741	3.5612836
2.5503522199603523	12.52474	3.539031
2.5678833384877024	12.446189	3.5279157
2.5854145171273712	12.3528805	3.5146666
2.6029457562903064	12.11091	3.4800735
2.620477056387469	11.929574	3.4539216
2.6380084178298326	11.750621	3.427918
2.655539841028383	11.516276	3.393564
2.673071326394119	11.374385	3.3725932
2.6906028743380523	11.018149	3.3193598
2.708134485271211	10.804242	3.2869806
2.7256661596046325	10.62159	3.259078
2.743197897749369	10.512855	3.2423532
2.760729700116486	10.491603	3.2390745
2.778261567117063	10.437426	3.2307005
2.795793499162193	10.357711	3.2183397
2.8133254966629817	10.156907	3.1869903
2.830857560030551	9.952886	3.1548195
2.8483896896760337	9.763158	3.1246052
2.865921886010578	9.597686	3.0980132
2.883454149445347	9.539543	3.0886152
2.9009864803915177	9.440415	3.072526
2.91851887926028	9.264232	3.04372
2.9360513464628384	9.142519	3.02366
2.953583882410413	8.950854	2.991798
2.9711164875142373	8.846207	2.9742572
2.9886491621855606	8.738299	2.9560614
3.0061819068356455	8.6708355	2.9446282
3.023714721875769	8.506404	2.916574
3.041247607717225	8.3614855	2.8916233
3.0587805647713213	8.215118	2.8662028
3.0763135934493806	8.0934105	2.844892
3.0938466941627407	8.006436	2.8295648
3.1113798673227544	7.9753137	2.8240597
3.1289131133407904	7.8083277	2.7943385
3.1464464326282315	7.7483172	2.7835798
3.1639798255964786	7.614018	2.759351
3.1815132926569443	7.5819817	2.7535398
3.1990468342210603	7.473413	2.7337544
3.216580450700272	7.505857	2.739682
3.2341141425060416	7.463128	2.7318726
3.251647910049847	7.5352554	2.745042
3.2691817537431813	7.307362	2.7032132
3.286715673997555	7.14675	2.6733406
3.3042496712244938	7.019856	2.649501
3.32178374583554	6.930445	2.6325738
3.339317898242251	6.9155297	2.6297395
3.3568521288562034	6.9171515	2.6300478
3.3743864380889876	6.8106685	2.6097257
3.3919208263522127	6.7590594	2.5998192
3.4094552940575023	6.619646	2.5728674
3.4269898416164972	6.579863	2.5651243
3.444524469440858	6.4678154	2.54319
3.4620591779422587	6.4956374	2.548654
3.479593967532391	6.4639983	2.5424395
3.4971288386229658	6.4989448	2.5493028
3.5146637916257086	6.5016646	2.5498362
3.5321988269523628	6.4736047	2.544328
3.5497339450146903	6.3958044	2.5289927
3.5672691462244708	6.3133864	2.5126452
3.5848044309934988	6.216141	2.4932191
3.60233979973359	6.16577	2.4830968
3.619875252856575	6.1514254	2.4802067
3.6374107907743034	6.2416506	2.4983296
3.6549464138986427	6.280381	2.506069
3.6724821226414788	6.23927	2.497853
3.690017917414714	6.2202725	2.4940474
3.7075537986302702	6.2634444	2.5026875
3.7250897667000857	6.2611194	2.5022228
3.7426258220361235	6.4525747	2.540192
3.7601619650503553	6.7369237	2.5955584
3.777698196154779	7.296547	2.7012122
3.7952345157614067	8.409686	2.899946
3.8127709242822716	9.121998	3.0202646
3.830307422129425	11.165727	3.3415155
3.847844009714936	29.874338	5.465742
3.8653806874508954	97.42283	9.8703
3.882917455749409	96.89356	9.843452
3.900454315022606	96.856026	9.841546
3.917991265682631	41.52869	6.444276
3.9355283081416506	11.106954	3.3327096
3.9530654428118495	8.829963	2.9715254
3.970602670105433	7.5186043	2.7420073
3.9881399904346244	6.647648	2.5783033
4.005677404211669	6.5800915	2.5651689
4.023214911848827	6.495102	2.548549
4.0407525137583855	6.4754863	2.5446978
4.058290210352644	6.471465	2.5439074
4.075828002043927	6.422059	2.5341783
4.0933658892445814	6.3170824	2.5133808
4.110903872366966	6.2872305	2.507435
4.128441951823468	6.1580787	2.4815476
4.145980128026488	6.166364	2.4832165
4.163518401388452	6.125253	2.4749248
4.181056772321807	6.088579	2.4675047
4.1985952412390155	6.061428	2.4619968
4.216133808552567	6.075609	2.464875
4.233672474674966	6.143202	2.4785483
4.251211240018741	6.4357224	2.5368726
4.268750104996445	6.6860843	2.5857463
4.286289070020643	7.4789734	2.7347713
4.303828135503928	9.055319	3.0092056
4.3213673018589125	29.183456	5.4021716
4.3389065694982305	90.41836	9.508857
4.356445938834537	165.78369	12.875702
4.3739854102805085	171.6152	13.100199
4.391524984248844	172.55008	13.135832
4.409064661152262	136.67523	11.690818
4.426604441403504	97.04841	9.8513155
4.444144325415337	75.894356	8.711737
4.461684313600543	21.91735	4.681597
4.47922440637193	22.155209	4.706932
4.496764604142329	20.424374	4.5193334
4.5143049073245916	18.769867	4.3324203
4.531845316331589	16.581718	4.072066
4.5493858315762195	13.651505	3.6947944
4.566926453471405	11.273356	3.3575819
4.584467182430081	9.34792	3.057437
4.602008018865218	8.195919	2.8628516
4.619548963189798	7.5190687	2.7420921
4.637090015816834	7.0400596	2.653311
4.654631177159353	6.8618665	2.6195164
4.672172447630417	6.658188	2.5803463
4.689713827643102	6.516802	2.5528028
4.7072553176105085	6.2751346	2.5050218
4.724796917945764	5.976625	2.4447136
4.742338629062015	5.836564	2.415898
4.759880451372434	5.6844215	2.3842025
4.777422385290215	5.6735916	2.38193
4.794964431228581	5.6899457	2.3853607
4.812506589600768	5.6591067	2.3788877
4.830048860820047	5.5900235	2.3643231
4.847591245299709	5.482944	2.3415687
4.8651337434530655	5.4653344	2.3378055
4.882676355693457	5.5660567	2.359249
4.900219082434242	5.635546	2.3739305
4.917761924088813	5.652037	2.3774014
4.935304881070575	5.6665587	2.3804536
4.952847953792969	5.581927	2.36261
4.970391142669449	5.512785	2.347932
4.9879344481135055	5.5223794	2.3499744
5.005477870538642	5.468994	2.338588
5.023021410358394	5.519526	2.3493671
5.040565067986324	5.4339085	2.3310745
5.05810884383601	5.4678006	2.338333
5.075652738321066	5.443139	2.3330536
5.09319675185512	5.4756765	2.3400164
5.110740884851836	5.481815	2.3413277
5.128285137724894	5.435125	2.3313355
5.145829510888007	5.3239255	2.3073633
5.163374004754908	5.324706	2.3075325
5.1809186197393595	5.359977	2.3151624
5.198463356255145	5.4133377	2.326658
5.216008214716077	5.418902	2.3278534
5.233553195535998	5.3245006	2.307488
5.251098299128764	5.3246984	2.3075309
5.268643525908272	5.362235	2.31565
5.286188876288432	5.295296	2.301151
5.3037343506831895	5.228135	2.2865117
5.32127994950651	5.128434	2.2646046
5.3388256731723915	5.0971527	2.2576876
5.356371522094851	5.108406	2.2601783
5.373917496687938	5.1185026	2.2624109
5.391463597365729	5.128059	2.2645218
5.40900982454232	5.155425	2.2705562
5.426556178631843	5.1556797	2.2706122
5.444102660048449	5.056859	2.2487462
5.4616492692063225	5.010372	2.2383862
5.479196006519669	5.0323305	2.2432857
5.496742872402727	5.058127	2.249028
5.514289867269756	5.1167	2.2620125
5.531836991535049	5.1345644	2.2659578
5.549384245612924	5.1698494	2.2737303
5.566931629917724	5.1574187	2.2709951
5.584479144863822	5.206223	2.281715
5.6020267908656205	5.264118	2.2943666
5.619574568337545	5.2734523	2.2963998
5.637122477694054	5.1984906	2.2800198
5.654670519349629	5.1131554	2.2612288
5.672218693718784	5.07282	2.2522922
5.689767001216059	5.136698	2.2664285
5.707315442256021	5.220206	2.284777
5.724864017253266	5.299504	2.3020651
5.7424127266224225	5.250718	2.2914445
5.75996157077814	5.1966023	2.2796056
5.777510550135105	5.1598964	2.2715406
5.795059665108022	5.246175	2.290453
5.812608916111639	5.2503343	2.2913609
5.830158303560715	5.3797274	2.319424
5.847707827870055	5.412846	2.3265524
5.86525748945448	5.493468	2.3438148
5.8828072887288485	5.5517807	2.3562217
5.900357226108044	5.503909	2.3460412
5.917907302006979	5.64068	2.3750114
5.9354575168406	6.1898775	2.4879465
5.9530078710238765	6.761169	2.6002247
5.970558364971812	7.2511306	2.6927924
5.988108999099438	7.5294704	2.743988
6.005659773821818	8.067444	2.8403246
6.023210689554039	7.7964735	2.7922165
6.040761746711227	8.206991	2.8647847
6.058312945708531	7.5627966	2.750054
6.075864286961132	7.1973877	2.6827948
6.093415770884244	6.5504932	2.5593932
6.1109673978931065	6.015193	2.452589
6.128519168402993	5.4253607	2.3292403
6.146071082829204	5.2823696	2.2983406
6.163623141587075	5.219506	2.2846239
6.181175345091969	5.2502623	2.2913451
6.198727693759281	5.2759438	2.2969422
6.216280188004435	5.2001214	2.2803774
6.233832828242885	5.1637173	2.2723813
6.251385614890126	5.125049	2.2638571
6.268938548361669	5.139177	2.2669752
6.286491629073067	5.1234455	2.2635028
6.304044857439898	5.1385484	2.2668366
6.321598233877777	5.0523314	2.247739
6.339151758802344	5.005048	2.2371964
6.356705432629277	4.90187	2.2140167
6.37425925577428	4.912175	2.2163427
6.391813228653095	4.902824	2.2142322
6.409367351681486	4.9810457	2.2318256
6.426921625275259	5.0132985	2.2390397
6.44447604985025	5.0328197	2.2433946
6.46203062582232	5.083702	2.2547066
6.47958535360737	5.0775266	2.2533367
6.497140233621328	5.099544	2.258217
6.514695266280161	5.08507	2.25501
6.532250451999859	5.0753493	2.2528536
6.549805791196454	4.9832315	2.2323153
6.567361284286002	5.0022078	2.2365615
6.584916931684597	5.0163608	2.2397234
6.602472733808367	5.028391	2.2424073
6.6200286910734665	5.0108337	2.2384892
6.637584803896092	5.012469	2.2388544
6.655141072692462	4.950666	2.2250092
6.672697497878842	5.022748	2.2411487
6.690254079871514	4.965762	2.228399
6.707810819086808	4.933882	2.2212343
6.725367715941078	4.8590837	2.2043328
6.742924770850719	4.8561234	2.2036614
6.760481984232151	4.922589	2.2186909
6.778039356501836	4.946454	2.2240624
6.795596888076266	5.005129	2.2372146
6.813154579371963	5.006633	2.2375507
6.830712430805492	4.983497	2.2323747
6.84827044279344	4.9837914	2.2324407
6.865828615752445	4.953923	2.2257411
6.883386950099159	4.959014	2.2268844
6.900945446250287	4.9957824	2.2351246
6.918504104622553	5.0711594	2.2519236
6.936062925632727	5.1003594	2.2583976
6.953621909697607	5.0515623	2.2475681
6.971181057234028	5.0164747	2.2397487
6.988740368658859	5.0440116	2.2458878
7.006299844389007	5.1376867	2.2666466
7.023859484841407	5.2150965	2.2836585
7.041419290433036	5.2981977	2.3017814
7.058979261580902	5.3784294	2.319144
7.0765393987020495	5.735095	2.394806
7.094099702213559	6.1546617	2.480859
7.111660172532549	6.5164638	2.5527365
7.129220810076164	6.836343	2.61464
7.146781615261595	7.4653063	2.7322712
7.16434258850606	7.706083	2.7759833
7.181903730226821	8.222382	2.8674695
7.1994650408411704	8.208676	2.8650787
7.217026520766437	8.2714205	2.8760078
7.234588170419983	8.529436	2.9205198
7.252149990219215	8.491068	2.9139438
7.269711980581568	8.372806	2.89358
7.2872741419245175	8.1623745	2.856987
7.304836474665574	7.799881	2.7928267
7.322398979222286	7.520683	2.7423863
7.339961656012233	7.2654853	2.6954565
7.357524505453039	6.899787	2.6267445
7.375087527962357	6.6641483	2.5815012
7.392650723957886	6.3971043	2.5292497
7.410214093857353	6.0037413	2.4502532
7.427777638078528	5.7926145	2.406785
7.445341357039213	5.634652	2.373742
7.4629052511572525	5.530725	2.3517494
7.480469320850524	5.432275	2.330724
7.498033566536948	5.3660903	2.3164823
7.5155979886344735	5.2674785	2.2950988
7.5331625875610975	5.1944585	2.2791355
7.550727363734844	5.1598063	2.2715206
7.568292317573788	5.0845237	2.2548888
7.585857449496025	5.156019	2.2706869
7.603422759919705	5.2234507	2.285487
7.620988249263007	5.265683	2.2947075
7.638553917944147	5.238321	2.2887378
7.656119766381391	5.188783	2.27789
7.673685794993023	5.165094	2.2726843
7.691252004197388	5.183892	2.2768161
7.70881839441285	5.256751	2.2927606
7.726384966057826	5.286881	2.299322
7.743951719550762	5.3238792	2.3073533
7.761518655310149	5.3519692	2.3134325
7.779085773754511	5.382714	2.3200676
7.796653075302419	5.321213	2.3067753
7.814220560372475	5.3206525	2.306654
7.831788229383323	5.2476926	2.2907844
7.8493560827536495	5.2472954	2.2906976
7.866924120902174	5.255027	2.2923846
7.884492344247663	5.354228	2.3139205
7.9020607532089135	5.368665	2.317038
7.919629348204771	5.3869467	2.3209796
7.937198129654115	5.390689	2.3217857
7.954767097975865	5.457753	2.3361835
7.972336253588986	5.4709935	2.3390155
7.989905596912472	5.5114655	2.347651
8.007475128365371	5.4577613	2.3361852
8.025044848366756	5.4871564	2.342468
8.042614757335754	5.6011815	2.3666816
8.060184855691523	5.657805	2.3786142
8.07775514385327	5.812195	2.4108493
8.095325622240228	5.8628664	2.4213357
8.112896291271687	5.90648	2.430325
8.130467151366968	5.850863	2.4188557
8.148038202945436	5.8535724	2.4194157
8.165609446426497	5.8743687	2.4237096
8.183180882229594	5.9719787	2.4437633
8.200752510774217	5.9874873	2.4469342
8.218324332479893	6.0519886	2.460079
8.235896347766193	6.037687	2.4571705
8.253468557052724	6.0750523	2.4647622
8.27104096075914	6.014217	2.45239
8.288613559305137	6.0081673	2.4511564
8.306186353110448	6.0775375	2.4652662
8.32375934259485	6.172274	2.4844062
8.341332528178162	6.2390814	2.4978154
8.358905910280246	6.225825	2.4951603
8.376479489321003	6.2162976	2.4932504
8.394053265720377	6.2943926	2.5088627
8.411627239898356	6.3443456	2.5187984
8.42920141227497	6.3491583	2.5197537
8.44677578327029	6.2950454	2.508993
8.464350353304427	6.233614	2.4967206
8.48192512279754	6.2683783	2.5036728
8.499500092169827	6.24112	2.4982233
8.51707526184153	6.2250533	2.4950056
8.534650632232934	6.1686053	2.4836676
8.552226203764365	6.070392	2.4638166
8.569801976856192	6.1103415	2.4719105
8.587377951928834	6.2410245	2.4982042
8.60495412940274	6.2886553	2.507719
8.622530509698416	6.276828	2.50536
8.6401070932364	6.3918033	2.5282016
8.657683880437283	6.546783	2.5586681
8.675260871721695	6.7209096	2.5924716
8.692838067510303	6.876869	2.6223786
8.710415468223834	7.0572004	2.6565392
8.727993074283043	7.2222266	2.6874201
8.745570886108737	7.2026973	2.6837842
8.763148904121765	7.2533693	2.693208
8.78072712874302	7.215804	2.686225
8.798305560393441	7.4969645	2.7380586
8.815884199494006	7.623734	2.761111
8.833463046465745	7.799331	2.7927282
8.851042101729728	7.9190664	2.8140836
8.86862136570707	8.14746	2.8543756
8.886200838818924	8.309409	2.8826046
8.903780521486505	8.350248	2.8896797
8.921360414131055	8.511488	2.9174454
8.938940517173874	8.69967	2.9495203
8.956520831036297	8.797896	2.9661248
8.97410135613971	9.038675	3.006439
8.99168209290554	9.131571	3.021849
9.009263041755265	9.438396	3.0721974
9.026844203110405	9.576995	3.094672
9.044425577392525	9.800357	3.130552
9.062007165023239	9.94424	3.1534488
9.079588966424197	10.334577	3.2147436
9.097170982017108	10.463858	3.2347887
9.11475321222372	11.275782	3.357943
9.132335657465825	12.156324	3.486592
9.149918318165264	12.155789	3.4865153
9.167501194743924	12.82262	3.5808687
9.18508428762374	12.550135	3.5426168
9.202667597226693	12.469402	3.531204
9.220251123974803	12.142952	3.484674
9.237834868290143	11.809679	3.4365213
9.255418830594836	11.640472	3.4118137
9.273003011311046	11.144719	3.3383708
9.290587410860985	10.940757	3.3076816
9.308172029666911	10.326477	3.2134836
9.32575686815113	10.063598	3.1723175
9.343341926735997	8.82509	2.9707053
9.360927205843916	8.55697	2.9252298
9.378512705897327	8.349389	2.889531
9.396098427318728	8.14174	2.8533735
9.413684370530664	8.055834	2.83828
9.431270535955722	7.9488115	2.8193636
9.448856924016539	7.8831067	2.807687
9.466443535135806	7.8066397	2.7940364
9.484030369736251	7.81878	2.7962081
9.501617428240658	7.828571	2.7979584
9.519204711071852	7.787971	2.7906938
9.536792218652714	7.8142395	2.795396
9.55437995140617	7.872443	2.8057876
9.571967909755191	7.9026237	2.8111606
9.589556094122802	7.9577355	2.8209457
9.60714450493207	7.987141	2.826153
9.624733142606116	8.002734	2.8289104
9.642322007568108	7.996384	2.8277879
9.659911100241267	7.9989424	2.8282402
9.677500421048851	8.038739	2.835267
9.695089970414175	8.038427	2.835212
9.712679748760609	8.012022	2.8305516
9.730269756511557	7.99971	2.8283758
9.747859994090492	8.003207	2.828994
9.765450461920915	8.120242	2.849604
9.78304116042639	8.207537	2.8648798
9.800632090030527	8.290643	2.8793476
9.81822325115699	8.308219	2.8823981
9.835814644229481	8.336545	2.8873076
9.853406269671762	8.349801	2.8896022
9.870998127907646	8.36782	2.8927183
9.888590219360985	8.320601	2.8845453
9.906182544455698	8.354352	2.8903897
9.923775103615734	8.369728	2.8930483
9.941367897265108	8.43738	2.9047167
9.958960925827878	8.400114	2.898295
9.97655418972816	8.336074	2.8872259
9.994147689390106	8.367825	2.8927193
10.011741425237934	8.268588	2.8755152
10.029335397695904	8.264974	2.8748868
10.04692960718833	8.2119465	2.8656495
10.06452405413958	8.253899	2.8729599
10.082118738974064	8.287743	2.878844
10.099713662116246	8.214513	2.8660972
10.117308823990651	8.239986	2.8705378
10.134904225021844	8.192981	2.8623383
10.152499865634445	8.208411	2.8650324
10.170095746253125	8.15111	2.8550148
10.18769186730261	8.078701	2.8423057
10.205288229207675	8.074699	2.8416016
10.222884832393145	8.098194	2.8457327
10.2404816772839	8.173636	2.8589573
10.258078764304868	8.101914	2.8463862
10.275676093881035	8.067399	2.8403168
10.293273666437438	8.071263	2.840997
10.310871482399158	8.168284	2.858021
10.32846954219134	8.148648	2.8545837
10.346067846239173	8.153214	2.8553834
10.363666394967908	8.0763035	2.841884
10.38126518880283	8.041587	2.8357692
10.398864228169298	8.090642	2.8444054
10.416463513492713	8.124011	2.850265
10.434063045198531	8.197752	2.8631716
10.451662823712262	8.166996	2.8577957
10.469262849459467	8.150352	2.854882
10.486863122865758	8.0867815	2.8437266
10.504463644356806	8.053069	2.837793
10.522064414358338	8.024274	2.832715
10.539665433296118	7.946896	2.8190238
10.557266701595987	7.995702	2.8276672
10.574868219683818	7.921395	2.8144972
10.592469987985552	7.7847285	2.7901127
10.610072006927185	7.6601996	2.7677066
10.627674276934751	7.5444193	2.7467105
10.64527679843435	7.4775696	2.7345145
10.662879571852143	7.340712	2.709375
10.680482597614331	7.2673526	2.6958027
10.698085876147173	7.180561	2.679657
10.715689407876988	7.017625	2.64908
10.733293193230146	6.867135	2.620522
10.750897232633072	6.731262	2.5944676
10.76850152651225	6.6403947	2.5768964
10.786106075294207	6.526893	2.5547786
10.803710879405534	6.3999057	2.5298035
10.821315939272877	6.3504944	2.5200188
10.83892125532294	6.247589	2.4995177
10.856526827982472	6.221601	2.4943137
10.874132657678285	6.2434926	2.4986982
10.891738744837243	6.2109656	2.4921808
10.909345089886271	6.2026634	2.4905148
10.926951693252343	6.1211157	2.474089
10.944558555362494	6.079939	2.4657533
10.96216567664381	5.990334	2.447516
10.979773057523436	5.971804	2.4437275
10.997380698428573	5.8830547	2.4255009
11.014988599786477	5.794227	2.40712
11.032596762024461	5.6803827	2.3833554
11.050205185569892	5.606173	2.3677359
11.067813870850198	5.551692	2.3562028
11.085422818292859	5.508772	2.3470774
11.10303202832541	5.470075	2.3388193
11.120641501375454	5.460827	2.336841
11.138251237870636	5.4250097	2.329165
11.155861238238671	5.3918624	2.3220384
11.173471502907317	5.3759303	2.3186052
11.191082032304402	5.280288	2.2978878
11.208692826857805	5.196318	2.2795434
11.226303886995465	5.0714154	2.2519803
11.243915213145371	5.029558	2.2426677
11.261526805735578	4.982193	2.2320826
11.279138665194196	4.9203672	2.2181902
11.296750791949393	4.8195424	2.1953456
11.314363186429393	4.7852507	2.1875217
11.331975849062479	4.7723584	2.184573
11.34958878027699	4.759992	2.1817405
11.36720198050133	4.693005	2.1663344
11.384815450163948	4.5895863	2.142332
11.402429189693366	4.5460625	2.1321497
11.420043199518153	4.496041	2.1203868
11.437657480066942	63.42156	7.963765
11.455272031768422	85.12597	9.226374
11.472886855051353	107.479294	10.367222
11.490501950344528	99.11441	9.955622
11.508117318076819	84.458336	9.190122
11.52573295867715	45.864697	6.772348
11.543348872574514	4.1906557	2.0471091
11.560965060197946	4.175225	2.0433366
11.57858152197655	4.139318	2.0345314
11.59619825833949	4.054306	2.0135307
11.613815269715985	3.9955332	1.998883
11.631432556535323	38.500973	6.204915
11.649050119226837	83.06097	9.113779
11.666667958219929	93.487526	9.668895
11.68428607394406	107.784996	10.381955
11.701904466828756	82.61249	9.089141
11.719523137303586	65.44088	8.089554
11.737142085798196	4.6652246	2.159913
11.754761312742286	3.7511525	1.9367893
11.772380818565619	3.7025156	1.9241922
11.790000603698015	3.6602018	1.9131653
11.80762066856935	3.6374197	1.907202
11.825241013609572	3.5538406	1.8851633
11.842861639248683	3.557667	1.8861779
11.860482545916748	3.4964437	1.869878
11.878103734043883	3.4617095	1.860567
11.895725204060282	3.3749912	1.8371149
11.91334695639619	3.3408318	1.8277942
11.930968991481919	3.3482602	1.8298252
11.948591309747824	3.339705	1.8274859
11.966213911624347	3.341205	1.8278964
11.98383679754198	3.3127449	1.8200947
12.001459967931268	3.3017695	1.8170772
12.019083423222835	3.283882	1.8121485
12.036707163847352	3.2513838	1.8031594
12.05433119023556	3.2187204	1.7940793
12.071955502818259	3.2000768	1.7888758
12.089580102026313	3.2191331	1.7941943
12.107204988290643	3.2196248	1.7943313
12.12483016204224	3.1984177	1.7884121
12.142455623712152	3.155842	1.776469
12.16008137373149	3.1717489	1.7809404
12.177707412531431	3.1588068	1.7773032
12.19533374054321	3.1152065	1.7649947
12.212960358198126	3.060156	1.7493302
12.230587265927545	3.0249722	1.7392447
12.248214464162889	3.0100565	1.7349515
12.265841953335649	3.0043716	1.7333124
12.283469733877375	2.9908106	1.729396
12.301097806219685	2.9667702	1.7224314
12.31872617079425	2.9256368	1.7104493
12.336354828032825	2.9376469	1.7139565
12.353983778367205	2.9555678	1.7191765
12.371613022229262	2.9663398	1.7223065
12.389242560050928	2.932952	1.7125863
12.406872392264201	2.9354625	1.7133192
12.424502519301143	2.9382138	1.7141219
12.442132941593874	2.9030313	1.7038285
12.459763659574586	2.8904622	1.700136
12.477394673675532	2.8583643	1.6906698
12.49502598432903	2.869861	1.6940664
12.51265759196746	2.8706737	1.6943063
12.530289497023267	2.8720474	1.6947116
12.547921699928967	2.822812	1.6801226
12.565554201117134	2.8085864	1.6758838
12.583187001020404	2.7923982	1.6710471
12.600820100071486	2.7803998	1.667453
12.618453498703152	2.7298272	1.6522188
12.636087197348235	2.7045693	1.6445575
12.65372119643964	2.7624378	1.6620584
12.671355496410326	2.8234355	1.6803082
12.68899009769333	2.8765833	1.6960493
12.706625000721749	2.8833592	1.6980457
12.724260205928752	2.9137204	1.7069623
12.741895713747551	2.909275	1.7056597
12.759531524611454	2.9504068	1.7176749
12.777167638953818	2.9783297	1.7257838
12.794804057208072	3.013101	1.7358286
12.812440779807702	3.067872	1.7515342
12.830077807186271	3.2472136	1.8020027
12.847715139777405	3.2859461	1.8127179
12.865352778014795	3.4847634	1.8667521
12.882990722332197	3.5640666	1.8878735
12.90062897316344	3.6455722	1.9093381
12.918267530942412	3.7386372	1.9335556
12.935906396103071	3.6371653	1.9071354
12.953545569079449	3.7790356	1.9439741
12.971185050305628	3.5912342	1.8950552
12.988824840215775	3.5618296	1.887281
13.006464939244115	3.5259671	1.8777559
13.024105347824943	3.414937	1.8479549
13.041746066392617	3.51027	1.8735715
13.05938709538157	3.3457341	1.8291348
13.077028435226296	3.321286	1.8224396
13.094670086361363	3.2074835	1.7909448
13.112312049221401	3.1376078	1.7713294
13.129954324241112	3.037406	1.7428155
13.147596911855258	2.87874	1.6966851
13.165239812498685	2.8446925	1.6866217
13.182883026606293	2.8185573	1.6788559
13.200526554613058	2.799006	1.673023
13.218170396954017	2.7969995	1.6724232
13.235814554064284	2.729023	1.6519755
13.253459026379034	2.6995192	1.6430213
13.271103814333523	2.6943784	1.6414561
13.288748918363058	2.725406	1.6508803
13.306394338903031	2.7013676	1.6435838
13.32404007638889	2.6726964	1.6348383
13.341686131256164	2.6510952	1.6282184
13.359332503940449	2.652315	1.628593
13.376979194877402	2.6995878	1.6430422
13.394626204502751	2.7475903	1.6575857
13.412273533252307	2.7645402	1.6626906
13.429921181561937	2.685999	1.6389017
13.447569149867581	2.682393	1.6378013
13.465217438605247	2.6775653	1.6363268
13.482866048211022	2.7055798	1.6448647
13.500514979121052	2.727186	1.6514194
13.518164231771568	2.7189178	1.6489141
13.535813806598844	2.7332854	1.6532651
13.553463704039254	2.738457	1.6548284
13.571113924529229	2.714507	1.6475761
13.588764468505275	2.7096486	1.646101
13.606415336403956	2.7146196	1.6476103
13.624066528661917	2.763276	1.6623105
13.641718045715882	2.8216004	1.679762
13.659369888002635	2.86653	1.6930829
13.67702205595903	2.9160774	1.7076526
13.694674550021993	2.9849696	1.7277064
13.712327370628532	3.0544457	1.7476972
13.729980518215713	3.1439416	1.7731164
13.747633993220681	3.2550921	1.8041874
13.765287796080647	3.2602308	1.8056109
13.7829419272329	3.293799	1.8148826
13.800596387114801	3.3077672	1.8187268
13.818251176163775	3.3655202	1.8345355
13.835906294817324	3.4112813	1.8469654
13.853561743513023	3.4253566	1.8507719
13.871217522688525	3.4339528	1.8530928
13.888873632781538	3.4306335	1.8521969
13.906530074229858	3.4783423	1.8650315
13.92418684747135	3.5032635	1.8717006
13.941843952943948	3.521249	1.8764992
13.959501391085665	3.500851	1.8710561
13.977159162334578	3.416452	1.8483647
13.994817267128846	3.3802662	1.83855
14.012475705906693	3.2772624	1.8103211
14.030134479106424	3.164717	1.7789651
14.047793587166414	3.0953882	1.7593715
14.065453030525108	3.0438445	1.7446617
14.083112809621026	3.015654	1.7365639
14.100772924892766	2.9352887	1.7132684
14.118433376778997	2.8987422	1.7025692
14.136094165718458	2.8222365	1.6799513
14.153755292149969	2.7897158	1.6702442
14.171416756512416	2.7295976	1.6521493
14.189078559244768	2.689172	1.6398696
14.20674070078606	2.58327	1.6072555
14.224403181575408	2.510174	1.5843529
14.242066002051999	2.463157	1.5694448
14.259729162655093	2.4836257	1.5759523
14.277392663824022	2.4810293	1.5751283
14.295056505998208	2.4797823	1.5747324
14.312720689617128	2.4743035	1.5729918
14.330385215120348	2.4418855	1.5626533
14.348050082947497	2.4274487	1.5580271
14.3657152935383	2.401209	1.5495836
14.383380847332528	2.412219	1.553132
14.401046744770051	2.3877683	1.5452405
14.418712986290798	2.3796763	1.54262
14.436379572334793	2.3755486	1.5412815
14.454046503342123	2.4034913	1.5503197
14.471713779752946	2.4520938	1.5659163
14.489381402007504	2.4543443	1.5666347
14.507049370546113	2.4192169	1.5553832
14.524717685809168	2.3814714	1.5432017
14.542386348237134	2.400933	1.5494944
14.560055358270553	2.413985	1.5537004
14.577724716350051	2.4629645	1.5693835
14.595394422916325	2.4523504	1.5659982
14.61306447841015	2.4946814	1.5794561
14.63073488327237	2.5050735	1.5827425
14.648405637943917	2.511207	1.5846789
14.6660767428658	2.4599123	1.5684108
14.683748198479094	2.459918	1.5684125
14.701420005224954	2.5466478	1.595822
14.719092163544628	2.624764	1.6201123
14.73676467387942	2.6586432	1.6305346
14.754437536670727	2.6941445	1.641385
14.772110752360014	2.724621	1.6506426
14.78978432138882	2.7281466	1.6517102
14.807458244198777	2.6913333	1.6405283
14.82513252123159	2.6759894	1.6358452
14.842807152929028	2.7375178	1.6545446
14.860482139732962	2.7448199	1.6567498
14.87815748208531	2.738514	1.6548456
14.8958331804281	2.6957974	1.6418884
14.91350923520342	2.634446	1.6230977
14.931185646853438	2.6681812	1.6334568
14.948862415820408	2.698841	1.642815
14.966539542546656	2.7154548	1.6478637
14.98421702747459	2.642171	1.6254756
15.001894871046696	2.641556	1.6252865
15.019573073705542	2.647481	1.6271082
15.037251635893766	2.6681335	1.6334423
15.054930558054092	2.6929114	1.6410092
15.072609840629323	2.7295334	1.65213
15.090289484062351	2.849705	1.6881069
15.107969488796124	3.142118	1.7726021
15.125649855273691	3.5772908	1.8913727
15.14333058393817	4.171661	2.0424645
15.161011675232768	5.1944966	2.2791438
15.17869312960076	6.6163282	2.5722225
15.196374947485506	8.618646	2.935753
15.214057129330447	12.017169	3.466579
15.231739675579114	16.808664	4.0998373
15.249422586675102	21.667131	4.6547966
15.267105863062092	24.192533	4.9185905
15.284789505183847	23.841005	4.8827252
15.302473513484218	21.389936	4.6249256
15.320157888407127	17.877913	4.228228
15.337842630396578	13.933189	3.7327187
15.355527739896656	10.862021	3.295758
15.37321321735153	8.411785	2.9003077
15.39089906320545	6.1301084	2.4759057
15.408585277902748	4.616424	2.1485865
15.42627186188783	3.6009269	1.8976108
15.443958815605198	3.1154335	1.765059
15.461646139499424	2.8738773	1.6952513
15.479333834015168	2.7779548	1.6667198
15.497021899597165	2.7349565	1.6537704
15.514710336690234	2.7048957	1.6446568
15.53239914573928	2.6681128	1.6334358
15.550088327189297	2.6126494	1.6163692
15.567777881485336	2.5738826	1.6043324
15.58546780907256	2.5220132	1.5880847
15.6031581103962	2.4991713	1.5808767
15.620848785901568	2.4346237	1.5603281
15.638539836034063	2.44121	1.5624372
15.656231261239173	2.4396017	1.5619224
15.673923061962451	2.4646597	1.5699235
15.691615238649552	2.4795444	1.574657
15.709307791746202	2.4554133	1.5669758
15.727000721698221	2.4264874	1.5577186
15.744694028951498	2.3680997	1.5388631
15.76238771395202	2.3784041	1.5422076
15.780081777145844	2.3743122	1.5408803
15.797776218979125	2.4131057	1.5534174
15.815471039898094	2.375869	1.5413854
15.833166240349064	2.3632662	1.5372919
15.850861820778437	2.353518	1.5341179
15.868557781632699	2.3670943	1.5385364
15.886254123358412	2.3653224	1.5379604
15.903950846402232	2.3534553	1.5340976
15.921647951210897	2.3411944	1.5300962
15.939345438231225	2.3419678	1.5303489
15.957043307910133	2.3665824	1.53837
15.974741560694602	2.3937986	1.5471905
15.992440197031714	2.4182887	1.5550848
16.01013921736862	2.4265828	1.5577493
16.02783862215259	2.4027839	1.5500916
16.045538411830933	2.4027948	1.5500951
16.06323858685107	2.4204016	1.555764
16.080939147660512	2.436875	1.5610493
16.09864009470684	2.4293764	1.5586457
16.11634142843774	2.4163182	1.5544511
16.134043149300954	2.3821692	1.5434277
16.15174525774433	2.3836088	1.543894
16.169447754215817	2.4030383	1.5501736
16.18715063916342	2.4242704	1.5570068
16.204853913035244	2.4733272	1.5726815
16.222557576279478	2.4860346	1.5767164
16.240261629344403	22.448442	4.737979
16.257966072678386	42.938446	6.5527434
16.275670906729868	38.04211	6.1678286
16.293376131947387	2.4970663	1.5802108
16.31108174877957	2.533865	1.5918119
16.328787757675133	2.5470684	1.5959537
16.34649415908287	2.556714	1.5989728
16.364200953451657	2.6305346	1.6218923
16.38190814123048	2.6733668	1.6350434
16.39961572286839	2.6642745	1.6322606
16.41732369881455	2.6340184	1.6229659
16.43503206951817	2.6222498	1.6193362
16.45274083542859	2.671862	1.6345831
16.47044999699522	2.7444878	1.6566496
16.488159554667558	2.8266225	1.6812562
16.505869508895184	2.8854203	1.6986525
16.523579860127786	2.9072895	1.7050775
16.541290608815117	2.9611607	1.7208023
16.559001755407035	2.9999728	1.7320429
16.57671330035348	3.0844808	1.756269
16.59442524410448	3.1553848	1.7763402
16.61213758711015	3.2458293	1.8016186
16.629850329820705	3.280603	1.8112435
16.647563472686436	3.3031378	1.8174536
16.665277016157724	3.349941	1.8302844
16.682990960685053	3.4129405	1.8474145
16.70070530671898	3.4397469	1.8546555
16.718420054710155	3.4649448	1.8614362
16.736135205109335	3.5230992	1.8769921
16.753850758367335	3.572273	1.8900458
16.771566714935087	3.6342926	1.9063821
16.789283075263597	3.714411	1.9272808
16.80699983980398	3.7808669	1.9444451
16.82471700900741	3.8010383	1.9496251
16.84243458332518	3.8892329	1.9721138
16.860152563208665	3.9743528	1.993578
16.87787094910932	4.0666046	2.0165825
16.89558974147871	4.0943255	2.023444
16.913308940768466	4.181311	2.0448256
16.931028547430333	4.2426925	2.0597796
16.94874856191613	4.270069	2.0664146
16.966468984677785	4.257851	2.063456
16.98418981616729	4.2615905	2.064362
17.00191105683676	4.3341446	2.0818608
17.019632707138374	4.427776	2.104228
17.03735476752442	4.539229	2.1305466
17.05507723844728	4.5454097	2.1319966
17.072800120359403	4.59631	2.1439006
17.090523413713353	4.6764016	2.162499
17.108247118961785	4.732274	2.175379
17.125971236557437	4.747165	2.178799
17.143695766953133	4.739587	2.1770592
17.161420710601806	4.7584314	2.181383
17.179146067956477	4.685399	2.1645782
17.19687183947025	4.6413765	2.1543853
17.21459802559634	4.6345353	2.152797
17.232324626788028	4.6509323	2.1566021
17.25005164349871	4.640211	2.154115
17.267779076181863	4.661142	2.1589677
17.285506925291074	4.6622906	2.1592338
17.30323519127999	4.64836	2.1560056
17.320963874602384	4.6027107	2.145393
17.33869297571211	4.560346	2.1354966
17.356422495063114	4.54808	2.1326227
17.37415243310944	4.561234	2.1357045
17.391882790305218	4.535825	2.1297476
17.40961356710468	4.5696025	2.137663
17.42734476396215	4.5910587	2.1426756
17.445076381332044	4.6044173	2.1457906
17.462808419668868	4.582917	2.140775
17.48054087942723	4.7462587	2.178591
17.498273761061835	5.0988827	2.2580705
17.51600706502747	5.6798077	2.3832347
17.533740791779024	6.5057306	2.5506334
17.551474941771485	8.228653	2.868563
17.56920951545993	9.393633	3.0649035
17.586944513299528	11.535588	3.396408
17.60467993574556	13.228896	3.637155
17.622415783253373	14.813506	3.848832
17.64015205627843	16.152119	4.01897
17.657888755276293	17.042696	4.12828
17.675625880702604	17.433939	4.175397
17.69336343301311	16.990402	4.1219416
17.71110141266366	16.251345	4.031296
17.728839820110178	15.477722	3.9341736
17.746578655808705	14.812194	3.8486614
17.764317920215372	13.295339	3.6462774
17.7820576137864	11.559596	3.3999405
17.79979773697811	9.236165	3.039106
17.81753829024692	7.2404575	2.6908097
17.835279274049356	5.584662	2.363189
17.85302068884201	4.6839194	2.1642365
17.870762535081607	4.09711	2.0241318
17.888504813224934	3.8449962	1.9608662
17.90624752372891	3.722469	1.9293702
17.923990667050536	3.6549175	1.9117838
17.941734243646895	3.5673513	1.8887433
17.959478253975185	3.510258	1.8735683
17.9772226984927	3.4502325	1.8574802
17.994967577656833	3.4482293	1.8569409
18.01271289192506	3.4242506	1.850473
18.030458641754965	3.3719037	1.8362744
18.04820482760425	3.3317838	1.8253175
18.06595144993067	3.2656198	1.8071026
18.083698509192125	3.259464	1.8053986
18.101446005846576	3.2450533	1.8014032
18.119193940352105	3.2786584	1.8107066
18.136942313166887	3.2336552	1.7982367
18.1546911247492	3.1443458	1.7732303
18.1724403755574	3.0772636	1.7542131
18.19019006604997	3.1003122	1.7607703
18.207940196685467	3.161171	1.7779682
18.225690767922575	3.1528978	1.7756401
18.243441780220046	3.1129677	1.7643604
18.261193234036764	3.0504189	1.7465448
18.278945129831676	3.0337448	1.7417649
18.29669746806386	2.995755	1.730825
18.314450249192483	2.9748616	1.7247788
18.3322034736768	2.9670777	1.7225207
18.349957141976184	3.0106728	1.735129
18.3677112545501	3.0273106	1.7399168
18.385465811858108	3.0339878	1.7418346
18.403220814359884	3.0404744	1.7436956
18.420976262515172	3.050249	1.7464962
18.43873215678387	3.0858245	1.7566515
18.456488497625923	3.150159	1.7748687
18.474245285501407	3.254417	1.8040003
18.492002520870486	3.3287663	1.8244907
18.50976020419343	3.4050548	1.8452791
18.527518335930615	3.698564	1.9231651
18.545276916542516	4.260706	2.0641477
18.563035946489688	4.430355	2.1048408
18.580795426232832	4.896678	2.212844
18.598555356232698	4.8078876	2.1926897
18.616315736950185	5.1317368	2.2653337
18.63407656884626	4.782026	2.1867843
18.65183785238201	4.9524546	2.2254112
18.669599588018617	4.7337914	2.1757278
18.68736177621737	4.71811	2.172121
18.705124417439652	4.714971	2.1713984
18.72288751214696	4.4915476	2.119327
18.740651060800886	4.6008334	2.1449554
18.758415063863115	4.292774	2.071901
18.77617952179546	4.445904	2.1085312
18.793944435059814	4.1479383	2.0366488
18.811709804118184	4.1378818	2.0341785
18.829475629432675	4.128114	2.0317762
18.8472419114655	3.9907594	1.9976885
18.86500865067897	4.079616	2.019806
18.88277584753551	3.7510533	1.9367636
18.90054350249763	3.7585204	1.9386904
18.918311616027957	3.4679124	1.8622332
18.936080188589226	3.395665	1.842733
18.953849220644265	3.0803292	1.7550867
18.971618712656007	2.8813956	1.6974674
18.9893886650875	2.817808	1.6786327
19.007159078401887	8.009242	2.8300605
19.024929953062408	32.900124	5.7358627
19.042701289532435	32.845802	5.731126
19.060473088275405	25.384937	5.038347
19.07824534975489	2.6619678	1.6315538
19.096018074434568	2.6151447	1.6171409
19.113791262778197	2.6168387	1.6176646
19.13156491524966	2.6068668	1.6145794
19.149339032312945	2.5915096	1.6098167
19.167113614432136	2.5674374	1.6023225
19.184888662071433	2.5564115	1.5988781
19.202664175695123	2.5365646	1.5926596
19.220440155767623	2.5357163	1.5923933
19.238216602753447	2.515433	1.5860116
19.2559935171172	2.5126023	1.585119
19.27377089932361	2.5319343	1.5912052
19.291548749837514	2.5468976	1.5959003
19.309327069123835	2.5413136	1.5941498
19.32710585764763	2.5389588	1.5934111
19.344885115874032	2.5113184	1.5847139
19.362664844268313	2.4883726	1.5774577
19.380445043295822	2.4668412	1.5706182
19.39822571342203	2.465122	1.5700707
19.41600685511252	2.488933	1.5776353
19.43378846883297	2.537608	1.5929871
19.451570555049173	2.5492775	1.5966457
19.469353114227037	2.5245638	1.5888876
19.48713614683254	2.472758	1.5725006
19.50491965333182	2.4411469	1.562417
19.52270363419109	2.484621	1.5762681
19.540488089876686	2.5065663	1.5832139
19.55827302085503	2.516071	1.5862128
19.576058427592674	2.493462	1.57907
19.593844310556282	2.507577	1.583533
19.611630670212598	2.473653	1.5727851
19.629417507028506	2.4426212	1.5628887
19.64720482147098	2.457049	1.5674976
19.6649926140071	2.4939816	1.5792345
19.682780885104084	2.5464919	1.5957731
19.70056963522921	2.5442855	1.5950817
19.718358864849908	2.5197008	1.5873566
19.7361485744337	2.4854233	1.5765226
19.753938764448215	2.47454	1.5730671
19.771729435361202	2.4580271	1.5678097
19.789520587640506	2.4697864	1.5715554
19.807312221754092	2.446896	1.5642557
19.825104338170043	2.4789221	1.5744593
19.842896937356517	2.5165153	1.5863528
19.860690019781824	2.527409	1.5897827
19.87848358591436	2.514961	1.5858629
19.896277636222635	2.5355093	1.5923283
19.914072171175278	2.5096655	1.5841924
19.931867191241015	2.4501436	1.5652934
19.94966269688869	2.4384634	1.561558
19.967458688587264	2.4641788	1.5697703
19.985255166805807	2.491722	1.578519
20.00305213201348	2.4759202	1.5735058
20.020849584679578	2.4724522	1.5724033
20.038647525273507	2.48927	1.5777421
20.05644595426477	2.4936252	1.5791216
20.07424487212299	2.470764	1.5718664
20.092044279317903	2.4381356	1.5614531
20.109844176319353	2.4196692	1.5555285
20.127644563597304	2.4416366	1.5625737
20.145445441621817	2.4480524	1.5646254
20.16324681086307	2.4300637	1.5588661
20.181048671791373	2.424704	1.5571461
20.198851024877122	2.4345381	1.5603007
20.216653870590836	2.4283764	1.5583249
20.234457209403146	2.4056404	1.5510126
20.252261041784802	2.3693397	1.539266
20.270065368206662	2.3682556	1.5389137
20.287870189139685	2.3521266	1.5336645
20.305675505054968	2.3501632	1.5330242
20.323481316423702	2.3612196	1.5366261
20.341287623717207	2.3997958	1.5491275
20.359094427406884	2.3995848	1.5490593
20.376901727964288	2.4048686	1.5507638
20.39470952586107	2.4065573	1.5513083
20.41251782156899	2.3890207	1.5456457
20.430326615559935	2.3282316	1.5258543
20.448135908305886	2.2981236	1.5159563
20.465945700278965	2.3148103	1.52145
20.483755991951384	2.3650827	1.5378826
20.50156678379548	2.3994298	1.5490093
20.519378076283708	2.4086287	1.5519757
20.537189869888635	2.3909087	1.5462563
20.55500216508294	2.4030738	1.5501851
20.572814962339415	2.4023924	1.5499653
20.59062826213098	2.3621762	1.5369372
20.60844206493066	2.34165	1.5302451
20.626256371211593	2.313818	1.5211239
20.644071181447032	2.3021908	1.5172971
20.66188649611036	2.2809978	1.5102973
20.67970231567506	2.2848284	1.5115649
20.697518640614742	2.3255153	1.524964
20.715335471403122	2.3181217	1.522538
20.73315280851404	2.313556	1.5210378
20.750970652421447	2.3049812	1.5182165
20.768789003599412	2.323748	1.5243845
20.786607862522136	2.314585	1.521376
20.8044272296639	2.3055887	1.5184165
20.82224710549913	2.2872443	1.5123638
20.84006749050237	2.2784846	1.509465
20.857888385148268	3.8180385	1.9539802
20.8757097899116	45.91349	6.7759495
20.893531705267254	64.77839	8.048502
20.911354131690224	83.84068	9.156456
20.92917706965566	69.11128	8.313319
20.94700051963877	50.14352	7.081209
20.96482448211493	29.418844	5.423914
20.982648957559622	4.1536007	2.0380385
21.00047394644843	2.2544708	1.5014895
21.01829944925707	2.2286437	1.4928643
21.036125466461375	2.212202	1.4873474
21.053951998537297	2.2179217	1.4892689
21.071779045960906	2.2144628	1.4881071
21.089606609208378	2.2195175	1.4898045
21.10743468875603	2.201035	1.4835886
21.12526328508028	2.2228403	1.4909192
21.143092398657675	2.2124014	1.4874144
21.16092202996488	2.2348256	1.4949334
21.17875217947867	2.2254577	1.4917969
21.19658284767596	2.2119803	1.4872727
21.21441403503377	2.200973	1.4835677
21.232245742029225	2.2035336	1.4844304
21.2500779691396	2.1898773	1.4798234
21.26791071684227	2.149981	1.4662814
21.28574398561475	2.1403656	1.4629989
21.30357777593465	2.113193	1.4536825
21.321412088279704	2.1179419	1.455315
21.339246923127792	2.1246042	1.4576023
21.357082280956888	2.1270761	1.45845
21.3749181622451	2.148789	1.4658748
21.392754567470647	2.1504042	1.4664257
21.41059149711187	2.1366045	1.4617128
21.42842895164726	2.1406407	1.4630929
21.446266931555378	2.1679423	1.4723934
21.464105437314945	2.1429434	1.4638796
21.481944469404798	2.113037	1.4536289
21.49978402830388	2.099599	1.4489993
21.51762411449127	2.1188166	1.4556155
21.53546472844617	2.082855	1.44321
21.553305870647876	2.0717351	1.4393524
21.571147541575865	2.1114638	1.4530877
21.58898974170967	2.142339	1.4636731
21.60683247152899	2.1058033	1.4511386
21.62467573151363	2.0799398	1.4421997
21.642519522143523	2.0610397	1.4356321
21.660363843898722	2.0760388	1.4408466
21.6782086972594	2.0715356	1.439283
21.696054082705864	2.067721	1.4379572
21.713900000718535	2.0658638	1.4373113
21.73174645177795	2.0884187	1.4451362
21.749593436364794	2.0685525	1.4382464
21.767440954959845	2.0525439	1.4326702
21.785289008044032	2.0209532	1.4216024
21.803137596098388	2.0444822	1.4298539
21.820986719604086	2.0359309	1.4268605
21.838836379042412	2.0037613	1.4155427
21.85668657489478	1.975169	1.4054071
21.87453730764273	1.9734111	1.4047815
21.892388577767914	1.953718	1.3977545
21.91024038575213	1.9532763	1.3975966
21.928092732077285	1.9730268	1.4046447
21.945945617225426	2.0290446	1.4244454
21.963799041678694	2.0595329	1.4351072
21.981653005919398	31.370874	5.6009707
21.999507510429943	78.13917	8.839636
22.01736255569286	73.0892	8.549222
22.035218142190818	4.179294	2.0443323
22.05307427040661	1.9981388	1.4135554
22.07093094082315	1.9766196	1.405923
22.088788153923474	2.0085518	1.4172338
22.106645910190746	1.9961967	1.4128683
22.12450421010827	2.000432	1.4143662
22.142363054159464	1.9602065	1.4000738
22.16022244282787	1.9916542	1.4112598
22.178082376597164	2.003971	1.4156169
22.195942855951145	2.0195613	1.4211127
22.213803881373742	2.0343118	1.426293
22.231665453349002	2.0452275	1.4301145
22.24952757236111	2.0326247	1.4257015
22.26739023889438	2.0072465	1.4167733
22.28525345343323	1.9877417	1.4098729
22.30311721646225	1.9520403	1.3971543
22.320981528466113	1.9485259	1.3958961
22.33884638992964	1.9402865	1.3929417
22.356711801337788	1.9554507	1.3983743
22.37457776317561	1.9537604	1.3977698
22.392444275928337	1.9563621	1.3987001
22.410311340081282	1.925885	1.3877625
22.428178956119904	1.9163122	1.3843093
22.446047124529805	1.9530237	1.3975062
22.46391584579669	1.9863927	1.4093945
22.481785120406414	1.9982911	1.4136093
22.49965494884496	1.9609029	1.4003224
22.51752533159841	1.94725	1.395439
22.53539626915302	1.922312	1.3864747
22.553267761995137	1.977154	1.406113
22.571139810611264	2.0041788	1.4156902
22.589012415488025	2.0080261	1.4170483
22.60688557711216	1.941933	1.3935326
22.624759295970566	1.9247049	1.3873373
22.642633572550263	1.933734	1.3905877
22.660508407338362	1.9664378	1.4022974
22.67838380082217	2.0019693	1.4149096
22.696259753489077	1.9898938	1.410636
22.714136265826614	1.9748039	1.4052771
22.73201333832246	1.9316585	1.3898412
22.74989097146439	1.9310026	1.3896052
22.76776916574035	1.9663627	1.4022706
22.785647921638393	1.9561342	1.3986187
22.803527239646712	1.9450073	1.3946352
22.82140712025363	1.9407377	1.3931036
22.839287563947593	1.9600989	1.4000353
22.85716857121719	1.9550514	1.3982315
22.875050142551135	1.922291	1.3864671
22.892932278438277	1.9303815	1.3893818
22.910814979367604	1.9341669	1.3907433
22.928698245828222	1.9323906	1.3901045
22.946582078309387	1.9339627	1.3906698
22.96446647730047	1.926498	1.3879834
22.98235144329098	1.9021503	1.3791846
23.000236976770562	1.8768922	1.3699971
23.018123078229	1.903086	1.3795238
23.03600974815619	1.9470059	1.3953515
23.053896987042194	1.9555706	1.3984171
23.071784795377173	1.9273944	1.3883063
23.08967317365145	1.8847291	1.3728544
23.10756212235546	1.8563576	1.3624822
23.125451641979787	1.8836143	1.3724483
23.143341733015134	1.9547783	1.3981339
23.161232395952357	1.9806333	1.4073497
23.179123631282426	1.9689693	1.4031997
23.197015439496468	1.939729	1.3927416
23.214907821085717	1.9170201	1.384565
23.23280077654157	1.9105895	1.3822408
23.250694306355538	1.9090066	1.3816681
23.268588411019277	1.9353043	1.3911521
23.28648309102458	1.9652953	1.4018899
23.304378346863356	1.9263057	1.3879142
23.322274179027676	1.913795	1.3833998
23.340170588009723	1.8890791	1.3744377
23.358067574301852	1.9098315	1.3819666
23.37596513839651	1.92864	1.3887548
23.39386328078629	1.9462664	1.3950865
23.411762001963947	1.9267731	1.3880825
23.429661302422353	1.9035583	1.3796949
23.4475611826545	1.89861	1.3779006
23.46546164315356	1.9076061	1.3811611
23.48336268441279	1.9348722	1.3909968
23.501264306925638	1.9097838	1.3819493
23.51916651118564	1.9212838	1.3861039
23.537069297686497	1.9513993	1.396925
23.554972666922037	1.9919789	1.4113748
23.57287661938623	1.9717352	1.4041849
23.59078115557318	1.9366751	1.3916447
23.608686275977128	1.9158603	1.3841461
23.62659198109246	1.8885742	1.3742541
23.6444982714137	1.8326627	1.3537587
23.66240514743549	1.8134843	1.3466567
23.68031260965263	1.8455334	1.358504
23.698220658560068	1.88234	1.371984
23.716129294652845	1.9047372	1.3801222
23.7340385184262	1.910945	1.3823694
23.75194833037546	1.9245054	1.3872654
23.769858730996123	1.9169561	1.3845419
23.78776972078382	1.9256909	1.3876927
23.80568130023431	1.8940171	1.376233
23.823593469843495	1.8996072	1.3782624
23.841506230107424	1.8960457	1.3769697
23.859419581522275	1.8740735	1.368968
23.87733352458438	1.8624942	1.3647323
23.89524805979019	1.8686043	1.366969
23.913163187636318	1.8952361	1.3766757
23.931078908619508	1.944358	1.3944024
23.948995223236633	1.9736573	1.4048691
23.966912131984735	1.9484864	1.395882
23.98482963536096	1.9928281	1.4116757
24.002747733862616	1.9726397	1.4045069
24.020666427987155	2.0127242	1.4187051
24.038585718232156	2.0511208	1.4321735
24.056505605095353	2.092889	1.4466821
24.074426089074617	2.1155872	1.4545058
24.092347170667946	2.0955856	1.4476137
24.110268850373515	2.0641751	1.4367237
24.128191128689586	2.0496628	1.4316643
24.146114006114626	2.043844	1.4296308
24.164037483147187	2.0143094	1.4192637
24.181961560286005	1.9763927	1.4058423
24.199886238029926	1.9692333	1.4032937
24.21781151687797	1.9919126	1.4113513
24.235737397329274	1.9905348	1.4108632
24.253663879883135	2.0441492	1.4297374
24.271590965038975	2.037353	1.4273587
24.289518653296376	2.0600698	1.4352943
24.30744694515505	2.0507598	1.4320474
24.32537584111486	2.056239	1.4339591
24.34330534167581	2.0744154	1.4402831
24.361235447338046	2.0384023	1.4277263
24.379166158601876	2.017003	1.4202124
24.39709747596772	2.0305939	1.4249891
24.41502939993615	2.0749958	1.4404845
24.432961931007917	2.0494056	1.4315745
24.450895069683856	2.0289524	1.424413
24.468828816465	1.9467313	1.3952532
24.4867631718525	1.9875855	1.4098176
24.504698136347656	2.0163574	1.419985
24.52263371045192	2.0180771	1.4205904
24.540569894666874	2.030205	1.4248526
24.558506689494266	2.004735	1.4158866
24.57644409543597	1.9659855	1.4021361
24.594382112994012	1.9812456	1.4075673
24.61232074267057	2.003603	1.4154868
24.630259984967953	1.9942867	1.4121921
24.64819984038863	1.9197254	1.3855416
24.66614030943522	1.94842	1.3958582
24.684081392610462	1.9735024	1.404814
24.702023090417274	1.9916273	1.4112502
24.7199654033587	2.003192	1.4153416
24.737908331937927	1.9556991	1.3984631
24.755851876658305	1.9737493	1.4049019
24.773796038023324	1.975051	1.4053651
24.79174081653661	1.9896969	1.4105661
24.809686212701962	1.9934632	1.4119005
24.827632227023294	2.0395746	1.4281368
24.8455788600047	2.0785081	1.4417032
24.8635261121504	2.0721068	1.4394815
24.88147398396475	2.069782	1.4386737
24.899422475952303	2.0815313	1.4427513
24.917371588617698	2.159746	1.4696074
24.935321322465768	2.2445664	1.4981877
24.953271678001478	2.3700907	1.5395099
24.97122265572994	2.5494666	1.596705
24.989174256156414	2.886987	1.6991136
25.00712647978632	3.3988657	1.8436012
25.02507932712521	3.9509232	1.987693
25.043032798678798	4.3983417	2.0972223
25.060986894952933	5.030475	2.242872
25.078941616453637	5.861359	2.4210243
25.096896963687055	6.9096127	2.6286142
25.114852937159508	7.998961	2.8282435
25.132809537377444	8.273767	2.8764157
25.150766764847468	8.110551	2.8479028
25.168724620076347	7.4192877	2.723837
25.186683103570985	6.324775	2.5149105
25.204642215838426	5.0636964	2.2502658
25.222601957385894	3.7872546	1.946087
25.24056232872074	2.9354634	1.7133194
25.25852333035048	2.4996965	1.5810429
25.276484962782778	2.2103894	1.4867378
25.294447226525435	2.0810177	1.4425733
25.312410122086423	2.0159965	1.4198579
25.330373649973843	1.989193	1.4103875
25.348337810695988	1.9348953	1.3910052
25.366302604761245	1.9138106	1.3834054
25.384268032678207	1.8898095	1.3747034
25.40223409495558	1.8657156	1.365912
25.420200792102257	1.8892058	1.3744838
25.438168124627246	1.8855867	1.3731667
25.45613609303974	1.8657506	1.3659248
25.474104697849057	1.8758956	1.3696334
25.492073939564698	1.8759171	1.3696412
25.510043818696285	1.8894595	1.3745761
25.528014335753614	1.8800597	1.3711526
25.54598549124664	1.8560605	1.3623731
25.56395728568544	1.8369057	1.355325
25.58192971958028	1.8489372	1.3597562
25.59990279344156	1.8967948	1.3772417
25.617876507779833	1.9140971	1.3835089
25.635850863105826	1.9098537	1.3819746
25.653825859930386	1.9236528	1.3869581
25.671801498764548	1.912037	1.3827642
25.68977778011949	1.8709918	1.3678421
25.707754704506524	1.839864	1.3564159
25.725732272437153	1.8753631	1.369439
25.743710484423012	1.8625551	1.3647546
25.761689340975888	1.7943571	1.3395362
25.77966884260774	1.7787625	1.3337026
25.797648989830662	1.7873334	1.3369119
25.815629783156922	1.8314226	1.3533006
25.83361122309895	1.8548725	1.361937
25.85159331016929	1.8750908	1.3693396
25.869576044880695	1.8431814	1.3576381
25.887559427746034	1.8102381	1.3454509
25.90554345927836	1.8120816	1.3461357
25.92352813999086	1.8491195	1.3598233
25.94151347039689	1.8718482	1.368155
25.959499451009965	1.871431	1.3680025
25.97748608234374	1.8560228	1.3623593
25.995473364912062	1.8864628	1.3734857
26.013461299228904	1.8578207	1.363019
26.03144988580839	1.813682	1.3467301
26.04943912516483	1.8148146	1.3471506
26.067429017812675	1.8207328	1.3493453
26.085419564266537	1.8214082	1.3495955
26.103410765041186	1.833287	1.3539892
26.12140262065155	1.865518	1.3658396
26.139395131612723	1.8502626	1.3602436
26.157388298439948	1.8087574	1.3449005
26.17538212164861	1.8190498	1.3487215
26.193376601754295	1.8484693	1.3595842
26.211371739272714	1.8494285	1.359937
26.229367534719746	1.8334708	1.3540572
26.247363988611433	1.8410083	1.3568376
26.26536110146397	1.8283778	1.3521752
26.283358873793727	1.7890542	1.3375553
26.301357306117204	1.789201	1.3376102
26.319356398951104	1.7890635	1.3375587
26.33735615281224	1.8146311	1.3470825
26.35535656821762	1.8171179	1.3480052
26.373357645684404	1.8221706	1.349878
26.39135938572991	1.7711585	1.3308488
26.409361788871614	1.7780263	1.3334266
26.427364855627165	1.7986691	1.3411447
26.445368586514352	1.8273585	1.3517983
26.46337298205115	1.8233478	1.350314
26.48137804275568	1.7836708	1.3355414
26.499383769146217	1.7975321	1.3407208
26.517390161741215	1.8074676	1.3444209
26.53539722105928	1.8050885	1.3435358
26.553404947619182	1.8431824	1.3576386
26.571413341939856	1.8351135	1.3546636
26.589422404540397	1.8453562	1.3584388
26.60743213594006	1.8131365	1.3465276
26.62544253665827	1.7727033	1.331429
26.64345360721459	1.722982	1.3126241
26.66146534812879	1.7246748	1.3132688
26.679477759920758	1.776621	1.3328995
26.69749084311057	1.8548232	1.3619189
26.71550459821847	1.8383732	1.3558662
26.733519025764842	1.8568201	1.3626518
26.751534126270258	1.8020825	1.3424166
26.769549900255434	1.8099774	1.345354
26.787566348241267	1.843045	1.3575879
26.80558347074881	1.8582878	1.3631903
26.823601268299267	1.8175298	1.3481579
26.841619741414036	1.7583421	1.3260249
26.85963889061465	1.7579829	1.3258895
26.877658716422832	1.7834309	1.3354516
26.89567921936045	1.820479	1.3492513
26.913700399949544	1.8435327	1.3577676
26.93172225871233	1.8255883	1.3511434
26.949744796171174	1.8222377	1.3499029
26.967768012848605	1.837449	1.3555254
26.98579190926733	1.8207669	1.349358
27.003816485950225	1.7853549	1.3361717
27.021841743420318	1.7430484	1.3202456
27.039867682200814	1.747987	1.3221146
27.057894302815072	1.7791934	1.3338641
27.07592160578664	1.8089697	1.3449794
27.0939495916392	1.8198566	1.3490206
27.111978260896635	1.7755221	1.3324872
27.13000761408296	1.7264615	1.3139489
27.148037651722397	1.7676889	1.3295447
27.166068374339304	1.8083677	1.3447556
27.184099782458215	1.8053733	1.3436418
27.20213187660384	1.7489568	1.3224813
27.22016465730105	1.7343014	1.3169287
27.23819812507487	1.7773682	1.3331797
27.256232280450533	1.7853761	1.3361796
27.274267123953383	1.7673758	1.3294269
27.292302656108987	1.7710334	1.3308018
27.31033887744306	1.7752475	1.3323841
27.32837578848146	1.8050374	1.3435168
27.34641338975026	1.8057318	1.3437752
27.364451681775673	1.7704535	1.3305839
27.382490665084074	1.7668939	1.3292456
27.400530340202046	1.7943618	1.3395379
27.41857070765629	1.8283582	1.352168
27.436611767973726	1.7995814	1.3414848
27.454653521681404	1.7366848	1.3178334
27.472695969306564	1.7596952	1.326535
27.490739111376627	1.7852432	1.3361299
27.508782948419153	1.8051287	1.3435508
27.526827480961902	1.8368658	1.3553102
27.54487270953279	1.8496916	1.3600336
27.562918634659898	1.8325778	1.3537273
27.580965256871508	1.7849796	1.3360313
27.599012576696026	1.8234215	1.3503412
27.617060594662068	1.8368442	1.3553022
27.63510931129842	1.8069152	1.3442154
27.65315872713401	1.7835993	1.3355145
27.67120884269797	1.8163463	1.347719
27.68925965851958	1.8081716	1.3446827
27.707311175128307	1.7945777	1.3396184
27.725363393053787	1.8187181	1.3485986
27.74341631282583	1.8889225	1.3743807
27.7614699349744	1.9190679	1.3853042
27.77952426002968	2.0892773	1.4454333
27.797579288521973	2.1222677	1.4568005
27.815635020981784	2.5649304	1.60154
27.83369145793979	2.6353717	1.6233828
27.85174859992682	2.495114	1.5795931
27.869806447473923	2.3376665	1.528943
27.887865001112267	2.0559068	1.4338434
27.905924261373233	1.9600472	1.4000169
27.92398422878836	1.9340414	1.3906982
27.94204490388936	1.9201803	1.3857057
27.96010628720813	1.8985562	1.377881
27.978168379276728	1.8141776	1.3469142
27.9962311806274	1.7718261	1.3310996
28.014294691792568	1.8036797	1.3430114
28.0323589133048	1.8603315	1.3639398
28.050423845696887	1.8791388	1.3708168
28.068489489501758	1.8785247	1.3705928
28.086555845252523	1.8857529	1.3732272
28.104622913482487	1.8740798	1.3689704
28.122690694725115	1.8215783	1.3496586
28.14075918951405	1.8301919	1.3528458
28.15882839838312	1.9101832	1.3820938
28.176898321866304	1.9221605	1.38642
28.1949689604978	1.8923099	1.3756125
28.213040314811945	1.832302	1.3536255
28.23111238534327	1.8134907	1.3466591
28.249185172626493	1.8542436	1.3617061
28.267258677196473	1.8992234	1.3781232
28.285332899588294	1.9023943	1.379273
28.303407840337172	1.9192239	1.3853606
28.321483499978545	1.9172609	1.3846519
28.33955987904799	1.9252905	1.3875483
28.357636978081285	1.9851015	1.4089363
28.37571479761439	2.0425916	1.4291927
28.393793338183425	2.06118	1.4356811
28.41187260032469	1.9842356	1.408629
28.429952584574686	1.9459897	1.3949873
28.448033291470065	1.9521893	1.3972077
28.46611472154769	1.9626381	1.4009418
28.484196875344566	1.9432583	1.394008
28.502279753397914	1.9406515	1.3930727
28.52036335624511	1.9027989	1.3794198
28.538447684423716	1.9112265	1.3824712
28.556532738471482	1.9770755	1.4060851
28.574618518926325	2.006683	1.4165745
28.59270502632635	1.9667261	1.4024001
28.61079226120985	1.969127	1.4032558
28.628880224115274	1.9727988	1.4045635
28.646968915581287	1.990857	1.4109774
28.66505833614671	2.0129457	1.4187832
28.68314848635055	2.1081266	1.4519389
28.701239366732004	2.1392884	1.4626306
28.71933097783044	2.0921829	1.446438
28.737423320185403	2.0848923	1.4439156
28.75551639433665	2.0905817	1.4458843
28.773610200824074	2.0495656	1.4316304
28.791704740187793	2.1263235	1.4581919
28.80980001296809	2.1884084	1.479327
28.827896019705413	2.2180517	1.4893125
28.845992760940433	2.2128756	1.4875737
28.86409023721397	2.2031484	1.4843006
28.88218844906704	2.2310305	1.4936634
28.900287397040845	2.217706	1.4891964
28.918387081676755	2.1910117	1.4802066
28.936487503516343	2.2260125	1.4919827
28.954588663101365	2.2930262	1.5142741
28.97269056097374	2.3151543	1.5215632
28.990793197675597	2.281911	1.5105995
29.00889657374923	2.2873747	1.512407
29.027000689737125	2.3226073	1.5240103
29.04510554618196	2.347407	1.532125
29.06321114362659	2.3644564	1.537679
29.08131748261405	2.3680108	1.5388342
29.099424563687567	2.3852987	1.5444412
29.11753238739057	2.4623668	1.569193
29.13564095426663	2.5067866	1.5832834
29.15375026485954	2.532097	1.5912565
29.171860319713275	2.5884733	1.6088732
29.18997111937199	2.6653185	1.6325803
29.20808266438002	2.6921597	1.6407802
29.226194955281898	2.694935	1.6416258
29.244307992622335	2.7531402	1.659259
29.26242177694624	2.81577	1.6780256
29.2805363087987	2.7949398	1.6718073
29.29865158872498	2.8230147	1.6801829
29.316767617270557	2.8627448	1.6919647
29.334884394981064	2.9134018	1.706869
29.353001922402367	2.9964287	1.7310196
29.37112020008047	3.11662	1.7653952
29.389239228561596	3.2434316	1.8009529
29.407359008392152	3.4607165	1.8603001
29.42547954011872	3.8997512	1.9747788
29.44360082428809	4.6256924	2.1507423
29.46172286144722	5.7832346	2.4048357
29.479845652143283	7.538543	2.7456408
29.497969196923606	9.737638	3.120519
29.516093496335728	12.208519	3.494069
29.5342185509274	14.8909	3.858873
29.55234436124651	17.055302	4.1298065
29.570470927841175	17.93638	4.2351365
29.588598251259686	17.159346	4.142384
29.60672633205055	15.490705	3.9358232
29.624855170762405	13.17564	3.6298265
29.642984767944146	10.416905	3.227523
29.66111512414481	7.8605924	2.8036747
29.67924623991366	5.935796	2.436349
29.697378115800138	4.711727	2.1706514
29.71551075235387	4.042075	2.0104914
29.733644150124675	3.6823628	1.9189484
29.751778309662576	3.5490923	1.8839035
29.769913231517766	3.4793727	1.8653077
29.78804891624066	3.355554	1.8318172
29.806185364381818	3.3083317	1.818882
29.82432257649206	3.2514474	1.803177
29.842460553122333	3.2208354	1.7946687
29.86059929482382	3.211751	1.7921358
29.878738802147872	3.1783793	1.7828009
29.896879075646048	3.2050483	1.7902648
29.915020115870114	3.228703	1.7968593
29.933161923371976	3.2693899	1.8081454
29.951304498703777	3.2941127	1.8149691
29.969447842417857	3.2683518	1.8078583
29.987591955066733	3.2306228	1.7973933
30.005736837203123	3.1770458	1.782427
30.023882489379943	3.1338646	1.7702725
30.04202891215028	3.1549563	1.7762197
30.060176106067455	3.1513941	1.7752167
30.078324071684946	3.1973898	1.7881247
30.09647280955646	3.2536318	1.8037827
30.114622320235863	3.2407606	1.8002113
30.132772604277257	3.1363442	1.7709726
30.1509236622349	3.1053097	1.7621889
30.16907549466328	3.13585	1.7708331
30.18722810211705	3.1584482	1.7772024
30.205381485151097	3.116276	1.7652978
30.22353564432045	3.0414805	1.7439841
30.241690580180403	2.986309	1.7280941
30.25984629328638	2.8976376	1.7022449
30.278002784194037	2.864503	1.6924843
30.296160053459246	2.9166362	1.7078162
30.314318101638033	2.9862263	1.7280701
30.332476929286646	2.970647	1.7235565
30.35063653696153	2.934791	1.7131232
30.368796925219307	2.885298	1.6986165
30.386958094616844	2.810053	1.6763213
30.40512004571115	2.7835526	1.6683983
30.423282779059463	2.8044708	1.6746554
30.441446295219233	2.8274088	1.6814901
30.459610594748067	2.8531158	1.6891168
30.47777567820382	2.8727777	1.6949271
30.495941546144504	2.8649702	1.6926223
30.51410819912835	2.8545532	1.6895423
30.532275637713795	2.8637953	1.6922752
30.55044386245946	2.8635852	1.692213
30.56861287392416	2.814282	1.6775821
30.586782672666956	2.7646136	1.6627127
30.604953259247047	2.7781415	1.6667758
30.623124634223885	2.760169	1.6613756
30.641296798157075	2.7347198	1.6536988
30.659469751606462	2.7162597	1.6481079
30.677643495132074	2.7879314	1.66971
30.695818029294152	2.798654	1.6729178
30.713993354653116	2.7790706	1.6670544
30.73216947176962	2.744129	1.6565412
30.75034638120448	2.753225	1.6592845
30.768524083518756	2.7648492	1.6627836
30.786702579273673	2.747456	1.6575452
30.80488186903069	2.7813678	1.6677433
30.82306195335144	2.9148629	1.707297
30.841242832797782	3.222639	1.795171
30.85942450793176	3.5759647	1.8910221
30.877606979315637	3.857735	1.9641117
30.895790247511883	4.179403	2.0443587
30.913974313083134	4.636827	2.1533294
30.932159176592283	4.868015	2.2063577
30.95034483860237	4.770415	2.184128
30.968531299676698	4.471757	2.1146529
30.98671856037873	4.227493	2.0560868
31.00490662127215	3.8798695	1.9697385
31.023095482920848	3.4529133	1.8582016
31.04128514588892	3.0042474	1.7332765
31.059475610740662	2.719804	1.6491828
31.07766687804056	2.58185	1.6068137
31.09585894835335	2.5186927	1.587039
31.11405182224393	2.5161324	1.5862321
31.132245500277417	2.4363985	1.5608968
31.15043998301914	2.4054084	1.5509379
31.168635271034628	2.4132948	1.5534782
31.18683136488964	2.4040341	1.5504948
31.20502826515008	2.4117913	1.5529943
31.223225972382135	2.4163823	1.5544717
31.241424487152155	2.461931	1.5690541
31.259623810026692	2.413642	1.55359
31.27782394157253	2.3727286	1.5403664
31.296024882356644	2.3549745	1.5345926
31.314226632946237	2.3355432	1.5282484
31.332429193908684	2.3817596	1.543295
31.350632565811598	2.4448626	1.5636057
31.368836749222787	2.509198	1.5840448
31.387041744710295	2.614045	1.6168008
31.40524755284232	2.6491988	1.627636
31.423454174187317	2.6359055	1.6235472
31.441661609313922	2.5548408	1.5983869
31.459869858791002	2.460781	1.5686877
31.478078923187628	2.3948843	1.5475414
31.496288803073064	2.352846	1.533899
31.514499499016807	2.3450878	1.5313679
31.532711011588546	2.3199954	1.5231531
31.550923341358178	2.2517157	1.5005717
31.56913648889584	2.2162237	1.4886987
31.587350454771844	2.3261347	1.5251671
31.605565239556732	2.4345427	1.5603021
31.62378084382127	2.463149	1.5694423
31.641997268136382	2.4686725	1.571201
31.660214513073274	2.403693	1.5503848
31.67843257920331	2.3350377	1.528083
31.6966514670981	2.2339242	1.4946318
31.71487117732944	2.1388543	1.4624822
31.733091710469346	2.120765	1.4562846
31.751313067090052	2.1998284	1.4831818
31.769535247764008	2.3277194	1.5256865
31.787758253063878	2.4112084	1.5528066
31.805982083562526	2.3652601	1.5379403
31.824206739833024	2.2831407	1.5110065
31.84243222244869	2.2132344	1.4876944
31.860658531983013	2.2266366	1.4921919
31.878885669009737	2.2254937	1.4918089
31.897113634102784	2.2132187	1.487689
31.91534242783632	2.247634	1.4992111
31.933572050784694	2.2208438	1.4902495
31.951802503522508	2.12108	1.4563928
31.970033786624548	2.1611967	1.4701009
31.988265900665834	2.2683306	1.5060978
32.006498846221575	2.3635325	1.5373784
32.02473262386724	2.2836323	1.5111692
32.04296723417845	2.2034316	1.4843961
32.0612026777311	2.1857686	1.4784346
32.07943895510129	2.1751115	1.474826
32.097676066865304	2.0520623	1.4325022
32.115914013599685	2.0363667	1.4270132
32.13415279588115	2.1143675	1.4540864
32.152392414286666	2.2217445	1.4905517
32.1706328693934	2.2098968	1.4865721
32.18887416177875	2.193567	1.4810696
32.20711629202032	2.2137518	1.4878682
32.225359260695924	2.2092695	1.4863611
32.243603068383614	2.2130086	1.4876184
32.26184771566166	2.1877394	1.4791008
32.28009320310852	2.2100303	1.4866171
32.2983395313029	2.2237203	1.4912144
32.31658670082372	2.169214	1.4728252
32.33483471225012	2.175486	1.4749529
32.35308356616143	2.148783	1.4658728
32.371333263137245	2.1058846	1.4511666
32.38958380375734	2.0836222	1.4434757
32.407835188601744	2.0843713	1.4437352
32.42608741825067	2.1321008	1.4601715
32.444340493284585	2.144214	1.4643135
32.46259441428416	2.0692337	1.4384831
32.48084918183028	2.057764	1.4344909
32.49910479650405	2.0848956	1.4439168
32.51736125888683	2.08896	1.4453235
32.53561856956014	2.1193264	1.4557906
32.5538767291058	2.1495047	1.4661189
32.572135738105764	2.0933514	1.4468418
32.59039559714228	2.056729	1.4341301
32.608656306797776	1.9899555	1.4106579
32.62691786765491	2.0155964	1.419717
32.645180280296586	2.0999637	1.4491252
32.663443545305896	2.122019	1.4567151
32.68170766326619	2.1068766	1.4515084
32.69997263476099	2.041166	1.4286939
32.7182384603741	2.028383	1.4242132
32.7365051406895	2.072966	1.4397799
32.75477267629144	2.0950048	1.4474131
32.77304106776434	2.0396729	1.4281712
32.79131031569289	2.037509	1.4274133
32.809580420661966	2.0529976	1.4328285
32.827851383256714	2.065515	1.4371899
32.84612320406245	2.0142007	1.4192253
32.86439588366476	1.9951606	1.4125016
32.88266942264945	1.9779236	1.4063867
32.9009438216025	1.9690816	1.4032397
32.9192190811102	1.9777818	1.4063363
32.937495201758985	1.9583118	1.3993969
32.95577218413556	1.9310342	1.3896166
32.974050028826866	2.0276442	1.4239537
32.992328736420035	2.0967274	1.4480081
33.010608307502444	2.0123723	1.4185811
33.02888874266169	2.0028288	1.4152133
33.047170042485604	1.9797828	1.4070475
33.06545220756225	1.9204675	1.3858093
33.083735238479896	1.914107	1.3835125
33.10201913582707	2.0007343	1.4144732
33.12030390019248	2.0569084	1.4341925
33.138589532165135	2.0782368	1.4416091
33.15687603233419	2.0505362	1.4319693
33.17516340128909	2.0275774	1.4239303
33.19345163961947	2.0980685	1.4484711
33.211740747915215	2.0560398	1.4338897
33.23003072676643	1.9852883	1.4090025
33.248321576763466	2.0315123	1.4253113
33.266613298496885	2.034666	1.4264172
33.28490589255747	1.9746263	1.405214
33.30319935953626	1.9400607	1.3928607
33.32149370002451	1.9443032	1.3943827
33.339788914613706	2.0087314	1.4172972
33.358085003895575	2.0308385	1.4250749
33.376381968462034	1.998751	1.4137719
33.39467980890529	1.970832	1.4038632
33.41297852581774	2.0451214	1.4300774
33.43127811979204	2.1098008	1.4525154
33.44957859142105	2.0318153	1.4254175
33.467879941297866	1.9104358	1.3821851
33.486182170015844	1.8887038	1.3743012
33.50448527816853	1.8960506	1.3769715
33.522789266349754	2.024675	1.4229107
33.541094135153514	2.1509202	1.4666016
33.55939988517411	2.1072664	1.4516426
33.57770651700602	2.032832	1.4257741
33.59601403124398	2.0059664	1.4163214
33.61432242848296	2.0085473	1.4172323
33.632631709318154	2.0200586	1.4212877
33.650941874344994	1.9763615	1.4058312
33.66925292415916	1.9408388	1.39314
33.68756485935654	1.9075474	1.3811399
33.70587768053328	1.936309	1.3915132
33.724191388285746	1.9321749	1.3900269
33.74250598321054	1.8861848	1.3733845
33.760821465904506	1.9716296	1.4041473
33.77913783696474	1.9988928	1.413822
33.79745509698852	1.9824839	1.408007
33.815773246573414	2.001084	1.4145968
33.8340922863172	1.9164325	1.3843527
33.852412216817896	1.7935321	1.3392282
33.87073303867377	1.8345616	1.3544599
33.889054752483304	1.9342793	1.3907837
33.907377358845245	1.8911443	1.3751888
33.92570085835853	1.8875724	1.3738896
33.94402525162239	1.9754215	1.405497
33.96235053923627	1.862166	1.3646121
33.980676721799824	1.8034022	1.3429081
33.999003799912984	1.832665	1.3537595
34.01733177417592	1.9227034	1.3866158
34.03566064518901	2.0188096	1.4208481
34.0539904135529	2.0922015	1.4464444
34.07232107986846	2.0534627	1.4329908
34.090652644736785	2.00405	1.4156448
34.108985108759235	1.9901049	1.4107108
34.12731847253742	1.9228618	1.386673
34.14565273667313	1.8932564	1.3759565
34.16398790176847	1.8714216	1.3679991
34.18232396842574	1.8214548	1.3496128
34.20066093724749	1.9239701	1.3870724
34.21899880883651	1.8754399	1.369467
34.23733758379583	1.789462	1.3377078
34.25567726272874	1.9035699	1.3796992
34.27401784623872	1.9293216	1.3890002
34.29235933492957	1.9166883	1.3844452
34.31070172940526	1.9349811	1.391036
34.32904503027003	1.8812215	1.3715763
34.347389238128386	1.8766692	1.3699157
34.36573435358502	1.8478686	1.3593633
34.38408037724492	1.9521966	1.3972102
34.402427309713296	1.8742096	1.3690177
34.42077515159559	1.8919553	1.3754836
34.43912390349752	1.9786178	1.4066335
34.45747356602499	2.011301	1.4182035
34.47582413978423	1.9046656	1.3800962
34.49417562538163	1.8176208	1.3481916
34.51252802342388	1.7650412	1.3285486
34.53088133451789	1.7812912	1.3346503
34.54923555927084	1.8326159	1.3537414
34.567590698290104	1.9536983	1.3977475
34.58594675218336	2.020593	1.4214756
34.6043037215585	1.9243288	1.3872018
34.62266160702365	1.9730673	1.4046592
34.641020409187234	2.0854049	1.4440931
34.65938012865785	2.11596	1.454634
34.677740766044394	1.9634761	1.401241
34.69610232195598	1.8261973	1.3513687
34.714464797002016	1.8276039	1.351889
34.73282819179208	1.8909072	1.3751026
34.751192506936064	1.8551805	1.36205
34.76955774304408	1.918802	1.3852082
34.7879239007265	2.0154834	1.4196773
34.80629098059391	1.9120086	1.382754
34.824658983257194	1.9255126	1.3876284
34.843027909327446	1.8844361	1.3727477
34.86139775941603	1.9596034	1.3998584
34.879768534134534	1.9826607	1.4080698
34.89814023409483	1.8681734	1.3668114
34.91651285990901	1.8960147	1.3769585
34.93488641218944	1.9900755	1.4107003
34.95326089154871	2.076684	1.4410704
34.97163629859967	1.8461355	1.3587257
34.99001263395542	1.6715386	1.2928799
35.00838989822934	1.6675118	1.2913218
35.02676809203499	1.8355258	1.3548157
35.04514721598624	1.9777219	1.406315
35.063527270697215	2.0867755	1.4445676
35.081908256782256	2.035336	1.4266521
35.10029017485597	1.8356826	1.3548737
35.11867302553321	1.6225479	1.2737927
35.137056809429104	1.6475338	1.2835629
35.155441527159006	1.744256	1.3207028
35.173827179338524	1.7731221	1.3315862
35.19221376658354	1.8869733	1.3736714
35.21060128951017	2.025849	1.4233233
35.2289897487348	2.0449622	1.4300218
35.24737914487405	2.0387425	1.4278455
35.26576947854479	2.111942	1.4532522
35.28416075036418	2.0976925	1.4483413
35.30255296094958	2.0486903	1.4313247
35.32094611091867	2.0372975	1.4273393
35.33934020088932	2.008915	1.417362
35.35773523147969	1.7925957	1.3388785
35.3761312033082	2.1085374	1.4520804
35.394528116993506	2.3995676	1.5490538
35.41292597315452	2.321338	1.5235938
35.431324772410434	2.2732258	1.507722
35.449724515380666	2.0263848	1.4235114
35.46812520268491	1.686604	1.2986932
35.486526834943106	1.3941392	1.1807367
35.504929412775454	1.6164017	1.2713779
35.52333293680242	1.9749665	1.4053351
35.54173740764471	2.0517392	1.4323894
35.560142825923286	2.0416234	1.4288539
35.5785491922594	2.0467792	1.4306569
35.59695650727454	2.246317	1.4987718
35.61536477159042	2.396952	1.5482093
