0.008763373481513119	0.43391317	0.65872085
0.026290120649546365	0.38063106	0.616953
0.043816868432600686	0.25542977	0.5054006
0.06134361724069026	0.11217566	0.33492634
0.07887036748382949	0.114678375	0.33864197
0.0963971195720331	0.1544387	0.3929869
0.11392387391531617	0.20389912	0.45155188
0.1314506309236943	0.19098534	0.4370187
0.1489773910071836	0.15029085	0.38767365
0.16650415457580078	0.12686759	0.35618478
0.18403092203956356	0.14150581	0.37617257
0.20155769380849	0.14991024	0.38718244
0.2190844702925996	0.17440803	0.41762188
0.2366112519019124	0.22148617	0.47062317
0.2541380390464497	0.2421136	0.4920504
0.27166483213623416	0.18671803	0.43210882
0.28919163158128947	0.17189418	0.41460124
0.3067184377916406	0.14731562	0.38381717
0.324245251177314	0.1577629	0.3971938
0.34177207214833777	0.14179209	0.3765529
0.3592989011147415	0.120893866	0.34769794
0.37682573848655654	0.17168607	0.41435018
0.39435258467381573	0.2150693	0.46375564
0.41187944008655414	0.22878931	0.47831926
0.42940630513480854	0.18535513	0.43052888
0.446933180228618	0.16028579	0.40035707
0.4644600657780234	0.15818071	0.39771938
0.48198696219306775	0.17627761	0.41985428
0.49951386988379676	0.16068764	0.40085864
0.5170407892602581	0.16563936	0.40698814
0.5345677207325025	0.21986727	0.46890005
0.5520946647105822	0.26149306	0.5113639
0.5696216216045534	0.28973746	0.5382727
0.5871485918244737	0.24517034	0.49514678
0.6046755757804043	0.20758711	0.45561728
0.6222025738824094	0.17767626	0.42151663
0.6397295865405557	0.14369294	0.37906852
0.6572566141649129	0.13395523	0.36599895
0.6747836571655547	0.12125008	0.34820983
0.6923107159525568	0.09840599	0.31369728
0.7098377909359992	0.10059859	0.3171728
0.7273648825259653	0.12844416	0.35839108
0.7448919911325411	0.14161327	0.3763154
0.762419117165817	0.1417768	0.3765326
0.7799462610358868	0.12452771	0.35288483
0.7974734231528482	0.08581781	0.29294676
0.8150006039268024	0.10150617	0.31860033
0.8325278037678551	0.12073065	0.34746316
0.8500550230861152	0.17527632	0.41866016
0.8675822622916969	0.18149978	0.42602792
0.8851095217947171	0.18240213	0.42708564
0.9026368020052984	0.16716745	0.40886116
0.9201641033335665	0.18050882	0.4248633
0.9376914261896523	0.1871425	0.4325997
0.9552187709836915	0.25181076	0.5018075
0.9727461381258234	0.26435876	0.5141583
0.990273528026193	0.28482118	0.5336864
1.0078009410949496	0.25942373	0.5093366
1.0253283777422473	0.27055046	0.52014464
1.0428558383782454	0.2930747	0.5413637
1.0603833234131086	0.3002973	0.5479939
1.0779108332570058	0.3618526	0.6015418
1.0954383683201119	0.34863237	0.590451
1.112965929012607	0.39972004	0.63223416
1.1304935157446763	0.47103134	0.6863172
1.1480211289265108	0.49536473	0.70382154
1.1655487689683062	1.2935402	1.1373391
1.1830764362802655	1.5176779	1.2319407
1.200604131272596	1.9598324	1.3999401
1.2181318543555117	2.2595696	1.5031865
1.235659605939232	2.3429792	1.5306793
1.253187386433982	3.9998796	1.9999698
1.270715196249994	6.540866	2.5575116
1.2882430357975057	11.930546	3.4540622
1.3057709054867608	16.393944	4.0489435
1.3232988057280106	22.149881	4.706366
1.3408267369315112	26.891903	5.1857405
1.358354699507526	30.60528	5.5322037
1.3758826938663256	34.346596	5.8605967
1.3934107204181858	36.010696	6.000891
1.410938779573391	36.302948	6.0251927
1.4284668717422309	36.73058	6.060576
1.4459949973350033	36.288506	6.023994
1.4635231567620117	36.382397	6.031782
1.4810513504335687	35.795498	5.982934
1.4985795787599925	35.20834	5.9336615
1.5161078421516088	34.54144	5.8771963
1.5336361410187505	33.52692	5.7902436
1.5511644757717598	33.57763	5.7946205
1.5686928468209842	34.55038	5.8779573
1.58622125457678	35.41479	5.9510326
1.6037496994495108	36.85158	6.0705504
1.621278181849548	36.642994	6.0533457
1.6388067021872719	37.20118	6.099277
1.6563352608730693	36.476727	6.0395966
1.673863858317336	35.72912	5.977384
1.6913924949304753	34.88992	5.906769
1.7089211711228998	33.839077	5.8171363
1.7264498873050296	33.032375	5.74738
1.7439786438872935	32.333393	5.686246
1.7615074412801288	31.646439	5.625517
1.779036279893981	30.7652	5.5466385
1.796565160139305	29.638311	5.444108
1.814094082426564	28.868858	5.372975
1.8316230471662298	28.152782	5.3059196
1.849152054768784	27.439363	5.23826
1.8666811056447168	26.897242	5.186255
1.8842102002045273	26.174438	5.116096
1.901739338858724	25.7929	5.078671
1.9192685220178245	25.225368	5.022486
1.9367977500923557	24.371475	4.9367476
1.9543270234928547	23.797136	4.878231
1.971856342629867	23.131119	4.809482
1.9893857079139496	22.776474	4.7724705
2.006915119755667	22.226036	4.71445
2.0244445785655945	21.624798	4.650247
2.0419740847543175	21.061165	4.5892444
2.0595036387324317	20.579529	4.5364666
2.0770332409105414	20.26682	4.5018687
2.094562891699263	20.317232	4.507464
2.1120925915092217	19.819502	4.45191
2.129622340751053	19.642735	4.4320126
2.1471521398354043	187.62108	13.697484
2.1646819891729323	444.08243	21.073263
2.182211889174303	440.32184	20.983847
2.1997418402501974	452.63565	21.275236
2.2172718428113023	432.49323	20.79647
2.234801897268317	320.26697	17.896004
2.2523320040319548	16.727705	4.0899515
2.269862163512935	16.464788	4.0576825
2.287392376121992	16.2016	4.025121
2.304922642269869	15.981667	3.9977076
2.322452962367322	15.617852	3.951943
2.3399833368251164	15.42607	3.9276037
2.357513766054032	15.225547	3.9019926
2.3750442504648586	15.016832	3.8751557
2.3925747904683963	14.713683	3.835842
2.410105386475459	14.372999	3.791174
2.4276360388968707	13.954423	3.7355618
2.445166748143469	13.726263	3.7048972
2.4626975146261025	13.337016	3.651988
2.4802283387556323	13.14794	3.6260087
2.4977592209429305	12.832505	3.5822487
2.5152901615988825	12.623339	3.552934
2.5328211611343865	12.483229	3.5331614
2.5503522199603523	12.370229	3.5171337
2.5678833384877024	12.15817	3.4868567
2.5854145171273712	11.773888	3.43131
2.6029457562903064	11.499905	3.391151
2.620477056387469	11.233977	3.3517127
2.6380084178298326	11.248545	3.353885
2.655539841028383	11.144396	3.3383224
2.673071326394119	11.077856	3.3283412
2.6906028743380523	10.912267	3.303372
2.708134485271211	10.639121	3.2617667
2.7256661596046325	10.304835	3.2101145
2.743197897749369	10.04185	3.1688879
2.760729700116486	10.047518	3.169782
2.778261567117063	9.954288	3.1550417
2.795793499162193	9.923131	3.1501002
2.8133254966629817	9.854943	3.1392584
2.830857560030551	9.605271	3.0992372
2.8483896896760337	9.432226	3.071193
2.865921886010578	9.116471	3.0193496
2.883454149445347	9.080052	3.0133126
2.9009864803915177	9.0762615	3.0126834
2.91851887926028	9.119736	3.01989
2.9360513464628384	9.057617	3.0095875
2.953583882410413	9.000427	3.0000713
2.9711164875142373	8.816451	2.969251
2.9886491621855606	8.5326185	2.9210646
3.0061819068356455	8.285138	2.8783915
3.023714721875769	8.159778	2.8565323
3.041247607717225	8.31969	2.8843873
3.0587805647713213	8.312399	2.8831232
3.0763135934493806	8.278698	2.8772726
3.0938466941627407	8.011482	2.8304563
3.1113798673227544	7.9495325	2.8194916
3.1289131133407904	7.753182	2.7844536
3.1464464326282315	7.606881	2.7580576
3.1639798255964786	7.4242697	2.7247512
3.1815132926569443	7.4104595	2.722216
3.1990468342210603	7.4654946	2.7323058
3.216580450700272	7.367566	2.7143261
3.2341141425060416	7.202692	2.683783
3.251647910049847	7.0456533	2.654365
3.2691817537431813	6.998656	2.6454973
3.286715673997555	7.015895	2.6487534
3.3042496712244938	7.0064063	2.6469617
3.32178374583554	6.895666	2.62596
3.339317898242251	6.777558	2.6033742
3.3568521288562034	6.759258	2.5998573
3.3743864380889876	6.630769	2.575028
3.3919208263522127	6.4998326	2.5494769
3.4094552940575023	6.363432	2.5225844
3.4269898416164972	6.297487	2.5094793
3.444524469440858	6.3001943	2.5100188
3.4620591779422587	6.269188	2.5038347
3.479593967532391	6.274344	2.504864
3.4971288386229658	6.24786	2.499572
3.5146637916257086	6.2536073	2.5007215
3.5321988269523628	6.24026	2.4980512
3.5497339450146903	6.1479754	2.479511
3.5672691462244708	6.120781	2.4740212
3.5848044309934988	6.12433	2.4747384
3.60233979973359	6.255308	2.5010614
3.619875252856575	6.313728	2.5127132
3.6374107907743034	6.2660556	2.503209
3.6549464138986427	6.1339283	2.476677
3.6724821226414788	6.1037006	2.4705667
3.690017917414714	6.1191225	2.473686
3.7075537986302702	6.118607	2.4735818
3.7250897667000857	6.1146984	2.4727917
3.7426258220361235	6.2262416	2.4952438
3.7601619650503553	6.5379486	2.5569413
3.777698196154779	7.049257	2.6550436
3.7952345157614067	8.030668	2.8338435
3.8127709242822716	8.863717	2.9771996
3.830307422129425	10.95913	3.3104577
3.847844009714936	12.243446	3.4990637
3.8653806874508954	15.576472	3.946704
3.882917455749409	15.27562	3.9084039
3.900454315022606	15.619542	3.9521565
3.917991265682631	12.602901	3.5500565
3.9355283081416506	10.705596	3.2719407
3.9530654428118495	8.589111	2.9307187
3.970602670105433	7.334061	2.7081473
3.9881399904346244	6.4219575	2.5341582
4.005677404211669	6.3675613	2.5234027
4.023214911848827	6.312069	2.5123832
4.0407525137583855	6.3558245	2.521076
4.058290210352644	6.41484	2.5327535
4.075828002043927	6.3764267	2.5251586
4.0933658892445814	6.30916	2.511804
4.110903872366966	6.2241845	2.4948316
4.128441951823468	6.0513124	2.4599416
4.145980128026488	6.0651436	2.4627512
4.163518401388452	6.0685625	2.4634452
4.181056772321807	6.060357	2.4617794
4.1985952412390155	5.9866176	2.4467566
4.216133808552567	6.040385	2.4577193
4.233672474674966	6.061956	2.462104
4.251211240018741	6.3497124	2.5198636
4.268750104996445	6.544852	2.5582907
4.286289070020643	7.4732246	2.7337198
4.303828135503928	9.162749	3.0270033
4.3213673018589125	29.27605	5.4107347
4.3389065694982305	90.40235	9.508015
4.356445938834537	165.57541	12.867611
4.3739854102805085	171.1132	13.081024
4.391524984248844	172.11214	13.119151
4.409064661152262	136.24586	11.672441
4.426604441403504	96.52043	9.824481
4.444144325415337	75.33523	8.679586
4.461684313600543	21.240828	4.608777
4.47922440637193	21.564013	4.643707
4.496764604142329	19.795792	4.4492464
4.5143049073245916	17.93212	4.2346334
4.531845316331589	15.754153	3.9691503
4.5493858315762195	13.049887	3.6124628
4.566926453471405	10.879728	3.2984433
4.584467182430081	8.970115	2.995015
4.602008018865218	7.886563	2.8083024
4.619548963189798	7.335049	2.7083297
4.637090015816834	6.9438844	2.6351252
4.654631177159353	6.7113214	2.5906217
4.672172447630417	6.2965765	2.509298
4.689713827643102	5.9693365	2.4432225
4.7072553176105085	5.840073	2.4166243
4.724796917945764	5.814159	2.4112568
4.742338629062015	5.7876153	2.4057462
4.759880451372434	5.6185827	2.370355
4.777422385290215	5.4419885	2.332807
4.794964431228581	5.483913	2.3417757
4.812506589600768	5.513291	2.3480399
4.830048860820047	5.549007	2.355633
4.847591245299709	5.529575	2.3515048
4.8651337434530655	5.52298	2.3501022
4.882676355693457	5.4213877	2.3283873
4.900219082434242	5.3993287	2.3236456
4.917761924088813	5.411815	2.326331
4.935304881070575	5.45432	2.3354485
4.952847953792969	5.410147	2.3259723
4.970391142669449	5.3458486	2.3121092
4.9879344481135055	5.3067884	2.3036468
5.005477870538642	5.297296	2.3015854
5.023021410358394	5.316313	2.3057132
5.040565067986324	5.3459272	2.3121262
5.05810884383601	5.3181787	2.3061178
5.075652738321066	5.26444	2.2944367
5.09319675185512	5.253146	2.2919743
5.110740884851836	5.250655	2.2914307
5.128285137724894	5.2547784	2.2923303
5.145829510888007	5.339284	2.310689
5.163374004754908	5.269782	2.2956007
5.1809186197393595	5.251638	2.2916453
5.198463356255145	5.1811543	2.2762148
5.216008214716077	5.147481	2.268806
5.233553195535998	5.1006737	2.2584672
5.251098299128764	5.084324	2.2548444
5.268643525908272	5.0966396	2.2575738
5.286188876288432	5.1365004	2.2663848
5.3037343506831895	5.1688104	2.2735019
5.32127994950651	5.179198	2.2757852
5.3388256731723915	5.1869755	2.2774932
5.356371522094851	5.1235332	2.2635224
5.373917496687938	5.046924	2.246536
5.391463597365729	5.0038867	2.2369368
5.40900982454232	5.011263	2.238585
5.426556178631843	5.050336	2.2472951
5.444102660048449	5.0321712	2.2432501
5.4616492692063225	5.0590763	2.249239
5.479196006519669	5.050426	2.2473154
5.496742872402727	5.017922	2.2400718
5.514289867269756	5.0114846	2.2386346
5.531836991535049	4.977676	2.2310705
5.549384245612924	4.926214	2.2195077
5.566931629917724	4.9098887	2.215827
5.584479144863822	4.9294686	2.2202406
5.6020267908656205	4.982195	2.232083
5.619574568337545	5.061533	2.2497852
5.637122477694054	5.1158795	2.261831
5.654670519349629	5.075693	2.25293
5.672218693718784	5.0453553	2.2461867
5.689767001216059	4.958084	2.2266755
5.707315442256021	4.9349756	2.2214806
5.724864017253266	4.9618278	2.227516
5.7424127266224225	5.058888	2.2491972
5.75996157077814	5.0766683	2.2531464
5.777510550135105	5.0994062	2.2581866
5.795059665108022	5.094828	2.2571726
5.812608916111639	5.1492205	2.2691894
5.830158303560715	5.2275634	2.2863865
5.847707827870055	5.244953	2.2901862
5.86525748945448	5.284204	2.2987397
5.8828072887288485	5.3630323	2.3158221
5.900357226108044	5.4228134	2.3286934
5.917907302006979	5.5543504	2.356767
5.9354575168406	6.0720606	2.4641552
5.9530078710238765	6.5794477	2.5650434
5.970558364971812	6.977023	2.6414056
5.988108999099438	7.2937775	2.7006993
6.005659773821818	7.805273	2.7937918
6.023210689554039	7.570056	2.7513735
6.040761746711227	7.99309	2.8272054
6.058312945708531	7.4830804	2.735522
6.075864286961132	7.1842966	2.6803539
6.093415770884244	6.561845	2.5616097
6.1109673978931065	5.935402	2.436268
6.128519168402993	5.3263597	2.3078907
6.146071082829204	5.1812	2.2762249
6.163623141587075	5.1086645	2.2602355
6.181175345091969	5.0679927	2.2512202
6.198727693759281	5.022724	2.2411435
6.216280188004435	5.05095	2.247432
6.233832828242885	5.0480933	2.2467961
6.251385614890126	5.030166	2.242803
6.268938548361669	5.059705	2.2493787
6.286491629073067	5.0025563	2.2366395
6.304044857439898	5.038107	2.2445729
6.321598233877777	4.93934	2.2224627
6.339151758802344	4.959661	2.2270296
6.356705432629277	4.9733057	2.2300909
6.37425925577428	4.881869	2.209495
6.391813228653095	4.8755016	2.2080538
6.409367351681486	4.8674	2.2062185
6.426921625275259	4.877045	2.2084033
6.44447604985025	4.843143	2.200714
6.46203062582232	4.8266015	2.1969528
6.47958535360737	4.852566	2.202854
6.497140233621328	4.930582	2.2204914
6.514695266280161	4.9468446	2.2241504
6.532250451999859	4.918914	2.2178624
6.549805791196454	4.859349	2.2043931
6.567361284286002	4.826074	2.1968327
6.584916931684597	4.846017	2.2013671
6.602472733808367	4.8875265	2.2107751
6.6200286910734665	4.976043	2.2307045
6.637584803896092	5.0207496	2.2407029
6.655141072692462	4.967414	2.2287695
6.672697497878842	4.8434997	2.2007952
6.690254079871514	4.80876	2.1928885
6.707810819086808	4.848108	2.2018418
6.725367715941078	4.831387	2.1980417
6.742924770850719	4.816051	2.1945503
6.760481984232151	4.778484	2.1859744
6.778039356501836	4.8641396	2.2054794
6.795596888076266	4.931396	2.2206748
6.813154579371963	4.8579826	2.2040832
6.830712430805492	4.7561865	2.1808684
6.84827044279344	4.7547164	2.1805313
6.865828615752445	4.812954	2.1938446
6.883386950099159	4.8627806	2.2051713
6.900945446250287	4.9490976	2.2246568
6.918504104622553	4.9887877	2.2335594
6.936062925632727	5.0407615	2.245164
6.953621909697607	5.030441	2.2428644
6.971181057234028	5.011082	2.2385447
6.988740368658859	5.015369	2.239502
7.006299844389007	5.030519	2.2428818
7.023859484841407	5.083629	2.2546904
7.041419290433036	5.1436577	2.2679634
7.058979261580902	5.2916703	2.300363
7.0765393987020495	5.4990106	2.344997
7.094099702213559	5.8924227	2.4274313
7.111660172532549	6.2154264	2.4930756
7.129220810076164	6.505982	2.5506825
7.146781615261595	7.112387	2.6669059
7.16434258850606	7.391367	2.7187068
7.181903730226821	7.966996	2.8225868
7.1994650408411704	8.095871	2.8453245
7.217026520766437	8.1764	2.8594406
7.234588170419983	8.360578	2.8914664
7.252149990219215	8.299465	2.8808792
7.269711980581568	8.209352	2.8651967
7.2872741419245175	8.02233	2.832372
7.304836474665574	7.6111374	2.7588289
7.322398979222286	7.3009605	2.702029
7.339961656012233	7.0731	2.6595302
7.357524505453039	6.7377515	2.595718
7.375087527962357	6.5317235	2.5557237
7.392650723957886	6.2359176	2.497182
7.410214093857353	5.8557677	2.4198694
7.427777638078528	5.595861	2.3655572
7.445341357039213	5.408854	2.3256943
7.4629052511572525	5.2659264	2.2947607
7.480469320850524	5.2338758	2.2877665
7.498033566536948	5.2042694	2.2812867
7.5155979886344735	5.223439	2.2854846
7.5331625875610975	5.130692	2.265103
7.550727363734844	5.063171	2.250149
7.568292317573788	4.965036	2.228236
7.585857449496025	4.9622507	2.227611
7.603422759919705	5.0713654	2.251969
7.620988249263007	5.1084924	2.2601974
7.638553917944147	5.1004934	2.2584271
7.656119766381391	5.099602	2.25823
7.673685794993023	5.0767946	2.2531743
7.691252004197388	5.1100717	2.2605467
7.70881839441285	5.0574713	2.2488823
7.726384966057826	5.0434084	2.2457535
7.743951719550762	5.029561	2.2426684
7.761518655310149	5.0255165	2.2417665
7.779085773754511	5.082116	2.254355
7.796653075302419	5.149489	2.2692485
7.814220560372475	5.184227	2.2768898
7.831788229383323	5.195098	2.2792757
7.8493560827536495	5.1888356	2.2779016
7.866924120902174	5.16606	2.2728968
7.884492344247663	5.138904	2.266915
7.9020607532089135	5.1591415	2.2713745
7.919629348204771	5.1401105	2.2671812
7.937198129654115	5.21443	2.2835126
7.954767097975865	5.2282634	2.2865396
7.972336253588986	5.3049774	2.3032537
7.989905596912472	5.269962	2.2956398
8.007475128365371	5.286706	2.2992837
8.025044848366756	5.2996125	2.3020887
8.042614757335754	5.422704	2.32867
8.060184855691523	5.498696	2.34493
8.07775514385327	5.6374297	2.3743272
8.095325622240228	5.6971045	2.3868608
8.112896291271687	5.757577	2.3994951
8.130467151366968	5.8093953	2.4102688
8.148038202945436	5.8823543	2.4253566
8.165609446426497	5.8394027	2.4164855
8.183180882229594	5.9302945	2.4352195
8.200752510774217	5.8916698	2.4272761
8.218324332479893	5.906962	2.4304242
8.235896347766193	5.937894	2.4367795
8.253468557052724	5.9282513	2.4348001
8.27104096075914	5.9090853	2.430861
8.288613559305137	5.907128	2.4304583
8.306186353110448	5.9132366	2.4317148
8.32375934259485	5.9749484	2.4443707
8.341332528178162	5.9776454	2.4449224
8.358905910280246	6.0116563	2.4518678
8.376479489321003	6.0203724	2.4536448
8.394053265720377	6.0834723	2.4664695
8.411627239898356	6.1442866	2.4787672
8.42920141227497	6.202888	2.4905598
8.44677578327029	6.1841154	2.4867883
8.464350353304427	6.0978503	2.4693825
8.48192512279754	6.0489545	2.4594622
8.499500092169827	6.099521	2.4697208
8.51707526184153	6.165656	2.483074
8.534650632232934	6.17163	2.4842765
8.552226203764365	6.125771	2.4750295
8.569801976856192	6.090126	2.467818
8.587377951928834	6.122061	2.4742799
8.60495412940274	6.134333	2.4767585
8.622530509698416	6.164003	2.482741
8.6401070932364	6.25049	2.500098
8.657683880437283	6.3583703	2.521581
8.675260871721695	6.530406	2.555466
8.692838067510303	6.6701684	2.5826669
8.710415468223834	6.7679315	2.6015248
8.727993074283043	6.802543	2.6081686
8.745570886108737	6.821456	2.6117916
8.763148904121765	6.898433	2.6264868
8.78072712874302	7.012168	2.6480498
8.798305560393441	7.234814	2.689761
8.815884199494006	7.3482738	2.71077
8.833463046465745	7.4868617	2.736213
8.851042101729728	7.631115	2.7624474
8.86862136570707	7.960903	2.8215072
8.886200838818924	8.160818	2.8567145
8.903780521486505	8.218068	2.8667173
8.921360414131055	8.311481	2.882964
8.938940517173874	8.507934	2.9168363
8.956520831036297	8.656062	2.9421186
8.97410135613971	8.958264	2.993036
8.99168209290554	9.122735	3.0203865
9.009263041755265	9.416981	3.0687099
9.026844203110405	9.605239	3.099232
9.044425577392525	9.645576	3.1057327
9.062007165023239	9.638077	3.1045253
9.079588966424197	9.895198	3.1456633
9.097170982017108	10.075129	3.1741343
9.11475321222372	10.987354	3.3147178
9.132335657465825	11.795751	3.4344943
9.149918318165264	11.897287	3.4492445
9.167501194743924	12.41123	3.5229576
9.18508428762374	12.227054	3.4967203
9.202667597226693	12.1797285	3.4899468
9.220251123974803	11.769543	3.4306767
9.237834868290143	11.518511	3.3938932
9.255418830594836	11.254037	3.3547037
9.273003011311046	10.774414	3.2824402
9.290587410860985	10.528597	3.2447798
9.308172029666911	9.947045	3.1538937
9.32575686815113	9.727956	3.118967
9.343341926735997	8.572223	2.927836
9.360927205843916	8.371774	2.8934019
9.378512705897327	8.153068	2.8553576
9.396098427318728	7.9897003	2.8266058
9.413684370530664	7.9279866	2.815668
9.431270535955722	7.8236604	2.7970808
9.448856924016539	7.7276278	2.7798612
9.466443535135806	7.572557	2.751828
9.484030369736251	7.559864	2.7495208
9.501617428240658	7.588296	2.754686
9.519204711071852	7.6266694	2.7616425
9.536792218652714	7.6341076	2.7629888
9.55437995140617	7.6773157	2.770797
9.571967909755191	7.655013	2.7667694
9.589556094122802	7.616228	2.7597516
9.60714450493207	7.689486	2.7729921
9.624733142606116	7.730433	2.7803657
9.642322007568108	7.8381906	2.799677
9.659911100241267	7.831185	2.7984254
9.677500421048851	7.8407493	2.8001337
9.695089970414175	7.886097	2.8082194
9.712679748760609	7.9517307	2.8198814
9.730269756511557	7.9646463	2.8221705
9.747859994090492	7.9077735	2.8120763
9.765450461920915	7.931877	2.8163588
9.78304116042639	7.9579115	2.820977
9.800632090030527	8.09829	2.8457496
9.81822325115699	8.099496	2.8459613
9.835814644229481	8.129367	2.8512044
9.853406269671762	8.170877	2.8584747
9.870998127907646	8.187009	2.861295
9.888590219360985	8.129099	2.8511574
9.906182544455698	8.129399	2.85121
9.923775103615734	8.119979	2.8495576
9.941367897265108	8.173195	2.85888
9.958960925827878	8.2577	2.8736215
9.97655418972816	8.235827	2.8698132
9.994147689390106	8.244186	2.8712692
10.011741425237934	8.127455	2.8508692
10.029335397695904	8.028401	2.8334434
10.04692960718833	8.022576	2.8324153
10.06452405413958	8.006522	2.8295798
10.082118738974064	8.078285	2.8422325
10.099713662116246	8.130808	2.851457
10.117308823990651	8.142388	2.853487
10.134904225021844	8.010638	2.830307
10.152499865634445	7.9513965	2.819822
10.170095746253125	8.0080805	2.8298552
10.18769186730261	8.127966	2.8509588
10.205288229207675	8.1423	2.8534715
10.222884832393145	8.0811405	2.8427346
10.2404816772839	8.051702	2.837552
10.258078764304868	8.009972	2.8301892
10.275676093881035	7.964857	2.822208
10.293273666437438	7.9108186	2.8126178
10.310871482399158	7.9791617	2.824741
10.32846954219134	7.992357	2.8270757
10.346067846239173	8.021163	2.8321657
10.363666394967908	8.053889	2.8379376
10.38126518880283	8.062539	2.839461
10.398864228169298	8.110993	2.8479805
10.416463513492713	8.068785	2.8405607
10.434063045198531	8.00259	2.828885
10.451662823712262	7.9590645	2.8211813
10.469262849459467	7.965371	2.822299
10.486863122865758	7.9866366	2.8260639
10.504463644356806	8.027177	2.8332274
10.522064414358338	7.924469	2.8150434
10.539665433296118	7.7719097	2.7878146
10.557266701595987	7.6963468	2.774229
10.574868219683818	7.653676	2.766528
10.592469987985552	7.6640587	2.7684035
10.610072006927185	7.55561	2.748747
10.627674276934751	7.4517407	2.7297876
10.64527679843435	7.2717357	2.6966157
10.662879571852143	7.1857457	2.6806242
10.680482597614331	7.076733	2.660213
10.698085876147173	6.9500117	2.6362875
10.715689407876988	6.832513	2.6139076
10.733293193230146	6.718614	2.5920289
10.750897232633072	6.6176267	2.5724747
10.76850152651225	6.5016837	2.54984
10.786106075294207	6.3855677	2.526968
10.803710879405534	6.3973784	2.529304
10.821315939272877	6.345999	2.5191267
10.83892125532294	6.307432	2.51146
10.856526827982472	6.1588836	2.4817097
10.874132657678285	6.137807	2.4774597
10.891738744837243	6.089807	2.4677534
10.909345089886271	6.087421	2.46727
10.926951693252343	6.0023627	2.449972
10.944558555362494	5.9064837	2.4303257
10.96216567664381	5.8298783	2.414514
10.979773057523436	5.7272534	2.393168
10.997380698428573	5.6929603	2.3859925
11.014988599786477	5.6437035	2.375648
11.032596762024461	5.5923595	2.364817
11.050205185569892	5.518869	2.3492272
11.067813870850198	5.469074	2.3386052
11.085422818292859	5.459088	2.3364692
11.10303202832541	5.3607364	2.3153265
11.120641501375454	5.269476	2.295534
11.138251237870636	5.108821	2.26027
11.155861238238671	5.0948944	2.2571874
11.173471502907317	5.091895	2.256523
11.191082032304402	5.0324783	2.2433186
11.208692826857805	4.9473643	2.2242672
11.226303886995465	4.89126	2.2116194
11.243915213145371	4.846544	2.2014868
11.261526805735578	4.8260794	2.1968338
11.279138665194196	4.8271594	2.1970797
11.296750791949393	4.7753954	2.185268
11.314363186429393	4.694339	2.1666422
11.331975849062479	4.61551	2.1483738
11.34958878027699	4.5425844	2.131334
11.36720198050133	4.5196385	2.1259441
11.384815450163948	4.437765	2.1066003
11.402429189693366	4.405282	2.0988765
11.420043199518153	4.367007	2.0897384
11.437657480066942	63.360203	7.9599123
11.455272031768422	85.067474	9.223203
11.472886855051353	107.4646	10.366513
11.490501950344528	99.09042	9.954417
11.508117318076819	84.421646	9.188126
11.52573295867715	45.795414	6.767231
11.543348872574514	4.053677	2.0133746
11.560965060197946	4.024915	2.0062191
11.57858152197655	4.0033875	2.0008466
11.59619825833949	3.9739187	1.993469
11.613815269715985	3.9300008	1.982423
11.631432556535323	38.391006	6.196048
11.649050119226837	82.95287	9.107847
11.666667958219929	93.34369	9.661454
11.68428607394406	107.5912	10.372618
11.701904466828756	82.39335	9.077078
11.719523137303586	65.19286	8.07421
11.737142085798196	4.4421144	2.1076324
11.754761312742286	3.5532053	1.8849947
11.772380818565619	3.571501	1.8898416
11.790000603698015	3.5559328	1.8857181
11.80762066856935	3.565689	1.8883033
11.825241013609572	3.5563724	1.8858347
11.842861639248683	3.5211554	1.8764741
11.860482545916748	3.4475942	1.8567698
11.878103734043883	3.4134505	1.8475525
11.895725204060282	3.400446	1.8440298
11.91334695639619	3.364488	1.834254
11.930968991481919	3.3076332	1.81869
11.948591309747824	3.2862477	1.8128011
11.966213911624347	3.307696	1.8187072
11.98383679754198	3.269194	1.8080913
12.001459967931268	3.2079492	1.7910749
12.019083423222835	3.158732	1.7772821
12.036707163847352	3.1484222	1.7743794
12.05433119023556	3.1657877	1.779266
12.071955502818259	3.2009313	1.7891147
12.089580102026313	3.2036238	1.7898669
12.107204988290643	3.145559	1.7735724
12.12483016204224	3.082895	1.7558175
12.142455623712152	3.019347	1.7376268
12.16008137373149	3.0166025	1.7368369
12.177707412531431	3.0616424	1.7497549
12.19533374054321	3.0708468	1.7523832
12.212960358198126	3.0481164	1.7458856
12.230587265927545	3.0282662	1.7401915
12.248214464162889	2.987218	1.728357
12.265841953335649	2.9630513	1.7213516
12.283469733877375	2.8974943	1.7022028
12.301097806219685	2.8724272	1.6948236
12.31872617079425	2.8566575	1.6901649
12.336354828032825	2.9270866	1.710873
12.353983778367205	2.9488065	1.717209
12.371613022229262	2.9232476	1.7097508
12.389242560050928	2.8675385	1.6933808
12.406872392264201	2.8445191	1.6865703
12.424502519301143	2.870052	1.6941228
12.442132941593874	2.8441794	1.6864696
12.459763659574586	2.8055608	1.6749809
12.477394673675532	2.7445781	1.6566769
12.49502598432903	2.7397263	1.6552118
12.51265759196746	2.7409053	1.655568
12.530289497023267	2.74959	1.6581887
12.547921699928967	2.7591367	1.6610649
12.565554201117134	2.788564	1.6698993
12.583187001020404	2.8015287	1.6737767
12.600820100071486	2.770331	1.6644311
12.618453498703152	2.755985	1.660116
12.636087197348235	2.7340698	1.6535023
12.65372119643964	2.7403111	1.6553885
12.671355496410326	2.6979063	1.6425304
12.68899009769333	2.681529	1.6375375
12.706625000721749	2.696605	1.6421343
12.724260205928752	2.7688174	1.6639764
12.741895713747551	2.826116	1.6811056
12.759531524611454	2.882539	1.6978042
12.777167638953818	2.9131873	1.7068062
12.794804057208072	2.9550445	1.7190243
12.812440779807702	3.0205243	1.7379656
12.830077807186271	3.134543	1.7704641
12.847715139777405	3.1095471	1.7633908
12.865352778014795	3.2946978	1.8151302
12.882990722332197	3.4665222	1.8618599
12.90062897316344	3.5999465	1.8973525
12.918267530942412	3.6663985	1.9147842
12.935906396103071	3.5581167	1.8862971
12.953545569079449	3.6632214	1.9139544
12.971185050305628	3.5021327	1.8713986
12.988824840215775	3.509515	1.8733699
13.006464939244115	3.5030575	1.8716457
13.024105347824943	3.352302	1.8309293
13.041746066392617	3.4109485	1.8468753
13.05938709538157	3.2415824	1.8004395
13.077028435226296	3.220726	1.7946382
13.094670086361363	3.1187904	1.7660097
13.112312049221401	3.0657697	1.7509339
13.129954324241112	3.0175495	1.7371095
13.147596911855258	2.851373	1.6886009
13.165239812498685	2.8028865	1.6741823
13.182883026606293	2.7164533	1.6481667
13.200526554613058	2.6860156	1.6389068
13.218170396954017	2.695504	1.641799
13.235814554064284	2.7216485	1.6497419
13.253459026379034	2.6882024	1.6395738
13.271103814333523	2.644578	1.6262158
13.288748918363058	2.6163735	1.6175208
13.306394338903031	2.6261606	1.6205434
13.32404007638889	2.6227243	1.6194828
13.341686131256164	2.6538868	1.6290754
13.359332503940449	2.6247728	1.620115
13.376979194877402	2.6192353	1.6184052
13.394626204502751	2.6342578	1.6230397
13.412273533252307	2.6575203	1.6301903
13.429921181561937	2.6739438	1.6352198
13.447569149867581	2.681976	1.637674
13.465217438605247	2.6584835	1.6304857
13.482866048211022	2.619562	1.6185061
13.500514979121052	2.5953307	1.611003
13.518164231771568	2.5503933	1.5969951
13.535813806598844	2.5367103	1.5927054
13.553463704039254	2.5704968	1.6032768
13.571113924529229	2.6291528	1.6214663
13.588764468505275	2.6297498	1.6216503
13.606415336403956	2.6450968	1.6263753
13.624066528661917	2.617968	1.6180136
13.641718045715882	2.6865323	1.6390644
13.659369888002635	2.7412267	1.655665
13.67702205595903	2.825756	1.6809986
13.694674550021993	2.949092	1.7172921
13.712327370628532	3.000636	1.7322345
13.729980518215713	3.0656548	1.7509011
13.747633993220681	3.0968227	1.7597792
13.765287796080647	3.146639	1.7738769
13.7829419272329	3.231794	1.7977191
13.800596387114801	3.2468617	1.801905
13.818251176163775	3.2680178	1.807766
13.835906294817324	3.261272	1.8058993
13.853561743513023	3.2882283	1.8133472
13.871217522688525	3.3428082	1.8283348
13.888873632781538	3.3891876	1.8409746
13.906530074229858	3.4585905	1.8597286
13.92418684747135	3.482138	1.8660487
13.941843952943948	3.4591036	1.8598665
13.959501391085665	3.413871	1.8476664
13.977159162334578	3.3511827	1.8306236
13.994817267128846	3.3781698	1.8379798
14.012475705906693	3.3133886	1.8202716
14.030134479106424	3.2698205	1.8082645
14.047793587166414	3.1981297	1.7883315
14.065453030525108	3.1487617	1.7744751
14.083112809621026	3.0306032	1.7408627
14.100772924892766	2.9111154	1.7061992
14.118433376778997	2.8508854	1.6884565
14.136094165718458	2.7987282	1.67294
14.153755292149969	2.7575414	1.6605847
14.171416756512416	2.7086937	1.645811
14.189078559244768	2.635475	1.6234146
14.20674070078606	2.5627563	1.6008611
14.224403181575408	2.4745812	1.5730802
14.242066002051999	2.4220808	1.5563035
14.259729162655093	2.4063375	1.5512375
14.277392663824022	2.391125	1.5463263
14.295056505998208	2.3785148	1.5422434
14.312720689617128	2.368003	1.5388317
14.330385215120348	2.3544567	1.5344238
14.348050082947497	2.3273768	1.5255742
14.3657152935383	2.3072672	1.5189692
14.383380847332528	2.305876	1.5185112
14.401046744770051	2.3217695	1.5237354
14.418712986290798	2.3417356	1.5302731
14.436379572334793	2.3451855	1.5313998
14.454046503342123	2.351943	1.5336046
14.471713779752946	2.3455396	1.5315155
14.489381402007504	2.3154848	1.5216717
14.507049370546113	2.3147552	1.5214319
14.524717685809168	2.3321586	1.5271406
14.542386348237134	2.3175983	1.522366
14.560055358270553	2.3105273	1.5200418
14.577724716350051	2.3590872	1.5359321
14.595394422916325	2.396797	1.5481592
14.61306447841015	2.4302309	1.5589198
14.63073488327237	2.433234	1.5598826
14.648405637943917	2.4314406	1.5593077
14.6660767428658	2.4186683	1.5552068
14.683748198479094	2.4309971	1.5591655
14.701420005224954	2.509629	1.5841808
14.719092163544628	2.5919755	1.6099613
14.73676467387942	2.6447287	1.6262622
14.754437536670727	2.646715	1.6268728
14.772110752360014	2.6382732	1.6242762
14.78978432138882	2.6485567	1.6274387
14.807458244198777	2.6714256	1.6344496
14.82513252123159	2.6816108	1.6375625
14.842807152929028	2.6724195	1.6347537
14.860482139732962	2.614461	1.6169295
14.87815748208531	2.5732157	1.6041245
14.8958331804281	2.5630739	1.6009603
14.91350923520342	2.5693195	1.6029097
14.931185646853438	2.6143105	1.6168829
14.948862415820408	2.6231709	1.6196206
14.966539542546656	2.6689274	1.6336852
14.98421702747459	2.656883	1.6299948
15.001894871046696	2.639393	1.6246209
15.019573073705542	2.6294322	1.6215523
15.037251635893766	2.6231682	1.6196197
15.054930558054092	2.6583018	1.63043
15.072609840629323	2.6570947	1.6300597
15.090289484062351	2.7553747	1.6599321
15.107969488796124	2.9046454	1.7043021
15.125649855273691	3.1378477	1.7713971
15.14333058393817	3.5265307	1.877906
15.161011675232768	4.0915565	2.0227597
15.17869312960076	4.741138	2.1774154
15.196374947485506	5.4179697	2.3276532
15.214057129330447	6.825703	2.6126046
15.231739675579114	8.907549	2.9845517
15.249422586675102	13.2419	3.6389422
15.267105863062092	17.50622	4.1840434
15.284789505183847	24.362267	4.935815
15.302473513484218	28.911268	5.3769197
15.320157888407127	32.915188	5.737176
15.337842630396578	31.813145	5.640314
15.355527739896656	29.086483	5.3931885
15.37321321735153	22.711628	4.7656717
15.39089906320545	15.691632	3.9612665
15.408585277902748	10.234276	3.1991055
15.42627186188783	6.406334	2.5310736
15.443958815605198	4.603244	2.145517
15.461646139499424	3.779295	1.9440409
15.479333834015168	3.3578122	1.8324333
15.497021899597165	3.0657876	1.750939
15.514710336690234	2.8401513	1.6852748
15.53239914573928	2.680074	1.6370932
15.550088327189297	2.5439346	1.5949717
15.567777881485336	2.5085154	1.5838293
15.58546780907256	2.5005455	1.5813113
15.6031581103962	2.5097437	1.5842171
15.620848785901568	2.5041037	1.582436
15.638539836034063	2.4758747	1.5734912
15.656231261239173	2.453154	1.5662549
15.673923061962451	2.4414642	1.5625186
15.691615238649552	2.4499197	1.5652219
15.709307791746202	2.4559295	1.5671406
15.727000721698221	2.4736114	1.5727719
15.744694028951498	2.4351225	1.5604879
15.76238771395202	2.4122903	1.553155
15.780081777145844	2.3816004	1.5432434
15.797776218979125	2.379644	1.5426095
15.815471039898094	2.4027865	1.5500925
15.833166240349064	2.3863668	1.544787
15.850861820778437	2.4052436	1.5508848
15.868557781632699	2.4200823	1.5556614
15.886254123358412	2.4446583	1.5635403
15.903950846402232	2.4594424	1.5682609
15.921647951210897	2.4372845	1.5611805
15.939345438231225	2.4562135	1.5672312
15.957043307910133	2.4625068	1.5692376
15.974741560694602	2.5248597	1.5889807
15.992440197031714	2.5234122	1.5885252
16.01013921736862	2.5152965	1.5859686
16.02783862215259	2.4586751	1.5680163
16.045538411830933	2.4274805	1.5580374
16.06323858685107	2.4088073	1.5520333
16.080939147660512	2.3974507	1.5483704
16.09864009470684	2.4094782	1.5522494
16.11634142843774	2.3962944	1.5479969
16.134043149300954	2.3960168	1.5479072
16.15174525774433	2.3624876	1.5370386
16.169447754215817	2.3850353	1.544356
16.18715063916342	2.395805	1.5478388
16.204853913035244	2.3722003	1.5401949
16.222557576279478	2.3655648	1.5380393
16.240261629344403	22.329472	4.725407
16.257966072678386	42.890198	6.549061
16.275670906729868	38.0387	6.167552
16.293376131947387	2.4684274	1.571123
16.31108174877957	2.4908001	1.5782269
16.328787757675133	2.5243917	1.5888335
16.34649415908287	2.5342133	1.5919212
16.364200953451657	2.556591	1.5989343
16.38190814123048	2.5708258	1.6033795
16.39961572286839	2.5891945	1.6090975
16.41732369881455	2.6260386	1.6205057
16.43503206951817	2.652823	1.6287489
16.45274083542859	2.684443	1.638427
16.47044999699522	2.7341478	1.6535258
16.488159554667558	2.826963	1.6813575
16.505869508895184	2.8929048	1.7008542
16.523579860127786	2.970092	1.7233955
16.541290608815117	3.0204325	1.7379391
16.559001755407035	3.068934	1.7518373
16.57671330035348	3.148285	1.7743407
16.59442524410448	3.2439675	1.8011018
16.61213758711015	3.4334424	1.852955
16.629850329820705	3.4873211	1.867437
16.647563472686436	3.5096872	1.873416
16.665277016157724	3.3955584	1.842704
16.682990960685053	3.4044588	1.8451176
16.70070530671898	3.3727412	1.8365024
16.718420054710155	3.436965	1.8539053
16.736135205109335	3.4971397	1.8700641
16.753850758367335	3.5644698	1.8879803
16.771566714935087	3.5969596	1.8965652
16.789283075263597	3.6504533	1.9106159
16.80699983980398	3.7179997	1.9282116
16.82471700900741	3.788942	1.9465206
16.84243458332518	3.8470078	1.961379
16.860152563208665	3.901805	1.9752986
16.87787094910932	3.971663	1.9929031
16.89558974147871	4.046222	2.0115223
16.913308940768466	4.105532	2.0262113
16.931028547430333	4.1506295	2.0373094
16.94874856191613	4.19155	2.0473275
16.966468984677785	4.232671	2.0573456
16.98418981616729	4.277183	2.0681353
17.00191105683676	4.3336263	2.0817363
17.019632707138374	4.3945737	2.096324
17.03735476752442	4.4275413	2.1041722
17.05507723844728	4.508935	2.1234252
17.072800120359403	4.5016494	2.121709
17.090523413713353	4.5187035	2.1257243
17.108247118961785	4.473172	2.1149876
17.125971236557437	4.5071254	2.1229992
17.143695766953133	4.576475	2.1392698
17.161420710601806	4.580041	2.140103
17.179146067956477	4.5174284	2.1254244
17.19687183947025	4.490968	2.1191905
17.21459802559634	4.505625	2.1226456
17.232324626788028	4.550543	2.1332002
17.25005164349871	4.586242	2.1415513
17.267779076181863	4.5820885	2.1405814
17.285506925291074	4.542351	2.1312792
17.30323519127999	4.517746	2.125499
17.320963874602384	4.5248256	2.1271636
17.33869297571211	4.4859805	2.1180134
17.356422495063114	4.4547315	2.1106234
17.37415243310944	4.4599924	2.1118693
17.391882790305218	4.4305887	2.1048963
17.40961356710468	4.428088	2.1043024
17.42734476396215	4.452832	2.1101735
17.445076381332044	4.5536237	2.133922
17.462808419668868	4.6210623	2.1496656
17.48054087942723	4.6638565	2.1595964
17.498273761061835	4.795141	2.1897812
17.51600706502747	5.1234856	2.263512
17.533740791779024	5.751496	2.3982277
17.551474941771485	6.631066	2.5750856
17.56920951545993	8.6672535	2.94402
17.586944513299528	9.944205	3.1534433
17.60467993574556	12.887046	3.5898533
17.622415783253373	15.259895	3.9063916
17.64015205627843	17.871025	4.2274137
17.657888755276293	19.961538	4.4678335
17.675625880702604	21.320957	4.617462
17.69336343301311	19.83022	4.4531136
17.71110141266366	17.858185	4.2258945
17.728839820110178	15.153982	3.8928115
17.746578655808705	12.052696	3.4716992
17.764317920215372	9.908175	3.1477253
17.7820576137864	8.27716	2.8770053
17.79979773697811	6.986763	2.6432486
17.81753829024692	5.7655826	2.4011629
17.835279274049356	4.9947963	2.234904
17.85302068884201	4.3789077	2.092584
17.870762535081607	4.0549436	2.013689
17.888504813224934	3.864713	1.9658873
17.90624752372891	3.7147477	1.927368
17.923990667050536	3.5960433	1.8963237
17.941734243646895	3.4904907	1.8682855
17.959478253975185	3.421788	1.8498075
17.9772226984927	3.3786342	1.8381062
17.994967577656833	3.3536747	1.8313041
18.01271289192506	3.3044446	1.8178132
18.030458641754965	3.2882462	1.8133522
18.04820482760425	3.274726	1.8096204
18.06595144993067	3.2995062	1.8164543
18.083698509192125	3.2615392	1.8059732
18.101446005846576	3.1874838	1.7853526
18.119193940352105	3.1241527	1.7675272
18.136942313166887	3.0966167	1.7597207
18.1546911247492	3.0821426	1.7556032
18.1724403755574	3.1463742	1.7738022
18.19019006604997	3.1605957	1.7778064
18.207940196685467	3.1244	1.7675972
18.225690767922575	3.08893	1.7575352
18.243441780220046	3.0697963	1.7520834
18.261193234036764	3.0528433	1.7472388
18.278945129831676	2.9835954	1.7273088
18.29669746806386	2.9226232	1.7095681
18.314450249192483	2.8778133	1.6964118
18.3322034736768	2.9200292	1.7088093
18.349957141976184	2.9541075	1.7187518
18.3677112545501	2.9675493	1.7226577
18.385465811858108	2.9753175	1.7249109
18.403220814359884	2.9653115	1.722008
18.420976262515172	3.0234547	1.7388084
18.43873215678387	3.0527155	1.7472022
18.456488497625923	3.134906	1.7705666
18.474245285501407	3.2059977	1.79053
18.492002520870486	3.2771728	1.8102963
18.50976020419343	3.302977	1.8174094
18.527518335930615	3.5852447	1.8934742
18.545276916542516	4.1976633	2.04882
18.563035946489688	4.418253	2.101964
18.580795426232832	4.8862066	2.2104766
18.598555356232698	4.7746987	2.1851084
18.616315736950185	5.062842	2.250076
18.63407656884626	4.6945024	2.16668
18.65183785238201	4.879305	2.2089148
18.669599588018617	4.6345797	2.1528075
18.68736177621737	4.6298594	2.1517107
18.705124417439652	4.628967	2.1515033
18.72288751214696	4.440139	2.1071637
18.740651060800886	4.554565	2.1341426
18.758415063863115	4.2463484	2.060667
18.77617952179546	4.464699	2.1129835
18.793944435059814	4.2500772	2.0615716
18.811709804118184	4.2522435	2.0620968
18.829475629432675	4.1261787	2.0312998
18.8472419114655	3.8926368	1.9729767
18.86500865067897	3.9844625	1.9961119
18.88277584753551	3.732492	1.9319658
18.90054350249763	3.7485712	1.9361227
18.918311616027957	3.4171257	1.8485469
18.936080188589226	3.2850564	1.8124725
18.953849220644265	2.979316	1.7260696
18.971618712656007	2.8304095	1.6823821
18.9893886650875	2.7924907	1.6710747
19.007159078401887	7.98311	2.8254397
19.024929953062408	32.8521	5.731675
19.042701289532435	32.759438	5.723586
19.060473088275405	25.361399	5.0360103
19.07824534975489	2.6592042	1.6307067
19.096018074434568	2.6319604	1.6223317
19.113791262778197	2.5853362	1.6078981
19.13156491524966	2.5409162	1.5940251
19.149339032312945	2.534284	1.5919435
19.167113614432136	2.5219486	1.5880644
19.184888662071433	2.5239828	1.5887047
19.202664175695123	2.509905	1.584268
19.220440155767623	2.4837966	1.5760065
19.238216602753447	2.4732044	1.5726424
19.2559935171172	2.490212	1.5780406
19.27377089932361	2.4951386	1.5796008
19.291548749837514	2.460543	1.5686117
19.309327069123835	2.4332116	1.5598755
19.32710585764763	2.4628046	1.5693325
19.344885115874032	2.49618	1.5799304
19.362664844268313	2.4869647	1.5770113
19.380445043295822	2.4850569	1.5764064
19.39822571342203	2.4938185	1.5791829
19.41600685511252	2.4657917	1.570284
19.43378846883297	2.4784293	1.5743028
19.451570555049173	2.485526	1.5765551
19.469353114227037	2.4676728	1.5708828
19.48713614683254	2.4594264	1.5682559
19.50491965333182	2.439597	1.5619209
19.52270363419109	2.4270241	1.5578909
19.540488089876686	2.423387	1.5567231
19.55827302085503	2.4284093	1.5583354
19.576058427592674	2.465066	1.5700529
19.593844310556282	2.4832635	1.5758374
19.611630670212598	2.4624295	1.569213
19.629417507028506	2.450881	1.565529
19.64720482147098	2.4708853	1.571905
19.6649926140071	2.5148485	1.5858274
19.682780885104084	2.518622	1.5870167
19.70056963522921	2.4922268	1.5786788
19.718358864849908	2.462704	1.5693004
19.7361485744337	2.4231968	1.5566621
19.753938764448215	2.4359622	1.5607569
19.771729435361202	2.453445	1.5663476
19.789520587640506	2.4847853	1.5763202
19.807312221754092	2.4724085	1.5723895
19.825104338170043	2.4568238	1.5674258
19.842896937356517	2.4565673	1.5673441
19.860690019781824	2.4770396	1.5738614
19.87848358591436	2.4932446	1.5790012
19.896277636222635	2.4460166	1.5639746
19.914072171175278	2.416393	1.5544752
19.931867191241015	2.3922186	1.5466799
19.94966269688869	2.4103565	1.5525323
19.967458688587264	2.3794043	1.5425317
19.985255166805807	2.422252	1.5563586
20.00305213201348	2.494653	1.579447
20.020849584679578	2.5215712	1.5879456
20.038647525273507	2.4725275	1.5724273
20.05644595426477	2.42645	1.5577066
20.07424487212299	2.4047651	1.5507305
20.092044279317903	2.3879735	1.5453069
20.109844176319353	2.3865533	1.5448474
20.127644563597304	2.3896234	1.5458406
20.145445441621817	2.3949823	1.5475731
20.16324681086307	2.3750198	1.5411099
20.181048671791373	2.377426	1.5418904
20.198851024877122	2.3840358	1.5440323
20.216653870590836	2.4012914	1.54961
20.234457209403146	2.3850884	1.5443732
20.252261041784802	2.3603156	1.5363319
20.270065368206662	2.342219	1.530431
20.287870189139685	2.3606358	1.5364361
20.305675505054968	2.3497221	1.5328803
20.323481316423702	2.3382304	1.5291274
20.341287623717207	2.297558	1.5157698
20.359094427406884	2.3264008	1.5252544
20.376901727964288	2.329611	1.5263064
20.39470952586107	2.3438346	1.5309588
20.41251782156899	2.3594768	1.5360589
20.430326615559935	2.3390203	1.5293856
20.448135908305886	2.32003	1.5231645
20.465945700278965	2.2945483	1.5147766
20.483755991951384	2.2788332	1.5095805
20.50156678379548	2.2973332	1.5156956
20.519378076283708	2.3419738	1.5303509
20.537189869888635	2.3482146	1.5323886
20.55500216508294	2.3471737	1.5320488
20.572814962339415	2.3432958	1.5307827
20.59062826213098	2.2893474	1.5130589
20.60844206493066	2.2186267	1.4895055
20.626256371211593	2.1911626	1.4802576
20.644071181447032	2.2192452	1.4897131
20.66188649611036	2.2577925	1.5025953
20.67970231567506	2.3010132	1.5169091
20.697518640614742	2.2873905	1.5124122
20.715335471403122	2.2628832	1.5042883
20.73315280851404	2.2498674	1.4999558
20.750970652421447	2.288806	1.51288
20.768789003599412	2.305083	1.51825
20.786607862522136	2.282365	1.5107498
20.8044272296639	2.2851214	1.5116618
20.82224710549913	2.2525244	1.5008413
20.84006749050237	2.2492297	1.4997432
20.857888385148268	3.8129227	1.9526707
20.8757097899116	45.900723	6.7750072
20.893531705267254	64.77449	8.04826
20.911354131690224	83.80546	9.154532
20.92917706965566	69.06557	8.31057
20.94700051963877	50.120743	7.0796003
20.96482448211493	29.361403	5.4186163
20.982648957559622	4.108882	2.0270376
21.00047394644843	2.2254982	1.4918103
21.01829944925707	2.2172773	1.4890525
21.036125466461375	2.2018816	1.4838738
21.053951998537297	2.1672168	1.472147
21.071779045960906	2.1424797	1.4637212
21.089606609208378	2.1481314	1.4656504
21.10743468875603	2.1616423	1.4702525
21.12526328508028	2.1620677	1.4703971
21.143092398657675	2.1598167	1.4696316
21.16092202996488	2.131248	1.4598794
21.17875217947867	2.134378	1.4609511
21.19658284767596	2.1351807	1.4612257
21.21441403503377	2.1662333	1.471813
21.232245742029225	2.1822255	1.4772358
21.2500779691396	2.1787186	1.4760484
21.26791071684227	2.13786	1.4621422
21.28574398561475	2.1496155	1.4661567
21.30357777593465	2.173322	1.4742191
21.321412088279704	2.1824548	1.4773134
21.339246923127792	2.1304379	1.459602
21.357082280956888	2.122575	1.456906
21.3749181622451	2.1144795	1.454125
21.392754567470647	2.1014264	1.4496298
21.41059149711187	2.0773337	1.4412959
21.42842895164726	2.0924299	1.4465234
21.446266931555378	2.0862243	1.4443768
21.464105437314945	2.0791001	1.4419085
21.481944469404798	2.0929446	1.4467013
21.49978402830388	2.1032495	1.4502585
21.51762411449127	2.1124516	1.4534276
21.53546472844617	2.1015239	1.4496634
21.553305870647876	2.1022198	1.4499034
21.571147541575865	2.0756114	1.4406983
21.58898974170967	2.060861	1.43557
21.60683247152899	2.0675137	1.4378852
21.62467573151363	2.058545	1.4347631
21.642519522143523	2.0596237	1.435139
21.660363843898722	2.0599098	1.4352386
21.6782086972594	2.054263	1.4332701
21.696054082705864	2.0300634	1.4248029
21.713900000718535	2.0173378	1.4203302
21.73174645177795	2.026635	1.4235992
21.749593436364794	2.0346382	1.4264075
21.767440954959845	2.0218644	1.4219228
21.785289008044032	1.9873357	1.4097289
21.803137596098388	1.9708885	1.4038833
21.820986719604086	1.9778274	1.4063525
21.838836379042412	2.0035713	1.4154756
21.85668657489478	2.0374064	1.4273775
21.87453730764273	2.0415251	1.4288195
21.892388577767914	2.0183308	1.4206797
21.91024038575213	1.9855602	1.4090991
21.928092732077285	1.960008	1.4000028
21.945945617225426	1.9584651	1.3994517
21.963799041678694	1.9895028	1.4104973
21.981653005919398	31.295502	5.5942383
21.999507510429943	78.07135	8.835799
22.01736255569286	73.01903	8.545117
22.035218142190818	4.1216865	2.0301938
22.05307427040661	1.9407647	1.3931133
22.07093094082315	1.9311115	1.3896444
22.088788153923474	1.9359568	1.3913866
22.106645910190746	1.9460179	1.3949975
22.12450421010827	1.9570285	1.3989383
22.142363054159464	1.9182838	1.3850212
22.16022244282787	1.9018134	1.3790625
22.178082376597164	1.9275218	1.3883522
22.195942855951145	1.9495921	1.3962779
22.213803881373742	1.9337915	1.3906083
22.231665453349002	1.8948153	1.3765229
22.24952757236111	1.9101738	1.3820903
22.26739023889438	1.9516052	1.3969986
22.28525345343323	1.9570711	1.3989536
22.30311721646225	1.9292719	1.3889823
22.320981528466113	1.8660765	1.366044
22.33884638992964	1.8452733	1.3584083
22.356711801337788	1.8630362	1.3649309
22.37457776317561	1.8827933	1.3721491
22.392444275928337	1.8811406	1.3715467
22.410311340081282	1.8794261	1.3709216
22.428178956119904	1.881191	1.3715652
22.446047124529805	1.8678311	1.3666862
22.46391584579669	1.8622698	1.36465
22.481785120406414	1.8872638	1.3737772
22.49965494884496	1.901899	1.3790935
22.51752533159841	1.9224535	1.3865258
22.53539626915302	1.9098847	1.3819858
22.553267761995137	1.9080952	1.3813382
22.571139810611264	1.9033581	1.3796225
22.589012415488025	1.9242618	1.3871776
22.60688557711216	1.9487238	1.395967
22.624759295970566	1.9797368	1.4070312
22.642633572550263	1.9711683	1.403983
22.660508407338362	1.9366838	1.3916478
22.67838380082217	1.9234784	1.3868952
22.696259753489077	1.9149448	1.3838153
22.714136265826614	1.9123554	1.3828794
22.73201333832246	1.8933911	1.3760055
22.74989097146439	1.9250456	1.3874601
22.76776916574035	1.9233828	1.3868607
22.785647921638393	1.9249209	1.3874152
22.803527239646712	1.9153296	1.3839543
22.82140712025363	1.9108572	1.3823376
22.839287563947593	1.8980526	1.3776983
22.85716857121719	1.8766452	1.369907
22.875050142551135	1.843311	1.3576859
22.892932278438277	1.8334967	1.3540667
22.910814979367604	1.8550935	1.3620181
22.928698245828222	1.8627424	1.3648232
22.946582078309387	1.8795304	1.3709596
22.96446647730047	1.8711178	1.3678881
22.98235144329098	1.9099507	1.3820096
23.000236976770562	1.9247912	1.3873684
23.018123078229	1.9204948	1.3858192
23.03600974815619	1.8853378	1.3730761
23.053896987042194	1.882397	1.3720047
23.071784795377173	1.8688864	1.3670722
23.08967317365145	1.8869654	1.3736686
23.10756212235546	1.9035125	1.3796784
23.125451641979787	1.8954605	1.3767573
23.143341733015134	1.8720012	1.3682109
23.161232395952357	1.8790945	1.3708006
23.179123631282426	1.8610294	1.3641955
23.197015439496468	1.8871784	1.3737462
23.214907821085717	1.9002194	1.3784845
23.23280077654157	1.9269599	1.3881499
23.250694306355538	1.9470056	1.3953514
23.268588411019277	1.9828552	1.4081389
23.28648309102458	1.9657058	1.4020363
23.304378346863356	1.9356319	1.3912699
23.322274179027676	1.9248687	1.3873963
23.340170588009723	1.8684051	1.3668962
23.358067574301852	1.8565767	1.3625625
23.37596513839651	1.8458287	1.3586128
23.39386328078629	1.9022425	1.3792181
23.411762001963947	1.8718901	1.3681704
23.429661302422353	1.8638366	1.365224
23.4475611826545	1.8277123	1.3519291
23.46546164315356	1.8268294	1.3516026
23.48336268441279	1.8529712	1.3612388
23.501264306925638	1.9201404	1.3856913
23.51916651118564	1.9264032	1.3879492
23.537069297686497	1.9159098	1.384164
23.554972666922037	1.8950498	1.3766081
23.57287661938623	1.8893346	1.3745307
23.59078115557318	1.8836586	1.3724644
23.608686275977128	1.87779	1.3703247
23.62659198109246	1.8717188	1.3681077
23.6444982714137	1.8461162	1.3587186
23.66240514743549	1.8435986	1.3577918
23.68031260965263	1.8573931	1.3628621
23.698220658560068	1.8679303	1.3667225
23.716129294652845	1.8638976	1.3652463
23.7340385184262	1.8483554	1.3595424
23.75194833037546	1.8765732	1.3698807
23.769858730996123	1.906752	1.3808519
23.78776972078382	1.9251906	1.3875123
23.80568130023431	1.9277762	1.3884438
23.823593469843495	1.8695334	1.3673089
23.841506230107424	1.876566	1.3698782
23.859419581522275	1.9120688	1.3827758
23.87733352458438	1.9196581	1.3855172
23.89524805979019	1.9259973	1.3878031
23.913163187636318	1.9303879	1.389384
23.931078908619508	1.9657799	1.4020628
23.948995223236633	1.9883296	1.4100814
23.966912131984735	1.9894474	1.4104778
23.98482963536096	2.0442746	1.4297813
24.002747733862616	2.03038	1.424914
24.020666427987155	2.0275705	1.4239278
24.038585718232156	2.0326588	1.4257134
24.056505605095353	2.0372865	1.4273355
24.074426089074617	2.0198662	1.42122
24.092347170667946	1.9655652	1.4019861
24.110268850373515	1.9890226	1.4103271
24.128191128689586	2.0325017	1.4256583
24.146114006114626	2.0883052	1.445097
24.164037483147187	2.0929008	1.4466861
24.181961560286005	2.0512564	1.4322208
24.199886238029926	1.9948505	1.4123918
24.21781151687797	1.9814262	1.4076314
24.235737397329274	1.9907237	1.41093
24.253663879883135	1.9871116	1.4096495
24.271590965038975	1.9672594	1.4025903
24.289518653296376	1.993087	1.4117674
24.30744694515505	1.9983851	1.4136425
24.32537584111486	2.0131843	1.4188672
24.34330534167581	2.0015442	1.4147594
24.361235447338046	2.0144265	1.419305
24.379166158601876	1.9754694	1.4055139
24.39709747596772	1.9640646	1.4014509
24.41502939993615	1.9639997	1.4014277
24.432961931007917	1.9525073	1.3973215
24.450895069683856	1.9787682	1.406687
24.468828816465	1.9818919	1.4077969
24.4867631718525	1.9538724	1.3978099
24.504698136347656	1.9490987	1.3961012
24.52263371045192	1.988121	1.4100075
24.540569894666874	2.0079083	1.4170069
24.558506689494266	1.9560268	1.3985803
24.57644409543597	1.9538938	1.3978175
24.594382112994012	1.9391401	1.3925301
24.61232074267057	1.9024122	1.3792796
24.630259984967953	1.8835039	1.372408
24.64819984038863	1.9465244	1.395179
24.66614030943522	1.978514	1.4065965
24.684081392610462	1.9621472	1.4007666
24.702023090417274	1.9573947	1.3990692
24.7199654033587	1.9453723	1.3947661
24.737908331937927	1.9721502	1.4043326
24.755851876658305	1.9761722	1.4057639
24.773796038023324	1.9917792	1.4113041
24.79174081653661	2.054137	1.4332261
24.809686212701962	2.0690806	1.43843
24.827632227023294	2.082686	1.4431514
24.8455788600047	2.076025	1.4408418
24.8635261121504	2.124996	1.4577366
24.88147398396475	2.115121	1.4543455
24.899422475952303	2.092612	1.4465864
24.917371588617698	2.0581758	1.4346343
24.935321322465768	2.1236103	1.4572612
24.953271678001478	2.2618701	1.5039515
24.97122265572994	2.446551	1.5641454
24.989174256156414	2.780644	1.6675262
25.00712647978632	3.3899305	1.8411764
25.02507932712521	4.3722196	2.0909853
25.043032798678798	5.9036813	2.4297493
25.060986894952933	7.542791	2.7464142
25.078941616453637	9.053808	3.0089548
25.096896963687055	9.85311	3.1389663
25.114852937159508	10.467611	3.2353687
25.132809537377444	10.163402	3.188009
25.150766764847468	9.507717	3.0834587
25.168724620076347	8.2638645	2.8746939
25.186683103570985	7.13144	2.6704757
25.204642215838426	5.7523904	2.3984141
25.222601957385894	4.640766	2.1542437
25.24056232872074	3.5973256	1.8966616
25.25852333035048	2.9244523	1.710103
25.276484962782778	2.4447412	1.5635668
25.294447226525435	2.1564307	1.468479
25.312410122086423	2.0129519	1.4187853
25.330373649973843	1.9309393	1.3895824
25.348337810695988	1.9115084	1.3825731
25.366302604761245	1.9404345	1.3929948
25.384268032678207	1.9553709	1.3983458
25.40223409495558	1.9182384	1.3850049
25.420200792102257	1.8710381	1.3678589
25.438168124627246	1.8585364	1.3632815
25.45613609303974	1.8406916	1.3567209
25.474104697849057	1.8136123	1.3467042
25.492073939564698	1.7980998	1.3409324
25.510043818696285	1.8410201	1.3568419
25.528014335753614	1.8982897	1.3777844
25.54598549124664	1.887026	1.3736906
25.56395728568544	1.8264747	1.3514713
25.58192971958028	1.8103043	1.3454754
25.59990279344156	1.8342917	1.3543602
25.617876507779833	1.8445011	1.3581241
25.635850863105826	1.8596756	1.3636992
25.653825859930386	1.861728	1.3644515
25.671801498764548	1.8983049	1.3777899
25.68977778011949	1.9003011	1.378514
25.707754704506524	1.8659995	1.3660159
25.725732272437153	1.8263985	1.3514432
25.743710484423012	1.8253518	1.3510559
25.761689340975888	1.8736881	1.3688272
25.77966884260774	1.8806682	1.3713746
25.797648989830662	1.8464772	1.3588514
25.815629783156922	1.8246001	1.3507776
25.83361122309895	1.8097246	1.34526
25.85159331016929	1.7912142	1.3383626
25.869576044880695	1.7835851	1.3355093
25.887559427746034	1.806568	1.3440863
25.90554345927836	1.8285881	1.352253
25.92352813999086	1.8178273	1.3482683
25.94151347039689	1.8085686	1.3448303
25.959499451009965	1.7850282	1.3360494
25.97748608234374	1.779679	1.3340461
25.995473364912062	1.802755	1.3426671
26.013461299228904	1.8261138	1.3513378
26.03144988580839	1.8198534	1.3490194
26.04943912516483	1.8291913	1.352476
26.067429017812675	1.8033147	1.3428755
26.085419564266537	1.8360429	1.3550066
26.103410765041186	1.8665689	1.3662243
26.12140262065155	1.8758985	1.3696344
26.139395131612723	1.8518231	1.3608171
26.157388298439948	1.8183854	1.3484752
26.17538212164861	1.7986931	1.3411536
26.193376601754295	1.7744898	1.3320998
26.211371739272714	1.778542	1.33362
26.229367534719746	1.7986948	1.3411543
26.247363988611433	1.8182578	1.3484279
26.26536110146397	1.8145571	1.347055
26.283358873793727	1.8284479	1.3522011
26.301357306117204	1.826903	1.3516297
26.319356398951104	1.8209784	1.3494363
26.33735615281224	1.781564	1.3347524
26.35535656821762	1.7831209	1.3353355
26.373357645684404	1.7888997	1.3374976
26.39135938572991	1.8059552	1.3438584
26.409361788871614	1.8160663	1.347615
26.427364855627165	1.8019327	1.3423609
26.445368586514352	1.8061998	1.3439493
26.46337298205115	1.8158733	1.3475435
26.48137804275568	1.7984967	1.3410804
26.499383769146217	1.8086268	1.344852
26.517390161741215	1.8114495	1.345901
26.53539722105928	1.8183676	1.3484687
26.553404947619182	1.7898774	1.337863
26.571413341939856	1.7754683	1.332467
26.589422404540397	1.7724582	1.331337
26.60743213594006	1.7859236	1.3363845
26.62544253665827	1.7465881	1.3215854
26.64345360721459	1.7537533	1.3242935
26.66146534812879	1.8033303	1.3428813
26.679477759920758	1.8579473	1.3630655
26.69749084311057	1.8167756	1.3478782
26.71550459821847	1.8299826	1.3527685
26.733519025764842	1.7913587	1.3384165
26.751534126270258	1.7940105	1.3394067
26.769549900255434	1.7637855	1.3280759
26.787566348241267	1.7779307	1.3333907
26.80558347074881	1.7928873	1.3389875
26.823601268299267	1.7704278	1.3305743
26.841619741414036	1.776711	1.3329332
26.85963889061465	1.78458	1.3358817
26.877658716422832	1.8185856	1.3485495
26.89567921936045	1.7927389	1.338932
26.913700399949544	1.7451237	1.3210313
26.93172225871233	1.750691	1.3231368
26.949744796171174	1.7849199	1.3360089
26.967768012848605	1.7965958	1.3403715
26.98579190926733	1.79197	1.3386449
27.003816485950225	1.7984388	1.3410589
27.021841743420318	1.7972112	1.3406011
27.039867682200814	1.7666559	1.329156
27.057894302815072	1.7587427	1.3261759
27.07592160578664	1.7718859	1.331122
27.0939495916392	1.7928766	1.3389834
27.111978260896635	1.787761	1.3370718
27.13000761408296	1.7808075	1.334469
27.148037651722397	1.7924007	1.3388057
27.166068374339304	1.8254422	1.3510892
27.184099782458215	1.8231454	1.350239
27.20213187660384	1.8069295	1.3442208
27.22016465730105	1.7939196	1.3393729
27.23819812507487	1.7837481	1.3355703
27.256232280450533	1.7793506	1.333923
27.274267123953383	1.7576103	1.3257489
27.292302656108987	1.771458	1.3309613
27.31033887744306	1.759993	1.3266473
27.32837578848146	1.7504461	1.3230443
27.34641338975026	1.7214534	1.3120418
27.364451681775673	1.7435641	1.3204409
27.382490665084074	1.7868702	1.3367387
27.400530340202046	1.8066697	1.3441242
27.41857070765629	1.7812732	1.3346435
27.436611767973726	1.765331	1.3286576
27.454653521681404	1.7428142	1.3201569
27.472695969306564	1.7739825	1.3319093
27.490739111376627	1.7729436	1.3315192
27.508782948419153	1.7791657	1.3338537
27.526827480961902	1.7811105	1.3345826
27.54487270953279	1.8289438	1.3523844
27.562918634659898	1.819917	1.349043
27.580965256871508	1.8248019	1.3508523
27.599012576696026	1.814653	1.3470906
27.617060594662068	1.8256204	1.3511552
27.63510931129842	1.8080889	1.3446519
27.65315872713401	1.8080745	1.3446466
27.67120884269797	1.8179064	1.3482976
27.68925965851958	1.824	1.3505554
27.707311175128307	1.8622943	1.3646591
27.725363393053787	1.8574865	1.3628963
27.74341631282583	1.8575693	1.3629267
27.7614699349744	1.8916184	1.3753612
27.77952426002968	2.1023178	1.4499372
27.797579288521973	2.1705465	1.4732774
27.815635020981784	2.6747143	1.6354554
27.83369145793979	2.7830868	1.6682585
27.85174859992682	2.52584	1.5892892
27.869806447473923	2.3538682	1.5342321
27.887865001112267	2.0777335	1.4414345
27.905924261373233	1.9324355	1.3901206
27.92398422878836	1.8706931	1.3677329
27.94204490388936	1.8769222	1.3700081
27.96010628720813	1.9171824	1.3846235
27.978168379276728	1.9324377	1.3901215
27.9962311806274	1.83407	1.3542784
28.014294691792568	1.8145673	1.3470588
28.0323589133048	1.8317679	1.3534282
28.050423845696887	1.85567	1.3622298
28.068489489501758	1.808333	1.3447428
28.086555845252523	1.8049825	1.3434964
28.104622913482487	1.7952092	1.3398541
28.122690694725115	1.854084	1.3616475
28.14075918951405	1.8515471	1.3607156
28.15882839838312	1.8694677	1.3672848
28.176898321866304	1.9083745	1.3814393
28.1949689604978	1.9538502	1.3978019
28.213040314811945	1.954706	1.398108
28.23111238534327	1.9180673	1.3849431
28.249185172626493	1.9549484	1.3981947
28.267258677196473	2.0023437	1.4150419
28.285332899588294	2.0036936	1.4155189
28.303407840337172	1.9744937	1.4051667
28.321483499978545	1.9999107	1.414182
28.33955987904799	1.9783417	1.4065354
28.357636978081285	1.9372374	1.3918468
28.37571479761439	1.9593467	1.3997667
28.393793338183425	2.0200808	1.4212955
28.41187260032469	2.0496693	1.4316666
28.429952584574686	2.0140395	1.4191686
28.448033291470065	2.034853	1.4264827
28.46611472154769	1.978485	1.4065863
28.484196875344566	1.9112374	1.3824751
28.502279753397914	1.910648	1.3822619
28.52036335624511	1.9431078	1.393954
28.538447684423716	1.9483906	1.3958477
28.556532738471482	1.9464853	1.395165
28.574618518926325	1.9514163	1.396931
28.59270502632635	1.977364	1.4061878
28.61079226120985	2.0200338	1.421279
28.628880224115274	2.0192773	1.4210128
28.646968915581287	2.0347788	1.4264567
28.66505833614671	2.027049	1.4237447
28.68314848635055	2.0284362	1.4242318
28.701239366732004	2.056283	1.4339745
28.71933097783044	2.0699673	1.4387381
28.737423320185403	2.1012187	1.4495581
28.75551639433665	2.1117637	1.4531909
28.773610200824074	2.0769656	1.4411681
28.791704740187793	2.0772421	1.441264
28.80980001296809	2.1276274	1.4586389
28.827896019705413	2.175519	1.474964
28.845992760940433	2.1849833	1.4781688
28.86409023721397	2.1642742	1.4711473
28.88218844906704	2.1547315	1.4679004
28.900287397040845	2.184983	1.4781688
28.918387081676755	2.1960406	1.4819044
28.936487503516343	2.182764	1.4774181
28.954588663101365	2.1846983	1.4780725
28.97269056097374	2.2438996	1.4979651
28.990793197675597	2.2664995	1.5054898
29.00889657374923	2.2958374	1.515202
29.027000689737125	2.3143208	1.5212892
29.04510554618196	2.3161752	1.5218985
29.06321114362659	2.3809764	1.5430413
29.08131748261405	2.452033	1.5658969
29.099424563687567	2.4592543	1.568201
29.11753238739057	2.4317832	1.5594176
29.13564095426663	2.4714608	1.572088
29.15375026485954	2.5640714	1.6012719
29.171860319713275	2.6332848	1.6227399
29.18997111937199	2.6191325	1.6183734
29.20808266438002	2.6419666	1.6254127
29.226194955281898	2.7338736	1.653443
29.244307992622335	2.8464298	1.6871365
29.26242177694624	2.8736289	1.6951782
29.2805363087987	2.91127	1.7062443
29.29865158872498	2.9827452	1.7270626
29.316767617270557	2.932522	1.7124609
29.334884394981064	2.9258595	1.7105144
29.353001922402367	2.9364884	1.7136185
29.37112020008047	2.9806504	1.726456
29.389239228561596	3.0436215	1.7445978
29.407359008392152	3.2519803	1.8033248
29.42547954011872	3.5853212	1.8934945
29.44360082428809	4.081084	2.0201693
29.46172286144722	4.9128785	2.2165015
29.479845652143283	6.5203643	2.5535004
29.497969196923606	9.202872	3.0336237
29.516093496335728	13.045074	3.6117966
29.5342185509274	16.605387	4.0749707
29.55234436124651	19.648886	4.4327064
29.570470927841175	20.988918	4.5813665
29.588598251259686	20.88918	4.570468
29.60672633205055	19.155409	4.3766894
29.624855170762405	16.077759	4.009708
29.642984767944146	12.621612	3.5526907
29.66111512414481	9.406897	3.0670664
29.67924623991366	6.953998	2.6370435
29.697378115800138	5.2514596	2.2916064
29.71551075235387	4.2789273	2.0685568
29.733644150124675	3.7751698	1.9429796
29.751778309662576	3.5234268	1.8770794
29.769913231517766	3.4384878	1.854316
29.78804891624066	3.3933752	1.8421116
29.806185364381818	3.392468	1.8418653
29.82432257649206	3.3399856	1.8275628
29.842460553122333	3.3421793	1.8281628
29.86059929482382	3.2975152	1.8159062
29.878738802147872	3.2408962	1.800249
29.896879075646048	3.1788495	1.7829329
29.915020115870114	3.1328022	1.7699724
29.933161923371976	3.1120875	1.7641109
29.951304498703777	3.1760087	1.782136
29.969447842417857	3.2536402	1.803785
29.987591955066733	3.2519565	1.8033181
30.005736837203123	3.242349	1.8006524
30.023882489379943	3.2773771	1.8103528
30.04202891215028	3.2095675	1.7915266
30.060176106067455	3.1170328	1.765512
30.078324071684946	3.1301076	1.769211
30.09647280955646	3.1629663	1.778473
30.114622320235863	3.1621065	1.7782313
30.132772604277257	3.1338274	1.770262
30.1509236622349	3.0742655	1.7533584
30.16907549466328	3.0513558	1.746813
30.18722810211705	3.1160328	1.7652289
30.205381485151097	3.1232498	1.7672719
30.22353564432045	3.0830874	1.7558722
30.241690580180403	3.0085905	1.7345289
30.25984629328638	2.977154	1.7254431
30.278002784194037	2.9965267	1.7310479
30.296160053459246	2.9931192	1.7300633
30.314318101638033	2.9852467	1.7277867
30.332476929286646	2.9839635	1.7274152
30.35063653696153	2.9602087	1.7205257
30.368796925219307	2.9580586	1.7199007
30.386958094616844	2.8977492	1.7022777
30.40512004571115	2.8431869	1.6861752
30.423282779059463	2.8182292	1.6787583
30.441446295219233	2.8691416	1.6938541
30.459610594748067	2.866812	1.6931663
30.47777567820382	2.825132	1.6808128
30.495941546144504	2.779337	1.6671344
30.51410819912835	2.7690408	1.6640435
30.532275637713795	2.7417562	1.6558249
30.55044386245946	2.7747512	1.6657585
30.56861287392416	2.7326713	1.6530793
30.586782672666956	2.7391202	1.6550288
30.604953259247047	2.7858539	1.6690878
30.623124634223885	2.8237286	1.6803954
30.641296798157075	2.8486605	1.6877975
30.659469751606462	2.8312097	1.6826199
30.677643495132074	2.7303355	1.6523727
30.695818029294152	2.6760206	1.6358547
30.713993354653116	2.709722	1.6461233
30.73216947176962	2.6481276	1.6273068
30.75034638120448	2.667781	1.6333344
30.768524083518756	2.7685628	1.6638999
30.786702579273673	2.838879	1.6848973
30.80488186903069	2.9659514	1.7221938
30.82306195335144	3.0695455	1.7520119
30.841242832797782	3.2605543	1.8057005
30.85942450793176	3.5818741	1.892584
30.877606979315637	3.9187334	1.9795791
30.895790247511883	4.2533436	2.0623636
30.913974313083134	4.694813	2.1667516
30.932159176592283	5.1675696	2.273229
30.95034483860237	5.5598683	2.3579373
30.968531299676698	5.6888776	2.3851368
30.98671856037873	5.467013	2.3381643
31.00490662127215	4.9482183	2.2244592
31.023095482920848	4.422936	2.1030777
31.04128514588892	3.9057317	1.9762924
31.059475610740662	3.326861	1.8239684
31.07766687804056	2.8662188	1.6929911
31.09585894835335	2.6394982	1.6246532
31.11405182224393	2.5938075	1.6105301
31.132245500277417	2.6479564	1.6272542
31.15043998301914	2.5775847	1.6054858
31.168635271034628	2.4252546	1.5573229
31.18683136488964	2.382828	1.5436411
31.20502826515008	2.375134	1.541147
31.223225972382135	2.3680487	1.5388465
31.241424487152155	2.411397	1.5528673
31.259623810026692	2.4364405	1.5609101
31.27782394157253	2.377545	1.541929
31.296024882356644	2.3802354	1.5428011
31.314226632946237	2.3785696	1.5422612
31.332429193908684	2.3648465	1.5378057
31.350632565811598	2.3990798	1.5488963
31.368836749222787	2.4443395	1.5634384
31.387041744710295	2.470386	1.5717462
31.40524755284232	2.4906778	1.5781882
31.423454174187317	2.5192826	1.5872248
31.441661609313922	2.5557609	1.5986748
31.459869858791002	2.5162504	1.5862694
31.478078923187628	2.373657	1.5406677
31.496288803073064	2.3420923	1.5303895
31.514499499016807	2.3443065	1.5311128
31.532711011588546	2.2910323	1.5136156
31.550923341358178	2.2627244	1.5042355
31.56913648889584	2.3003612	1.5166942
31.587350454771844	2.2767332	1.5088848
31.605565239556732	2.215309	1.4883914
31.62378084382127	2.2611513	1.5037125
31.641997268136382	2.325641	1.5250052
31.660214513073274	2.352482	1.5337803
31.67843257920331	2.3592048	1.5359703
31.6966514670981	2.351169	1.5333523
31.71487117732944	2.3093107	1.5196416
31.733091710469346	2.2835505	1.5111421
31.751313067090052	2.2823222	1.5107356
31.769535247764008	2.2896528	1.5131599
31.787758253063878	2.3391912	1.5294415
31.805982083562526	2.3306005	1.5266304
31.824206739833024	2.2909229	1.5135795
31.84243222244869	2.195254	1.481639
31.860658531983013	2.118851	1.4556273
31.878885669009737	2.1449187	1.4645541
31.897113634102784	2.2750373	1.5083227
31.91534242783632	2.375029	1.5411129
31.933572050784694	2.3323114	1.5271907
31.951802503522508	2.1533325	1.4674238
31.970033786624548	2.108682	1.4521301
31.988265900665834	2.1548214	1.467931
32.006498846221575	2.1721807	1.473832
32.02473262386724	2.1306136	1.4596622
32.04296723417845	2.2038612	1.4845407
32.0612026777311	2.2853835	1.5117484
32.07943895510129	2.3136613	1.5210724
32.097676066865304	2.267403	1.5057898
32.115914013599685	2.1614764	1.470196
32.13415279588115	2.138464	1.4623488
32.152392414286666	2.145713	1.4648253
32.1706328693934	2.1026742	1.4500601
32.18887416177875	2.0513136	1.4322407
32.20711629202032	2.111144	1.4529777
32.225359260695924	2.1685698	1.4726064
32.243603068383614	2.138983	1.4625262
32.26184771566166	2.0102766	1.4178423
32.28009320310852	2.063085	1.4363444
32.2983395313029	2.163769	1.4709755
32.31658670082372	2.1677842	1.4723397
32.33483471225012	2.0642128	1.4367368
32.35308356616143	1.9783096	1.406524
32.371333263137245	1.9908965	1.4109913
32.38958380375734	2.0450342	1.4300469
32.407835188601744	2.1111867	1.4529923
32.42608741825067	2.096643	1.447979
32.444340493284585	2.0439491	1.4296675
32.46259441428416	1.9680736	1.4028804
32.48084918183028	1.9425021	1.3937367
32.49910479650405	1.999135	1.4139078
32.51736125888683	2.0271356	1.4237751
32.53561856956014	2.0128975	1.4187661
32.5538767291058	2.0392997	1.4280405
32.572135738105764	2.0143545	1.4192796
32.59039559714228	1.9608878	1.4003171
32.608656306797776	1.9676121	1.402716
32.62691786765491	1.980846	1.4074253
32.645180280296586	1.9736743	1.4048752
32.663443545305896	1.9716883	1.4041681
32.68170766326619	1.9567451	1.3988371
32.69997263476099	1.9878309	1.4099046
32.7182384603741	2.063281	1.4364126
32.7365051406895	2.0778134	1.4414623
32.75477267629144	1.9884664	1.4101299
32.77304106776434	1.9148452	1.3837793
32.79131031569289	1.9760983	1.4057376
32.809580420661966	2.0015745	1.4147701
32.827851383256714	1.9294947	1.3890625
32.84612320406245	1.9742831	1.4050919
32.86439588366476	2.0397344	1.4281927
32.88266942264945	2.0035174	1.4154567
32.9009438216025	1.891715	1.3753964
32.9192190811102	1.9124205	1.382903
32.937495201758985	1.9085267	1.3814944
32.95577218413556	1.9184052	1.3850651
32.974050028826866	1.9870025	1.4096107
32.992328736420035	1.9918944	1.4113449
33.010608307502444	1.9148465	1.3837798
33.02888874266169	1.9222213	1.386442
33.047170042485604	1.9020876	1.379162
33.06545220756225	1.8887432	1.3743155
33.083735238479896	1.937855	1.3920686
33.10201913582707	1.9719574	1.404264
33.12030390019248	1.9444854	1.394448
33.138589532165135	1.933487	1.3904989
33.15687603233419	1.9962633	1.4128919
33.17516340128909	2.001129	1.4146127
33.19345163961947	1.9350892	1.3910749
33.211740747915215	1.878124	1.3704467
33.23003072676643	1.8989387	1.3780198
33.248321576763466	1.8997225	1.3783042
33.266613298496885	1.8920096	1.3755034
33.28490589255747	1.8634742	1.3650913
33.30319935953626	1.8809695	1.3714844
33.32149370002451	1.9069457	1.3809221
33.339788914613706	1.9536576	1.397733
33.358085003895575	1.9851441	1.4089514
33.376381968462034	1.9404585	1.3930035
33.39467980890529	1.9192877	1.3853836
33.41297852581774	1.9404668	1.3930063
33.43127811979204	1.8959283	1.3769271
33.44957859142105	1.78036	1.3343014
33.467879941297866	1.8097755	1.345279
33.486182170015844	1.9204884	1.3858168
33.50448527816853	1.8970643	1.3773396
33.522789266349754	1.8364999	1.3551753
33.541094135153514	1.9140888	1.383506
33.55939988517411	2.0527513	1.4327426
33.57770651700602	2.0775306	1.4413642
33.59601403124398	2.0322113	1.4255565
33.61432242848296	2.108122	1.4519373
33.632631709318154	2.0408406	1.4285799
33.650941874344994	1.8415655	1.3570429
33.66925292415916	1.7402625	1.3191901
33.68756485935654	1.8764411	1.3698325
33.70587768053328	1.9406968	1.3930889
33.724191388285746	1.8242263	1.3506392
33.74250598321054	1.7558036	1.3250674
33.760821465904506	1.761538	1.3272295
33.77913783696474	1.8509135	1.3604828
33.79745509698852	1.9948487	1.4123912
33.815773246573414	1.991648	1.4112576
33.8340922863172	2.0417037	1.428882
33.852412216817896	2.0461514	1.4304374
33.87073303867377	1.9445448	1.3944694
33.889054752483304	1.8580468	1.3631018
33.907377358845245	1.8946818	1.3764744
33.92570085835853	1.9527383	1.3974041
33.94402525162239	1.8370006	1.3553599
33.96235053923627	1.8060471	1.3438925
33.980676721799824	1.8297235	1.3526727
33.999003799912984	1.8384295	1.3558869
34.01733177417592	1.7513033	1.3233682
34.03566064518901	1.7360861	1.3176062
34.0539904135529	1.7304865	1.3154795
34.07232107986846	1.8226953	1.3500723
34.090652644736785	1.9402503	1.3929287
34.108985108759235	1.9227638	1.3866376
34.12731847253742	1.8973527	1.3774443
34.14565273667313	1.9153911	1.3839766
34.16398790176847	1.9373796	1.3918978
34.18232396842574	1.9805174	1.4073086
34.20066093724749	1.9449844	1.394627
34.21899880883651	1.9146451	1.383707
34.23733758379583	1.9970002	1.4131526
34.25567726272874	2.0161622	1.4199163
34.27401784623872	1.909451	1.3818289
34.29235933492957	1.7965773	1.3403646
34.31070172940526	1.8187004	1.348592
34.32904503027003	1.8803909	1.3712734
34.347389238128386	1.7946416	1.3396423
34.36573435358502	1.7586089	1.3261255
34.38408037724492	1.8032472	1.3428504
34.402427309713296	1.8988494	1.3779874
34.42077515159559	1.9722388	1.4043642
34.43912390349752	2.0144482	1.4193126
34.45747356602499	1.9678167	1.4027889
34.47582413978423	1.9446645	1.3945123
34.49417562538163	1.9444585	1.3944384
34.51252802342388	1.9805515	1.4073206
34.53088133451789	1.9413942	1.3933393
34.54923555927084	1.8505901	1.360364
34.567590698290104	1.7760458	1.3326837
34.58594675218336	1.8532072	1.3613255
34.6043037215585	1.8884939	1.3742248
34.62266160702365	1.9195536	1.3854796
34.641020409187234	2.010907	1.4180645
34.65938012865785	2.02362	1.42254
34.677740766044394	1.9515071	1.3969635
34.69610232195598	1.9145515	1.3836732
34.714464797002016	2.0462546	1.4304736
34.73282819179208	2.2427604	1.4975848
34.751192506936064	2.2365265	1.4955021
34.76955774304408	2.0423121	1.4290949
34.7879239007265	1.9218414	1.386305
34.80629098059391	2.0367522	1.4271483
34.824658983257194	1.9343247	1.3908
34.843027909327446	1.8826804	1.372108
34.86139775941603	2.0540695	1.4332025
34.879768534134534	2.1350834	1.4611925
34.89814023409483	1.9560021	1.3985715
34.91651285990901	1.883148	1.3722783
34.93488641218944	1.8775284	1.3702294
34.95326089154871	1.9889095	1.410287
34.97163629859967	1.9095337	1.3818588
34.99001263395542	1.766129	1.3289579
35.00838989822934	1.8305541	1.3529798
35.02676809203499	1.7814183	1.3346978
35.04514721598624	1.6135862	1.2702701
35.063527270697215	1.6128428	1.2699775
35.081908256782256	1.8781613	1.3704603
35.10029017485597	1.8625427	1.36475
35.11867302553321	1.7814981	1.3347278
35.137056809429104	1.9252694	1.3875408
35.155441527159006	2.0874932	1.444816
35.173827179338524	1.9565269	1.398759
35.19221376658354	1.8111763	1.3457994
35.21060128951017	1.915585	1.3840467
35.2289897487348	1.9782789	1.406513
35.24737914487405	1.9926803	1.4116232
35.26576947854479	2.0111275	1.4181423
35.28416075036418	1.9924552	1.4115436
35.30255296094958	1.8249909	1.3509222
35.32094611091867	1.8297396	1.3526787
35.33934020088932	1.9462599	1.3950841
35.35773523147969	1.9644426	1.4015857
35.3761312033082	1.8756635	1.3695487
35.394528116993506	1.8641068	1.365323
35.41292597315452	1.874331	1.3690621
35.431324772410434	1.8546834	1.3618677
35.449724515380666	1.9015177	1.3789554
35.46812520268491	1.8642347	1.3653698
35.486526834943106	1.8301426	1.3528277
35.504929412775454	2.198344	1.4826814
35.52333293680242	2.466207	1.5704162
35.54173740764471	2.167415	1.4722143
35.560142825923286	2.1347058	1.4610633
35.5785491922594	2.1761413	1.475175
35.59695650727454	1.8132635	1.3465748
35.61536477159042	0.6898081	0.83054686
