0.008763373481513119	0.0	0.0
0.026290120649546365	0.0	0.0
0.043816868432600686	0.03550094	0.18841693
0.06134361724069026	0.082251735	0.28679565
0.07887036748382949	0.11035841	0.33220237
0.0963971195720331	0.15837039	0.39795777
0.11392387391531617	0.17103812	0.41356754
0.1314506309236943	0.21345666	0.4620137
0.1489773910071836	0.27761894	0.5268956
0.16650415457580078	0.24783729	0.4978326
0.18403092203956356	0.18787502	0.4334455
0.20155769380849	0.17805569	0.42196646
0.2190844702925996	0.13406262	0.3661456
0.2366112519019124	0.18315195	0.42796254
0.2541380390464497	0.122419	0.34988427
0.27166483213623416	0.14374253	0.3791339
0.28919163158128947	0.12253389	0.3500484
0.3067184377916406	0.099372275	0.31523368
0.324245251177314	0.071329124	0.26707512
0.34177207214833777	0.07713367	0.27772948
0.3592989011147415	0.089160025	0.29859677
0.37682573848655654	0.10307786	0.3210574
0.39435258467381573	0.14198495	0.3768089
0.41187944008655414	0.18208526	0.4267145
0.42940630513480854	0.2074514	0.45546833
0.446933180228618	0.19015956	0.4360729
0.4644600657780234	0.15848507	0.39810184
0.48198696219306775	0.1369517	0.37006986
0.49951386988379676	0.14605385	0.38216993
0.5170407892602581	0.120410085	0.34700155
0.5345677207325025	0.1232068	0.35100827
0.5520946647105822	0.12959893	0.35999852
0.5696216216045534	0.13116708	0.36216995
0.5871485918244737	0.1498775	0.38714015
0.6046755757804043	0.13919427	0.37308747
0.6222025738824094	0.15552552	0.39436725
0.6397295865405557	0.1531166	0.39130116
0.6572566141649129	0.1474757	0.38402566
0.6747836571655547	0.16168514	0.40210092
0.6923107159525568	0.1974166	0.44431588
0.7098377909359992	0.19100928	0.43704608
0.7273648825259653	0.18664874	0.43202862
0.7448919911325411	0.1662124	0.40769154
0.762419117165817	0.18215644	0.4267979
0.7799462610358868	0.20104468	0.44838005
0.7974734231528482	0.21454197	0.46318677
0.8150006039268024	0.2346778	0.48443556
0.8325278037678551	0.20759326	0.45562404
0.8500550230861152	0.17292753	0.41584557
0.8675822622916969	0.1699145	0.41220686
0.8851095217947171	0.17484482	0.4181445
0.9026368020052984	0.20850202	0.45662022
0.9201641033335665	0.2551528	0.50512654
0.9376914261896523	0.24322067	0.49317408
0.9552187709836915	0.22246721	0.4716643
0.9727461381258234	0.17727311	0.42103812
0.990273528026193	0.19313298	0.43946898
1.0078009410949496	0.23300691	0.4827079
1.0253283777422473	0.25656086	0.50651836
1.0428558383782454	0.28444916	0.5333378
1.0603833234131086	0.28028527	0.5294197
1.0779108332570058	0.29077402	0.53923464
1.0954383683201119	0.29811364	0.54599786
1.112965929012607	0.3845293	0.62010425
1.1304935157446763	0.5060601	0.71137905
1.1480211289265108	0.5664276	0.75261384
1.1655487689683062	1.4235948	1.1931449
1.1830764362802655	1.7530496	1.3240278
1.200604131272596	2.179913	1.4764528
1.2181318543555117	2.677845	1.6364123
1.235659605939232	2.6495395	1.6277406
1.253187386433982	4.174647	2.0431952
1.270715196249994	6.329743	2.515898
1.2882430357975057	11.632154	3.4105945
1.3057709054867608	16.481329	4.0597205
1.3232988057280106	22.452175	4.738373
1.3408267369315112	27.892214	5.281308
1.358354699507526	31.731129	5.633039
1.3758826938663256	35.739803	5.9782777
1.3934107204181858	37.750412	6.1441364
1.410938779573391	37.894943	6.1558867
1.4284668717422309	38.337788	6.1917515
1.4459949973350033	37.238464	6.1023326
1.4635231567620117	37.252106	6.1034503
1.4810513504335687	37.029137	6.085157
1.4985795787599925	36.62617	6.051956
1.5161078421516088	36.4408	6.0366216
1.5336361410187505	35.148468	5.928614
1.5511644757717598	34.71634	5.8920574
1.5686928468209842	35.198402	5.932824
1.58622125457678	35.685608	5.9737434
1.6037496994495108	36.874313	6.0724225
1.621278181849548	36.958088	6.0793166
1.6388067021872719	38.18288	6.1792297
1.6563352608730693	37.973583	6.162271
1.673863858317336	37.268436	6.104788
1.6913924949304753	36.566017	6.046984
1.7089211711228998	35.47087	5.955743
1.7264498873050296	34.430355	5.8677387
1.7439786438872935	33.282864	5.76913
1.7615074412801288	32.071774	5.6631947
1.779036279893981	31.474688	5.6102304
1.796565160139305	30.60656	5.5323195
1.814094082426564	30.255579	5.5005074
1.8316230471662298	29.329937	5.415712
1.849152054768784	28.34037	5.3235674
1.8666811056447168	27.445665	5.238861
1.8842102002045273	27.055222	5.201463
1.901739338858724	26.712763	5.168439
1.9192685220178245	26.202433	5.118831
1.9367977500923557	25.399994	5.0398407
1.9543270234928547	24.825134	4.982483
1.971856342629867	23.723467	4.870674
1.9893857079139496	23.02886	4.7988396
2.006915119755667	22.440357	4.7371254
2.0244445785655945	22.007019	4.691164
2.0419740847543175	21.5943	4.6469665
2.0595036387324317	21.230898	4.6077
2.0770332409105414	20.913635	4.573143
2.094562891699263	20.701008	4.549836
2.1120925915092217	20.207304	4.4952536
2.129622340751053	19.970043	4.4687853
2.1471521398354043	188.04749	13.71304
2.1646819891729323	444.31824	21.078857
2.182211889174303	440.70547	20.992987
2.1997418402501974	453.0588	21.285177
2.2172718428113023	432.95535	20.807579
2.234801897268317	320.73077	17.908958
2.2523320040319548	17.115381	4.137074
2.269862163512935	16.997442	4.1227956
2.287392376121992	16.66995	4.0828853
2.304922642269869	16.398127	4.04946
2.322452962367322	16.108541	4.0135446
2.3399833368251164	15.979151	3.997393
2.357513766054032	15.846086	3.980714
2.3750442504648586	15.559401	3.9445405
2.3925747904683963	15.115675	3.8878882
2.410105386475459	14.667042	3.8297575
2.4276360388968707	14.3695345	3.790717
2.445166748143469	14.331375	3.7856803
2.4626975146261025	14.067306	3.7506406
2.4802283387556323	13.782879	3.71253
2.4977592209429305	13.448023	3.6671546
2.5152901615988825	13.0725	3.6155913
2.5328211611343865	12.909641	3.592999
2.5503522199603523	12.497647	3.535201
2.5678833384877024	12.264218	3.5020306
2.5854145171273712	12.05697	3.4723148
2.6029457562903064	11.857802	3.443516
2.620477056387469	11.676549	3.4170966
2.6380084178298326	11.6019535	3.406164
2.655539841028383	11.516829	3.3936453
2.673071326394119	11.393526	3.3754299
2.6906028743380523	11.031091	3.3213086
2.708134485271211	10.645983	3.2628183
2.7256661596046325	10.506555	3.2413816
2.743197897749369	10.516897	3.2429767
2.760729700116486	10.595899	3.255134
2.778261567117063	10.483057	3.2377548
2.795793499162193	10.393566	3.2239053
2.8133254966629817	10.254274	3.2022295
2.830857560030551	10.097979	3.1777318
2.8483896896760337	9.886319	3.1442518
2.865921886010578	9.718563	3.117461
2.883454149445347	9.537886	3.0883467
2.9009864803915177	9.393228	3.0648372
2.91851887926028	9.288704	3.0477376
2.9360513464628384	9.164736	3.0273314
2.953583882410413	9.070418	3.0117135
2.9711164875142373	9.003283	3.000547
2.9886491621855606	8.839892	2.9731956
3.0061819068356455	8.846625	2.9743278
3.023714721875769	8.811248	2.9683747
3.041247607717225	8.705176	2.9504535
3.0587805647713213	8.416138	2.901058
3.0763135934493806	8.224995	2.8679252
3.0938466941627407	8.112495	2.8482442
3.1113798673227544	8.133716	2.8519669
3.1289131133407904	8.048052	2.8369088
3.1464464326282315	7.959726	2.8212986
3.1639798255964786	7.8685055	2.8050857
3.1815132926569443	7.743749	2.7827592
3.1990468342210603	7.813294	2.795227
3.216580450700272	7.7584043	2.7853913
3.2341141425060416	7.72211	2.7788684
3.251647910049847	7.4766645	2.734349
3.2691817537431813	7.301769	2.7021785
3.286715673997555	7.135164	2.6711726
3.3042496712244938	7.1074457	2.6659794
3.32178374583554	7.043023	2.6538694
3.339317898242251	7.0310845	2.6516192
3.3568521288562034	6.953208	2.6368935
3.3743864380889876	6.775966	2.6030686
3.3919208263522127	6.834579	2.6143029
3.4094552940575023	6.736061	2.5953922
3.4269898416164972	6.681966	2.58495
3.444524469440858	6.5352635	2.556416
3.4620591779422587	6.579449	2.5650437
3.479593967532391	6.613042	2.5715835
3.4971288386229658	6.5688653	2.5629797
3.5146637916257086	6.4314027	2.536021
3.5321988269523628	6.276888	2.5053718
3.5497339450146903	6.282542	2.5065
3.5672691462244708	6.3746567	2.5248082
3.5848044309934988	6.4024606	2.5303085
3.60233979973359	6.2680497	2.5036073
3.619875252856575	6.2278323	2.4955626
3.6374107907743034	6.190622	2.488096
3.6549464138986427	6.213678	2.492725
3.6724821226414788	6.1959953	2.4891756
3.690017917414714	6.2836876	2.5067284
3.7075537986302702	6.3127084	2.5125103
3.7250897667000857	6.360653	2.5220335
3.7426258220361235	6.5778375	2.5647295
3.7601619650503553	6.9194856	2.6304915
3.777698196154779	7.415816	2.7231996
3.7952345157614067	8.50773	2.9168012
3.8127709242822716	9.371379	3.0612707
3.830307422129425	11.718957	3.4232962
3.847844009714936	30.462814	5.519313
3.8653806874508954	97.81277	9.890034
3.882917455749409	96.985695	9.848131
3.900454315022606	96.770096	9.837179
3.917991265682631	41.40016	6.4342957
3.9355283081416506	11.013299	3.318629
3.9530654428118495	8.738727	2.9561338
3.970602670105433	7.537418	2.7454357
3.9881399904346244	6.6759715	2.58379
4.005677404211669	6.6125546	2.5714889
4.023214911848827	6.518015	2.5530403
4.0407525137583855	6.5375943	2.556872
4.058290210352644	6.4711275	2.5438411
4.075828002043927	6.4184527	2.5334666
4.0933658892445814	6.3148036	2.5129273
4.110903872366966	6.159412	2.4818163
4.128441951823468	6.0432253	2.4582973
4.145980128026488	5.9890957	2.447263
4.163518401388452	6.080418	2.4658504
4.181056772321807	6.2123475	2.492458
4.1985952412390155	6.308874	2.5117471
4.216133808552567	6.3564196	2.521194
4.233672474674966	6.2950616	2.5089962
4.251211240018741	6.4529777	2.5402713
4.268750104996445	6.6892858	2.5863655
4.286289070020643	7.6253343	2.7614007
4.303828135503928	9.363329	3.0599556
4.3213673018589125	29.621912	5.4426017
4.3389065694982305	90.784454	9.528088
4.356445938834537	166.0887	12.887541
4.3739854102805085	171.81729	13.107909
4.391524984248844	172.77374	13.144342
4.409064661152262	136.87921	11.699539
4.426604441403504	97.11754	9.854823
4.444144325415337	75.95776	8.715375
4.461684313600543	21.876202	4.6772003
4.47922440637193	22.137808	4.7050834
4.496764604142329	20.585073	4.5370774
4.5143049073245916	18.810883	4.3371515
4.531845316331589	16.68462	4.084681
4.5493858315762195	13.7649555	3.7101152
4.566926453471405	11.509157	3.392515
4.584467182430081	9.476403	3.0783768
4.602008018865218	8.281694	2.8777933
4.619548963189798	7.62532	2.761398
4.637090015816834	6.975711	2.6411572
4.654631177159353	6.6532307	2.5793858
4.672172447630417	6.3859997	2.5270536
4.689713827643102	6.2919188	2.5083697
4.7072553176105085	6.113318	2.4725125
4.724796917945764	6.0129876	2.4521394
4.742338629062015	5.9352555	2.436238
4.759880451372434	5.9202	2.433146
4.777422385290215	5.870145	2.4228382
4.794964431228581	5.81328	2.4110744
4.812506589600768	5.821198	2.412716
4.830048860820047	5.6871595	2.3847766
4.847591245299709	5.723018	2.392283
4.8651337434530655	5.6579666	2.378648
4.882676355693457	5.6396966	2.3748045
4.900219082434242	5.6268725	2.372103
4.917761924088813	5.5877457	2.3638413
4.935304881070575	5.587824	2.3638577
4.952847953792969	5.5476284	2.3553405
4.970391142669449	5.5033665	2.3459256
4.9879344481135055	5.5389414	2.3534956
5.005477870538642	5.4895835	2.342986
5.023021410358394	5.529198	2.3514247
5.040565067986324	5.5362563	2.352925
5.05810884383601	5.4729342	2.3394303
5.075652738321066	5.54517	2.3548183
5.09319675185512	5.5036607	2.3459883
5.110740884851836	5.511067	2.3475661
5.128285137724894	5.5437627	2.3545196
5.145829510888007	5.521562	2.3498003
5.163374004754908	5.4245734	2.3290713
5.1809186197393595	5.339113	2.310652
5.198463356255145	5.3103	2.3044088
5.216008214716077	5.294861	2.3010564
5.233553195535998	5.258835	2.293215
5.251098299128764	5.263489	2.2942295
5.268643525908272	5.3214774	2.3068328
5.286188876288432	5.313242	2.305047
5.3037343506831895	5.3178205	2.30604
5.32127994950651	5.3303328	2.3087513
5.3388256731723915	5.326571	2.3079364
5.356371522094851	5.3437586	2.3116572
5.373917496687938	5.3258405	2.3077784
5.391463597365729	5.274884	2.2967117
5.40900982454232	5.261321	2.293757
5.426556178631843	5.2705083	2.2957587
5.444102660048449	5.279641	2.297747
5.4616492692063225	5.2683897	2.2952974
5.479196006519669	5.1561794	2.2707222
5.496742872402727	5.144496	2.2681482
5.514289867269756	5.2113295	2.2828336
5.531836991535049	5.296483	2.301409
5.549384245612924	5.2538195	2.2921212
5.566931629917724	5.2165937	2.2839863
5.584479144863822	5.142543	2.2677176
5.6020267908656205	5.126157	2.2641017
5.619574568337545	5.1155915	2.2617674
5.637122477694054	5.0913405	2.2563999
5.654670519349629	5.120717	2.2629
5.672218693718784	5.111206	2.2607977
5.689767001216059	5.1642103	2.2724898
5.707315442256021	5.308425	2.304002
5.724864017253266	5.366982	2.3166747
5.7424127266224225	5.383328	2.3202
5.75996157077814	5.3238564	2.3073483
5.777510550135105	5.235885	2.2882056
5.795059665108022	5.2012243	2.2806194
5.812608916111639	5.160525	2.271679
5.830158303560715	5.270443	2.2957444
5.847707827870055	5.2713356	2.295939
5.86525748945448	5.4017253	2.3241613
5.8828072887288485	5.528003	2.3511705
5.900357226108044	5.4980536	2.3447928
5.917907302006979	5.542415	2.3542335
5.9354575168406	6.167841	2.4835138
5.9530078710238765	6.8603945	2.6192355
5.970558364971812	7.5230904	2.7428253
5.988108999099438	7.844381	2.8007822
6.005659773821818	8.391081	2.8967361
6.023210689554039	8.121863	2.8498883
6.040761746711227	8.533334	2.9211872
6.058312945708531	7.8430066	2.8005369
6.075864286961132	7.315722	2.7047591
6.093415770884244	6.591701	2.5674307
6.1109673978931065	6.097883	2.4693892
6.128519168402993	5.553	2.3564804
6.146071082829204	5.5008154	2.3453817
6.163623141587075	5.3576484	2.3146594
6.181175345091969	5.283223	2.2985263
6.198727693759281	5.196472	2.2795773
6.216280188004435	5.1422434	2.2676516
6.233832828242885	5.162777	2.2721746
6.251385614890126	5.212568	2.283105
6.268938548361669	5.235973	2.288225
6.286491629073067	5.191569	2.2785015
6.304044857439898	5.1939626	2.2790267
6.321598233877777	5.0983577	2.2579544
6.339151758802344	5.0522084	2.247712
6.356705432629277	5.11533	2.2617097
6.37425925577428	5.1817923	2.276355
6.391813228653095	5.166489	2.2729912
6.409367351681486	5.064448	2.2504327
6.426921625275259	4.8965125	2.2128065
6.44447604985025	4.9068727	2.2151463
6.46203062582232	4.903831	2.2144594
6.47958535360737	4.991947	2.2342665
6.497140233621328	5.0774326	2.253316
6.514695266280161	5.0880666	2.2556744
6.532250451999859	5.073493	2.2524416
6.549805791196454	5.024963	2.241643
6.567361284286002	4.9623847	2.227641
6.584916931684597	4.9825706	2.2321672
6.602472733808367	4.9534917	2.225644
6.6200286910734665	4.979135	2.2313976
6.637584803896092	5.013483	2.239081
6.655141072692462	5.037426	2.244421
6.672697497878842	5.0876236	2.2555761
6.690254079871514	5.041031	2.245224
6.707810819086808	5.0021434	2.2365472
6.725367715941078	4.947355	2.224265
6.742924770850719	4.932505	2.2209244
6.760481984232151	4.9643493	2.228082
6.778039356501836	5.0095234	2.2381964
6.795596888076266	5.061309	2.2497354
6.813154579371963	5.014622	2.2393353
6.830712430805492	4.9918785	2.2342513
6.84827044279344	4.9925246	2.2343957
6.865828615752445	5.0193024	2.24038
6.883386950099159	5.0833735	2.254634
6.900945446250287	5.095373	2.2572932
6.918504104622553	5.084822	2.254955
6.936062925632727	5.061136	2.2496967
6.953621909697607	5.050663	2.247368
6.971181057234028	5.149589	2.2692707
6.988740368658859	5.1828227	2.2765813
7.006299844389007	5.2389855	2.288883
7.023859484841407	5.27411	2.2965431
7.041419290433036	5.3816104	2.3198297
7.058979261580902	5.4643307	2.3375907
7.0765393987020495	5.6640463	2.3799257
7.094099702213559	5.9708123	2.4435246
7.111660172532549	6.343437	2.518618
7.129220810076164	6.7104845	2.5904603
7.146781615261595	7.361813	2.7132661
7.16434258850606	7.595673	2.7560248
7.181903730226821	8.05115	2.8374548
7.1994650408411704	8.148584	2.8545725
7.217026520766437	8.243751	2.8711932
7.234588170419983	8.570345	2.927515
7.252149990219215	8.673918	2.9451516
7.269711980581568	8.598713	2.932356
7.2872741419245175	8.323251	2.8850045
7.304836474665574	7.8676066	2.8049254
7.322398979222286	7.5599394	2.7495344
7.339961656012233	7.3585663	2.7126677
7.357524505453039	7.034167	2.6522005
7.375087527962357	6.7037554	2.5891612
7.392650723957886	6.3710403	2.524092
7.410214093857353	5.969724	2.443302
7.427777638078528	5.755585	2.39908
7.445341357039213	5.571563	2.3604157
7.4629052511572525	5.3533196	2.3137243
7.480469320850524	5.29614	2.3013344
7.498033566536948	5.3111324	2.3045895
7.5155979886344735	5.338619	2.3105452
7.5331625875610975	5.3247056	2.3075323
7.550727363734844	5.237336	2.2885227
7.568292317573788	5.215123	2.2836645
7.585857449496025	5.269498	2.2955387
7.603422759919705	5.26026	2.2935257
7.620988249263007	5.264552	2.2944613
7.638553917944147	5.221624	2.2850873
7.656119766381391	5.244782	2.290149
7.673685794993023	5.232669	2.2875028
7.691252004197388	5.228497	2.2865908
7.70881839441285	5.209115	2.2823486
7.726384966057826	5.1910458	2.2783866
7.743951719550762	5.188407	2.2778075
7.761518655310149	5.196109	2.2794974
7.779085773754511	5.2180424	2.2843034
7.796653075302419	5.267951	2.2952018
7.814220560372475	5.2798624	2.297795
7.831788229383323	5.334741	2.3097057
7.8493560827536495	5.3439727	2.3117034
7.866924120902174	5.3340554	2.3095574
7.884492344247663	5.377944	2.3190393
7.9020607532089135	5.372312	2.3178248
7.919629348204771	5.4533396	2.3352387
7.937198129654115	5.471959	2.339222
7.954767097975865	5.483249	2.3416338
7.972336253588986	5.467996	2.3383746
7.989905596912472	5.4509897	2.3347354
8.007475128365371	5.3956866	2.3228617
8.025044848366756	5.3834696	2.3202305
8.042614757335754	5.513191	2.3480186
8.060184855691523	5.6305275	2.3728733
8.07775514385327	5.759302	2.3998547
8.095325622240228	5.795606	2.4074066
8.112896291271687	5.837817	2.4161575
8.130467151366968	5.855048	2.4197206
8.148038202945436	5.8674364	2.4222791
8.165609446426497	5.954178	2.4401183
8.183180882229594	6.082196	2.4662108
8.200752510774217	6.153504	2.4806256
8.218324332479893	6.1538844	2.4807024
8.235896347766193	6.121157	2.4740973
8.253468557052724	6.10772	2.4713802
8.27104096075914	6.0759764	2.4649496
8.288613559305137	6.0615983	2.4620314
8.306186353110448	6.061381	2.4619873
8.32375934259485	6.143081	2.478524
8.341332528178162	6.172746	2.4845011
8.358905910280246	6.1883907	2.4876475
8.376479489321003	6.196148	2.4892063
8.394053265720377	6.280632	2.506119
8.411627239898356	6.3478603	2.519496
8.42920141227497	6.362479	2.5223956
8.44677578327029	6.363997	2.5226963
8.464350353304427	6.2020216	2.4903858
8.48192512279754	6.1597524	2.481885
8.499500092169827	6.1128893	2.4724257
8.51707526184153	6.1554527	2.4810185
8.534650632232934	6.2511287	2.5002258
8.552226203764365	6.284425	2.5068755
8.569801976856192	6.332279	2.516402
8.587377951928834	6.4012103	2.5300612
8.60495412940274	6.3664017	2.5231729
8.622530509698416	6.3793116	2.52573
8.6401070932364	6.4760566	2.5448098
8.657683880437283	6.634847	2.5758197
8.675260871721695	6.7885766	2.6054897
8.692838067510303	6.899405	2.6266718
8.710415468223834	7.038215	2.6529634
8.727993074283043	7.0913577	2.6629603
8.745570886108737	7.104926	2.6655068
8.763148904121765	7.1289854	2.670016
8.78072712874302	7.195688	2.682478
8.798305560393441	7.4610415	2.7314906
8.815884199494006	7.586518	2.7543633
8.833463046465745	7.7987876	2.792631
8.851042101729728	7.9623337	2.8217607
8.86862136570707	8.367608	2.8926818
8.886200838818924	8.466872	2.909789
8.903780521486505	8.499438	2.9153795
8.921360414131055	8.558746	2.9255335
8.938940517173874	8.7511425	2.958233
8.956520831036297	8.856592	2.9760027
8.97410135613971	9.133437	3.0221577
8.99168209290554	9.232359	3.0384798
9.009263041755265	9.497623	3.0818214
9.026844203110405	9.706024	3.1154492
9.044425577392525	9.876405	3.1426747
9.062007165023239	9.986471	3.160138
9.079588966424197	10.317992	3.2121632
9.097170982017108	10.388105	3.2230585
9.11475321222372	11.33651	3.3669734
9.132335657465825	12.157306	3.4867327
9.149918318165264	12.212418	3.494627
9.167501194743924	12.763551	3.572611
9.18508428762374	12.450917	3.5285857
9.202667597226693	12.522998	3.5387847
9.220251123974803	12.282241	3.504603
9.237834868290143	11.993493	3.4631622
9.255418830594836	11.819853	3.4380014
9.273003011311046	11.282128	3.358888
9.290587410860985	11.0583935	3.3254163
9.308172029666911	10.381518	3.2220364
9.32575686815113	10.097516	3.1776588
9.343341926735997	8.833337	2.972093
9.360927205843916	8.631844	2.938
9.378512705897327	8.419878	2.9017026
9.396098427318728	8.191228	2.8620322
9.413684370530664	8.053966	2.837951
9.431270535955722	7.9745655	2.8239274
9.448856924016539	7.909499	2.8123832
9.466443535135806	7.7877383	2.790652
9.484030369736251	7.773145	2.788036
9.501617428240658	7.7755804	2.788473
9.519204711071852	7.8371406	2.7994893
9.536792218652714	7.891719	2.8092203
9.55437995140617	7.906048	2.8117695
9.571967909755191	7.933939	2.8167248
9.589556094122802	7.906558	2.8118603
9.60714450493207	7.939186	2.817656
9.624733142606116	8.002003	2.8287811
9.642322007568108	8.120506	2.8496501
9.659911100241267	8.130507	2.8514044
9.677500421048851	8.119138	2.84941
9.695089970414175	8.159293	2.8564477
9.712679748760609	8.20922	2.8651736
9.730269756511557	8.301025	2.88115
9.747859994090492	8.286017	2.8785443
9.765450461920915	8.2993965	2.8808672
9.78304116042639	8.379484	2.894734
9.800632090030527	8.404117	2.8989854
9.81822325115699	8.347807	2.8892572
9.835814644229481	8.280909	2.8776567
9.853406269671762	8.390618	2.8966565
9.870998127907646	8.453642	2.9075148
9.888590219360985	8.492841	2.914248
9.906182544455698	8.461532	2.9088712
9.923775103615734	8.442104	2.90553
9.941367897265108	8.501089	2.9156628
9.958960925827878	8.463112	2.9091427
9.97655418972816	8.399288	2.8981526
9.994147689390106	8.339833	2.887877
10.011741425237934	8.3043375	2.8817248
10.029335397695904	8.370888	2.8932486
10.04692960718833	8.35551	2.89059
10.06452405413958	8.398129	2.8979526
10.082118738974064	8.436933	2.9046397
10.099713662116246	8.446803	2.9063385
10.117308823990651	8.418263	2.9014244
10.134904225021844	8.370631	2.8932042
10.152499865634445	8.27702	2.876981
10.170095746253125	8.213863	2.8659837
10.18769186730261	8.2320175	2.8691492
10.205288229207675	8.271706	2.8760574
10.222884832393145	8.279852	2.877473
10.2404816772839	8.226622	2.868209
10.258078764304868	8.250868	2.8724325
10.275676093881035	8.218409	2.8667767
10.293273666437438	8.145767	2.854079
10.310871482399158	8.201545	2.863834
10.32846954219134	8.214183	2.8660395
10.346067846239173	8.274847	2.8766034
10.363666394967908	8.18877	2.8616028
10.38126518880283	8.168057	2.8579814
10.398864228169298	8.194256	2.862561
10.416463513492713	8.281561	2.8777702
10.434063045198531	8.32083	2.884585
10.451662823712262	8.33922	2.887771
10.469262849459467	8.31335	2.883288
10.486863122865758	8.242405	2.8709588
10.504463644356806	8.205266	2.8644836
10.522064414358338	8.164264	2.8573177
10.539665433296118	8.106478	2.8471878
10.557266701595987	8.056151	2.838336
10.574868219683818	7.9093094	2.8123496
10.592469987985552	7.8248315	2.79729
10.610072006927185	7.67157	2.76976
10.627674276934751	7.634657	2.7630882
10.64527679843435	7.5240264	2.742996
10.662879571852143	7.410432	2.722211
10.680482597614331	7.264628	2.6952975
10.698085876147173	7.1594834	2.6757212
10.715689407876988	7.0107746	2.6477869
10.733293193230146	6.8111353	2.6098151
10.750897232633072	6.666598	2.5819755
10.76850152651225	6.6428614	2.577375
10.786106075294207	6.5942388	2.567925
10.803710879405534	6.6084743	2.5706954
10.821315939272877	6.490514	2.5476487
10.83892125532294	6.384346	2.5267262
10.856526827982472	6.295326	2.509049
10.874132657678285	6.30041	2.5100617
10.891738744837243	6.286198	2.507229
10.909345089886271	6.2714033	2.504277
10.926951693252343	6.2297087	2.4959385
10.944558555362494	6.1684465	2.4836357
10.96216567664381	6.091684	2.4681337
10.979773057523436	6.0220466	2.453986
10.997380698428573	5.948801	2.4390163
11.014988599786477	5.8972917	2.428434
11.032596762024461	5.818653	2.4121885
11.050205185569892	5.7532377	2.3985908
11.067813870850198	5.6838627	2.3840852
11.085422818292859	5.580255	2.3622563
11.10303202832541	5.483437	2.341674
11.120641501375454	5.446087	2.3336852
11.138251237870636	5.3731337	2.318002
11.155861238238671	5.2952065	2.3011315
11.173471502907317	5.255468	2.2924807
11.191082032304402	5.2318254	2.2873185
11.208692826857805	5.1930604	2.2788286
11.226303886995465	5.1130495	2.2612054
11.243915213145371	5.0015407	2.2364125
11.261526805735578	4.932727	2.2209742
11.279138665194196	4.873903	2.2076917
11.296750791949393	4.8288374	2.1974616
11.314363186429393	4.7704167	2.1841283
11.331975849062479	4.7312717	2.1751487
11.34958878027699	4.7056527	2.1692517
11.36720198050133	4.6933436	2.1664126
11.384815450163948	4.6393514	2.1539154
11.402429189693366	4.599361	2.144612
11.420043199518153	4.5257697	2.1273856
11.437657480066942	63.46388	7.966422
11.455272031768422	85.13254	9.226729
11.472886855051353	107.50708	10.368562
11.490501950344528	99.14638	9.957228
11.508117318076819	84.52304	9.193642
11.52573295867715	45.939636	6.7778783
11.543348872574514	4.209065	2.0516007
11.560965060197946	4.100418	2.0249488
11.57858152197655	4.062259	2.0155046
11.59619825833949	4.0190244	2.0047505
11.613815269715985	4.0437107	2.0108979
11.631432556535323	38.56066	6.209723
11.649050119226837	83.078316	9.114731
11.666667958219929	93.42303	9.665559
11.68428607394406	107.68178	10.376983
11.701904466828756	82.52308	9.084222
11.719523137303586	65.36853	8.085081
11.737142085798196	4.600944	2.1449811
11.754761312742286	3.7188888	1.928442
11.772380818565619	3.705953	1.9250852
11.790000603698015	3.6873763	1.9202542
11.80762066856935	3.6582837	1.912664
11.825241013609572	3.6180437	1.9021156
11.842861639248683	3.562979	1.8875855
11.860482545916748	3.536732	1.8806201
11.878103734043883	3.537097	1.8807172
11.895725204060282	3.5212126	1.8764894
11.91334695639619	3.5246773	1.8774124
11.930968991481919	3.4835596	1.8664297
11.948591309747824	3.4251175	1.8507073
11.966213911624347	3.3881547	1.8406941
11.98383679754198	3.3601568	1.833073
12.001459967931268	3.330526	1.8249729
12.019083423222835	3.2782922	1.8106055
12.036707163847352	3.2440832	1.8011339
12.05433119023556	3.2658842	1.8071758
12.071955502818259	3.2745247	1.8095648
12.089580102026313	3.2767546	1.8101808
12.107204988290643	3.2230535	1.7952864
12.12483016204224	3.2070477	1.7908232
12.142455623712152	3.1711214	1.7807642
12.16008137373149	3.1433895	1.7729607
12.177707412531431	3.1095347	1.7633873
12.19533374054321	3.0895705	1.7577174
12.212960358198126	3.0335116	1.7416979
12.230587265927545	3.0073392	1.7341682
12.248214464162889	3.0286083	1.7402897
12.265841953335649	3.0918067	1.7583534
12.283469733877375	3.1098106	1.7634655
12.301097806219685	3.0937078	1.758894
12.31872617079425	3.040483	1.7436981
12.336354828032825	3.0145297	1.7362401
12.353983778367205	2.9978747	1.7314372
12.371613022229262	2.9881828	1.7286361
12.389242560050928	2.9398472	1.7145983
12.406872392264201	2.8591237	1.6908944
12.424502519301143	2.8251567	1.6808202
12.442132941593874	2.8143363	1.6775984
12.459763659574586	2.8491359	1.6879383
12.477394673675532	2.896834	1.7020087
12.49502598432903	2.9148169	1.7072835
12.51265759196746	2.9244516	1.7101028
12.530289497023267	2.9169407	1.7079053
12.547921699928967	2.9035382	1.7039772
12.565554201117134	2.8713012	1.6944914
12.583187001020404	2.8312986	1.6826463
12.600820100071486	2.8182857	1.6787751
12.618453498703152	2.8160844	1.6781193
12.636087197348235	2.8045635	1.6746831
12.65372119643964	2.8188791	1.6789517
12.671355496410326	2.839762	1.6851593
12.68899009769333	2.9097018	1.7057848
12.706625000721749	2.977515	1.7255478
12.724260205928752	2.9905128	1.7293099
12.741895713747551	2.9866607	1.7281958
12.759531524611454	3.0345702	1.7420018
12.777167638953818	3.0354283	1.742248
12.794804057208072	3.038304	1.7430732
12.812440779807702	3.028867	1.7403641
12.830077807186271	3.1922264	1.7866802
12.847715139777405	3.2413983	1.8003883
12.865352778014795	3.471026	1.8630689
12.882990722332197	3.5470018	1.8833486
12.90062897316344	3.633362	1.906138
12.918267530942412	3.7314076	1.9316852
12.935906396103071	3.6464806	1.909576
12.953545569079449	3.8257298	1.9559473
12.971185050305628	3.6364372	1.9069445
12.988824840215775	3.6873243	1.9202406
13.006464939244115	3.6529467	1.9112684
13.024105347824943	3.4662902	1.8617976
13.041746066392617	3.501762	1.8712995
13.05938709538157	3.2892914	1.8136404
13.077028435226296	3.3363476	1.8265672
13.094670086361363	3.262076	1.8061218
13.112312049221401	3.158917	1.7773342
13.129954324241112	3.0662491	1.7510709
13.147596911855258	2.865289	1.6927165
13.165239812498685	2.8929474	1.7008667
13.182883026606293	2.8102803	1.6763891
13.200526554613058	2.786309	1.669224
13.218170396954017	2.7166235	1.6482183
13.235814554064284	2.7052805	1.6447737
13.253459026379034	2.7055876	1.6448671
13.271103814333523	2.7470644	1.6574271
13.288748918363058	2.7562077	1.6601831
13.306394338903031	2.7119305	1.646794
13.32404007638889	2.6685429	1.6335676
13.341686131256164	2.6649923	1.6324804
13.359332503940449	2.6941617	1.6413902
13.376979194877402	2.739647	1.6551878
13.394626204502751	2.7721372	1.6649736
13.412273533252307	2.7716477	1.6648266
13.429921181561937	2.7673016	1.6635208
13.447569149867581	2.7631752	1.6622801
13.465217438605247	2.7602766	1.661408
13.482866048211022	2.6972682	1.6423362
13.500514979121052	2.7090673	1.6459244
13.518164231771568	2.6803622	1.6371812
13.535813806598844	2.6703691	1.6341264
13.553463704039254	2.6951933	1.6417044
13.571113924529229	2.7179341	1.6486158
13.588764468505275	2.7074237	1.6454251
13.606415336403956	2.6657796	1.6327215
13.624066528661917	2.656544	1.6298908
13.641718045715882	2.7771506	1.6664785
13.659369888002635	2.881406	1.6974705
13.67702205595903	2.9616394	1.7209414
13.694674550021993	2.982896	1.7271063
13.712327370628532	3.025709	1.7394565
13.729980518215713	3.0912929	1.7582073
13.747633993220681	3.1950243	1.7874631
13.765287796080647	3.2398818	1.7999672
13.7829419272329	3.2980728	1.8160597
13.800596387114801	3.3317053	1.8252959
13.818251176163775	3.3626378	1.8337497
13.835906294817324	3.4274101	1.8513266
13.853561743513023	3.4543407	1.8585857
13.871217522688525	3.4458778	1.8563076
13.888873632781538	3.489733	1.8680826
13.906530074229858	3.5161192	1.8751318
13.92418684747135	3.5329702	1.8796197
13.941843952943948	3.515883	1.8750688
13.959501391085665	3.4491668	1.8571932
13.977159162334578	3.383098	1.83932
13.994817267128846	3.324819	1.8234086
14.012475705906693	3.246739	1.801871
14.030134479106424	3.1598613	1.7775999
14.047793587166414	3.0914223	1.7582442
14.065453030525108	3.0463614	1.7453829
14.083112809621026	2.995115	1.73064
14.100772924892766	2.9605758	1.7206324
14.118433376778997	2.9112093	1.7062266
14.136094165718458	2.8559027	1.6899416
14.153755292149969	2.7904341	1.6704593
14.171416756512416	2.752939	1.6591983
14.189078559244768	2.6803489	1.6371771
14.20674070078606	2.645933	1.6266323
14.224403181575408	2.6042376	1.613765
14.242066002051999	2.55528	1.5985243
14.259729162655093	2.554897	1.5984045
14.277392663824022	2.5079637	1.5836551
14.295056505998208	2.4721732	1.5723146
14.312720689617128	2.443539	1.5631824
14.330385215120348	2.4343061	1.5602263
14.348050082947497	2.4147131	1.5539347
14.3657152935383	2.4088979	1.5520625
14.383380847332528	2.3997176	1.5491022
14.401046744770051	2.3640137	1.537535
14.418712986290798	2.3681982	1.5388951
14.436379572334793	2.385035	1.5443559
14.454046503342123	2.3975909	1.5484157
14.471713779752946	2.378224	1.5421491
14.489381402007504	2.365566	1.5380397
14.507049370546113	2.3663557	1.5382963
14.524717685809168	2.382876	1.5436567
14.542386348237134	2.4412992	1.5624658
14.560055358270553	2.4527495	1.5661256
14.577724716350051	2.4824991	1.5755949
14.595394422916325	2.4350631	1.5604689
14.61306447841015	2.458323	1.567904
14.63073488327237	2.4385405	1.5615827
14.648405637943917	2.4721673	1.5723127
14.6660767428658	2.4843853	1.5761933
14.683748198479094	2.5577621	1.5993005
14.701420005224954	2.585318	1.6078924
14.719092163544628	2.6475515	1.6271298
14.73676467387942	2.6962764	1.6420343
14.754437536670727	2.761835	1.661877
14.772110752360014	2.7905347	1.6704893
14.78978432138882	2.7713304	1.6647313
14.807458244198777	2.76174	1.6618483
14.82513252123159	2.7350836	1.6538088
14.842807152929028	2.7431228	1.6562376
14.860482139732962	2.708951	1.6458892
14.87815748208531	2.726248	1.6511353
14.8958331804281	2.7426672	1.6561
14.91350923520342	2.7044146	1.6445104
14.931185646853438	2.6665637	1.6329616
14.948862415820408	2.6348245	1.6232142
14.966539542546656	2.684269	1.6383739
14.98421702747459	2.7076828	1.6455039
15.001894871046696	2.699127	1.642902
15.019573073705542	2.6786532	1.6366591
15.037251635893766	2.6741652	1.6352875
15.054930558054092	2.693369	1.6411487
15.072609840629323	2.7274978	1.6515138
15.090289484062351	2.8473787	1.6874177
15.107969488796124	3.133525	1.7701765
15.125649855273691	3.5668101	1.8886
15.14333058393817	4.0285115	2.0071151
15.161011675232768	4.9982996	2.2356877
15.17869312960076	6.346542	2.5192344
15.196374947485506	8.166512	2.8577108
15.214057129330447	11.283698	3.3591216
15.231739675579114	16.004368	4.000546
15.249422586675102	21.1894	4.6031947
15.267105863062092	24.458504	4.945554
15.284789505183847	24.7515	4.9750876
15.302473513484218	22.659275	4.760176
15.320157888407127	19.012281	4.3603077
15.337842630396578	14.874669	3.8567693
15.355527739896656	11.566503	3.4009562
15.37321321735153	9.025181	3.0041938
15.39089906320545	6.575546	2.5642827
15.408585277902748	4.9350314	2.221493
15.42627186188783	3.763996	1.940102
15.443958815605198	3.20788	1.7910556
15.461646139499424	2.9221423	1.7094275
15.479333834015168	2.8127844	1.6771358
15.497021899597165	2.7056396	1.6448828
15.514710336690234	2.6341667	1.6230116
15.53239914573928	2.592947	1.610263
15.550088327189297	2.5600219	1.6000068
15.567777881485336	2.5780563	1.6056327
15.58546780907256	2.5826776	1.6070712
15.6031581103962	2.561691	1.6005284
15.620848785901568	2.5406487	1.5939412
15.638539836034063	2.5228271	1.588341
15.656231261239173	2.4657345	1.5702658
15.673923061962451	2.4512978	1.565662
15.691615238649552	2.4698155	1.5715647
15.709307791746202	2.4787362	1.5744003
15.727000721698221	2.4386973	1.5616329
15.744694028951498	2.4098098	1.5523562
15.76238771395202	2.396589	1.548092
15.780081777145844	2.3738163	1.5407194
15.797776218979125	2.3485184	1.5324876
15.815471039898094	2.3366282	1.5286033
15.833166240349064	2.3481877	1.5323797
15.850861820778437	2.3421836	1.5304195
15.868557781632699	2.362073	1.5369037
15.886254123358412	2.3450928	1.5313696
15.903950846402232	2.3359215	1.5283722
15.921647951210897	2.297599	1.5157833
15.939345438231225	2.355215	1.534671
15.957043307910133	2.4005556	1.5493727
15.974741560694602	2.4411988	1.5624336
15.992440197031714	2.4151843	1.5540863
16.01013921736862	2.4080806	1.5517992
16.02783862215259	2.4291303	1.5585668
16.045538411830933	2.4634554	1.5695399
16.06323858685107	2.4428322	1.5629562
16.080939147660512	2.4269137	1.5578555
16.09864009470684	2.4128256	1.5533273
16.11634142843774	2.4323077	1.5595858
16.134043149300954	2.4560974	1.5671941
16.15174525774433	2.4519572	1.5658727
16.169447754215817	2.4673195	1.5707704
16.18715063916342	2.4710963	1.5719721
16.204853913035244	2.4688609	1.5712609
16.222557576279478	2.456211	1.5672303
16.240261629344403	22.438932	4.736975
16.257966072678386	42.99383	6.556968
16.275670906729868	38.145355	6.1761928
16.293376131947387	2.5747	1.6045872
16.31108174877957	2.606585	1.6144922
16.328787757675133	2.6130273	1.6164861
16.34649415908287	2.6340692	1.6229815
16.364200953451657	2.6470888	1.6269876
16.38190814123048	2.6664848	1.6329374
16.39961572286839	2.6610634	1.6312766
16.41732369881455	2.6945405	1.6415056
16.43503206951817	2.7395327	1.6551534
16.45274083542859	2.777751	1.6666586
16.47044999699522	2.7755778	1.6660066
16.488159554667558	2.8040314	1.6745242
16.505869508895184	2.8713374	1.6945021
16.523579860127786	2.940082	1.7146667
16.541290608815117	3.0017157	1.732546
16.559001755407035	3.0408132	1.7437928
16.57671330035348	3.0711942	1.7524823
16.59442524410448	3.110035	1.7635291
16.61213758711015	3.159943	1.7776229
16.629850329820705	3.2571473	1.8047569
16.647563472686436	3.3905513	1.841345
16.665277016157724	3.4510372	1.8576968
16.682990960685053	3.454518	1.8586334
16.70070530671898	3.4443095	1.8558851
16.718420054710155	3.487332	1.86744
16.736135205109335	3.6132996	1.9008682
16.753850758367335	3.7105448	1.9262774
16.771566714935087	3.7787325	1.9438962
16.789283075263597	3.7954683	1.9481962
16.80699983980398	3.8309755	1.9572878
16.82471700900741	3.8577323	1.9641111
16.84243458332518	3.89229	1.9728888
16.860152563208665	3.9676082	1.9918855
16.87787094910932	4.0762424	2.0189707
16.89558974147871	4.189693	2.046874
16.913308940768466	4.2832813	2.069609
16.931028547430333	4.338917	2.0830066
16.94874856191613	4.3676524	2.0898929
16.966468984677785	4.3761854	2.0919335
16.98418981616729	4.3442116	2.0842772
17.00191105683676	4.38321	2.0936117
17.019632707138374	4.421059	2.1026316
17.03735476752442	4.5080476	2.1232164
17.05507723844728	4.561049	2.1356614
17.072800120359403	4.6075068	2.1465104
17.090523413713353	4.6224847	2.1499965
17.108247118961785	4.6553903	2.1576355
17.125971236557437	4.705807	2.1692872
17.143695766953133	4.717886	2.1720695
17.161420710601806	4.6908727	2.1658423
17.179146067956477	4.6549463	2.1575325
17.19687183947025	4.6679454	2.1605427
17.21459802559634	4.7087035	2.1699548
17.232324626788028	4.736464	2.1763418
17.25005164349871	4.710011	2.170256
17.267779076181863	4.6896415	2.165558
17.285506925291074	4.637876	2.1535728
17.30323519127999	4.604562	2.1458242
17.320963874602384	4.607425	2.1464913
17.33869297571211	4.667268	2.160386
17.356422495063114	4.6351986	2.1529512
17.37415243310944	4.567394	2.1371462
17.391882790305218	4.5186667	2.1257155
17.40961356710468	4.517176	2.125365
17.42734476396215	4.5501223	2.1331015
17.445076381332044	4.53707	2.13004
17.462808419668868	4.5858817	2.141467
17.48054087942723	4.739309	2.1769953
17.498273761061835	5.088639	2.2558012
17.51600706502747	5.591619	2.3646605
17.533740791779024	6.2887917	2.5077462
17.551474941771485	7.7376122	2.7816565
17.56920951545993	8.898772	2.983081
17.586944513299528	11.132645	3.336562
17.60467993574556	12.810286	3.579146
17.622415783253373	14.458036	3.8023725
17.64015205627843	15.82937	3.978614
17.657888755276293	16.930405	4.1146574
17.675625880702604	17.567265	4.191332
17.69336343301311	17.408186	4.172312
17.71110141266366	16.579762	4.0718255
17.728839820110178	15.548971	3.9432185
17.746578655808705	14.538683	3.8129625
17.764317920215372	12.950819	3.5987246
17.7820576137864	11.389321	3.374807
17.79979773697811	9.380627	3.0627809
17.81753829024692	7.476672	2.7343504
17.835279274049356	5.845672	2.4177825
17.85302068884201	4.8272557	2.1971016
17.870762535081607	4.292592	2.0718572
17.888504813224934	3.9369054	1.9841636
17.90624752372891	3.7180676	1.9282291
17.923990667050536	3.5769892	1.891293
17.941734243646895	3.5463552	1.8831769
17.959478253975185	3.5551524	1.8855112
17.9772226984927	3.5228145	1.8769162
17.994967577656833	3.4665716	1.8618731
18.01271289192506	3.41965	1.8492296
18.030458641754965	3.424817	1.8506261
18.04820482760425	3.4142444	1.8477675
18.06595144993067	3.404503	1.8451296
18.083698509192125	3.3629775	1.8338423
18.101446005846576	3.2767808	1.810188
18.119193940352105	3.1802957	1.7833383
18.136942313166887	3.1656287	1.7792214
18.1546911247492	3.1833572	1.7841965
18.1724403755574	3.1606936	1.7778339
18.19019006604997	3.125215	1.7678277
18.207940196685467	3.156558	1.7766705
18.225690767922575	3.2065156	1.7906746
18.243441780220046	3.1965635	1.7878935
18.261193234036764	3.15299	1.7756661
18.278945129831676	3.1209	1.7666069
18.29669746806386	3.1032956	1.7616173
18.314450249192483	3.0711577	1.7524719
18.3322034736768	2.9860415	1.7280166
18.349957141976184	3.037478	1.7428362
18.3677112545501	3.1030428	1.7615455
18.385465811858108	3.1271522	1.7683756
18.403220814359884	3.081345	1.7553761
18.420976262515172	3.07784	1.7543774
18.43873215678387	3.0806677	1.7551831
18.456488497625923	3.1179512	1.7657721
18.474245285501407	3.2017102	1.7893324
18.492002520870486	3.319224	1.8218738
18.50976020419343	3.4600642	1.8601248
18.527518335930615	3.7379243	1.9333712
18.545276916542516	4.293061	2.0719702
18.563035946489688	4.4377375	2.1065938
18.580795426232832	4.9118285	2.2162645
18.598555356232698	4.771922	2.184473
18.616315736950185	5.0687804	2.2513952
18.63407656884626	4.730644	2.1750045
18.65183785238201	4.9581437	2.2266889
18.669599588018617	4.723283	2.1733115
18.68736177621737	4.6824884	2.1639059
18.705124417439652	4.6816716	2.163717
18.72288751214696	4.451428	2.1098406
18.740651060800886	4.6102986	2.1471605
18.758415063863115	4.3547893	2.0868132
18.77617952179546	4.5722632	2.1382852
18.793944435059814	4.304576	2.074747
18.811709804118184	4.305134	2.0748816
18.829475629432675	4.2296705	2.0566163
18.8472419114655	3.9695632	1.9923763
18.86500865067897	4.04887	2.0121803
18.88277584753551	3.7716184	1.9420655
18.90054350249763	3.8254182	1.9558676
18.918311616027957	3.5163746	1.8751999
18.936080188589226	3.3870673	1.8403987
18.953849220644265	3.0757208	1.7537733
18.971618712656007	2.9409254	1.7149127
18.9893886650875	2.8770077	1.6961744
19.007159078401887	8.052073	2.8376174
19.024929953062408	32.909664	5.7366943
19.042701289532435	32.845417	5.731092
19.060473088275405	25.391611	5.039009
19.07824534975489	2.6767747	1.6360852
19.096018074434568	2.6529326	1.6287825
19.113791262778197	2.6448312	1.6262937
19.13156491524966	2.5953248	1.6110011
19.149339032312945	2.5902748	1.609433
19.167113614432136	2.5765646	1.6051681
19.184888662071433	2.530312	1.5906955
19.202664175695123	2.4919276	1.5785841
19.220440155767623	2.4757557	1.5734534
19.238216602753447	2.4831643	1.5758059
19.2559935171172	2.4887655	1.5775821
19.27377089932361	2.4836895	1.5759726
19.291548749837514	2.53699	1.5927931
19.309327069123835	2.5404587	1.5938816
19.32710585764763	2.5604813	1.6001503
19.344885115874032	2.5414386	1.594189
19.362664844268313	2.5305011	1.5907549
19.380445043295822	2.4643085	1.5698116
19.39822571342203	2.4916134	1.5784845
19.41600685511252	2.5110264	1.5846218
19.43378846883297	2.5235968	1.5885832
19.451570555049173	2.4817297	1.5753506
19.469353114227037	2.457976	1.5677934
19.48713614683254	2.4733574	1.5726912
19.50491965333182	2.5359688	1.5924726
19.52270363419109	2.522178	1.5881367
19.540488089876686	2.5102596	1.5843799
19.55827302085503	2.4980054	1.580508
19.576058427592674	2.5136862	1.5854609
19.593844310556282	2.4992864	1.5809132
19.611630670212598	2.5059648	1.5830239
19.629417507028506	2.5408366	1.5940002
19.64720482147098	2.5226755	1.5882933
19.6649926140071	2.4675517	1.5708443
19.682780885104084	2.460725	1.5686698
19.70056963522921	2.4746234	1.5730935
19.718358864849908	2.4908662	1.5782478
19.7361485744337	2.500297	1.5812328
19.753938764448215	2.4921837	1.5786651
19.771729435361202	2.4773552	1.5739616
19.789520587640506	2.4544675	1.566674
19.807312221754092	2.4728427	1.5725275
19.825104338170043	2.4882083	1.5774056
19.842896937356517	2.4653213	1.5701342
19.860690019781824	2.4761004	1.573563
19.87848358591436	2.5263972	1.5894644
19.896277636222635	2.5478225	1.59619
19.914072171175278	2.4949677	1.5795467
19.931867191241015	2.4755492	1.5733879
19.94966269688869	2.4938037	1.5791782
19.967458688587264	2.5238743	1.5886706
19.985255166805807	2.5089495	1.5839664
20.00305213201348	2.4851906	1.5764488
20.020849584679578	2.4992738	1.5809091
20.038647525273507	2.51073	1.5845283
20.05644595426477	2.4926672	1.5788183
20.07424487212299	2.4614356	1.5688963
20.092044279317903	2.4570093	1.567485
20.109844176319353	2.4636948	1.5696161
20.127644563597304	2.4486234	1.5648078
20.145445441621817	2.444836	1.5635971
20.16324681086307	2.4444695	1.5634799
20.181048671791373	2.4027846	1.5500917
20.198851024877122	2.392112	1.5466454
20.216653870590836	2.3759263	1.541404
20.234457209403146	2.3943946	1.5473832
20.252261041784802	2.4064605	1.551277
20.270065368206662	2.4323993	1.5596151
20.287870189139685	2.4106357	1.5526222
20.305675505054968	2.3763657	1.5415465
20.323481316423702	2.3764505	1.541574
20.341287623717207	2.3809078	1.543019
20.359094427406884	2.3757064	1.5413327
20.376901727964288	2.3577816	1.535507
20.39470952586107	2.3400261	1.5297143
20.41251782156899	2.321127	1.5235245
20.430326615559935	2.3466864	1.5318898
20.448135908305886	2.3226826	1.524035
20.465945700278965	2.3261235	1.5251634
20.483755991951384	2.3602436	1.5363084
20.50156678379548	2.37164	1.540013
20.519378076283708	2.3472426	1.5320714
20.537189869888635	2.3016608	1.5171225
20.55500216508294	2.306794	1.5188134
20.572814962339415	2.3028495	1.5175142
20.59062826213098	2.329472	1.5262609
20.60844206493066	2.3071148	1.518919
20.626256371211593	2.3076437	1.519093
20.644071181447032	2.3085358	1.5193866
20.66188649611036	2.35191	1.5335939
20.67970231567506	2.3515072	1.5334625
20.697518640614742	2.3633475	1.5373183
20.715335471403122	2.3306603	1.5266501
20.73315280851404	2.3196259	1.5230318
20.750970652421447	2.3070748	1.5189058
20.768789003599412	2.2881029	1.5126476
20.786607862522136	2.3006265	1.5167817
20.8044272296639	2.2998307	1.5165193
20.82224710549913	2.3135133	1.5210238
20.84006749050237	2.3156438	1.521724
20.857888385148268	3.8872032	1.9715991
20.8757097899116	45.98054	6.780895
20.893531705267254	64.83437	8.051979
20.911354131690224	83.84644	9.156771
20.92917706965566	69.111595	8.313338
20.94700051963877	50.14066	7.081007
20.96482448211493	29.406332	5.4227605
20.982648957559622	4.1389194	2.0344334
21.00047394644843	2.2692122	1.5063905
21.01829944925707	2.2667265	1.5055652
21.036125466461375	2.2512057	1.5004019
21.053951998537297	2.2587125	1.5029013
21.071779045960906	2.2559242	1.5019734
21.089606609208378	2.2490087	1.4996696
21.10743468875603	2.225933	1.4919561
21.12526328508028	2.2220936	1.4906689
21.143092398657675	2.215137	1.4883336
21.16092202996488	2.2247303	1.491553
21.17875217947867	2.2094889	1.4864349
21.19658284767596	2.176197	1.4751939
21.21441403503377	2.1602142	1.4697667
21.232245742029225	2.2018652	1.4838684
21.2500779691396	2.2242107	1.4913788
21.26791071684227	2.2223768	1.4907638
21.28574398561475	2.2116575	1.4871643
21.30357777593465	2.1681874	1.4724766
21.321412088279704	2.1278157	1.4587034
21.339246923127792	2.1080658	1.451918
21.357082280956888	2.1132243	1.4536933
21.3749181622451	2.1380467	1.4622061
21.392754567470647	2.1536396	1.4675283
21.41059149711187	2.1411166	1.4632555
21.42842895164726	2.1070948	1.4515835
21.446266931555378	2.1010284	1.4494925
21.464105437314945	2.0803714	1.4423493
21.481944469404798	2.106887	1.451512
21.49978402830388	2.121857	1.4566596
21.51762411449127	2.1419392	1.4635365
21.53546472844617	2.1318529	1.4600866
21.553305870647876	2.1095574	1.4524316
21.571147541575865	2.0970242	1.4481106
21.58898974170967	2.1002717	1.4492314
21.60683247152899	2.1052356	1.450943
21.62467573151363	2.0832095	1.4433328
21.642519522143523	2.0608704	1.4355732
21.660363843898722	2.0486197	1.4313
21.6782086972594	2.0678442	1.4380001
21.696054082705864	2.0611577	1.4356732
21.713900000718535	2.0579565	1.4345579
21.73174645177795	2.0418024	1.4289166
21.749593436364794	2.0633326	1.4364305
21.767440954959845	2.0592136	1.434996
21.785289008044032	2.0399346	1.4282628
21.803137596098388	2.0281608	1.4241351
21.820986719604086	2.0188844	1.4208745
21.838836379042412	2.0050719	1.4160056
21.85668657489478	2.0026665	1.415156
21.87453730764273	2.0365748	1.4270861
21.892388577767914	2.031965	1.4254701
21.91024038575213	2.0194886	1.4210871
21.928092732077285	1.9976786	1.4133925
21.945945617225426	1.9665793	1.4023478
21.963799041678694	1.9919192	1.4113537
21.981653005919398	31.359758	5.5999784
21.999507510429943	78.20821	8.843541
22.01736255569286	73.15062	8.552814
22.035218142190818	4.225265	2.0555449
22.05307427040661	2.0292342	1.4245119
22.07093094082315	2.0207012	1.4215137
22.088788153923474	2.0359118	1.4268538
22.106645910190746	2.017576	1.420414
22.12450421010827	1.9997194	1.4141144
22.142363054159464	1.9834739	1.4083586
22.16022244282787	2.0132284	1.4188828
22.178082376597164	1.9796746	1.4070091
22.195942855951145	1.9783227	1.4065286
22.213803881373742	1.9430584	1.3939363
22.231665453349002	1.9584236	1.399437
22.24952757236111	1.9551194	1.3982558
22.26739023889438	1.9889859	1.4103141
22.28525345343323	2.0213969	1.4217584
22.30311721646225	2.0241835	1.4227381
22.320981528466113	2.0375113	1.4274142
22.33884638992964	2.0164747	1.4200263
22.356711801337788	1.985079	1.4089283
22.37457776317561	1.9465024	1.3951712
22.392444275928337	1.9476391	1.3955784
22.410311340081282	1.9256337	1.3876721
22.428178956119904	1.9338771	1.3906391
22.446047124529805	1.9440069	1.3942765
22.46391584579669	1.9572808	1.3990285
22.481785120406414	1.9504788	1.3965955
22.49965494884496	1.9430885	1.3939471
22.51752533159841	1.9191697	1.385341
22.53539626915302	1.9185665	1.3851233
22.553267761995137	1.9639431	1.4014076
22.571139810611264	1.9527832	1.3974202
22.589012415488025	1.9505249	1.3966119
22.60688557711216	1.9470595	1.3953707
22.624759295970566	1.9384664	1.3922882
22.642633572550263	1.9062873	1.3806837
22.660508407338362	1.8890489	1.3744267
22.67838380082217	1.9388013	1.3924085
22.696259753489077	2.0036337	1.4154977
22.714136265826614	2.0096028	1.4176046
22.73201333832246	1.9739178	1.4049618
22.74989097146439	1.9603351	1.4001197
22.76776916574035	1.9292265	1.388966
22.785647921638393	1.9230821	1.3867524
22.803527239646712	1.8705659	1.3676863
22.82140712025363	1.8412981	1.3569444
22.839287563947593	1.8689134	1.3670821
22.85716857121719	1.9067719	1.3808591
22.875050142551135	1.9280764	1.388552
22.892932278438277	1.9118694	1.3827037
22.910814979367604	1.8940871	1.3762584
22.928698245828222	1.9158323	1.384136
22.946582078309387	1.9326364	1.390193
22.96446647730047	1.9043711	1.3799895
22.98235144329098	1.8653573	1.3657808
23.000236976770562	1.8888234	1.3743447
23.018123078229	1.9293512	1.3890109
23.03600974815619	1.9149716	1.383825
23.053896987042194	1.893661	1.3761035
23.071784795377173	1.8814654	1.3716652
23.08967317365145	1.9005764	1.378614
23.10756212235546	1.8885127	1.3742317
23.125451641979787	1.8739789	1.3689334
23.143341733015134	1.8873068	1.3737929
23.161232395952357	1.8899285	1.3747467
23.179123631282426	1.8920975	1.3755354
23.197015439496468	1.8732052	1.3686509
23.214907821085717	1.9116932	1.3826399
23.23280077654157	1.9435126	1.3940992
23.250694306355538	1.9591237	1.399687
23.268588411019277	1.9778138	1.4063478
23.28648309102458	1.9231837	1.386789
23.304378346863356	1.9000947	1.3784392
23.322274179027676	1.8901926	1.3748428
23.340170588009723	1.9359982	1.3914015
23.358067574301852	1.9467934	1.3952754
23.37596513839651	1.9738755	1.4049468
23.39386328078629	1.9698455	1.4035119
23.411762001963947	1.9338875	1.3906429
23.429661302422353	1.9010805	1.3787967
23.4475611826545	1.9367956	1.391688
23.46546164315356	1.9310383	1.389618
23.48336268441279	1.9343363	1.3908042
23.501264306925638	1.9449346	1.3946091
23.51916651118564	1.9724061	1.4044238
23.537069297686497	1.9938315	1.4120309
23.554972666922037	1.9943728	1.4122226
23.57287661938623	1.9729337	1.4046116
23.59078115557318	1.935908	1.3913691
23.608686275977128	1.9116979	1.3826417
23.62659198109246	1.9176241	1.384783
23.6444982714137	1.9309657	1.3895919
23.66240514743549	1.9468313	1.395289
23.68031260965263	1.89443	1.376383
23.698220658560068	1.8968946	1.377278
23.716129294652845	1.8822078	1.3719357
23.7340385184262	1.8828287	1.3721621
23.75194833037546	1.859332	1.3635732
23.769858730996123	1.882627	1.3720886
23.78776972078382	1.8765804	1.3698833
23.80568130023431	1.8795681	1.3709735
23.823593469843495	1.853116	1.361292
23.841506230107424	1.8869364	1.3736581
23.859419581522275	1.8921502	1.3755544
23.87733352458438	1.8695552	1.3673168
23.89524805979019	1.861001	1.3641851
23.913163187636318	1.9038366	1.3797959
23.931078908619508	1.9360366	1.3914154
23.948995223236633	1.9486142	1.3959278
23.966912131984735	1.9806079	1.4073408
23.98482963536096	2.0123367	1.4185685
24.002747733862616	2.0326953	1.4257262
24.020666427987155	2.0756896	1.4407253
24.038585718232156	2.1194541	1.4558345
24.056505605095353	2.0614986	1.435792
24.074426089074617	2.0108075	1.4180294
24.092347170667946	1.9985045	1.4136847
24.110268850373515	2.0442736	1.429781
24.128191128689586	2.07409	1.4401702
24.146114006114626	2.050001	1.4317824
24.164037483147187	2.064465	1.4368247
24.181961560286005	2.1164224	1.4547929
24.199886238029926	2.116864	1.4549446
24.21781151687797	2.1047306	1.450769
24.235737397329274	2.0605495	1.4354614
24.253663879883135	2.0530806	1.4328575
24.271590965038975	2.044997	1.4300339
24.289518653296376	2.0430863	1.4293658
24.30744694515505	2.046874	1.43069
24.32537584111486	2.070529	1.4389333
24.34330534167581	2.1110134	1.4529327
24.361235447338046	2.1074162	1.4516943
24.379166158601876	2.053121	1.4328716
24.39709747596772	2.034748	1.426446
24.41502939993615	2.0006442	1.4144413
24.432961931007917	1.9982536	1.413596
24.450895069683856	2.0144868	1.4193262
24.468828816465	2.0107567	1.4180115
24.4867631718525	2.0171258	1.4202555
24.504698136347656	2.0131888	1.4188689
24.52263371045192	2.022418	1.4221175
24.540569894666874	1.9975618	1.4133513
24.558506689494266	1.9491628	1.3961242
24.57644409543597	1.9095805	1.3818758
24.594382112994012	1.9146862	1.3837218
24.61232074267057	1.9700886	1.4035984
24.630259984967953	2.0051405	1.4160298
24.64819984038863	1.9833274	1.4083066
24.66614030943522	1.9313924	1.3897455
24.684081392610462	1.9434488	1.3940763
24.702023090417274	1.9331223	1.3903676
24.7199654033587	1.9353708	1.3911761
24.737908331937927	1.9582641	1.3993798
24.755851876658305	2.0234582	1.4224831
24.773796038023324	2.0382566	1.4276752
24.79174081653661	2.0556614	1.4337578
24.809686212701962	2.0770705	1.4412045
24.827632227023294	2.089187	1.445402
24.8455788600047	2.0695293	1.4385859
24.8635261121504	2.047952	1.4310668
24.88147398396475	2.022616	1.422187
24.899422475952303	2.0536497	1.4330561
24.917371588617698	2.0960455	1.4477726
24.935321322465768	2.1427395	1.46381
24.953271678001478	2.2512648	1.5004215
24.97122265572994	2.461495	1.5689152
24.989174256156414	2.8193998	1.6791068
25.00712647978632	3.2899492	1.8138217
25.02507932712521	3.858722	1.964363
25.043032798678798	4.437886	2.1066291
25.060986894952933	5.0151978	2.2394638
25.078941616453637	5.699536	2.38737
25.096896963687055	6.6081586	2.570634
25.114852937159508	7.822137	2.7968082
25.132809537377444	8.390191	2.8965826
25.150766764847468	8.471858	2.9106457
25.168724620076347	7.8434477	2.8006155
25.186683103570985	6.7455697	2.5972235
25.204642215838426	5.5702925	2.3601468
25.222601957385894	4.245346	2.0604239
25.24056232872074	3.2571154	1.804748
25.25852333035048	2.6890974	1.6398468
25.276484962782778	2.3183913	1.5226264
25.294447226525435	2.125083	1.4577664
25.312410122086423	2.005838	1.4162761
25.330373649973843	1.9647357	1.4016904
25.348337810695988	1.9610878	1.4003885
25.366302604761245	1.9202904	1.3857454
25.384268032678207	1.9193776	1.385416
25.40223409495558	1.9227009	1.3866149
25.420200792102257	1.9373934	1.3919028
25.438168124627246	1.940981	1.393191
25.45613609303974	1.8950653	1.3766137
25.474104697849057	1.9414043	1.3933429
25.492073939564698	1.9504057	1.3965693
25.510043818696285	1.9138954	1.3834361
25.528014335753614	1.8491334	1.3598285
25.54598549124664	1.8158195	1.3475235
25.56395728568544	1.8389016	1.3560611
25.58192971958028	1.8703213	1.3675969
25.59990279344156	1.8644378	1.3654442
25.617876507779833	1.8978691	1.3776317
25.635850863105826	1.8858573	1.3732653
25.653825859930386	1.8569244	1.3626901
25.671801498764548	1.7941139	1.3394454
25.68977778011949	1.789706	1.337799
25.707754704506524	1.811972	1.3460951
25.725732272437153	1.8258449	1.3512383
25.743710484423012	1.8194033	1.3488526
25.761689340975888	1.837508	1.3555471
25.77966884260774	1.8241621	1.3506155
25.797648989830662	1.8158665	1.3475409
25.815629783156922	1.831236	1.3532317
25.83361122309895	1.837563	1.3555675
25.85159331016929	1.850175	1.3602114
25.869576044880695	1.85488	1.3619398
25.887559427746034	1.852173	1.3609456
25.90554345927836	1.8733351	1.3686984
25.92352813999086	1.8928775	1.3758188
25.94151347039689	1.869545	1.367313
25.959499451009965	1.8498919	1.3601073
25.97748608234374	1.7900759	1.3379372
25.995473364912062	1.778539	1.3336188
26.013461299228904	1.8008497	1.3419574
26.03144988580839	1.8481859	1.35948
26.04943912516483	1.858662	1.3633275
26.067429017812675	1.8559011	1.3623146
26.085419564266537	1.8511693	1.3605769
26.103410765041186	1.8006998	1.3419015
26.12140262065155	1.8305917	1.3529936
26.139395131612723	1.8247626	1.3508377
26.157388298439948	1.8645743	1.3654941
26.17538212164861	1.8417758	1.3571204
26.193376601754295	1.8003258	1.3417622
26.211371739272714	1.8011197	1.3420581
26.229367534719746	1.8364512	1.3551573
26.247363988611433	1.83815	1.3557839
26.26536110146397	1.8012661	1.3421125
26.283358873793727	1.8285009	1.3522208
26.301357306117204	1.8527232	1.3611478
26.319356398951104	1.8282862	1.3521414
26.33735615281224	1.8196177	1.348932
26.35535656821762	1.8162601	1.3476869
26.373357645684404	1.8288909	1.3523649
26.39135938572991	1.835727	1.35489
26.409361788871614	1.8895677	1.3746154
26.427364855627165	1.8426331	1.3574362
26.445368586514352	1.7748814	1.3322468
26.46337298205115	1.7629317	1.3277544
26.48137804275568	1.7979242	1.3408669
26.499383769146217	1.7707961	1.3307126
26.517390161741215	1.766207	1.3289872
26.53539722105928	1.7999886	1.3416365
26.553404947619182	1.7790934	1.3338265
26.571413341939856	1.7691271	1.3300854
26.589422404540397	1.7736042	1.3317673
26.60743213594006	1.8145492	1.3470521
26.62544253665827	1.7908199	1.3382152
26.64345360721459	1.7830225	1.3352987
26.66146534812879	1.814698	1.3471073
26.679477759920758	1.8598439	1.363761
26.69749084311057	1.8165272	1.3477861
26.71550459821847	1.7800422	1.3341823
26.733519025764842	1.7787771	1.333708
26.751534126270258	1.8175085	1.34815
26.769549900255434	1.8344282	1.3544106
26.787566348241267	1.838801	1.356024
26.80558347074881	1.8345006	1.3544374
26.823601268299267	1.8103454	1.3454908
26.841619741414036	1.7774013	1.3331921
26.85963889061465	1.7686247	1.3298965
26.877658716422832	1.8145379	1.3470478
26.89567921936045	1.8135461	1.3466797
26.913700399949544	1.8087229	1.3448876
26.93172225871233	1.7726061	1.3313925
26.949744796171174	1.7941734	1.3394675
26.967768012848605	1.8472233	1.359126
26.98579190926733	1.8778411	1.3703434
27.003816485950225	1.9041847	1.379922
27.021841743420318	1.8649969	1.3656489
27.039867682200814	1.8373235	1.3554791
27.057894302815072	1.8230973	1.3502213
27.07592160578664	1.7772397	1.3331316
27.0939495916392	1.7690407	1.3300529
27.111978260896635	1.8045918	1.343351
27.13000761408296	1.8418121	1.3571337
27.148037651722397	1.8362278	1.3550748
27.166068374339304	1.8676822	1.3666317
27.184099782458215	1.8477563	1.359322
27.20213187660384	1.8005664	1.3418518
27.22016465730105	1.804987	1.343498
27.23819812507487	1.8547407	1.3618886
27.256232280450533	1.8623645	1.3646848
27.274267123953383	1.8235717	1.3503969
27.292302656108987	1.8330486	1.3539013
27.31033887744306	1.8192946	1.3488122
27.32837578848146	1.830843	1.3530865
27.34641338975026	1.8279734	1.3520256
27.364451681775673	1.8341376	1.3543034
27.382490665084074	1.8336787	1.354134
27.400530340202046	1.8510451	1.3605312
27.41857070765629	1.8597751	1.3637357
27.436611767973726	1.8608811	1.3641411
27.454653521681404	1.8739095	1.3689082
27.472695969306564	1.8713431	1.3679705
27.490739111376627	1.8582829	1.3631885
27.508782948419153	1.8181223	1.3483776
27.526827480961902	1.8135843	1.3466939
27.54487270953279	1.8291425	1.3524579
27.562918634659898	1.8511423	1.3605669
27.580965256871508	1.8376538	1.3556008
27.599012576696026	1.8890325	1.3744208
27.617060594662068	1.8788408	1.3707081
27.63510931129842	1.8680542	1.3667678
27.65315872713401	1.8641433	1.3653363
27.67120884269797	1.8856114	1.3731756
27.68925965851958	1.881334	1.3716173
27.707311175128307	1.9237081	1.386978
27.725363393053787	1.9058444	1.3805232
27.74341631282583	1.8731511	1.3686311
27.7614699349744	1.8656238	1.3658785
27.77952426002968	2.0164347	1.4200122
27.797579288521973	2.0802088	1.4422929
27.815635020981784	2.5445082	1.5951514
27.83369145793979	2.608641	1.6151288
27.85174859992682	2.4665768	1.5705339
27.869806447473923	2.3095808	1.5197304
27.887865001112267	1.986967	1.4095981
27.905924261373233	1.896612	1.3771753
27.92398422878836	1.8830092	1.3722278
27.94204490388936	1.9080185	1.3813105
27.96010628720813	1.8931605	1.3759217
27.978168379276728	1.8590125	1.3634561
27.9962311806274	1.8472693	1.3591429
28.014294691792568	1.8685571	1.3669517
28.0323589133048	1.832463	1.353685
28.050423845696887	1.8024583	1.3425566
28.068489489501758	1.7778587	1.3333637
28.086555845252523	1.8186219	1.3485628
28.104622913482487	1.8754653	1.3694763
28.122690694725115	1.8777	1.370292
28.14075918951405	1.8739163	1.3689107
28.15882839838312	1.885487	1.3731303
28.176898321866304	1.9256692	1.3876848
28.1949689604978	1.9288998	1.3888483
28.213040314811945	1.9292696	1.3889815
28.23111238534327	1.8960606	1.3769752
28.249185172626493	1.9139714	1.3834635
28.267258677196473	1.9215027	1.3861828
28.285332899588294	1.8931104	1.3759035
28.303407840337172	1.8955414	1.3767866
28.321483499978545	1.9971309	1.4131988
28.33955987904799	1.9954021	1.412587
28.357636978081285	1.9881058	1.410002
28.37571479761439	2.0008428	1.4145116
28.393793338183425	2.0140142	1.4191597
28.41187260032469	2.0406709	1.4285206
28.429952584574686	2.0144029	1.4192966
28.448033291470065	1.9975641	1.413352
28.46611472154769	1.9500462	1.3964405
28.484196875344566	1.9618479	1.4006598
28.502279753397914	1.983003	1.4081914
28.52036335624511	2.0299659	1.4247687
28.538447684423716	2.003493	1.4154481
28.556532738471482	1.9677614	1.4027692
28.574618518926325	1.9673221	1.4026126
28.59270502632635	1.9574684	1.3990955
28.61079226120985	1.9464821	1.3951638
28.628880224115274	1.9968803	1.4131101
28.646968915581287	2.005333	1.4160978
28.66505833614671	1.9765577	1.4059011
28.68314848635055	2.014801	1.4194368
28.701239366732004	2.0447378	1.4299433
28.71933097783044	2.0947065	1.4473101
28.737423320185403	2.1077232	1.4518
28.75551639433665	2.1138856	1.4539208
28.773610200824074	2.0640066	1.436665
28.791704740187793	2.0717344	1.439352
28.80980001296809	2.0459797	1.4303775
28.827896019705413	2.1044405	1.4506689
28.845992760940433	2.1961498	1.4819412
28.86409023721397	2.24375	1.4979153
28.88218844906704	2.2476363	1.4992119
28.900287397040845	2.255419	1.5018053
28.918387081676755	2.2364926	1.4954908
28.936487503516343	2.2150788	1.488314
28.954588663101365	2.2061489	1.485311
28.97269056097374	2.210093	1.4866382
28.990793197675597	2.3087263	1.5194494
29.00889657374923	2.3543558	1.534391
29.027000689737125	2.3737264	1.5406902
29.04510554618196	2.368134	1.5388743
29.06321114362659	2.3950846	1.5476061
29.08131748261405	2.4270759	1.5579076
29.099424563687567	2.5005171	1.5813024
29.11753238739057	2.544386	1.5951132
29.13564095426663	2.5538864	1.5980884
29.15375026485954	2.5773835	1.6054232
29.171860319713275	2.6383412	1.6242971
29.18997111937199	2.7152522	1.6478022
29.20808266438002	2.7528954	1.6591852
29.226194955281898	2.785294	1.66892
29.244307992622335	2.809505	1.6761578
29.26242177694624	2.8326008	1.6830332
29.2805363087987	2.8865688	1.6989905
29.29865158872498	2.9176614	1.7081163
29.316767617270557	2.9005249	1.7030927
29.334884394981064	2.8888357	1.6996576
29.353001922402367	2.8828816	1.6979051
29.37112020008047	2.9564648	1.7194374
29.389239228561596	3.1197271	1.7662749
29.407359008392152	3.3445458	1.82881
29.42547954011872	3.7165494	1.9278355
29.44360082428809	4.3832073	2.093611
29.46172286144722	5.505296	2.3463368
29.479845652143283	7.079062	2.6606507
29.497969196923606	9.077424	3.0128763
29.516093496335728	11.543553	3.3975806
29.5342185509274	14.311618	3.7830698
29.55234436124651	16.720161	4.0890293
29.570470927841175	18.154728	4.2608366
29.588598251259686	17.888718	4.2295055
29.60672633205055	16.473673	4.0587773
29.624855170762405	14.31377	3.7833543
29.642984767944146	11.611481	3.4075623
29.66111512414481	8.9014435	2.9835286
29.67924623991366	6.597993	2.568656
29.697378115800138	5.1566095	2.270817
29.71551075235387	4.315679	2.0774212
29.733644150124675	3.8510919	1.9624199
29.751778309662576	3.544518	1.882689
29.769913231517766	3.3405352	1.8277131
29.78804891624066	3.304776	1.8179042
29.806185364381818	3.3134227	1.8202809
29.82432257649206	3.3639936	1.8341193
29.842460553122333	3.3253222	1.8235465
29.86059929482382	3.3185616	1.821692
29.878738802147872	3.3493807	1.8301313
29.896879075646048	3.3603776	1.8331332
29.915020115870114	3.290643	1.814013
29.933161923371976	3.29391	1.8149133
29.951304498703777	3.35857	1.8326402
29.969447842417857	3.3336961	1.8258412
29.987591955066733	3.2044883	1.7901084
30.005736837203123	3.150335	1.7749183
30.023882489379943	3.1945405	1.7873278
30.04202891215028	3.1670663	1.7796253
30.060176106067455	3.1601446	1.7776796
30.078324071684946	3.23026	1.7972924
30.09647280955646	3.2578266	1.804945
30.114622320235863	3.1191857	1.7661216
30.132772604277257	3.0632226	1.7502065
30.1509236622349	3.1292262	1.7689619
30.16907549466328	3.1442401	1.7732005
30.18722810211705	3.1043653	1.7619209
30.205381485151097	3.081772	1.7554977
30.22353564432045	3.0994565	1.7605274
30.241690580180403	3.0963836	1.7596544
30.25984629328638	3.0354176	1.742245
30.278002784194037	3.0146074	1.7362624
30.296160053459246	3.1078007	1.7628956
30.314318101638033	3.0724027	1.752827
30.332476929286646	2.8942153	1.7012393
30.35063653696153	2.8647687	1.6925628
30.368796925219307	2.9470186	1.7166883
30.386958094616844	2.9462347	1.71646
30.40512004571115	2.870214	1.6941706
30.423282779059463	2.807876	1.6756718
30.441446295219233	2.8181393	1.6787314
30.459610594748067	2.8910618	1.7003123
30.47777567820382	2.9090314	1.7055883
30.495941546144504	2.8476417	1.6874957
30.51410819912835	2.873294	1.6950793
30.532275637713795	2.8311815	1.6826115
30.55044386245946	2.7943304	1.671625
30.56861287392416	2.824409	1.6805978
30.586782672666956	2.870145	1.6941502
30.604953259247047	2.828588	1.6818407
30.623124634223885	2.7925904	1.6711046
30.641296798157075	2.7501104	1.6583457
30.659469751606462	2.7733133	1.6653268
30.677643495132074	2.819799	1.6792257
30.695818029294152	2.761063	1.6616447
30.713993354653116	2.6846595	1.6384931
30.73216947176962	2.6333232	1.6227517
30.75034638120448	2.662882	1.6318339
30.768524083518756	2.6870275	1.6392155
30.786702579273673	2.732944	1.6531618
30.80488186903069	2.840319	1.6853245
30.82306195335144	2.956764	1.7195244
30.841242832797782	3.1364546	1.7710038
30.85942450793176	3.4610276	1.8603837
30.877606979315637	3.7789586	1.9439543
30.895790247511883	4.123467	2.0306323
30.913974313083134	4.532822	2.1290426
30.932159176592283	4.7746363	2.185094
30.95034483860237	4.7810717	2.186566
30.968531299676698	4.704613	2.169012
30.98671856037873	4.425317	2.1036437
31.00490662127215	4.0753236	2.018743
31.023095482920848	3.5722623	1.8900429
31.04128514588892	3.0919344	1.7583897
31.059475610740662	2.8050528	1.6748291
31.07766687804056	2.6502569	1.6279609
31.09585894835335	2.5504098	1.5970002
31.11405182224393	2.5148723	1.5858349
31.132245500277417	2.5318077	1.5911655
31.15043998301914	2.5291505	1.5903304
31.168635271034628	2.5187676	1.5870626
31.18683136488964	2.4592268	1.5681922
31.20502826515008	2.4432595	1.563093
31.223225972382135	2.4237092	1.5568266
31.241424487152155	2.372809	1.5403925
31.259623810026692	2.3272738	1.5255405
31.27782394157253	2.3361194	1.5284369
31.296024882356644	2.351823	1.5335655
31.314226632946237	2.4404795	1.5622034
31.332429193908684	2.516863	1.5864625
31.350632565811598	2.5111086	1.5846478
31.368836749222787	2.4358926	1.5607346
31.387041744710295	2.437424	1.5612252
31.40524755284232	2.514023	1.5855671
31.423454174187317	2.5135827	1.5854282
31.441661609313922	2.5177114	1.5867298
31.459869858791002	2.5018198	1.5817142
31.478078923187628	2.3980343	1.5485588
31.496288803073064	2.3168943	1.5221348
31.514499499016807	2.3993082	1.5489701
31.532711011588546	2.399089	1.5488993
31.550923341358178	2.3189354	1.5228051
31.56913648889584	2.2935522	1.5144478
31.587350454771844	2.2734258	1.5077884
31.605565239556732	2.2992163	1.5163167
31.62378084382127	2.3572288	1.535327
31.641997268136382	2.4150672	1.5540487
31.660214513073274	2.393219	1.5470033
31.67843257920331	2.3409595	1.5300194
31.6966514670981	2.3233578	1.5242565
31.71487117732944	2.390607	1.5461588
31.733091710469346	2.3857188	1.5445772
31.751313067090052	2.2649863	1.5049871
31.769535247764008	2.2073567	1.4857175
31.787758253063878	2.224183	1.4913695
31.805982083562526	2.273244	1.5077281
31.824206739833024	2.3313172	1.5268651
31.84243222244869	2.2667632	1.5055773
31.860658531983013	2.221662	1.490524
31.878885669009737	2.2140965	1.4879841
31.897113634102784	2.2717328	1.5072268
31.91534242783632	2.2932396	1.5143446
31.933572050784694	2.318407	1.5226316
31.951802503522508	2.3187497	1.5227442
31.970033786624548	2.3241484	1.5245157
31.988265900665834	2.2745397	1.5081577
32.006498846221575	2.2171643	1.4890145
32.02473262386724	2.1989734	1.4828936
32.04296723417845	2.2967393	1.5154997
32.0612026777311	2.2872586	1.5123686
32.07943895510129	2.1646292	1.4712679
32.097676066865304	2.060803	1.4355497
32.115914013599685	2.0840323	1.4436178
32.13415279588115	2.1763213	1.475236
32.152392414286666	2.2251558	1.4916956
32.1706328693934	2.234567	1.4948468
32.18887416177875	2.2457874	1.4985951
32.20711629202032	2.1905565	1.4800528
32.225359260695924	2.1403224	1.4629841
32.243603068383614	2.0561655	1.4339336
32.26184771566166	2.030581	1.4249846
32.28009320310852	2.1304295	1.4595991
32.2983395313029	2.2178733	1.4892526
32.31658670082372	2.1952353	1.4816326
32.33483471225012	2.1295757	1.4593066
32.35308356616143	2.0837927	1.4435347
32.371333263137245	2.0469708	1.4307239
32.38958380375734	2.053384	1.4329634
32.407835188601744	2.0709295	1.4390725
32.42608741825067	2.0922534	1.4464624
32.444340493284585	2.068957	1.4383869
32.46259441428416	1.9951277	1.4124899
32.48084918183028	1.9910357	1.4110407
32.49910479650405	2.0530698	1.4328537
32.51736125888683	2.012753	1.4187152
32.53561856956014	1.9769621	1.4060448
32.5538767291058	1.9851629	1.4089581
32.572135738105764	1.9738598	1.4049412
32.59039559714228	1.9864341	1.4094092
32.608656306797776	2.025031	1.4230359
32.62691786765491	2.0162482	1.4199466
32.645180280296586	1.9809729	1.4074703
32.663443545305896	2.0240178	1.4226798
32.68170766326619	2.0102158	1.4178208
32.69997263476099	2.0516605	1.4323618
32.7182384603741	2.0491636	1.43149
32.7365051406895	2.005008	1.4159831
32.75477267629144	2.0088692	1.4173458
32.77304106776434	2.0760043	1.4408345
32.79131031569289	2.104609	1.4507271
32.809580420661966	2.0896423	1.4455595
32.827851383256714	1.9660602	1.4021627
32.84612320406245	1.8779666	1.3703892
32.86439588366476	1.8616604	1.3644267
32.88266942264945	1.9369502	1.3917435
32.9009438216025	2.073378	1.4399229
32.9192190811102	2.1506004	1.4664925
32.937495201758985	2.15018	1.4663492
32.95577218413556	2.0614724	1.4357829
32.974050028826866	1.9810046	1.4074817
32.992328736420035	1.9755003	1.405525
33.010608307502444	2.0212045	1.4216907
33.02888874266169	1.9660151	1.4021466
33.047170042485604	1.9751267	1.405392
33.06545220756225	1.9645153	1.4016117
33.083735238479896	1.9161301	1.3842435
33.10201913582707	1.9287485	1.388794
33.12030390019248	2.0267117	1.4236263
33.138589532165135	2.0554528	1.4336851
33.15687603233419	1.9969201	1.4131242
33.17516340128909	2.0077243	1.4169419
33.19345163961947	1.93793	1.3920956
33.211740747915215	1.9246199	1.3873067
33.23003072676643	1.9307785	1.3895246
33.248321576763466	2.0220332	1.4219822
33.266613298496885	1.9173162	1.3846719
33.28490589255747	1.8336271	1.3541149
33.30319935953626	1.8986031	1.3778981
33.32149370002451	1.9404849	1.3930129
33.339788914613706	2.0465503	1.4305769
33.358085003895575	2.0716705	1.4393299
33.376381968462034	1.9166471	1.3844303
33.39467980890529	1.7897711	1.3378233
33.41297852581774	1.8313371	1.353269
33.43127811979204	1.8771975	1.3701086
33.44957859142105	1.9472883	1.3954527
33.467879941297866	2.021317	1.4217303
33.486182170015844	2.0371387	1.4272836
33.50448527816853	1.9129264	1.3830858
33.522789266349754	1.7638137	1.3280865
33.541094135153514	1.7358481	1.3175159
33.55939988517411	1.789175	1.3376005
33.57770651700602	1.8606229	1.3640465
33.59601403124398	1.864203	1.3653582
33.61432242848296	1.7972444	1.3406135
33.632631709318154	1.800394	1.3417876
33.650941874344994	1.8916823	1.3753844
33.66925292415916	1.9506663	1.3966626
33.68756485935654	1.9757376	1.4056094
33.70587768053328	1.9318107	1.3898959
33.724191388285746	1.892532	1.3756933
33.74250598321054	1.842788	1.3574933
33.760821465904506	1.8994266	1.3781968
33.77913783696474	1.9242584	1.3871764
33.79745509698852	1.8953497	1.376717
33.815773246573414	1.8890975	1.3744444
33.8340922863172	1.8983145	1.3777933
33.852412216817896	1.8748043	1.3692349
33.87073303867377	1.961771	1.4006324
33.889054752483304	2.0156105	1.419722
33.907377358845245	2.003991	1.4156239
33.92570085835853	1.9904379	1.4108288
33.94402525162239	1.9370999	1.3917974
33.96235053923627	1.890756	1.3750477
33.980676721799824	1.8773388	1.3701601
33.999003799912984	1.8985336	1.3778728
34.01733177417592	2.0369911	1.427232
34.03566064518901	2.0708623	1.4390491
34.0539904135529	1.9684254	1.4030058
34.07232107986846	1.8866043	1.3735372
34.090652644736785	1.8165718	1.3478026
34.108985108759235	1.8866795	1.3735645
34.12731847253742	1.9852325	1.4089828
34.14565273667313	1.9955074	1.4126242
34.16398790176847	1.880071	1.3711568
34.18232396842574	1.8693242	1.3672323
34.20066093724749	1.9363999	1.3915459
34.21899880883651	1.9500983	1.3964592
34.23733758379583	2.0165062	1.4200374
34.25567726272874	2.1129344	1.4535936
34.27401784623872	2.017385	1.4203467
34.29235933492957	1.8153473	1.3473482
34.31070172940526	1.8927696	1.3757796
34.32904503027003	2.0746717	1.4403721
34.347389238128386	2.0666022	1.4375682
34.36573435358502	1.9677308	1.4027582
34.38408037724492	1.8913212	1.3752531
34.402427309713296	1.8576453	1.3629546
34.42077515159559	1.9116528	1.3826253
34.43912390349752	2.0243995	1.4228139
34.45747356602499	2.1180372	1.4553478
34.47582413978423	2.0816104	1.4427787
34.49417562538163	1.9760956	1.4057367
34.51252802342388	2.0006976	1.4144602
34.53088133451789	2.0579746	1.4345642
34.54923555927084	1.8466785	1.3589255
34.567590698290104	1.8401855	1.3565344
34.58594675218336	2.038179	1.4276481
34.6043037215585	1.9055829	1.3804286
34.62266160702365	1.8688133	1.3670454
34.641020409187234	2.0240684	1.4226975
34.65938012865785	2.145231	1.4646608
34.677740766044394	1.9808818	1.407438
34.69610232195598	1.9131122	1.383153
34.714464797002016	1.9574381	1.3990847
34.73282819179208	2.0261548	1.4234307
34.751192506936064	2.0757399	1.4407429
34.76955774304408	2.0490954	1.4314662
34.7879239007265	2.0487957	1.4313614
34.80629098059391	2.0048387	1.4159232
34.824658983257194	2.025991	1.4233731
34.843027909327446	1.963111	1.4011106
34.86139775941603	1.8907831	1.3750575
34.879768534134534	1.8673477	1.3665093
34.89814023409483	1.8815432	1.3716935
34.91651285990901	1.7962937	1.3402588
34.93488641218944	1.9141731	1.3835365
34.95326089154871	2.0685728	1.4382534
34.97163629859967	2.0658202	1.4372962
34.99001263395542	1.9195293	1.3854707
35.00838989822934	1.8394053	1.3562467
35.02676809203499	1.6676563	1.2913777
35.04514721598624	1.7253594	1.3135294
35.063527270697215	1.9486686	1.3959472
35.081908256782256	2.0600996	1.4353048
35.10029017485597	2.0426724	1.4292209
35.11867302553321	2.0375	1.4274102
35.137056809429104	2.1402218	1.4629498
35.155441527159006	2.0662587	1.4374486
35.173827179338524	1.919733	1.3855443
35.19221376658354	1.7583556	1.32603
35.21060128951017	1.775262	1.3323896
35.2289897487348	1.8810961	1.3715305
35.24737914487405	1.9762114	1.4057779
35.26576947854479	2.230576	1.4935113
35.28416075036418	2.2899644	1.5132629
35.30255296094958	2.2005541	1.4834265
35.32094611091867	2.221394	1.4904342
35.33934020088932	2.1593993	1.4694895
35.35773523147969	2.0192416	1.4210002
35.3761312033082	2.248269	1.4994229
35.394528116993506	2.5619252	1.6006016
35.41292597315452	2.396842	1.5481738
35.431324772410434	1.8418732	1.3571563
35.449724515380666	1.9195185	1.3854669
35.46812520268491	2.1058006	1.4511377
35.486526834943106	2.1697521	1.4730078
35.504929412775454	1.7717444	1.3310689
35.52333293680242	1.9685365	1.4030454
35.54173740764471	2.280678	1.5101914
35.560142825923286	2.6893227	1.6399155
35.5785491922594	2.9611642	1.7208034
35.59695650727454	2.8652315	1.6926994
35.61536477159042	1.8569168	1.3626873
