0.008763373481513119	0.56609195	0.7523908
0.026290120649546365	0.30131683	0.5489233
0.043816868432600686	0.21220763	0.46065998
0.06134361724069026	0.08375415	0.2894031
0.07887036748382949	0.058829147	0.2425472
0.0963971195720331	0.0	0.0
0.11392387391531617	0.06978533	0.26416913
0.1314506309236943	0.13873427	0.3724705
0.1489773910071836	0.23348276	0.48320055
0.16650415457580078	0.20715275	0.45514038
0.18403092203956356	0.16960496	0.41183123
0.20155769380849	0.15864415	0.3983016
0.2190844702925996	0.15483081	0.39348546
0.2366112519019124	0.22132324	0.47045004
0.2541380390464497	0.22973435	0.4793061
0.27166483213623416	0.17659782	0.42023543
0.28919163158128947	0.11574388	0.34021154
0.3067184377916406	0.06921958	0.26309615
0.324245251177314	0.081832394	0.2860636
0.34177207214833777	0.06923392	0.2631234
0.3592989011147415	0.10885476	0.32993144
0.37682573848655654	0.15998408	0.3999801
0.39435258467381573	0.1628107	0.40349808
0.41187944008655414	0.16512904	0.40636072
0.42940630513480854	0.13340785	0.36525038
0.446933180228618	0.14376286	0.37916073
0.4644600657780234	0.10468442	0.32354972
0.48198696219306775	0.1572581	0.3965578
0.49951386988379676	0.14051972	0.3748596
0.5170407892602581	0.13882616	0.37259382
0.5345677207325025	0.12891285	0.35904437
0.5520946647105822	0.15129419	0.38896555
0.5696216216045534	0.189312	0.4351
0.5871485918244737	0.23090477	0.48052552
0.6046755757804043	0.20672268	0.45466766
0.6222025738824094	0.17358439	0.4166346
0.6397295865405557	0.11781018	0.34323487
0.6572566141649129	0.1315929	0.36275735
0.6747836571655547	0.14634593	0.38255185
0.6923107159525568	0.13895889	0.3727719
0.7098377909359992	0.14495815	0.3807337
0.7273648825259653	0.14442573	0.38003385
0.7448919911325411	0.16824941	0.41018218
0.762419117165817	0.16795698	0.40982553
0.7799462610358868	0.20562463	0.45345852
0.7974734231528482	0.22283313	0.47205204
0.8150006039268024	0.25475004	0.5047277
0.8325278037678551	0.2528008	0.502793
0.8500550230861152	0.23351066	0.4832294
0.8675822622916969	0.22097461	0.47007936
0.8851095217947171	0.22094698	0.47004998
0.9026368020052984	0.22431946	0.47362375
0.9201641033335665	0.22742908	0.47689524
0.9376914261896523	0.24938907	0.4993887
0.9552187709836915	0.28633955	0.5351071
0.9727461381258234	0.2929732	0.54126996
0.990273528026193	0.2353303	0.48510855
1.0078009410949496	0.20426334	0.45195502
1.0253283777422473	0.21950054	0.46850884
1.0428558383782454	0.23460394	0.48435932
1.0603833234131086	0.28015766	0.5292992
1.0779108332570058	0.31607437	0.5622049
1.0954383683201119	0.3196273	0.5653559
1.112965929012607	0.33205062	0.57623833
1.1304935157446763	0.47223985	0.6871971
1.1480211289265108	0.5193872	0.72068524
1.1655487689683062	1.4939141	1.2222579
1.1830764362802655	1.8707032	1.3677366
1.200604131272596	2.3408837	1.5299947
1.2181318543555117	2.5673656	1.6023002
1.235659605939232	2.5615873	1.6004959
1.253187386433982	4.1169505	2.029027
1.270715196249994	6.429799	2.5357049
1.2882430357975057	11.8338585	3.4400375
1.3057709054867608	16.359104	4.044639
1.3232988057280106	22.757797	4.7705135
1.3408267369315112	27.689838	5.2621136
1.358354699507526	31.200012	5.585697
1.3758826938663256	34.850033	5.903392
1.3934107204181858	36.670708	6.0556345
1.410938779573391	37.063293	6.087963
1.4284668717422309	37.49999	6.1237235
1.4459949973350033	37.03762	6.085854
1.4635231567620117	36.993126	6.0821977
1.4810513504335687	36.43103	6.0358124
1.4985795787599925	35.845955	5.9871492
1.5161078421516088	35.516994	5.959614
1.5336361410187505	35.067627	5.9217925
1.5511644757717598	35.32457	5.9434476
1.5686928468209842	36.029507	6.0024586
1.58622125457678	36.329845	6.0274243
1.6037496994495108	36.975834	6.0807757
1.621278181849548	36.398884	6.033149
1.6388067021872719	36.904324	6.074893
1.6563352608730693	36.619778	6.051428
1.673863858317336	35.847836	5.987306
1.6913924949304753	35.422596	5.9516883
1.7089211711228998	34.167294	5.8452797
1.7264498873050296	33.061855	5.7499437
1.7439786438872935	32.149837	5.6700826
1.7615074412801288	31.319859	5.5964146
1.779036279893981	31.091492	5.5759745
1.796565160139305	30.000124	5.4772367
1.814094082426564	28.992699	5.3844867
1.8316230471662298	28.168913	5.3074393
1.849152054768784	27.34047	5.2288113
1.8666811056447168	27.190804	5.2144804
1.8842102002045273	26.529911	5.1507196
1.901739338858724	25.864502	5.0857153
1.9192685220178245	25.3737	5.0372314
1.9367977500923557	24.57634	4.957453
1.9543270234928547	24.120214	4.9112334
1.971856342629867	23.594551	4.8574224
1.9893857079139496	22.83291	4.7783794
2.006915119755667	22.355392	4.728149
2.0244445785655945	21.7657	4.6653724
2.0419740847543175	21.4123	4.6273427
2.0595036387324317	20.852781	4.5664845
2.0770332409105414	20.401152	4.516763
2.094562891699263	20.024836	4.4749117
2.1120925915092217	19.609146	4.4282217
2.129622340751053	19.43813	4.4088693
2.1471521398354043	187.80748	13.704287
2.1646819891729323	444.45816	21.082176
2.182211889174303	440.58554	20.99013
2.1997418402501974	452.74933	21.277906
2.2172718428113023	432.58627	20.798708
2.234801897268317	320.70682	17.908289
2.2523320040319548	17.285664	4.1576033
2.269862163512935	17.003271	4.1235023
2.287392376121992	16.727957	4.0899825
2.304922642269869	16.45031	4.055898
2.322452962367322	16.033539	4.00419
2.3399833368251164	15.4980545	3.9367568
2.357513766054032	15.063652	3.8811922
2.3750442504648586	14.749938	3.8405647
2.3925747904683963	14.606051	3.8217864
2.410105386475459	14.280018	3.778891
2.4276360388968707	13.846473	3.7210848
2.445166748143469	13.644773	3.6938832
2.4626975146261025	13.506848	3.6751664
2.4802283387556323	13.38123	3.6580365
2.4977592209429305	13.292082	3.6458306
2.5152901615988825	13.109153	3.6206565
2.5328211611343865	12.743267	3.5697713
2.5503522199603523	12.3888	3.5197728
2.5678833384877024	12.104773	3.4791913
2.5854145171273712	12.04571	3.4706929
2.6029457562903064	11.817173	3.4376116
2.620477056387469	11.699657	3.4204762
2.6380084178298326	11.478017	3.3879223
2.655539841028383	11.387957	3.3746047
2.673071326394119	11.230331	3.3511686
2.6906028743380523	10.933816	3.306632
2.708134485271211	10.631713	3.2606308
2.7256661596046325	10.5357	3.2458742
2.743197897749369	10.354443	3.217832
2.760729700116486	10.310236	3.2109556
2.778261567117063	10.036939	3.1681128
2.795793499162193	9.845712	3.1377878
2.8133254966629817	9.7714615	3.1259336
2.830857560030551	9.670007	3.1096635
2.8483896896760337	9.660622	3.108154
2.865921886010578	9.550592	3.0904033
2.883454149445347	9.473774	3.0779495
2.9009864803915177	9.333942	3.05515
2.91851887926028	9.190198	3.031534
2.9360513464628384	9.078641	3.0130782
2.953583882410413	8.945704	2.990937
2.9711164875142373	8.909859	2.9849386
2.9886491621855606	8.830294	2.971581
3.0061819068356455	8.634345	2.9384255
3.023714721875769	8.519923	2.9188907
3.041247607717225	8.535757	2.9216018
3.0587805647713213	8.499996	2.9154754
3.0763135934493806	8.364612	2.8921638
3.0938466941627407	8.167608	2.8579028
3.1113798673227544	7.902829	2.811197
3.1289131133407904	7.7590384	2.785505
3.1464464326282315	7.6992373	2.77475
3.1639798255964786	7.7276077	2.7798574
3.1815132926569443	7.587247	2.7544959
3.1990468342210603	7.3959107	2.7195423
3.216580450700272	7.137813	2.6716685
3.2341141425060416	7.1681337	2.6773372
3.251647910049847	7.2099185	2.6851292
3.2691817537431813	7.1727033	2.6781902
3.286715673997555	7.1827054	2.680057
3.3042496712244938	7.208684	2.6848993
3.32178374583554	7.110999	2.6666458
3.339317898242251	6.9438186	2.6351125
3.3568521288562034	6.800726	2.60782
3.3743864380889876	6.6691856	2.5824766
3.3919208263522127	6.6916575	2.586824
3.4094552940575023	6.680452	2.584657
3.4269898416164972	6.695249	2.587518
3.444524469440858	6.6198015	2.5728974
3.4620591779422587	6.565966	2.5624142
3.479593967532391	6.5046806	2.5504274
3.4971288386229658	6.393908	2.5286179
3.5146637916257086	6.3204293	2.5140464
3.5321988269523628	6.172403	2.484432
3.5497339450146903	6.0931306	2.4684267
3.5672691462244708	6.171258	2.4842017
3.5848044309934988	6.167092	2.483363
3.60233979973359	6.2151814	2.4930265
3.619875252856575	6.3186536	2.5136933
3.6374107907743034	6.276227	2.50524
3.6549464138986427	6.202313	2.4904444
3.6724821226414788	6.063855	2.4624896
3.690017917414714	6.1144304	2.4727376
3.7075537986302702	6.219154	2.493823
3.7250897667000857	6.363186	2.5225356
3.7426258220361235	6.510268	2.5515227
3.7601619650503553	6.861814	2.6195064
3.777698196154779	7.2750673	2.6972332
3.7952345157614067	8.338774	2.8876934
3.8127709242822716	9.076182	3.0126703
3.830307422129425	11.34175	3.3677516
3.847844009714936	30.094723	5.4858656
3.8653806874508954	97.665924	9.882607
3.882917455749409	96.89467	9.843509
3.900454315022606	96.7403	9.835665
3.917991265682631	41.46035	6.438971
3.9355283081416506	11.082705	3.3290696
3.9530654428118495	8.8268585	2.971003
3.970602670105433	7.4993873	2.7385008
3.9881399904346244	6.521008	2.5536265
4.005677404211669	6.367966	2.523483
4.023214911848827	6.2758293	2.5051606
4.0407525137583855	6.289809	2.507949
4.058290210352644	6.3825855	2.526378
4.075828002043927	6.3752007	2.524916
4.0933658892445814	6.3497577	2.5198727
4.110903872366966	6.1758227	2.4851203
4.128441951823468	6.080672	2.4659019
4.145980128026488	5.9975557	2.4489908
4.163518401388452	5.9758244	2.44455
4.181056772321807	6.0371556	2.4570625
4.1985952412390155	6.0613837	2.4619877
4.216133808552567	6.1070867	2.471252
4.233672474674966	6.0690203	2.4635382
4.251211240018741	6.145501	2.479012
4.268750104996445	6.345972	2.5191212
4.286289070020643	7.2684073	2.6959984
4.303828135503928	8.948377	2.9913838
4.3213673018589125	29.273258	5.4104767
4.3389065694982305	90.49297	9.512779
4.356445938834537	165.80585	12.876562
4.3739854102805085	170.98389	13.07608
4.391524984248844	171.7739	13.106254
4.409064661152262	135.824	11.654356
4.426604441403504	96.14193	9.805199
4.444144325415337	75.39486	8.683022
4.461684313600543	21.310236	4.616301
4.47922440637193	21.774246	4.6662884
4.496764604142329	20.170767	4.4911876
4.5143049073245916	18.288116	4.2764606
4.531845316331589	16.365458	4.0454245
4.5493858315762195	13.430664	3.664787
4.566926453471405	11.1704	3.3422148
4.584467182430081	8.963802	2.993961
4.602008018865218	7.7990384	2.7926757
4.619548963189798	7.1884203	2.681123
4.637090015816834	6.8759747	2.6222079
4.654631177159353	6.698397	2.5881262
4.672172447630417	6.416038	2.53299
4.689713827643102	6.286172	2.5072238
4.7072553176105085	6.02822	2.4552433
4.724796917945764	5.883798	2.4256542
4.742338629062015	5.768321	2.401733
4.759880451372434	5.690944	2.38557
4.777422385290215	5.610975	2.3687496
4.794964431228581	5.631776	2.3731363
4.812506589600768	5.6750503	2.3822365
4.830048860820047	5.6141133	2.369412
4.847591245299709	5.532314	2.352087
4.8651337434530655	5.5833654	2.3629146
4.882676355693457	5.5797195	2.362143
4.900219082434242	5.557709	2.3574793
4.917761924088813	5.476001	2.3400857
4.935304881070575	5.357241	2.3145714
4.952847953792969	5.349303	2.312856
4.970391142669449	5.359619	2.3150852
4.9879344481135055	5.4242835	2.329009
5.005477870538642	5.4897537	2.3430223
5.023021410358394	5.4414077	2.3326826
5.040565067986324	5.3632836	2.3158765
5.05810884383601	5.2604175	2.29356
5.075652738321066	5.260946	2.2936752
5.09319675185512	5.3000216	2.3021777
5.110740884851836	5.298576	2.3018637
5.128285137724894	5.279087	2.2976265
5.145829510888007	5.2036853	2.2811587
5.163374004754908	5.2571006	2.292837
5.1809186197393595	5.301782	2.3025599
5.198463356255145	5.3969088	2.323125
5.216008214716077	5.349852	2.3129747
5.233553195535998	5.2739563	2.2965095
5.251098299128764	5.170515	2.2738767
5.268643525908272	5.107568	2.2599928
5.286188876288432	5.1284757	2.2646139
5.3037343506831895	5.1453037	2.2683263
5.32127994950651	5.244072	2.2899938
5.3388256731723915	5.2898726	2.2999723
5.356371522094851	5.28893	2.2997673
5.373917496687938	5.198659	2.2800567
5.391463597365729	5.119168	2.2625577
5.40900982454232	5.0593476	2.2492993
5.426556178631843	5.066091	2.250798
5.444102660048449	5.0533237	2.2479599
5.4616492692063225	5.1098566	2.2604992
5.479196006519669	5.099993	2.2583165
5.496742872402727	5.095704	2.2573667
5.514289867269756	5.110714	2.2606888
5.531836991535049	5.102888	2.2589574
5.549384245612924	5.035299	2.2439473
5.566931629917724	4.9845653	2.232614
5.584479144863822	4.9048696	2.214694
5.6020267908656205	4.971701	2.229731
5.619574568337545	5.010554	2.2384267
5.637122477694054	5.03047	2.2428708
5.654670519349629	5.0249915	2.2416494
5.672218693718784	5.021989	2.2409794
5.689767001216059	5.0166073	2.2397785
5.707315442256021	5.073938	2.2525403
5.724864017253266	4.9979806	2.2356164
5.7424127266224225	4.976768	2.2308671
5.75996157077814	4.970538	2.2294703
5.777510550135105	5.0948744	2.2571828
5.795059665108022	5.207303	2.2819517
5.812608916111639	5.2986164	2.3018723
5.830158303560715	5.3586617	2.3148782
5.847707827870055	5.2788105	2.2975662
5.86525748945448	5.3624115	2.3156881
5.8828072887288485	5.5219073	2.3498738
5.900357226108044	5.647044	2.376351
5.917907302006979	5.6937904	2.3861666
5.9354575168406	6.276509	2.5052962
5.9530078710238765	6.8982897	2.6264596
5.970558364971812	7.5393233	2.7457829
5.988108999099438	7.929951	2.816017
6.005659773821818	8.494888	2.9145992
6.023210689554039	8.166966	2.8577905
6.040761746711227	8.549156	2.923894
6.058312945708531	7.8032403	2.793428
6.075864286961132	7.2081666	2.684803
6.093415770884244	6.4904613	2.5476384
6.1109673978931065	5.9074893	2.4305327
6.128519168402993	5.4199405	2.3280766
6.146071082829204	5.360767	2.315333
6.163623141587075	5.313467	2.305096
6.181175345091969	5.255219	2.2924263
6.198727693759281	5.1973033	2.2797594
6.216280188004435	5.235568	2.2881365
6.233832828242885	5.1825247	2.276516
6.251385614890126	5.2274203	2.2863553
6.268938548361669	5.240654	2.2892475
6.286491629073067	5.141063	2.2673912
6.304044857439898	5.044999	2.2461076
6.321598233877777	4.986004	2.2329361
6.339151758802344	5.0511456	2.2474754
6.356705432629277	5.151444	2.2696793
6.37425925577428	5.042057	2.2454526
6.391813228653095	4.952401	2.225399
6.409367351681486	4.9062853	2.2150135
6.426921625275259	4.892182	2.2118278
6.44447604985025	4.9377756	2.2221105
6.46203062582232	4.9618526	2.2275217
6.47958535360737	5.0169296	2.2398503
6.497140233621328	5.013205	2.2390187
6.514695266280161	4.971486	2.229683
6.532250451999859	5.0082994	2.237923
6.549805791196454	5.0509124	2.2474234
6.567361284286002	5.03319	2.243477
6.584916931684597	5.008141	2.2378876
6.602472733808367	4.991657	2.2342017
6.6200286910734665	5.0353847	2.2439663
6.637584803896092	5.02146	2.2408614
6.655141072692462	4.942844	2.2232509
6.672697497878842	4.8874526	2.2107584
6.690254079871514	4.9131203	2.2165558
6.707810819086808	4.93019	2.2204032
6.725367715941078	4.921616	2.2184715
6.742924770850719	4.893452	2.2121148
6.760481984232151	4.9463897	2.2240481
6.778039356501836	4.9692597	2.2291837
6.795596888076266	4.998039	2.2356293
6.813154579371963	4.9942107	2.2347732
6.830712430805492	5.013284	2.2390366
6.84827044279344	5.02839	2.242407
6.865828615752445	4.9785495	2.2312663
6.883386950099159	4.910122	2.2158794
6.900945446250287	4.840242	2.200055
6.918504104622553	4.876568	2.2082953
6.936062925632727	4.943893	2.2234867
6.953621909697607	4.9497223	2.2247972
6.971181057234028	4.9059434	2.2149365
6.988740368658859	4.908075	2.2154176
7.006299844389007	4.9792204	2.2314167
7.023859484841407	5.046338	2.2464056
7.041419290433036	5.1859503	2.2772682
7.058979261580902	5.36941	2.3171988
7.0765393987020495	5.58785	2.3638635
7.094099702213559	5.885175	2.425938
7.111660172532549	6.160426	2.4820206
7.129220810076164	6.4919786	2.5479362
7.146781615261595	7.0682344	2.658615
7.16434258850606	7.4024177	2.7207384
7.181903730226821	7.8834047	2.8077402
7.1994650408411704	8.060053	2.839023
7.217026520766437	8.12304	2.8500948
7.234588170419983	8.278677	2.877269
7.252149990219215	8.219467	2.8669612
7.269711980581568	8.225849	2.8680742
7.2872741419245175	8.086066	2.843601
7.304836474665574	7.640097	2.7640727
7.322398979222286	7.3080864	2.7033472
7.339961656012233	7.014457	2.648482
7.357524505453039	6.732136	2.594636
7.375087527962357	6.521739	2.5537696
7.392650723957886	6.244689	2.4989376
7.410214093857353	5.8753963	2.4239216
7.427777638078528	5.611933	2.368952
7.445341357039213	5.4013386	2.324078
7.4629052511572525	5.2867	2.2992826
7.480469320850524	5.2953844	2.30117
7.498033566536948	5.2303467	2.2869952
7.5155979886344735	5.1465273	2.268596
7.5331625875610975	5.091885	2.2565205
7.550727363734844	5.063543	2.2502317
7.568292317573788	5.030762	2.2429361
7.585857449496025	5.03403	2.2436645
7.603422759919705	5.0603466	2.2495215
7.620988249263007	5.1425395	2.267717
7.638553917944147	5.138362	2.2667956
7.656119766381391	5.063653	2.2502563
7.673685794993023	5.0084567	2.2379582
7.691252004197388	5.0761085	2.253022
7.70881839441285	5.174324	2.274714
7.726384966057826	5.2254148	2.2859166
7.743951719550762	5.2161922	2.2838986
7.761518655310149	5.144114	2.268064
7.779085773754511	5.1625004	2.2721136
7.796653075302419	5.17864	2.2756624
7.814220560372475	5.176527	2.2751982
7.831788229383323	5.1287007	2.2646635
7.8493560827536495	5.1224613	2.2632854
7.866924120902174	5.166707	2.273039
7.884492344247663	5.1662874	2.2729468
7.9020607532089135	5.194113	2.2790596
7.919629348204771	5.160233	2.2716146
7.937198129654115	5.192612	2.2787304
7.954767097975865	5.2300453	2.2869291
7.972336253588986	5.253517	2.2920551
7.989905596912472	5.351158	2.313257
8.007475128365371	5.3935895	2.3224103
8.025044848366756	5.4328375	2.3308449
8.042614757335754	5.537244	2.3531349
8.060184855691523	5.6396966	2.3748045
8.07775514385327	5.7512455	2.3981755
8.095325622240228	5.786041	2.405419
8.112896291271687	5.705442	2.3886068
8.130467151366968	5.7198386	2.3916185
8.148038202945436	5.6782866	2.3829155
8.165609446426497	5.710747	2.3897169
8.183180882229594	5.7961774	2.407525
8.200752510774217	5.8052135	2.409401
8.218324332479893	5.8796763	2.4248044
8.235896347766193	5.872862	2.4233987
8.253468557052724	5.8768034	2.424212
8.27104096075914	5.854888	2.4196875
8.288613559305137	5.885575	2.4260204
8.306186353110448	5.9342165	2.4360247
8.32375934259485	6.0336413	2.4563472
8.341332528178162	6.147797	2.4794753
8.358905910280246	6.2712493	2.5042462
8.376479489321003	6.303574	2.510692
8.394053265720377	6.316449	2.5132546
8.411627239898356	6.2721744	2.504431
8.42920141227497	6.2453775	2.4990754
8.44677578327029	6.183396	2.4866436
8.464350353304427	6.1035123	2.4705288
8.48192512279754	6.051606	2.4600012
8.499500092169827	6.0318766	2.455988
8.51707526184153	6.0106406	2.4516609
8.534650632232934	6.071401	2.4640214
8.552226203764365	6.080701	2.4659078
8.569801976856192	6.1054206	2.4709148
8.587377951928834	6.1537647	2.4806783
8.60495412940274	6.2313805	2.4962733
8.622530509698416	6.2341385	2.4968257
8.6401070932364	6.2766223	2.5053189
8.657683880437283	6.336161	2.5171733
8.675260871721695	6.5343623	2.5562398
8.692838067510303	6.712062	2.5907648
8.710415468223834	6.8580317	2.6187844
8.727993074283043	7.005665	2.6468217
8.745570886108737	7.032194	2.6518285
8.763148904121765	7.0686865	2.6587002
8.78072712874302	7.098612	2.6643221
8.798305560393441	7.274303	2.6970916
8.815884199494006	7.4108744	2.7222922
8.833463046465745	7.611716	2.7589338
8.851042101729728	7.7771034	2.7887459
8.86862136570707	8.096257	2.8453922
8.886200838818924	8.158161	2.8562496
8.903780521486505	8.195868	2.8628426
8.921360414131055	8.273615	2.8763893
8.938940517173874	8.490964	2.913926
8.956520831036297	8.673063	2.9450066
8.97410135613971	8.944162	2.9906793
8.99168209290554	9.068428	3.011383
9.009263041755265	9.345695	3.0570729
9.026844203110405	9.5059595	3.0831735
9.044425577392525	9.660966	3.1082094
9.062007165023239	9.676983	3.110785
9.079588966424197	9.97818	3.1588256
9.097170982017108	10.047763	3.1698205
9.11475321222372	11.235117	3.3518827
9.132335657465825	12.262994	3.5018559
9.149918318165264	12.558078	3.543738
9.167501194743924	13.132326	3.623855
9.18508428762374	12.723402	3.5669878
9.202667597226693	12.668423	3.5592728
9.220251123974803	12.406061	3.522224
9.237834868290143	12.048327	3.47107
9.255418830594836	11.857986	3.4435427
9.273003011311046	11.285722	3.359423
9.290587410860985	11.101951	3.331959
9.308172029666911	10.457268	3.23377
9.32575686815113	10.102612	3.1784606
9.343341926735997	8.741767	2.9566479
9.360927205843916	8.515543	2.9181404
9.378512705897327	8.34206	2.8882625
9.396098427318728	8.104051	2.8467615
9.413684370530664	7.954229	2.8203242
9.431270535955722	7.7971535	2.7923384
9.448856924016539	7.6834364	2.7719011
9.466443535135806	7.5650525	2.750464
9.484030369736251	7.62568	2.7614634
9.501617428240658	7.622204	2.760834
9.519204711071852	7.6115	2.7588947
9.536792218652714	7.5557475	2.748772
9.55437995140617	7.5543885	2.748525
9.571967909755191	7.5952225	2.755943
9.589556094122802	7.6638827	2.7683718
9.60714450493207	7.762375	2.786104
9.624733142606116	7.8349094	2.7990909
9.642322007568108	7.8786716	2.8068972
9.659911100241267	7.9488735	2.8193746
9.677500421048851	7.966978	2.8225837
9.695089970414175	8.04208	2.8358562
9.712679748760609	8.003638	2.8290703
9.730269756511557	8.068374	2.8404882
9.747859994090492	8.07948	2.8424428
9.765450461920915	8.165674	2.8575644
9.78304116042639	8.163573	2.8571968
9.800632090030527	8.17777	2.85968
9.81822325115699	8.244336	2.8712952
9.835814644229481	8.282334	2.8779044
9.853406269671762	8.289279	2.8791108
9.870998127907646	8.318494	2.8841798
9.888590219360985	8.256586	2.8734276
9.906182544455698	8.278836	2.8772967
9.923775103615734	8.232082	2.8691607
9.941367897265108	8.228264	2.868495
9.958960925827878	8.206522	2.8647027
9.97655418972816	8.172297	2.858723
9.994147689390106	8.200548	2.8636599
10.011741425237934	8.212196	2.865693
10.029335397695904	8.240437	2.870616
10.04692960718833	8.257896	2.8736556
10.06452405413958	8.284063	2.8782048
10.082118738974064	8.23287	2.8692977
10.099713662116246	8.249532	2.8721998
10.117308823990651	8.261387	2.8742628
10.134904225021844	8.246445	2.8716624
10.152499865634445	8.225589	2.8680286
10.170095746253125	8.186488	2.861204
10.18769186730261	8.16373	2.8572242
10.205288229207675	8.095308	2.8452256
10.222884832393145	8.074313	2.8415337
10.2404816772839	7.9941163	2.8273869
10.258078764304868	7.960105	2.8213658
10.275676093881035	7.919533	2.8141665
10.293273666437438	7.9389253	2.8176098
10.310871482399158	8.024353	2.8327289
10.32846954219134	8.022931	2.8324778
10.346067846239173	7.923926	2.814947
10.363666394967908	7.874601	2.806172
10.38126518880283	7.9761496	2.8242078
10.398864228169298	8.150968	2.85499
10.416463513492713	8.156598	2.8559759
10.434063045198531	8.077491	2.8420928
10.451662823712262	8.014022	2.8309047
10.469262849459467	8.029629	2.83366
10.486863122865758	7.9808955	2.825048
10.504463644356806	7.969283	2.8229918
10.522064414358338	7.8948593	2.8097792
10.539665433296118	7.8603797	2.8036368
10.557266701595987	7.763824	2.7863638
10.574868219683818	7.6427116	2.7645454
10.592469987985552	7.513077	2.7409992
10.610072006927185	7.457038	2.7307577
10.627674276934751	7.3818727	2.7169602
10.64527679843435	7.2770734	2.6976051
10.662879571852143	7.143337	2.672702
10.680482597614331	7.102692	2.6650877
10.698085876147173	6.987976	2.643478
10.715689407876988	6.90779	2.6282675
10.733293193230146	6.7306347	2.5943468
10.750897232633072	6.626728	2.5742433
10.76850152651225	6.5842524	2.5659797
10.786106075294207	6.5905056	2.567198
10.803710879405534	6.5690355	2.563013
10.821315939272877	6.4235573	2.5344737
10.83892125532294	6.2597275	2.5019448
10.856526827982472	6.196363	2.4892495
10.874132657678285	6.167971	2.48354
10.891738744837243	6.1657143	2.4830856
10.909345089886271	6.143321	2.4785724
10.926951693252343	6.0849204	2.4667633
10.944558555362494	6.013586	2.4522614
10.96216567664381	5.8804293	2.4249597
10.979773057523436	5.806379	2.409643
10.997380698428573	5.7395105	2.3957276
11.014988599786477	5.6670175	2.38055
11.032596762024461	5.6214147	2.3709524
11.050205185569892	5.56809	2.35968
11.067813870850198	5.564244	2.358865
11.085422818292859	5.498321	2.3448498
11.10303202832541	5.439286	2.3322277
11.120641501375454	5.3361597	2.3100128
11.138251237870636	5.2631416	2.2941537
11.155861238238671	5.251063	2.2915199
11.173471502907317	5.1975174	2.2798064
11.191082032304402	5.184743	2.277003
11.208692826857805	5.075713	2.2529345
11.226303886995465	5.02861	2.2424562
11.243915213145371	4.9313927	2.220674
11.261526805735578	4.8456755	2.2012894
11.279138665194196	4.8065553	2.1923857
11.296750791949393	4.7825556	2.1869054
11.314363186429393	4.767436	2.183446
11.331975849062479	4.692385	2.1661913
11.34958878027699	4.625796	2.1507664
11.36720198050133	4.545695	2.1320636
11.384815450163948	4.5208516	2.1262295
11.402429189693366	4.4724703	2.1148217
11.420043199518153	4.477886	2.1161017
11.437657480066942	63.455338	7.9658856
11.455272031768422	85.157135	9.228063
11.472886855051353	107.50843	10.368628
11.490501950344528	99.0814	9.953964
11.508117318076819	84.43705	9.188964
11.52573295867715	45.88006	6.773482
11.543348872574514	4.187681	2.0463824
11.560965060197946	4.115498	2.028669
11.57858152197655	3.9994147	1.9998536
11.59619825833949	3.942003	1.9854478
11.613815269715985	3.9126534	1.9780428
11.631432556535323	38.448128	6.2006555
11.649050119226837	82.99652	9.110243
11.666667958219929	93.41162	9.6649685
11.68428607394406	107.715836	10.378624
11.701904466828756	82.57059	9.086836
11.719523137303586	65.42203	8.088388
11.737142085798196	4.6298466	2.151708
11.754761312742286	3.7283893	1.9309038
11.772380818565619	3.699614	1.9234381
11.790000603698015	3.712168	1.9266987
11.80762066856935	3.6729524	1.9164948
11.825241013609572	3.6240613	1.9036968
11.842861639248683	3.558081	1.8862876
11.860482545916748	3.4967964	1.8699723
11.878103734043883	3.4414885	1.855125
11.895725204060282	3.3646114	1.8342878
11.91334695639619	3.3844736	1.8396939
11.930968991481919	3.3659163	1.8346434
11.948591309747824	3.3614228	1.8334184
11.966213911624347	3.310419	1.8194557
11.98383679754198	3.2808578	1.8113139
12.001459967931268	3.2566276	1.8046129
12.019083423222835	3.2605312	1.8056941
12.036707163847352	3.2167952	1.7935426
12.05433119023556	3.227566	1.7965428
12.071955502818259	3.2068057	1.7907556
12.089580102026313	3.2158582	1.7932814
12.107204988290643	3.1819627	1.7838057
12.12483016204224	3.1234593	1.7673311
12.142455623712152	3.0698233	1.7520912
12.16008137373149	3.0411959	1.7439024
12.177707412531431	2.9852543	1.7277888
12.19533374054321	2.997568	1.7313486
12.212960358198126	2.9983654	1.7315788
12.230587265927545	3.0251236	1.7392882
12.248214464162889	3.0276268	1.7400076
12.265841953335649	2.9720886	1.7239746
12.283469733877375	2.9345877	1.7130638
12.301097806219685	2.9224544	1.7095188
12.31872617079425	2.9218197	1.7093331
12.336354828032825	2.9077356	1.7052084
12.353983778367205	2.90256	1.70369
12.371613022229262	2.9007	1.7031442
12.389242560050928	2.895565	1.701636
12.406872392264201	2.8931792	1.7009348
12.424502519301143	2.8546467	1.68957
12.442132941593874	2.8770597	1.6961898
12.459763659574586	2.8782065	1.6965277
12.477394673675532	2.8725023	1.6948458
12.49502598432903	2.818226	1.6787573
12.51265759196746	2.7862403	1.6692035
12.530289497023267	2.7851005	1.668862
12.547921699928967	2.7929745	1.6712195
12.565554201117134	2.7962556	1.6722008
12.583187001020404	2.7841117	1.6685658
12.600820100071486	2.7686424	1.6639239
12.618453498703152	2.7581596	1.6607708
12.636087197348235	2.7087126	1.6458167
12.65372119643964	2.7153783	1.6478405
12.671355496410326	2.7465546	1.6572733
12.68899009769333	2.81362	1.6773849
12.706625000721749	2.8531253	1.6891197
12.724260205928752	2.917718	1.7081329
12.741895713747551	2.9194906	1.7086517
12.759531524611454	2.944205	1.7158686
12.777167638953818	2.9258313	1.7105062
12.794804057208072	2.9874551	1.7284256
12.812440779807702	3.0239327	1.7389458
12.830077807186271	3.1623068	1.7782876
12.847715139777405	3.1531816	1.77572
12.865352778014795	3.3991663	1.8436828
12.882990722332197	3.543381	1.882387
12.90062897316344	3.6307023	1.9054402
12.918267530942412	3.7248893	1.9299972
12.935906396103071	3.6122825	1.9006006
12.953545569079449	3.7554479	1.9378978
12.971185050305628	3.5341244	1.8799267
12.988824840215775	3.552038	1.8846852
13.006464939244115	3.5376065	1.8808526
13.024105347824943	3.400795	1.8441244
13.041746066392617	3.489326	1.8679738
13.05938709538157	3.3209212	1.8223395
13.077028435226296	3.318229	1.8216007
13.094670086361363	3.2116702	1.7921133
13.112312049221401	3.1317828	1.7696843
13.129954324241112	3.0657098	1.7509168
13.147596911855258	2.8882494	1.6994851
13.165239812498685	2.8617287	1.6916645
13.182883026606293	2.7891467	1.6700739
13.200526554613058	2.7193317	1.6490396
13.218170396954017	2.6621048	1.6315958
13.235814554064284	2.6158118	1.6173471
13.253459026379034	2.6421294	1.6254629
13.271103814333523	2.6398475	1.6247607
13.288748918363058	2.665855	1.6327446
13.306394338903031	2.6462853	1.6267407
13.32404007638889	2.6154778	1.6172439
13.341686131256164	2.6390195	1.6245059
13.359332503940449	2.650046	1.6278962
13.376979194877402	2.6658416	1.6327405
13.394626204502751	2.6839733	1.6382836
13.412273533252307	2.676449	1.6359856
13.429921181561937	2.6355238	1.6234297
13.447569149867581	2.652433	1.6286292
13.465217438605247	2.6623836	1.6316812
13.482866048211022	2.646093	1.6266816
13.500514979121052	2.6369715	1.6238755
13.518164231771568	2.6138628	1.6167445
13.535813806598844	2.6555994	1.629601
13.553463704039254	2.651189	1.6282473
13.571113924529229	2.6853557	1.6387055
13.588764468505275	2.7148423	1.6476779
13.606415336403956	2.7343116	1.6535754
13.624066528661917	2.7146597	1.6476225
13.641718045715882	2.7335744	1.6533525
13.659369888002635	2.768434	1.6638612
13.67702205595903	2.840308	1.6853213
13.694674550021993	2.9368184	1.7137148
13.712327370628532	2.9768372	1.7253513
13.729980518215713	3.0412247	1.7439108
13.747633993220681	3.1157928	1.7651608
13.765287796080647	3.1673753	1.7797122
13.7829419272329	3.243575	1.8009928
13.800596387114801	3.244266	1.8011847
13.818251176163775	3.2820404	1.8116403
13.835906294817324	3.346155	1.8292499
13.853561743513023	3.415143	1.8480105
13.871217522688525	3.4631186	1.8609456
13.888873632781538	3.4617767	1.8605851
13.906530074229858	3.5000305	1.8708369
13.92418684747135	3.489862	1.8681172
13.941843952943948	3.4563596	1.8591287
13.959501391085665	3.4086769	1.8462602
13.977159162334578	3.3567507	1.8321438
13.994817267128846	3.3218944	1.8226064
14.012475705906693	3.2376854	1.7993569
14.030134479106424	3.1410165	1.7722913
14.047793587166414	3.0973144	1.7599188
14.065453030525108	3.0585477	1.7488704
14.083112809621026	3.0222204	1.7384534
14.100772924892766	2.9196784	1.7087066
14.118433376778997	2.8709872	1.6943988
14.136094165718458	2.7931166	1.671262
14.153755292149969	2.7636654	1.6624275
14.171416756512416	2.7273285	1.6514626
14.189078559244768	2.68166	1.6375774
14.20674070078606	2.6234455	1.6197053
14.224403181575408	2.55688	1.5990247
14.242066002051999	2.462626	1.5692756
14.259729162655093	2.4283912	1.5583296
14.277392663824022	2.3805554	1.5429049
14.295056505998208	2.387456	1.5451394
14.312720689617128	2.3790941	1.5424312
14.330385215120348	2.3892345	1.5457149
14.348050082947497	2.3745437	1.5409554
14.3657152935383	2.3671346	1.5385495
14.383380847332528	2.364033	1.5375413
14.401046744770051	2.3878555	1.5452688
14.418712986290798	2.358438	1.5357207
14.436379572334793	2.3233063	1.5242395
14.454046503342123	2.296634	1.5154649
14.471713779752946	2.312223	1.5205995
14.489381402007504	2.374185	1.5408391
14.507049370546113	2.4226022	1.5564711
14.524717685809168	2.4532318	1.5662796
14.542386348237134	2.4335225	1.5599751
14.560055358270553	2.3897033	1.5458665
14.577724716350051	2.4166396	1.5545545
14.595394422916325	2.4149866	1.5540227
14.61306447841015	2.4516766	1.565783
14.63073488327237	2.454631	1.5667262
14.648405637943917	2.5056818	1.5829345
14.6660767428658	2.4942737	1.579327
14.683748198479094	2.471283	1.5720315
14.701420005224954	2.47073	1.5718557
14.719092163544628	2.548607	1.5964358
14.73676467387942	2.61857	1.6181996
14.754437536670727	2.6413088	1.6252104
14.772110752360014	2.6489708	1.627566
14.78978432138882	2.6734102	1.6350566
14.807458244198777	2.7000859	1.6431938
14.82513252123159	2.6392362	1.6245726
14.842807152929028	2.6410615	1.6251343
14.860482139732962	2.6044858	1.6138419
14.87815748208531	2.599823	1.6123967
14.8958331804281	2.5451276	1.5953456
14.91350923520342	2.5451915	1.5953656
14.931185646853438	2.6258895	1.6204597
14.948862415820408	2.648118	1.627304
14.966539542546656	2.6623173	1.6316609
14.98421702747459	2.6189091	1.6183044
15.001894871046696	2.6511881	1.6282469
15.019573073705542	2.6616826	1.6314664
15.037251635893766	2.6617856	1.631498
15.054930558054092	2.6503642	1.627994
15.072609840629323	2.685834	1.6388514
15.090289484062351	2.8506858	1.6883974
15.107969488796124	3.1332903	1.7701102
15.125649855273691	3.5453408	1.8829075
15.14333058393817	4.0344753	2.0086002
15.161011675232768	4.966906	2.2286556
15.17869312960076	6.2955055	2.5090847
15.196374947485506	8.121327	2.8497944
15.214057129330447	11.000439	3.316691
15.231739675579114	15.674963	3.959162
15.249422586675102	20.852179	4.5664186
15.267105863062092	24.39885	4.939519
15.284789505183847	25.02997	5.002996
15.302473513484218	23.197243	4.8163514
15.320157888407127	19.641935	4.4319224
15.337842630396578	15.221665	3.9014952
15.355527739896656	11.769901	3.430729
15.37321321735153	9.009478	3.0015793
15.39089906320545	6.478953	2.5453787
15.408585277902748	4.802986	2.1915717
15.42627186188783	3.6906242	1.9210998
15.443958815605198	3.1775277	1.7825621
15.461646139499424	2.879561	1.696927
15.479333834015168	2.698234	1.6426302
15.497021899597165	2.6249366	1.6201656
15.514710336690234	2.6110606	1.6158776
15.53239914573928	2.5875401	1.6085833
15.550088327189297	2.5333745	1.5916578
15.567777881485336	2.4552238	1.5669154
15.58546780907256	2.447078	1.5643139
15.6031581103962	2.4657207	1.5702614
15.620848785901568	2.4785378	1.5743372
15.638539836034063	2.4761343	1.5735737
15.656231261239173	2.4578109	1.5677407
15.673923061962451	2.4353766	1.5605693
15.691615238649552	2.3991468	1.5489179
15.709307791746202	2.354797	1.5345347
15.727000721698221	2.3404565	1.529855
15.744694028951498	2.3384361	1.5291946
15.76238771395202	2.3596725	1.5361226
15.780081777145844	2.3728025	1.5403904
15.797776218979125	2.3726385	1.5403371
15.815471039898094	2.3514426	1.5334414
15.833166240349064	2.334599	1.5279394
15.850861820778437	2.3398485	1.5296563
15.868557781632699	2.3509266	1.5332732
15.886254123358412	2.3856792	1.5445644
15.903950846402232	2.37841	1.5422095
15.921647951210897	2.3780127	1.5420806
15.939345438231225	2.3860767	1.5446931
15.957043307910133	2.3610518	1.5365714
15.974741560694602	2.3705914	1.5396725
15.992440197031714	2.377426	1.5418904
16.01013921736862	2.4000955	1.5492241
16.02783862215259	2.4039495	1.5504675
16.045538411830933	2.4009926	1.5495137
16.06323858685107	2.3896124	1.5458372
16.080939147660512	2.3887002	1.545542
16.09864009470684	2.3983204	1.5486512
16.11634142843774	2.4219587	1.5562643
16.134043149300954	2.4364803	1.5609229
16.15174525774433	2.430443	1.5589879
16.169447754215817	2.413685	1.5536039
16.18715063916342	2.3868399	1.5449401
16.204853913035244	2.379727	1.5426364
16.222557576279478	2.3844223	1.5441575
16.240261629344403	22.366512	4.729325
16.257966072678386	42.973404	6.5554104
16.275670906729868	38.06816	6.16994
16.293376131947387	2.4991703	1.5808765
16.31108174877957	2.5041218	1.5824417
16.328787757675133	2.5231116	1.5884305
16.34649415908287	2.5642521	1.6013283
16.364200953451657	2.6209075	1.6189218
16.38190814123048	2.6351092	1.623302
16.39961572286839	2.626459	1.6206354
16.41732369881455	2.6091645	1.6152909
16.43503206951817	2.6567507	1.6299542
16.45274083542859	2.6846566	1.6384922
16.47044999699522	2.714194	1.6474811
16.488159554667558	2.7642527	1.6626042
16.505869508895184	2.8525732	1.6889563
16.523579860127786	2.9160972	1.7076584
16.541290608815117	2.9268982	1.710818
16.559001755407035	2.972195	1.7240055
16.57671330035348	3.0255883	1.7394218
16.59442524410448	3.0572827	1.7485087
16.61213758711015	3.0640445	1.7504412
16.629850329820705	3.0876544	1.7571722
16.647563472686436	3.1805165	1.7834003
16.665277016157724	3.2839298	1.8121617
16.682990960685053	3.3450253	1.828941
16.70070530671898	3.412836	1.8473862
16.718420054710155	3.515451	1.8749536
16.736135205109335	3.595544	1.896192
16.753850758367335	3.6515777	1.9109101
16.771566714935087	3.6355438	1.9067103
16.789283075263597	3.64659	1.9096047
16.80699983980398	3.6986182	1.9231791
16.82471700900741	3.8062773	1.9509683
16.84243458332518	3.925938	1.981398
16.860152563208665	3.9797997	1.9949435
16.87787094910932	3.9780297	1.9944999
16.89558974147871	4.0318904	2.0079567
16.913308940768466	4.0987406	2.0245347
16.931028547430333	4.213179	2.052603
16.94874856191613	4.273823	2.0673227
16.966468984677785	4.320018	2.0784652
16.98418981616729	4.308027	2.0755787
17.00191105683676	4.3428955	2.0839615
17.019632707138374	4.4245796	2.1034684
17.03735476752442	4.500921	2.1215374
17.05507723844728	4.5447693	2.1318464
17.072800120359403	4.5628843	2.136091
17.090523413713353	4.6078267	2.146585
17.108247118961785	4.62532	2.1506557
17.125971236557437	4.594973	2.1435888
17.143695766953133	4.5796337	2.140008
17.161420710601806	4.5994906	2.1446424
17.179146067956477	4.6114526	2.1474292
17.19687183947025	4.616957	2.1487105
17.21459802559634	4.6079373	2.1466107
17.232324626788028	4.650067	2.1564014
17.25005164349871	4.637378	2.1534572
17.267779076181863	4.636674	2.1532938
17.285506925291074	4.57131	2.1380622
17.30323519127999	4.5494533	2.1329448
17.320963874602384	4.517987	2.1255558
17.33869297571211	4.500435	2.1214228
17.356422495063114	4.4617605	2.112288
17.37415243310944	4.4378004	2.1066086
17.391882790305218	4.4224415	2.10296
17.40961356710468	4.4274373	2.1041477
17.42734476396215	4.4499235	2.1094842
17.445076381332044	4.522185	2.126543
17.462808419668868	4.5744133	2.1387877
17.48054087942723	4.6569734	2.1580021
17.498273761061835	4.8662825	2.2059653
17.51600706502747	5.2993617	2.3020341
17.533740791779024	6.0189195	2.4533486
17.551474941771485	7.4447365	2.7285044
17.56920951545993	8.594031	2.931558
17.586944513299528	10.895769	3.300874
17.60467993574556	12.615222	3.5517914
17.622415783253373	14.455705	3.8020658
17.64015205627843	15.929333	3.9911568
17.657888755276293	17.159582	4.1424127
17.675625880702604	17.796827	4.2186284
17.69336343301311	17.755783	4.2137613
17.71110141266366	16.902115	4.111218
17.728839820110178	15.707282	3.9632413
17.746578655808705	14.535226	3.812509
17.764317920215372	12.882817	3.5892642
17.7820576137864	11.368799	3.371765
17.79979773697811	9.334071	3.0551713
17.81753829024692	7.434907	2.7267027
17.835279274049356	5.7597156	2.3999407
17.85302068884201	4.718329	2.1721716
17.870762535081607	4.079592	2.0198
17.888504813224934	3.7910154	1.947053
17.90624752372891	3.6301494	1.9052951
17.923990667050536	3.5166817	1.8752818
17.941734243646895	3.4397557	1.8546579
17.959478253975185	3.4254353	1.8507931
17.9772226984927	3.4451737	1.856118
17.994967577656833	3.4356725	1.8535568
18.01271289192506	3.4098952	1.8465902
18.030458641754965	3.3070686	1.8185347
18.04820482760425	3.262691	1.806292
18.06595144993067	3.2154732	1.793174
18.083698509192125	3.2067113	1.7907293
18.101446005846576	3.1966395	1.7879149
18.119193940352105	3.1776826	1.7826055
18.136942313166887	3.1608455	1.7778767
18.1546911247492	3.1208317	1.7665876
18.1724403755574	3.133515	1.7701737
18.19019006604997	3.1273274	1.7684251
18.207940196685467	3.0423396	1.7442304
18.225690767922575	3.0038664	1.7331666
18.243441780220046	3.015088	1.7364008
18.261193234036764	3.0931323	1.7587303
18.278945129831676	3.0776772	1.754331
18.29669746806386	3.0613077	1.7496593
18.314450249192483	2.9954412	1.7307343
18.3322034736768	2.9984195	1.7315946
18.349957141976184	3.0107877	1.7351621
18.3677112545501	3.008548	1.7345166
18.385465811858108	3.0725393	1.752866
18.403220814359884	3.0808966	1.7552483
18.420976262515172	3.109388	1.7633457
18.43873215678387	3.0740328	1.753292
18.456488497625923	3.0757334	1.7537769
18.474245285501407	3.1698651	1.7804115
18.492002520870486	3.2407138	1.8001983
18.50976020419343	3.3385017	1.8271568
18.527518335930615	3.6357772	1.9067714
18.545276916542516	4.24749	2.0609438
18.563035946489688	4.40905	2.099774
18.580795426232832	4.825876	2.1967876
18.598555356232698	4.6896954	2.1655705
18.616315736950185	5.033319	2.243506
18.63407656884626	4.734035	2.1757839
18.65183785238201	4.875276	2.2080028
18.669599588018617	4.5981236	2.1443236
18.68736177621737	4.6046567	2.1458464
18.705124417439652	4.5916386	2.1428108
18.72288751214696	4.4034905	2.0984495
18.740651060800886	4.4874063	2.1183498
18.758415063863115	4.2318444	2.0571446
18.77617952179546	4.349818	2.0856218
18.793944435059814	4.1438146	2.0356362
18.811709804118184	4.157293	2.038944
18.829475629432675	4.084574	2.021033
18.8472419114655	3.8694177	1.9670836
18.86500865067897	3.9558165	1.9889234
18.88277584753551	3.687875	1.920384
18.90054350249763	3.7265844	1.9304364
18.918311616027957	3.41712	1.8485453
18.936080188589226	3.315561	1.8208683
18.953849220644265	3.0424194	1.7442533
18.971618712656007	2.8711612	1.6944501
18.9893886650875	2.7989423	1.673004
19.007159078401887	7.9751987	2.8240395
19.024929953062408	32.836887	5.730348
19.042701289532435	32.823696	5.729197
19.060473088275405	25.398073	5.03965
19.07824534975489	2.6899679	1.6401122
19.096018074434568	2.6664762	1.6329348
19.113791262778197	2.6458323	1.6266015
19.13156491524966	2.6190972	1.6183625
19.149339032312945	2.5784335	1.6057501
19.167113614432136	2.547657	1.5961381
19.184888662071433	2.5185404	1.586991
19.202664175695123	2.5136676	1.5854551
19.220440155767623	2.5498233	1.5968167
19.238216602753447	2.5525162	1.5976596
19.2559935171172	2.5159607	1.5861781
19.27377089932361	2.4989102	1.5807942
19.291548749837514	2.4905157	1.5781368
19.309327069123835	2.5000834	1.5811652
19.32710585764763	2.4958677	1.5798316
19.344885115874032	2.4946618	1.5794499
19.362664844268313	2.4504824	1.5654017
19.380445043295822	2.4205182	1.5558015
19.39822571342203	2.4302268	1.5589185
19.41600685511252	2.4067478	1.5513697
19.43378846883297	2.4389195	1.561704
19.451570555049173	2.4742594	1.5729779
19.469353114227037	2.497342	1.5802981
19.48713614683254	2.470302	1.5717195
19.50491965333182	2.4447083	1.5635563
19.52270363419109	2.4377708	1.5613363
19.540488089876686	2.449955	1.5652332
19.55827302085503	2.4353547	1.5605623
19.576058427592674	2.4696023	1.5714968
19.593844310556282	2.4890442	1.5776705
19.611630670212598	2.4956315	1.5797567
19.629417507028506	2.5007231	1.5813675
19.64720482147098	2.4655452	1.5702055
19.6649926140071	2.4591284	1.5681608
19.682780885104084	2.46467	1.5699267
19.70056963522921	2.4962592	1.5799555
19.718358864849908	2.5199988	1.5874504
19.7361485744337	2.4762974	1.5736256
19.753938764448215	2.4459634	1.5639576
19.771729435361202	2.44734	1.5643977
19.789520587640506	2.4649177	1.5700057
19.807312221754092	2.4929235	1.5788995
19.825104338170043	2.4826608	1.5756462
19.842896937356517	2.4673412	1.5707773
19.860690019781824	2.4432178	1.5630796
19.87848358591436	2.4131978	1.553447
19.896277636222635	2.43688	1.561051
19.914072171175278	2.467891	1.5709523
19.931867191241015	2.4513576	1.5656812
19.94966269688869	2.4345214	1.5602953
19.967458688587264	2.4695878	1.5714922
19.985255166805807	2.486209	1.5767716
20.00305213201348	2.490521	1.5781385
20.020849584679578	2.4647608	1.5699557
20.038647525273507	2.4458375	1.5639174
20.05644595426477	2.4039273	1.5504603
20.07424487212299	2.3526602	1.5338384
20.092044279317903	2.3667731	1.538432
20.109844176319353	2.3717828	1.5400593
20.127644563597304	2.3878584	1.5452697
20.145445441621817	2.3806212	1.5429262
20.16324681086307	2.3997035	1.5490977
20.181048671791373	2.4111464	1.5527867
20.198851024877122	2.4180503	1.5550082
20.216653870590836	2.3851025	1.5443777
20.234457209403146	2.3487232	1.5325545
20.252261041784802	2.3553913	1.5347284
20.270065368206662	2.3403382	1.5298164
20.287870189139685	2.3621588	1.5369316
20.305675505054968	2.3619454	1.5368621
20.323481316423702	2.336981	1.5287187
20.341287623717207	2.2962215	1.5153289
20.359094427406884	2.3010921	1.5169351
20.376901727964288	2.278134	1.5093489
20.39470952586107	2.2882624	1.5127003
20.41251782156899	2.294137	1.5146409
20.430326615559935	2.3336055	1.5276144
20.448135908305886	2.3388414	1.5293272
20.465945700278965	2.3132713	1.5209442
20.483755991951384	2.3369274	1.5287012
20.50156678379548	2.3613324	1.5366627
20.519378076283708	2.3482726	1.5324074
20.537189869888635	2.3079708	1.5192007
20.55500216508294	2.3099742	1.5198599
20.572814962339415	2.3215566	1.5236655
20.59062826213098	2.319745	1.5230709
20.60844206493066	2.293377	1.51439
20.626256371211593	2.3046088	1.5180938
20.644071181447032	2.3302312	1.5265095
20.66188649611036	2.3451579	1.5313908
20.67970231567506	2.34623	1.5317409
20.697518640614742	2.2927997	1.5141994
20.715335471403122	2.276686	1.508869
20.73315280851404	2.2921069	1.5139706
20.750970652421447	2.3548753	1.5345603
20.768789003599412	2.3786142	1.5422757
20.786607862522136	2.3551216	1.5346406
20.8044272296639	2.3567188	1.5351608
20.82224710549913	2.2926438	1.5141479
20.84006749050237	2.2668943	1.505621
20.857888385148268	3.8084207	1.9515176
20.8757097899116	45.928402	6.7770495
20.893531705267254	64.78721	8.04905
20.911354131690224	83.819626	9.155306
20.92917706965566	69.07529	8.311154
20.94700051963877	50.117424	7.079366
20.96482448211493	29.349419	5.4175105
20.982648957559622	4.1045723	2.0259745
21.00047394644843	2.2707703	1.5069076
21.01829944925707	2.2822223	1.5107026
21.036125466461375	2.2662525	1.5054078
21.053951998537297	2.242621	1.4975383
21.071779045960906	2.239902	1.4966302
21.089606609208378	2.200444	1.4833894
21.10743468875603	2.164445	1.4712052
21.12526328508028	2.1644146	1.471195
21.143092398657675	2.1770167	1.4754717
21.16092202996488	2.1751328	1.4748331
21.17875217947867	2.1422303	1.4636359
21.19658284767596	2.1396697	1.4627609
21.21441403503377	2.1372666	1.4619393
21.232245742029225	2.1632483	1.4707985
21.2500779691396	2.1620524	1.4703919
21.26791071684227	2.156837	1.4686173
21.28574398561475	2.0980358	1.4484599
21.30357777593465	2.0793574	1.4419976
21.321412088279704	2.1002448	1.4492221
21.339246923127792	2.15315	1.4673616
21.357082280956888	2.1610322	1.470045
21.3749181622451	2.1503885	1.4664203
21.392754567470647	2.1225042	1.4568816
21.41059149711187	2.091814	1.4463105
21.42842895164726	2.0963194	1.4478672
21.446266931555378	2.1106672	1.4528135
21.464105437314945	2.1093347	1.4523549
21.481944469404798	2.0918663	1.4463285
21.49978402830388	2.1001823	1.4492006
21.51762411449127	2.1130419	1.4536306
21.53546472844617	2.0835154	1.4434388
21.553305870647876	2.0515087	1.4323089
21.571147541575865	2.037272	1.4273304
21.58898974170967	2.0266619	1.4236088
21.60683247152899	2.016197	1.4199286
21.62467573151363	2.0423865	1.4291209
21.642519522143523	2.0650308	1.4370215
21.660363843898722	2.0565078	1.434053
21.6782086972594	2.0693414	1.4385206
21.696054082705864	2.0513976	1.43227
21.713900000718535	2.0179548	1.4205474
21.73174645177795	1.9753242	1.4054623
21.749593436364794	1.9767779	1.4059794
21.767440954959845	1.9861304	1.4093014
21.785289008044032	2.0100026	1.4177456
21.803137596098388	2.025239	1.4231089
21.820986719604086	2.0420578	1.4290059
21.838836379042412	2.0281184	1.4241202
21.85668657489478	2.0096474	1.4176203
21.87453730764273	2.004265	1.4157207
21.892388577767914	1.9777455	1.4063234
21.91024038575213	1.9571053	1.3989658
21.928092732077285	1.9234824	1.3868967
21.945945617225426	1.9397423	1.3927463
21.963799041678694	1.9541111	1.3978952
21.981653005919398	31.296467	5.5943246
21.999507510429943	78.10954	8.83796
22.01736255569286	73.05727	8.547355
22.035218142190818	4.182352	2.04508
22.05307427040661	2.0049653	1.415968
22.07093094082315	1.9975581	1.41335
22.088788153923474	1.9916834	1.4112701
22.106645910190746	1.9979995	1.4135062
22.12450421010827	1.9627167	1.4009699
22.142363054159464	1.9442654	1.3943691
22.16022244282787	1.9548068	1.398144
22.178082376597164	1.957383	1.399065
22.195942855951145	1.9532293	1.3975798
22.213803881373742	1.9259232	1.3877764
22.231665453349002	1.8991675	1.3781029
22.24952757236111	1.8955976	1.376807
22.26739023889438	1.9047464	1.3801255
22.28525345343323	1.9124595	1.382917
22.30311721646225	1.9359119	1.3913705
22.320981528466113	1.9416593	1.3934344
22.33884638992964	1.9231696	1.386784
22.356711801337788	1.9404042	1.3929839
22.37457776317561	1.9800676	1.4071487
22.392444275928337	2.0201144	1.4213073
22.410311340081282	2.0194256	1.421065
22.428178956119904	1.9852325	1.4089828
22.446047124529805	1.9496639	1.3963037
22.46391584579669	1.9322951	1.3900702
22.481785120406414	1.934015	1.3906887
22.49965494884496	1.9489368	1.3960433
22.51752533159841	1.9693497	1.4033352
22.53539626915302	1.9782159	1.4064907
22.553267761995137	1.9920851	1.4114125
22.571139810611264	1.9522054	1.3972135
22.589012415488025	1.9422747	1.3936552
22.60688557711216	1.9237006	1.3869753
22.624759295970566	1.9446391	1.3945031
22.642633572550263	1.9377986	1.3920484
22.660508407338362	1.9714059	1.4040676
22.67838380082217	1.9835149	1.4083731
22.696259753489077	1.9328241	1.3902605
22.714136265826614	1.8968178	1.3772501
22.73201333832246	1.8864014	1.3734633
22.74989097146439	1.9226705	1.386604
22.76776916574035	1.8987026	1.3779342
22.785647921638393	1.926975	1.3881552
22.803527239646712	1.9550442	1.3982289
22.82140712025363	1.969231	1.4032929
22.839287563947593	1.9572363	1.3990126
22.85716857121719	1.9405328	1.39303
22.875050142551135	1.9286834	1.3887705
22.892932278438277	1.9497088	1.3963197
22.910814979367604	1.968436	1.4030097
22.928698245828222	1.957577	1.3991344
22.946582078309387	1.925771	1.3877215
22.96446647730047	1.8802438	1.3712199
22.98235144329098	1.8784904	1.3705803
23.000236976770562	1.8705614	1.3676847
23.018123078229	1.8778356	1.3703414
23.03600974815619	1.8551784	1.3620493
23.053896987042194	1.878286	1.3705057
23.071784795377173	1.8807175	1.3713925
23.08967317365145	1.8826592	1.3721002
23.10756212235546	1.8734196	1.3687292
23.125451641979787	1.8729681	1.3685642
23.143341733015134	1.9000803	1.3784341
23.161232395952357	1.8962266	1.3770355
23.179123631282426	1.8992108	1.3781186
23.197015439496468	1.9208374	1.3859428
23.214907821085717	1.9453497	1.394758
23.23280077654157	1.9309787	1.3895966
23.250694306355538	1.915124	1.38388
23.268588411019277	1.905535	1.3804111
23.28648309102458	1.9572563	1.3990197
23.304378346863356	1.9619533	1.4006975
23.322274179027676	1.9686579	1.4030887
23.340170588009723	1.9148804	1.383792
23.358067574301852	1.8836213	1.3724508
23.37596513839651	1.8688822	1.3670707
23.39386328078629	1.9003229	1.378522
23.411762001963947	1.9174708	1.3847277
23.429661302422353	1.9142032	1.3835473
23.4475611826545	1.9051576	1.3802744
23.46546164315356	1.9240808	1.3871124
23.48336268441279	1.935615	1.3912638
23.501264306925638	1.9203793	1.3857775
23.51916651118564	1.8854585	1.37312
23.537069297686497	1.857611	1.362942
23.554972666922037	1.85846	1.3632535
23.57287661938623	1.8141897	1.3469186
23.59078115557318	1.8184481	1.3484985
23.608686275977128	1.8389491	1.3560786
23.62659198109246	1.8511789	1.3605803
23.6444982714137	1.8624437	1.3647138
23.66240514743549	1.8894031	1.3745556
23.68031260965263	1.8963399	1.3770766
23.698220658560068	1.8905236	1.3749632
23.716129294652845	1.9053886	1.3803581
23.7340385184262	1.9356984	1.3912938
23.75194833037546	1.9776955	1.4063056
23.769858730996123	1.9549546	1.3981969
23.78776972078382	1.9562052	1.3986441
23.80568130023431	1.9095901	1.3818792
23.823593469843495	1.8914692	1.375307
23.841506230107424	1.8825527	1.3720615
23.859419581522275	1.8976679	1.3775587
23.87733352458438	1.8658864	1.3659745
23.89524805979019	1.8338338	1.3541912
23.913163187636318	1.8420471	1.3572204
23.931078908619508	1.8876334	1.3739117
23.948995223236633	1.9389623	1.3924663
23.966912131984735	1.9513756	1.3969165
23.98482963536096	1.988069	1.409989
24.002747733862616	1.9519564	1.3971243
24.020666427987155	1.9720635	1.4043018
24.038585718232156	2.0208464	1.4215648
24.056505605095353	2.0589595	1.4349074
24.074426089074617	2.0857697	1.4442194
24.092347170667946	2.0753937	1.4406227
24.110268850373515	2.1139145	1.4539307
24.128191128689586	2.1396053	1.462739
24.146114006114626	2.1129825	1.4536102
24.164037483147187	2.0903964	1.4458203
24.181961560286005	2.02609	1.4234078
24.199886238029926	2.0279875	1.4240743
24.21781151687797	2.0240982	1.422708
24.235737397329274	1.9997905	1.4141395
24.253663879883135	1.9638159	1.4013622
24.271590965038975	1.9817688	1.4077531
24.289518653296376	2.0032566	1.4153645
24.30744694515505	2.0300865	1.424811
24.32537584111486	2.028253	1.4241675
24.34330534167581	2.0352998	1.4266393
24.361235447338046	2.0354621	1.4266962
24.379166158601876	2.026661	1.4236084
24.39709747596772	2.0254154	1.4231709
24.41502939993615	1.9804888	1.4072984
24.432961931007917	1.9525208	1.3973264
24.450895069683856	1.952367	1.3972713
24.468828816465	1.9584526	1.3994472
24.4867631718525	1.9464477	1.3951515
24.504698136347656	1.9454902	1.3948083
24.52263371045192	1.9544088	1.3980017
24.540569894666874	1.9839381	1.4085233
24.558506689494266	2.0159314	1.419835
24.57644409543597	2.0246835	1.4229137
24.594382112994012	2.00995	1.417727
24.61232074267057	1.9902799	1.4107728
24.630259984967953	1.9540621	1.3978777
24.64819984038863	1.9084597	1.3814701
24.66614030943522	1.874408	1.3690902
24.684081392610462	1.905793	1.3805046
24.702023090417274	1.939358	1.3926083
24.7199654033587	1.9964504	1.412958
24.737908331937927	2.0235407	1.4225122
24.755851876658305	2.041857	1.4289356
24.773796038023324	2.0641062	1.4366997
24.79174081653661	2.1319327	1.460114
24.809686212701962	2.15189	1.4669322
24.827632227023294	2.1143649	1.4540856
24.8455788600047	2.0576887	1.4344646
24.8635261121504	2.047846	1.4310297
24.88147398396475	2.0978227	1.4483862
24.899422475952303	2.1172478	1.4550766
24.917371588617698	2.1520185	1.466976
24.935321322465768	2.1693015	1.4728549
24.953271678001478	2.2731795	1.5077068
24.97122265572994	2.4421725	1.5627452
24.989174256156414	2.750407	1.6584351
25.00712647978632	3.2199833	1.7944312
25.02507932712521	3.7686315	1.9412963
25.043032798678798	4.344539	2.0843558
25.060986894952933	4.9970307	2.235404
25.078941616453637	5.813603	2.4111414
25.096896963687055	6.897481	2.6263056
25.114852937159508	8.074198	2.8415134
25.132809537377444	8.567378	2.9270084
25.150766764847468	8.483217	2.9125962
25.168724620076347	7.8642707	2.8043306
25.186683103570985	6.829404	2.6133127
25.204642215838426	5.6252003	2.3717504
25.222601957385894	4.21185	2.0522792
25.24056232872074	3.1703913	1.7805593
25.25852333035048	2.5785084	1.6057734
25.276484962782778	2.2085147	1.4861072
25.294447226525435	2.0511444	1.4321817
25.312410122086423	1.9865546	1.4094518
25.330373649973843	1.9867581	1.4095241
25.348337810695988	1.9762703	1.4057988
25.366302604761245	1.939153	1.3925347
25.384268032678207	1.9117754	1.3826697
25.40223409495558	1.920493	1.3858185
25.420200792102257	1.9098878	1.3819869
25.438168124627246	1.8901871	1.3748407
25.45613609303974	1.8884593	1.3742123
25.474104697849057	1.9119681	1.3827393
25.492073939564698	1.936624	1.3916264
25.510043818696285	1.9247026	1.3873365
25.528014335753614	1.8856367	1.3731849
25.54598549124664	1.8444852	1.3581183
25.56395728568544	1.8440118	1.357944
25.58192971958028	1.8357729	1.3549069
25.59990279344156	1.7972827	1.3406277
25.617876507779833	1.7927465	1.3389349
25.635850863105826	1.8112354	1.3458215
25.653825859930386	1.8253196	1.3510439
25.671801498764548	1.856731	1.3626192
25.68977778011949	1.8627486	1.3648255
25.707754704506524	1.8420608	1.3572254
25.725732272437153	1.8091142	1.3450332
25.743710484423012	1.8188821	1.3486594
25.761689340975888	1.8661604	1.3660748
25.77966884260774	1.8909391	1.3751142
25.797648989830662	1.8929826	1.375857
25.815629783156922	1.8774796	1.3702115
25.83361122309895	1.8851024	1.3729903
25.85159331016929	1.8858279	1.3732545
25.869576044880695	1.8391423	1.3561498
25.887559427746034	1.8096347	1.3452266
25.90554345927836	1.8195205	1.348896
25.92352813999086	1.8006163	1.3418704
25.94151347039689	1.7922685	1.3387563
25.959499451009965	1.7925749	1.3388708
25.97748608234374	1.788254	1.3372562
25.995473364912062	1.8041798	1.3431976
26.013461299228904	1.8034608	1.34293
26.03144988580839	1.8114032	1.3458837
26.04943912516483	1.831717	1.3534094
26.067429017812675	1.8291973	1.3524781
26.085419564266537	1.8161793	1.347657
26.103410765041186	1.7920609	1.3386787
26.12140262065155	1.7805341	1.3343666
26.139395131612723	1.7952875	1.3398833
26.157388298439948	1.8118418	1.3460468
26.17538212164861	1.8615062	1.3643702
26.193376601754295	1.8635732	1.3651276
26.211371739272714	1.8790656	1.3707901
26.229367534719746	1.8537672	1.3615311
26.247363988611433	1.85488	1.3619398
26.26536110146397	1.8285774	1.352249
26.283358873793727	1.8407143	1.3567293
26.301357306117204	1.82988	1.3527305
26.319356398951104	1.8299	1.352738
26.33735615281224	1.8366467	1.3552294
26.35535656821762	1.8246465	1.3507948
26.373357645684404	1.819233	1.3487895
26.39135938572991	1.8331513	1.3539392
26.409361788871614	1.8277664	1.3519491
26.427364855627165	1.8034297	1.3429184
26.445368586514352	1.7847347	1.3359396
26.46337298205115	1.764855	1.3284785
26.48137804275568	1.758643	1.3261384
26.499383769146217	1.7655472	1.3287389
26.517390161741215	1.8090914	1.3450247
26.53539722105928	1.8119054	1.3460703
26.553404947619182	1.7875446	1.3369908
26.571413341939856	1.76032	1.3267705
26.589422404540397	1.7023951	1.3047587
26.60743213594006	1.7032707	1.3050941
26.62544253665827	1.7684039	1.3298135
26.64345360721459	1.8175892	1.3481799
26.66146534812879	1.8518066	1.360811
26.679477759920758	1.8622038	1.3646259
26.69749084311057	1.8377652	1.355642
26.71550459821847	1.8330141	1.3538885
26.733519025764842	1.7928421	1.3389705
26.751534126270258	1.7660891	1.3289429
26.769549900255434	1.7268255	1.3140873
26.787566348241267	1.7587202	1.3261675
26.80558347074881	1.8377036	1.3556193
26.823601268299267	1.7875342	1.336987
26.841619741414036	1.7503595	1.3230115
26.85963889061465	1.7733802	1.3316832
26.877658716422832	1.8334429	1.3540468
26.89567921936045	1.8285772	1.3522489
26.913700399949544	1.8364935	1.3551729
26.93172225871233	1.8553071	1.3620965
26.949744796171174	1.845553	1.3585113
26.967768012848605	1.8263134	1.3514116
26.98579190926733	1.786169	1.3364763
27.003816485950225	1.8341281	1.3542999
27.021841743420318	1.833015	1.3538889
27.039867682200814	1.8330845	1.3539145
27.057894302815072	1.8216411	1.3496819
27.07592160578664	1.7901951	1.3379817
27.0939495916392	1.779258	1.3338883
27.111978260896635	1.7879603	1.3371463
27.13000761408296	1.8081055	1.3446581
27.148037651722397	1.799179	1.3413348
27.166068374339304	1.7867239	1.3366839
27.184099782458215	1.8038648	1.3430804
27.20213187660384	1.8198454	1.3490164
27.22016465730105	1.7704418	1.3305795
27.23819812507487	1.7840774	1.3356936
27.256232280450533	1.8017951	1.3423096
27.274267123953383	1.7766767	1.3329203
27.292302656108987	1.75643	1.3253038
27.31033887744306	1.7597517	1.3265563
27.32837578848146	1.7805775	1.3343828
27.34641338975026	1.773251	1.3316348
27.364451681775673	1.8130771	1.3465055
27.382490665084074	1.8082914	1.3447273
27.400530340202046	1.8066835	1.3441293
27.41857070765629	1.8134626	1.3466487
27.436611767973726	1.8308914	1.3531044
27.454653521681404	1.8361253	1.355037
27.472695969306564	1.7830588	1.3353122
27.490739111376627	1.7316242	1.3159119
27.508782948419153	1.7293099	1.3150322
27.526827480961902	1.7623854	1.3275486
27.54487270953279	1.8428	1.3574977
27.562918634659898	1.8481728	1.3594751
27.580965256871508	1.7746943	1.3321766
27.599012576696026	1.7708135	1.3307191
27.617060594662068	1.8404136	1.3566184
27.63510931129842	1.8661206	1.3660603
27.65315872713401	1.8469993	1.3590435
27.67120884269797	1.8622891	1.3646572
27.68925965851958	1.8727597	1.3684881
27.707311175128307	1.8738296	1.368879
27.725363393053787	1.8277732	1.3519516
27.74341631282583	1.8158293	1.3475271
27.7614699349744	1.7951945	1.3398486
27.77952426002968	1.8978329	1.3776186
27.797579288521973	1.9402554	1.3929305
27.815635020981784	2.3423107	1.530461
27.83369145793979	2.4832616	1.5758368
27.85174859992682	2.3557804	1.5348551
27.869806447473923	2.211477	1.4871036
27.887865001112267	2.0017846	1.4148444
27.905924261373233	1.9108115	1.3823211
27.92398422878836	1.863619	1.3651443
27.94204490388936	1.851821	1.3608162
27.96010628720813	1.8185381	1.3485318
27.978168379276728	1.8386682	1.355975
27.9962311806274	1.8866112	1.3735397
28.014294691792568	1.8778795	1.3703574
28.0323589133048	1.8470321	1.3590556
28.050423845696887	1.8627833	1.3648382
28.068489489501758	1.8747329	1.3692088
28.086555845252523	1.8827484	1.3721328
28.104622913482487	1.9494402	1.3962235
28.122690694725115	1.9309028	1.3895693
28.14075918951405	1.9298317	1.3891839
28.15882839838312	1.903587	1.3797054
28.176898321866304	1.8807607	1.3714082
28.1949689604978	1.8441948	1.3580114
28.213040314811945	1.8634148	1.3650695
28.23111238534327	1.8771313	1.3700844
28.249185172626493	1.8729342	1.3685519
28.267258677196473	1.8773025	1.3701469
28.285332899588294	1.9316221	1.3898281
28.303407840337172	1.9523633	1.39727
28.321483499978545	1.9504647	1.3965904
28.33955987904799	1.9338919	1.3906444
28.357636978081285	1.9409436	1.3931775
28.37571479761439	1.9201906	1.3857094
28.393793338183425	1.8827707	1.3721409
28.41187260032469	1.8811071	1.3715346
28.429952584574686	1.9223611	1.3864924
28.448033291470065	1.9291924	1.3889537
28.46611472154769	1.9102697	1.3821251
28.484196875344566	1.9388673	1.3924322
28.502279753397914	1.968249	1.402943
28.52036335624511	1.9637641	1.4013437
28.538447684423716	1.983717	1.4084449
28.556532738471482	1.9825337	1.4080248
28.574618518926325	1.9815383	1.4076712
28.59270502632635	1.9521616	1.3971977
28.61079226120985	1.9515566	1.3969812
28.628880224115274	1.9424143	1.3937052
28.646968915581287	1.9916756	1.4112674
28.66505833614671	2.013621	1.4190211
28.68314848635055	2.0144207	1.4193029
28.701239366732004	1.9766058	1.4059181
28.71933097783044	1.9980046	1.4135079
28.737423320185403	2.0753977	1.4406241
28.75551639433665	2.0735528	1.4399836
28.773610200824074	2.0593185	1.4350326
28.791704740187793	2.1155427	1.4544905
28.80980001296809	2.0884259	1.4451387
28.827896019705413	2.10476	1.4507791
28.845992760940433	2.120418	1.4561656
28.86409023721397	2.1537924	1.4675804
28.88218844906704	2.199947	1.4832219
28.900287397040845	2.1987457	1.4828168
28.918387081676755	2.255067	1.5016881
28.936487503516343	2.2906113	1.5134765
28.954588663101365	2.2965887	1.51545
28.97269056097374	2.2628503	1.5042773
28.990793197675597	2.2915592	1.5137897
29.00889657374923	2.324418	1.5246042
29.027000689737125	2.307007	1.5188835
29.04510554618196	2.3285606	1.5259622
29.06321114362659	2.3988361	1.5488176
29.08131748261405	2.4639895	1.56971
29.099424563687567	2.4703636	1.5717391
29.11753238739057	2.5701952	1.6031828
29.13564095426663	2.5822701	1.6069443
29.15375026485954	2.4846067	1.5762635
29.171860319713275	2.4931357	1.5789666
29.18997111937199	2.6093032	1.6153338
29.20808266438002	2.733536	1.6533408
29.226194955281898	2.8010137	1.673623
29.244307992622335	2.861986	1.6917405
29.26242177694624	2.8745732	1.6954566
29.2805363087987	2.8888373	1.699658
29.29865158872498	2.862768	1.6919717
29.316767617270557	2.9489532	1.7172517
29.334884394981064	3.006693	1.7339818
29.353001922402367	3.0143673	1.7361933
29.37112020008047	3.0303712	1.7407961
29.389239228561596	3.1142483	1.7647233
29.407359008392152	3.3508346	1.8305285
29.42547954011872	3.7357683	1.9328135
29.44360082428809	4.3500924	2.0856874
29.46172286144722	5.4075284	2.3254094
29.479845652143283	7.062402	2.657518
29.497969196923606	9.292593	3.0483754
29.516093496335728	12.009907	3.4655313
29.5342185509274	14.911897	3.8615925
29.55234436124651	17.493448	4.182517
29.570470927841175	18.954113	4.353632
29.588598251259686	18.761276	4.331429
29.60672633205055	17.43953	4.1760664
29.624855170762405	15.174374	3.8954298
29.642984767944146	12.153532	3.4861915
29.66111512414481	9.215174	3.0356505
29.67924623991366	6.7908287	2.6059217
29.697378115800138	5.171298	2.2740488
29.71551075235387	4.2193103	2.054096
29.733644150124675	3.8123534	1.9525249
29.751778309662576	3.573044	1.8902497
29.769913231517766	3.4215627	1.8497467
29.78804891624066	3.3930511	1.8420236
29.806185364381818	3.3553312	1.8317564
29.82432257649206	3.3813617	1.8388479
29.842460553122333	3.3896904	1.8411112
29.86059929482382	3.3307235	1.825027
29.878738802147872	3.2157733	1.7932577
29.896879075646048	3.2119033	1.7921784
29.915020115870114	3.2584186	1.805109
29.933161923371976	3.285016	1.8124614
29.951304498703777	3.2135441	1.792636
29.969447842417857	3.2136211	1.7926576
29.987591955066733	3.2284298	1.7967832
30.005736837203123	3.2173958	1.7937101
30.023882489379943	3.1472719	1.7740552
30.04202891215028	3.110846	1.763759
30.060176106067455	3.096343	1.7596428
30.078324071684946	3.0636327	1.7503237
30.09647280955646	3.0642726	1.7505064
30.114622320235863	3.1121156	1.7641189
30.132772604277257	3.0320399	1.7412753
30.1509236622349	2.955324	1.7191056
30.16907549466328	3.0121312	1.7355492
30.18722810211705	3.1225636	1.7670777
30.205381485151097	3.1124692	1.7642192
30.22353564432045	3.0314267	1.7410992
30.241690580180403	2.9857228	1.7279245
30.25984629328638	2.9736373	1.7244238
30.278002784194037	2.9725006	1.7240942
30.296160053459246	2.9879391	1.7285656
30.314318101638033	2.9856832	1.7279129
30.332476929286646	2.9432607	1.7155933
30.35063653696153	2.9153936	1.7074524
30.368796925219307	2.847796	1.6875414
30.386958094616844	2.8545156	1.6895312
30.40512004571115	2.8803916	1.6971717
30.423282779059463	2.9267817	1.710784
30.441446295219233	2.9468567	1.7166411
30.459610594748067	2.9048057	1.704349
30.47777567820382	2.808514	1.6758622
30.495941546144504	2.7661219	1.6631662
30.51410819912835	2.7829573	1.6682198
30.532275637713795	2.7927728	1.6711591
30.55044386245946	2.7692392	1.6641032
30.56861287392416	2.813204	1.6772609
30.586782672666956	2.8619778	1.6917381
30.604953259247047	2.8594413	1.6909883
30.623124634223885	2.7726514	1.6651281
30.641296798157075	2.7057116	1.6449047
30.659469751606462	2.74276	1.656128
30.677643495132074	2.7758873	1.6660994
30.695818029294152	2.6797874	1.6370056
30.713993354653116	2.5573478	1.5991709
30.73216947176962	2.5986774	1.6120414
30.75034638120448	2.615181	1.6171521
30.768524083518756	2.5965464	1.6113803
30.786702579273673	2.616594	1.617589
30.80488186903069	2.7545044	1.65967
30.82306195335144	2.8728373	1.6949446
30.841242832797782	3.0222719	1.7384683
30.85942450793176	3.352372	1.8309484
30.877606979315637	3.7642043	1.9401557
30.895790247511883	4.098139	2.024386
30.913974313083134	4.461962	2.1123357
30.932159176592283	4.816961	2.1947575
30.95034483860237	4.9360275	2.2217174
30.968531299676698	4.6450715	2.1552427
30.98671856037873	4.284155	2.06982
31.00490662127215	3.9001014	1.9748675
31.023095482920848	3.4606931	1.8602939
31.04128514588892	3.0285783	1.7402811
31.059475610740662	2.6791666	1.636816
31.07766687804056	2.5178275	1.5867664
31.09585894835335	2.4286256	1.5584048
31.11405182224393	2.4332447	1.5598861
31.132245500277417	2.4591396	1.5681643
31.15043998301914	2.4215302	1.5561267
31.168635271034628	2.408474	1.5519259
31.18683136488964	2.397116	1.5482622
31.20502826515008	2.4006257	1.5493953
31.223225972382135	2.4713197	1.5720432
31.241424487152155	2.4753973	1.5733396
31.259623810026692	2.4465623	1.564149
31.27782394157253	2.421758	1.5561998
31.296024882356644	2.4204755	1.5557877
31.314226632946237	2.3813741	1.5431701
31.332429193908684	2.412366	1.5531793
31.350632565811598	2.4310853	1.5591938
31.368836749222787	2.4325843	1.5596744
31.387041744710295	2.4991388	1.5808665
31.40524755284232	2.5938644	1.6105479
31.423454174187317	2.6332765	1.6227373
31.441661609313922	2.6020045	1.613073
31.459869858791002	2.470842	1.5718912
31.478078923187628	2.4065883	1.5513183
31.496288803073064	2.3696527	1.5393677
31.514499499016807	2.3535318	1.5341225
31.532711011588546	2.339308	1.5294796
31.550923341358178	2.3554635	1.5347519
31.56913648889584	2.3366947	1.5286251
31.587350454771844	2.3181045	1.5225322
31.605565239556732	2.330387	1.5265605
31.62378084382127	2.3482087	1.5323865
31.641997268136382	2.2777724	1.5092291
31.660214513073274	2.2124937	1.4874454
31.67843257920331	2.239003	1.4963298
31.6966514670981	2.3446207	1.5312154
31.71487117732944	2.3342066	1.527811
31.733091710469346	2.3037858	1.5178227
31.751313067090052	2.2958615	1.51521
31.769535247764008	2.2906063	1.513475
31.787758253063878	2.2382364	1.4960737
31.805982083562526	2.184946	1.4781563
31.824206739833024	2.1698556	1.473043
31.84243222244869	2.2538328	1.5012771
31.860658531983013	2.2989495	1.5162287
31.878885669009737	2.2790496	1.5096521
31.897113634102784	2.235392	1.4951228
31.91534242783632	2.2899938	1.5132725
31.933572050784694	2.2453732	1.498457
31.951802503522508	2.1422422	1.4636401
31.970033786624548	2.1443517	1.4643605
31.988265900665834	2.1806028	1.4766865
32.006498846221575	2.1648517	1.4713435
32.02473262386724	2.2026184	1.484122
32.04296723417845	2.1878662	1.4791437
32.0612026777311	2.1715927	1.4736325
32.07943895510129	2.1480172	1.4656116
32.097676066865304	2.1478922	1.4655689
32.115914013599685	2.1539807	1.4676446
32.13415279588115	2.2045093	1.484759
32.152392414286666	2.220371	1.490091
32.1706328693934	2.1512847	1.4667258
32.18887416177875	2.1584842	1.4691781
32.20711629202032	2.2610826	1.5036896
32.225359260695924	2.2203038	1.4900684
32.243603068383614	2.0268483	1.4236742
32.26184771566166	2.0111716	1.4181578
32.28009320310852	2.0651202	1.4370526
32.2983395313029	2.0946386	1.4472866
32.31658670082372	2.0807538	1.4424819
32.33483471225012	2.085345	1.4440724
32.35308356616143	2.1227465	1.4569649
32.371333263137245	2.1394184	1.4626751
32.38958380375734	2.1138315	1.4539021
32.407835188601744	2.1247113	1.457639
32.42608741825067	2.0878525	1.4449403
32.444340493284585	2.0912697	1.4461223
32.46259441428416	2.1058476	1.4511539
32.48084918183028	2.032404	1.425624
32.49910479650405	2.0209453	1.4215995
32.51736125888683	2.054856	1.4334769
32.53561856956014	2.0431275	1.4293802
32.5538767291058	1.9440573	1.3942946
32.572135738105764	1.8775468	1.370236
32.59039559714228	1.860774	1.3641019
32.608656306797776	1.878545	1.3706002
32.62691786765491	1.9493904	1.3962057
32.645180280296586	1.9565994	1.398785
32.663443545305896	1.9925011	1.4115598
32.68170766326619	2.0136333	1.4190254
32.69997263476099	1.9897127	1.4105718
32.7182384603741	1.9319302	1.389939
32.7365051406895	1.833074	1.3539106
32.75477267629144	1.8237807	1.3504742
32.77304106776434	1.9083754	1.3814396
32.79131031569289	2.0124545	1.4186101
32.809580420661966	2.0275555	1.4239225
32.827851383256714	2.0002801	1.4143126
32.84612320406245	1.9524139	1.3972881
32.86439588366476	1.8315369	1.3533429
32.88266942264945	1.8381194	1.3557726
32.9009438216025	1.9212903	1.3861061
32.9192190811102	1.9557463	1.3984799
32.937495201758985	1.9557133	1.3984681
32.95577218413556	1.9788711	1.4067235
32.974050028826866	1.9344037	1.3908284
32.992328736420035	1.9074972	1.3811218
33.010608307502444	1.9604062	1.400145
33.02888874266169	2.0034068	1.4154176
33.047170042485604	1.9616876	1.4006026
33.06545220756225	1.9223218	1.3864782
33.083735238479896	1.8868722	1.3736347
33.10201913582707	1.9249191	1.3874146
33.12030390019248	1.9343911	1.390824
33.138589532165135	2.0073743	1.4168184
33.15687603233419	1.9678817	1.402812
33.17516340128909	1.8934292	1.3760194
33.19345163961947	1.8926451	1.3757344
33.211740747915215	1.8965223	1.3771428
33.23003072676643	1.8944845	1.3764027
33.248321576763466	1.8946763	1.3764725
33.266613298496885	1.8842232	1.37267
33.28490589255747	1.8953485	1.3767166
33.30319935953626	1.9189838	1.3852739
33.32149370002451	1.8491371	1.3598298
33.339788914613706	1.7822589	1.3350127
33.358085003895575	1.8547183	1.3618804
33.376381968462034	1.799815	1.3415718
33.39467980890529	1.8022168	1.3424667
33.41297852581774	1.8487086	1.3596723
33.43127811979204	1.888018	1.3740517
33.44957859142105	1.8515544	1.3607184
33.467879941297866	1.8917826	1.3754209
33.486182170015844	1.9221079	1.386401
33.50448527816853	1.9487813	1.3959875
33.522789266349754	1.885161	1.3730117
33.541094135153514	1.835263	1.3547188
33.55939988517411	1.9052739	1.3803166
33.57770651700602	1.8742604	1.3690363
33.59601403124398	1.8316607	1.3533887
33.61432242848296	1.7892145	1.3376153
33.632631709318154	1.8357897	1.3549131
33.650941874344994	1.9549694	1.3982022
33.66925292415916	1.961206	1.4004307
33.68756485935654	1.8744586	1.3691087
33.70587768053328	1.8255982	1.351147
33.724191388285746	1.9319816	1.3899574
33.74250598321054	1.9472189	1.3954278
33.760821465904506	1.8187815	1.3486221
33.77913783696474	1.7429519	1.320209
33.79745509698852	1.7953789	1.3399175
33.815773246573414	1.8930337	1.3758756
33.8340922863172	2.0386558	1.4278151
33.852412216817896	2.1009123	1.4494524
33.87073303867377	1.9268132	1.3880969
33.889054752483304	1.8119415	1.3460838
33.907377358845245	1.7595359	1.326475
33.92570085835853	1.766358	1.329044
33.94402525162239	1.7316219	1.315911
33.96235053923627	1.8021485	1.3424412
33.980676721799824	1.8729843	1.3685702
33.999003799912984	1.8952991	1.3766986
34.01733177417592	1.9811231	1.4075238
34.03566064518901	2.1295679	1.4593039
34.0539904135529	2.1203535	1.4561434
34.07232107986846	2.0350132	1.426539
34.090652644736785	2.0102415	1.4178299
34.108985108759235	1.9764715	1.4058704
34.12731847253742	1.9771698	1.4061186
34.14565273667313	2.0325122	1.425662
34.16398790176847	1.9082427	1.3813915
34.18232396842574	1.8149892	1.3472153
34.20066093724749	1.8797947	1.3710561
34.21899880883651	1.897305	1.377427
34.23733758379583	1.8318604	1.3534623
34.25567726272874	1.9139057	1.3834398
34.27401784623872	1.8930541	1.375883
34.29235933492957	1.812597	1.3463272
34.31070172940526	1.9305664	1.3894483
34.32904503027003	1.9201847	1.3857073
34.347389238128386	1.8779378	1.3703787
34.36573435358502	1.8734992	1.3687582
34.38408037724492	1.9118606	1.3827004
34.402427309713296	1.9245569	1.387284
34.42077515159559	1.9162022	1.3842696
34.43912390349752	1.8631111	1.3649583
34.45747356602499	1.9477537	1.3956195
34.47582413978423	1.9352502	1.3911327
34.49417562538163	1.8009766	1.3420047
34.51252802342388	1.9397494	1.3927488
34.53088133451789	2.1363182	1.461615
34.54923555927084	2.18436	1.4779581
34.567590698290104	1.990206	1.4107466
34.58594675218336	1.8650314	1.3656615
34.6043037215585	1.934043	1.3906988
34.62266160702365	1.9661243	1.4021856
34.641020409187234	1.9298402	1.3891869
34.65938012865785	1.8750442	1.3693225
34.677740766044394	1.9151727	1.3838977
34.69610232195598	1.8853183	1.3730689
34.714464797002016	1.9520749	1.3971667
34.73282819179208	2.1386034	1.4623965
34.751192506936064	2.1137767	1.4538833
34.76955774304408	2.0966861	1.4479939
34.7879239007265	2.1036043	1.4503808
34.80629098059391	2.126199	1.4581492
34.824658983257194	2.0797381	1.4421297
34.843027909327446	1.9207165	1.3858992
34.86139775941603	1.9597286	1.399903
34.879768534134534	2.0115883	1.4183047
34.89814023409483	1.865437	1.36581
34.91651285990901	1.7765638	1.332878
34.93488641218944	1.8030978	1.3427948
34.95326089154871	1.8625777	1.3647629
34.97163629859967	1.9014049	1.3789144
34.99001263395542	1.9163994	1.3843408
35.00838989822934	2.107585	1.4517524
35.02676809203499	1.9891943	1.410388
35.04514721598624	1.8431737	1.3576354
35.063527270697215	1.9654243	1.4019359
35.081908256782256	2.0323708	1.4256124
35.10029017485597	1.9990045	1.4138615
35.11867302553321	2.0393198	1.4280475
35.137056809429104	1.9687927	1.4031367
35.155441527159006	1.902587	1.379343
35.173827179338524	1.8081647	1.3446802
35.19221376658354	1.6246725	1.2746264
35.21060128951017	1.6533736	1.2858357
35.2289897487348	2.073056	1.4398111
35.24737914487405	2.2703338	1.5067626
35.26576947854479	2.2198915	1.48993
35.28416075036418	1.8346851	1.3545054
35.30255296094958	1.9067454	1.3808495
35.32094611091867	1.9705957	1.403779
35.33934020088932	2.01029	1.4178469
35.35773523147969	2.207522	1.4857732
35.3761312033082	2.311257	1.5202818
35.394528116993506	2.292004	1.5139366
35.41292597315452	2.0366132	1.4270996
35.431324772410434	1.6849867	1.2980704
35.449724515380666	1.6867223	1.2987387
35.46812520268491	1.9644339	1.4015826
35.486526834943106	1.9429747	1.3939062
35.504929412775454	1.9457375	1.394897
35.52333293680242	1.8261998	1.3513696
35.54173740764471	1.8427775	1.3574895
35.560142825923286	2.124875	1.4576951
35.5785491922594	2.1575763	1.4688691
35.59695650727454	2.0639954	1.4366612
35.61536477159042	2.0476286	1.4309537
