0.008763373481513119	0.051685803	0.22734512
0.026290120649546365	0.35608906	0.59673196
0.043816868432600686	0.24372914	0.49368933
0.06134361724069026	0.24738531	0.49737844
0.07887036748382949	0.27557203	0.52494955
0.0963971195720331	0.17929536	0.42343283
0.11392387391531617	0.13250268	0.36400917
0.1314506309236943	0.0	0.0
0.1489773910071836	0.04974698	0.22304031
0.16650415457580078	0.12218746	0.34955323
0.18403092203956356	0.20613368	0.45401946
0.20155769380849	0.2055393	0.45336443
0.2190844702925996	0.18137453	0.42588088
0.2366112519019124	0.16137178	0.40171108
0.2541380390464497	0.10693642	0.32701135
0.27166483213623416	0.12613578	0.355156
0.28919163158128947	0.11030528	0.3321224
0.3067184377916406	0.09912028	0.31483373
0.324245251177314	0.15390076	0.39230186
0.34177207214833777	0.13695991	0.37008095
0.3592989011147415	0.18899328	0.43473357
0.37682573848655654	0.18510363	0.4302367
0.39435258467381573	0.15760836	0.39699918
0.41187944008655414	0.1584685	0.39808103
0.42940630513480854	0.14016184	0.37438196
0.446933180228618	0.14912939	0.38617274
0.4644600657780234	0.14111066	0.37564698
0.48198696219306775	0.16190138	0.4023697
0.49951386988379676	0.17032887	0.41270918
0.5170407892602581	0.15168294	0.38946494
0.5345677207325025	0.14739771	0.3839241
0.5520946647105822	0.15243807	0.3904332
0.5696216216045534	0.18991567	0.43579316
0.5871485918244737	0.19345568	0.43983597
0.6046755757804043	0.21155983	0.45995635
0.6222025738824094	0.19431335	0.44080988
0.6397295865405557	0.1475046	0.38406327
0.6572566141649129	0.15713415	0.3964015
0.6747836571655547	0.19770943	0.4446453
0.6923107159525568	0.19643582	0.4432108
0.7098377909359992	0.22510152	0.47444865
0.7273648825259653	0.21584758	0.464594
0.7448919911325411	0.21840718	0.46734053
0.762419117165817	0.21408957	0.46269813
0.7799462610358868	0.20230539	0.4497837
0.7974734231528482	0.18976702	0.43562257
0.8150006039268024	0.18235779	0.42703372
0.8325278037678551	0.17342433	0.41644248
0.8500550230861152	0.1604508	0.4005631
0.8675822622916969	0.13939407	0.37335515
0.8851095217947171	0.13840254	0.37202492
0.9026368020052984	0.15061307	0.388089
0.9201641033335665	0.16909476	0.41121134
0.9376914261896523	0.1937788	0.44020313
0.9552187709836915	0.229562	0.47912627
0.9727461381258234	0.24783747	0.49783278
0.990273528026193	0.25567812	0.5056462
1.0078009410949496	0.25428647	0.5042682
1.0253283777422473	0.22983672	0.47941288
1.0428558383782454	0.25776964	0.5077102
1.0603833234131086	0.28670406	0.53544754
1.0779108332570058	0.35835674	0.59862906
1.0954383683201119	0.35363495	0.59467214
1.112965929012607	0.36828843	0.60686773
1.1304935157446763	0.4595005	0.6778647
1.1480211289265108	0.50318354	0.70935434
1.1655487689683062	1.3055452	1.1426046
1.1830764362802655	1.5843948	1.2587274
1.200604131272596	1.9343604	1.3908129
1.2181318543555117	2.2918196	1.5138757
1.235659605939232	2.2735393	1.507826
1.253187386433982	3.8729007	1.9679687
1.270715196249994	6.0663505	2.4629962
1.2882430357975057	11.143376	3.3381696
1.3057709054867608	15.573447	3.9463208
1.3232988057280106	21.108063	4.5943513
1.3408267369315112	26.16501	5.1151743
1.358354699507526	29.943802	5.472093
1.3758826938663256	33.95773	5.8273263
1.3934107204181858	36.007706	6.0006423
1.410938779573391	36.262543	6.0218387
1.4284668717422309	36.776035	6.064325
1.4459949973350033	36.50446	6.041892
1.4635231567620117	36.549522	6.04562
1.4810513504335687	35.852863	5.987726
1.4985795787599925	34.945065	5.911435
1.5161078421516088	34.65199	5.886594
1.5336361410187505	34.173534	5.8458133
1.5511644757717598	34.25064	5.8524046
1.5686928468209842	34.771782	5.8967605
1.58622125457678	34.895386	5.907232
1.6037496994495108	35.582645	5.965119
1.621278181849548	35.530766	5.9607687
1.6388067021872719	36.13763	6.0114584
1.6563352608730693	35.74267	5.978517
1.673863858317336	34.99513	5.915668
1.6913924949304753	34.715664	5.892
1.7089211711228998	33.931087	5.82504
1.7264498873050296	33.04996	5.7489095
1.7439786438872935	32.2114	5.6755085
1.7615074412801288	31.204239	5.5860753
1.779036279893981	30.670847	5.5381265
1.796565160139305	29.731266	5.4526386
1.814094082426564	29.18568	5.402377
1.8316230471662298	28.423008	5.331323
1.849152054768784	27.463367	5.2405505
1.8666811056447168	26.804678	5.1773233
1.8842102002045273	26.0628	5.1051736
1.901739338858724	25.518671	5.051601
1.9192685220178245	24.835966	4.9835696
1.9367977500923557	24.15839	4.9151187
1.9543270234928547	23.593863	4.8573513
1.971856342629867	23.135834	4.8099723
1.9893857079139496	22.87979	4.7832823
2.006915119755667	22.531633	4.74675
2.0244445785655945	22.128653	4.70411
2.0419740847543175	21.641214	4.652012
2.0595036387324317	21.040117	4.586951
2.0770332409105414	20.450514	4.5222244
2.094562891699263	20.167822	4.49086
2.1120925915092217	19.610287	4.4283504
2.129622340751053	19.322615	4.3957496
2.1471521398354043	187.6031	13.696828
2.1646819891729323	443.9333	21.069725
2.182211889174303	439.99677	20.976099
2.1997418402501974	452.227	21.265629
2.2172718428113023	432.22858	20.790108
2.234801897268317	320.58423	17.904865
2.2523320040319548	17.198448	4.1471014
2.269862163512935	16.911303	4.112335
2.287392376121992	16.329536	4.0409822
2.304922642269869	16.08971	4.011198
2.322452962367322	15.774169	3.9716709
2.3399833368251164	15.374336	3.9210122
2.357513766054032	14.893288	3.8591824
2.3750442504648586	14.400707	3.7948263
2.3925747904683963	14.230333	3.7723114
2.410105386475459	14.040264	3.747034
2.4276360388968707	13.958774	3.7361443
2.445166748143469	14.012869	3.7433767
2.4626975146261025	13.638411	3.6930218
2.4802283387556323	13.338571	3.6522007
2.4977592209429305	13.228166	3.6370544
2.5152901615988825	12.901944	3.5919275
2.5328211611343865	12.720457	3.566575
2.5503522199603523	12.324691	3.510654
2.5678833384877024	11.838642	3.4407327
2.5854145171273712	11.602269	3.4062104
2.6029457562903064	11.4225025	3.3797193
2.620477056387469	11.411299	3.3780613
2.6380084178298326	11.346635	3.3684766
2.655539841028383	11.3087635	3.3628504
2.673071326394119	11.211845	3.3484094
2.6906028743380523	11.192562	3.3455286
2.708134485271211	10.888791	3.2998168
2.7256661596046325	10.677548	3.2676518
2.743197897749369	10.411171	3.2266345
2.760729700116486	10.298894	3.209189
2.778261567117063	10.198516	3.1935115
2.795793499162193	10.072555	3.1737287
2.8133254966629817	9.905991	3.1473784
2.830857560030551	9.72593	3.1186423
2.8483896896760337	9.604915	3.0991797
2.865921886010578	9.410839	3.0677092
2.883454149445347	9.214145	3.035481
2.9009864803915177	9.008328	3.0013878
2.91851887926028	8.795624	2.9657416
2.9360513464628384	8.831794	2.9718335
2.953583882410413	8.722825	2.9534428
2.9711164875142373	8.645601	2.9403403
2.9886491621855606	8.536099	2.9216604
3.0061819068356455	8.541671	2.9226136
3.023714721875769	8.570858	2.9276028
3.041247607717225	8.482571	2.9124854
3.0587805647713213	8.332281	2.886569
3.0763135934493806	8.085689	2.8435345
3.0938466941627407	7.9471574	2.8190703
3.1113798673227544	7.9069195	2.8119245
3.1289131133407904	7.8243284	2.7972002
3.1464464326282315	7.672028	2.7698426
3.1639798255964786	7.483831	2.7356591
3.1815132926569443	7.417794	2.7235627
3.1990468342210603	7.3888783	2.718249
3.216580450700272	7.2928176	2.7005217
3.2341141425060416	7.2017694	2.6836112
3.251647910049847	7.1529813	2.6745057
3.2691817537431813	7.1488943	2.6737416
3.286715673997555	7.0685563	2.6586757
3.3042496712244938	6.9315085	2.6327758
3.32178374583554	6.7231474	2.5929034
3.339317898242251	6.688893	2.5862894
3.3568521288562034	6.6009464	2.5692308
3.3743864380889876	6.5847774	2.566082
3.3919208263522127	6.5534964	2.5599797
3.4094552940575023	6.4726906	2.5441482
3.4269898416164972	6.407069	2.531219
3.444524469440858	6.2786603	2.5057256
3.4620591779422587	6.1928315	2.48854
3.479593967532391	6.1797194	2.4859042
3.4971288386229658	6.197132	2.489404
3.5146637916257086	6.2458158	2.499163
3.5321988269523628	6.2523293	2.5004659
3.5497339450146903	6.2522097	2.5004418
3.5672691462244708	6.2533836	2.5006766
3.5848044309934988	6.140818	2.4780674
3.60233979973359	5.994464	2.4483595
3.619875252856575	6.03728	2.4570878
3.6374107907743034	6.048658	2.4594018
3.6549464138986427	6.0626307	2.462241
3.6724821226414788	6.0668387	2.4630954
3.690017917414714	6.039206	2.4574797
3.7075537986302702	6.0664167	2.4630096
3.7250897667000857	6.261856	2.50237
3.7426258220361235	6.4010034	2.5300205
3.7601619650503553	6.780829	2.6040025
3.777698196154779	7.3271112	2.7068636
3.7952345157614067	8.33854	2.887653
3.8127709242822716	9.121241	3.0201392
3.830307422129425	11.408244	3.3776093
3.847844009714936	12.81274	3.5794888
3.8653806874508954	16.189701	4.0236425
3.882917455749409	15.685733	3.9605217
3.900454315022606	15.591161	3.9485643
3.917991265682631	12.472789	3.5316837
3.9355283081416506	10.585871	3.2535934
3.9530654428118495	8.47742	2.9116008
3.970602670105433	7.3332424	2.7079961
3.9881399904346244	6.502321	2.549965
4.005677404211669	6.349874	2.5198956
4.023214911848827	6.1703873	2.4840264
4.0407525137583855	6.156733	2.4812765
4.058290210352644	6.161045	2.4821453
4.075828002043927	6.189304	2.487831
4.0933658892445814	6.1164937	2.4731545
4.110903872366966	6.0512524	2.4599292
4.128441951823468	5.979153	2.4452307
4.145980128026488	5.9690266	2.443159
4.163518401388452	5.8775992	2.424376
4.181056772321807	5.9376254	2.4367244
4.1985952412390155	6.0602856	2.4617648
4.216133808552567	6.1508865	2.480098
4.233672474674966	6.0792193	2.4656074
4.251211240018741	6.1163282	2.4731212
4.268750104996445	6.302376	2.5104532
4.286289070020643	7.2574854	2.693972
4.303828135503928	9.023063	3.0038414
4.3213673018589125	29.287436	5.4117866
4.3389065694982305	90.42026	9.508957
4.356445938834537	165.59239	12.868271
4.3739854102805085	170.71889	13.065944
4.391524984248844	171.57227	13.098559
4.409064661152262	135.66818	11.647669
4.426604441403504	95.994026	9.797654
4.444144325415337	75.41978	8.684456
4.461684313600543	21.21909	4.606418
4.47922440637193	21.725763	4.6610904
4.496764604142329	19.915752	4.462707
4.5143049073245916	18.138737	4.25896
4.531845316331589	16.07785	4.0097194
4.5493858315762195	13.042725	3.6114712
4.566926453471405	10.862316	3.2958028
4.584467182430081	8.715547	2.9522104
4.602008018865218	7.733157	2.7808554
4.619548963189798	7.181572	2.6798456
4.637090015816834	6.7517533	2.5984137
4.654631177159353	6.5029616	2.5500906
4.672172447630417	6.2600083	2.5020008
4.689713827643102	6.0901766	2.4678283
4.7072553176105085	5.9286623	2.4348845
4.724796917945764	5.824281	2.4133549
4.742338629062015	5.6635404	2.3798194
4.759880451372434	5.5157375	2.3485608
4.777422385290215	5.448912	2.3342905
4.794964431228581	5.4080105	2.325513
4.812506589600768	5.37554	2.318521
4.830048860820047	5.3375416	2.310312
4.847591245299709	5.373452	2.318071
4.8651337434530655	5.460571	2.3367865
4.882676355693457	5.4421344	2.3328383
4.900219082434242	5.4432254	2.3330722
4.917761924088813	5.354396	2.3139567
4.935304881070575	5.37817	2.3190882
4.952847953792969	5.452294	2.3350148
4.970391142669449	5.409467	2.3258262
4.9879344481135055	5.4684114	2.3384635
5.005477870538642	5.437209	2.3317823
5.023021410358394	5.3972826	2.3232052
5.040565067986324	5.337983	2.3104076
5.05810884383601	5.235238	2.2880642
5.075652738321066	5.258837	2.2932155
5.09319675185512	5.2248235	2.2857873
5.110740884851836	5.218989	2.2845106
5.128285137724894	5.2246456	2.2857485
5.145829510888007	5.230759	2.2870853
5.163374004754908	5.224527	2.2857225
5.1809186197393595	5.1329484	2.2656012
5.198463356255145	5.088863	2.2558508
5.216008214716077	5.063545	2.2502322
5.233553195535998	5.1039605	2.2591946
5.251098299128764	5.095881	2.2574058
5.268643525908272	5.059137	2.2492526
5.286188876288432	5.076035	2.2530057
5.3037343506831895	5.1064987	2.2597563
5.32127994950651	5.151293	2.269646
5.3388256731723915	5.153792	2.2701964
5.356371522094851	5.1638803	2.2724173
5.373917496687938	5.131178	2.2652104
5.391463597365729	5.2045665	2.2813518
5.40900982454232	5.163842	2.272409
5.426556178631843	5.1919775	2.2785912
5.444102660048449	5.089258	2.2559385
5.4616492692063225	5.0794005	2.2537525
5.479196006519669	5.0053306	2.2372596
5.496742872402727	5.00954	2.2382002
5.514289867269756	5.0564766	2.248661
5.531836991535049	5.1328597	2.2655816
5.549384245612924	5.152644	2.2699437
5.566931629917724	5.094549	2.2571108
5.584479144863822	5.0193524	2.240391
5.6020267908656205	5.0157094	2.239578
5.619574568337545	4.9612846	2.227394
5.637122477694054	4.959588	2.2270133
5.654670519349629	4.993249	2.2345579
5.672218693718784	5.0058446	2.2373745
5.689767001216059	5.010132	2.2383323
5.707315442256021	5.036233	2.2441552
5.724864017253266	5.018295	2.240155
5.7424127266224225	5.0932403	2.256821
5.75996157077814	5.125469	2.2639499
5.777510550135105	5.1347184	2.2659917
5.795059665108022	5.095343	2.2572868
5.812608916111639	5.1229854	2.2634013
5.830158303560715	5.288651	2.2997067
5.847707827870055	5.297125	2.3015485
5.86525748945448	5.3212366	2.3067806
5.8828072887288485	5.3668118	2.316638
5.900357226108044	5.4100084	2.3259425
5.917907302006979	5.509587	2.347251
5.9354575168406	6.1651316	2.4829683
5.9530078710238765	6.8001204	2.607704
5.970558364971812	7.3753667	2.7157626
5.988108999099438	7.680162	2.7713106
6.005659773821818	8.270331	2.8758185
6.023210689554039	7.997458	2.8279777
6.040761746711227	8.503995	2.916161
6.058312945708531	7.869435	2.8052514
6.075864286961132	7.387663	2.7180254
6.093415770884244	6.64117	2.5770469
6.1109673978931065	5.9830084	2.446019
6.128519168402993	5.336755	2.3101418
6.146071082829204	5.204845	2.2814128
6.163623141587075	5.1120863	2.2609923
6.181175345091969	5.111274	2.2608125
6.198727693759281	5.0555086	2.2484457
6.216280188004435	4.9950886	2.2349694
6.233832828242885	4.9497557	2.2248046
6.251385614890126	4.9127135	2.2164643
6.268938548361669	4.9301233	2.2203882
6.286491629073067	4.913683	2.216683
6.304044857439898	4.919044	2.2178917
6.321598233877777	4.849725	2.202209
6.339151758802344	4.84375	2.2008522
6.356705432629277	4.899518	2.2134855
6.37425925577428	4.9158893	2.2171805
6.391813228653095	4.9342256	2.2213116
6.409367351681486	4.9077864	2.2153525
6.426921625275259	4.920971	2.218326
6.44447604985025	4.972095	2.2298195
6.46203062582232	4.9864726	2.233041
6.47958535360737	4.9372263	2.221987
6.497140233621328	4.879283	2.20891
6.514695266280161	4.816739	2.1947072
6.532250451999859	4.8206005	2.1955867
6.549805791196454	4.7699127	2.184013
6.567361284286002	4.821771	2.1958532
6.584916931684597	4.8523374	2.2028022
6.602472733808367	4.84644	2.2014632
6.6200286910734665	4.8487587	2.2019897
6.637584803896092	4.830328	2.1978006
6.655141072692462	4.898015	2.213146
6.672697497878842	4.906897	2.2151518
6.690254079871514	4.8925576	2.2119126
6.707810819086808	4.9013796	2.213906
6.725367715941078	4.8784385	2.2087188
6.742924770850719	4.891187	2.211603
6.760481984232151	4.8407054	2.2001603
6.778039356501836	4.830254	2.197784
6.795596888076266	4.8941274	2.2122674
6.813154579371963	4.913754	2.216699
6.830712430805492	4.8711886	2.207077
6.84827044279344	4.8285036	2.1973855
6.865828615752445	4.780171	2.1863601
6.883386950099159	4.8172126	2.194815
6.900945446250287	4.8588243	2.2042742
6.918504104622553	4.8751326	2.2079701
6.936062925632727	4.9047	2.2146556
6.953621909697607	4.940312	2.2226813
6.971181057234028	4.9263763	2.2195442
6.988740368658859	4.9263206	2.2195315
7.006299844389007	4.9937797	2.2346766
7.023859484841407	5.0703683	2.2517478
7.041419290433036	5.172419	2.2742953
7.058979261580902	5.3167872	2.305816
7.0765393987020495	5.559318	2.3578205
7.094099702213559	5.9622936	2.4417808
7.111660172532549	6.287547	2.5074983
7.129220810076164	6.524541	2.5543182
7.146781615261595	7.017811	2.649115
7.16434258850606	7.193675	2.6821027
7.181903730226821	7.6065655	2.7580004
7.1994650408411704	7.7147784	2.777549
7.217026520766437	7.914062	2.8131943
7.234588170419983	8.163889	2.857252
7.252149990219215	8.243826	2.8712063
7.269711980581568	8.191108	2.8620112
7.2872741419245175	8.025879	2.8329983
7.304836474665574	7.659497	2.7675796
7.322398979222286	7.30835	2.703396
7.339961656012233	7.0221276	2.6499298
7.357524505453039	6.6772356	2.5840347
7.375087527962357	6.3948426	2.5288026
7.392650723957886	6.066919	2.4631116
7.410214093857353	5.706457	2.3888192
7.427777638078528	5.486521	2.3423324
7.445341357039213	5.366273	2.3165216
7.4629052511572525	5.276427	2.2970474
7.480469320850524	5.284929	2.2988973
7.498033566536948	5.176433	2.2751775
7.5155979886344735	5.09618	2.257472
7.5331625875610975	5.0261416	2.2419057
7.550727363734844	4.97761	2.2310557
7.568292317573788	5.0273466	2.2421746
7.585857449496025	5.0718355	2.2520735
7.603422759919705	5.0711927	2.251931
7.620988249263007	5.0311055	2.2430127
7.638553917944147	4.973287	2.2300868
7.656119766381391	4.9542527	2.225815
7.673685794993023	5.0165877	2.239774
7.691252004197388	5.01338	2.2390578
7.70881839441285	5.071915	2.2520912
7.726384966057826	5.125123	2.2638733
7.743951719550762	5.176109	2.2751064
7.761518655310149	5.2082953	2.282169
7.779085773754511	5.1851773	2.2770984
7.796653075302419	5.1631675	2.2722604
7.814220560372475	5.1388745	2.2669086
7.831788229383323	5.1018414	2.2587256
7.8493560827536495	5.125427	2.2639406
7.866924120902174	5.171661	2.2741287
7.884492344247663	5.2251863	2.2858667
7.9020607532089135	5.208931	2.2823083
7.919629348204771	5.201551	2.280691
7.937198129654115	5.2033405	2.281083
7.954767097975865	5.171428	2.2740774
7.972336253588986	5.237808	2.288626
7.989905596912472	5.325767	2.3077624
8.007475128365371	5.397137	2.323174
8.025044848366756	5.4418483	2.332777
8.042614757335754	5.479167	2.3407621
8.060184855691523	5.4563017	2.335873
8.07775514385327	5.5400596	2.353733
8.095325622240228	5.556559	2.3572354
8.112896291271687	5.641083	2.3750963
8.130467151366968	5.6871796	2.384781
8.148038202945436	5.6810727	2.3835
8.165609446426497	5.6582594	2.3787096
8.183180882229594	5.690107	2.3853946
8.200752510774217	5.6819935	2.3836932
8.218324332479893	5.740314	2.3958952
8.235896347766193	5.773088	2.4027252
8.253468557052724	5.8432517	2.4172819
8.27104096075914	5.861781	2.4211116
8.288613559305137	5.8825374	2.4253943
8.306186353110448	5.886733	2.426259
8.32375934259485	5.9716916	2.4437044
8.341332528178162	5.978613	2.4451203
8.358905910280246	6.1213374	2.4741337
8.376479489321003	6.1386566	2.4776313
8.394053265720377	6.1793537	2.4858305
8.411627239898356	6.163442	2.482628
8.42920141227497	6.1046596	2.4707608
8.44677578327029	6.0684094	2.4634142
8.464350353304427	5.9883637	2.4471133
8.48192512279754	5.9896235	2.4473708
8.499500092169827	5.9865384	2.4467404
8.51707526184153	6.0257845	2.4547474
8.534650632232934	6.04813	2.4592946
8.552226203764365	6.0528755	2.4602592
8.569801976856192	6.0691586	2.4635663
8.587377951928834	6.0659137	2.4629076
8.60495412940274	6.112464	2.4723399
8.622530509698416	6.1651626	2.4829745
8.6401070932364	6.2347145	2.496941
8.657683880437283	6.342126	2.5183578
8.675260871721695	6.5215483	2.5537322
8.692838067510303	6.7500525	2.5980864
8.710415468223834	6.876157	2.6222427
8.727993074283043	6.961231	2.6384146
8.745570886108737	6.973333	2.6407068
8.763148904121765	7.0275035	2.650944
8.78072712874302	7.041353	2.653555
8.798305560393441	7.2447996	2.6916165
8.815884199494006	7.336469	2.7085917
8.833463046465745	7.5001726	2.7386444
8.851042101729728	7.6290245	2.762069
8.86862136570707	7.8995013	2.810605
8.886200838818924	8.060722	2.8391411
8.903780521486505	8.108094	2.8474715
8.921360414131055	8.230197	2.8688319
8.938940517173874	8.360197	2.8914006
8.956520831036297	8.53252	2.921048
8.97410135613971	8.784124	2.9638023
8.99168209290554	8.96488	2.9941409
9.009263041755265	9.243602	3.0403292
9.026844203110405	9.480001	3.0789611
9.044425577392525	9.69065	3.1129808
9.062007165023239	9.72503	3.118498
9.079588966424197	9.932792	3.1516333
9.097170982017108	10.03614	3.1679869
9.11475321222372	11.109266	3.3330567
9.132335657465825	12.001035	3.464251
9.149918318165264	12.124332	3.4820013
9.167501194743924	12.789365	3.5762222
9.18508428762374	12.482903	3.5331151
9.202667597226693	12.5660305	3.5448596
9.220251123974803	12.305477	3.5079165
9.237834868290143	12.042648	3.4702518
9.255418830594836	11.726503	3.4243982
9.273003011311046	11.076224	3.3280962
9.290587410860985	10.796505	3.2858036
9.308172029666911	10.192544	3.1925764
9.32575686815113	9.982462	3.1595035
9.343341926735997	8.667307	2.944029
9.360927205843916	8.377993	2.8944762
9.378512705897327	8.196209	2.8629022
9.396098427318728	7.9730587	2.8236606
9.413684370530664	7.961552	2.8216224
9.431270535955722	7.855926	2.8028424
9.448856924016539	7.728014	2.7799306
9.466443535135806	7.5306478	2.7442026
9.484030369736251	7.4302945	2.7258565
9.501617428240658	7.4131284	2.722706
9.519204711071852	7.4126277	2.722614
9.536792218652714	7.5461335	2.7470226
9.55437995140617	7.643584	2.7647033
9.571967909755191	7.7125206	2.7771425
9.589556094122802	7.72521	2.7794263
9.60714450493207	7.720515	2.7785814
9.624733142606116	7.737394	2.7816172
9.642322007568108	7.7407603	2.7822223
9.659911100241267	7.818256	2.7961144
9.677500421048851	7.837731	2.7995949
9.695089970414175	7.873329	2.8059454
9.712679748760609	7.921216	2.8144655
9.730269756511557	7.953192	2.8201404
9.747859994090492	7.952068	2.819941
9.765450461920915	7.983153	2.8254473
9.78304116042639	7.9064856	2.8118474
9.800632090030527	7.928445	2.8157494
9.81822325115699	8.022237	2.8323553
9.835814644229481	8.135475	2.8522754
9.853406269671762	8.194663	2.8626323
9.870998127907646	8.159469	2.8564785
9.888590219360985	8.097168	2.8455522
9.906182544455698	8.130515	2.8514059
9.923775103615734	8.2433195	2.871118
9.941367897265108	8.274187	2.8764887
9.958960925827878	8.245784	2.8715472
9.97655418972816	8.211767	2.8656182
9.994147689390106	8.219103	2.8668978
10.011741425237934	8.235469	2.8697507
10.029335397695904	8.203137	2.864112
10.04692960718833	8.0806875	2.842655
10.06452405413958	8.025305	2.832897
10.082118738974064	7.9575257	2.8209088
10.099713662116246	8.047849	2.836873
10.117308823990651	8.063966	2.8397124
10.134904225021844	8.089376	2.844183
10.152499865634445	8.006306	2.8295417
10.170095746253125	7.9569807	2.820812
10.18769186730261	7.943535	2.8184278
10.205288229207675	7.942892	2.8183136
10.222884832393145	7.9836836	2.8255413
10.2404816772839	7.9313	2.8162565
10.258078764304868	7.9311776	2.8162346
10.275676093881035	7.901461	2.8109539
10.293273666437438	7.903075	2.811241
10.310871482399158	7.971365	2.8233607
10.32846954219134	7.9757185	2.8241315
10.346067846239173	8.009807	2.8301601
10.363666394967908	7.9661	2.822428
10.38126518880283	8.018291	2.8316588
10.398864228169298	8.076283	2.8418803
10.416463513492713	8.1525755	2.8552716
10.434063045198531	8.073937	2.8414674
10.451662823712262	8.034863	2.8345835
10.469262849459467	8.019635	2.831896
10.486863122865758	7.928368	2.8157358
10.504463644356806	7.845019	2.8008962
10.522064414358338	7.78932	2.7909353
10.539665433296118	7.7630672	2.7862282
10.557266701595987	7.721811	2.7788146
10.574868219683818	7.597438	2.756345
10.592469987985552	7.5061827	2.7397413
10.610072006927185	7.417556	2.723519
10.627674276934751	7.321077	2.7057488
10.64527679843435	7.2383037	2.6904097
10.662879571852143	7.1307263	2.670342
10.680482597614331	7.0730753	2.6595254
10.698085876147173	6.964662	2.6390646
10.715689407876988	6.82332	2.6121485
10.733293193230146	6.716738	2.5916672
10.750897232633072	6.6872926	2.58598
10.76850152651225	6.712228	2.5907967
10.786106075294207	6.6148424	2.5719335
10.803710879405534	6.4755177	2.544704
10.821315939272877	6.3412495	2.5181837
10.83892125532294	6.246345	2.499269
10.856526827982472	6.173928	2.484739
10.874132657678285	6.1165547	2.473167
10.891738744837243	6.0521836	2.4601185
10.909345089886271	6.0191164	2.4533887
10.926951693252343	5.958685	2.4410417
10.944558555362494	5.9276	2.4346664
10.96216567664381	5.85364	2.4194298
10.979773057523436	5.8505664	2.4187944
10.997380698428573	5.796808	2.407656
11.014988599786477	5.7465634	2.3971992
11.032596762024461	5.690683	2.3855152
11.050205185569892	5.578158	2.3618124
11.067813870850198	5.442386	2.3328922
11.085422818292859	5.3478737	2.312547
11.10303202832541	5.304123	2.3030682
11.120641501375454	5.258374	2.2931144
11.138251237870636	5.2353945	2.2880983
11.155861238238671	5.2325053	2.287467
11.173471502907317	5.225146	2.2858577
11.191082032304402	5.164662	2.2725892
11.208692826857805	5.068083	2.2512403
11.226303886995465	4.968501	2.2290134
11.243915213145371	4.906281	2.2150126
11.261526805735578	4.804342	2.191881
11.279138665194196	4.776276	2.1854694
11.296750791949393	4.7194524	2.17243
11.314363186429393	4.6664762	2.1602027
11.331975849062479	4.5833693	2.1408806
11.34958878027699	4.5433755	2.1315196
11.36720198050133	4.516668	2.1252453
11.384815450163948	4.473582	2.1150844
11.402429189693366	4.39943	2.0974817
11.420043199518153	4.3568816	2.0873144
11.437657480066942	63.354626	7.959562
11.455272031768422	85.07124	9.223408
11.472886855051353	107.467255	10.366641
11.490501950344528	99.067795	9.95328
11.508117318076819	84.38394	9.186073
11.52573295867715	45.780655	6.7661405
11.543348872574514	4.0788107	2.0196066
11.560965060197946	4.040059	2.0099897
11.57858152197655	4.0209026	2.0052187
11.59619825833949	3.971155	1.9927757
11.613815269715985	3.9486809	1.9871289
11.631432556535323	38.45488	6.2012
11.649050119226837	82.97995	9.109333
11.666667958219929	93.34321	9.661428
11.68428607394406	107.62171	10.374088
11.701904466828756	82.450615	9.080232
11.719523137303586	65.34523	8.08364
11.737142085798196	4.554088	2.134031
11.754761312742286	3.671	1.9159853
11.772380818565619	3.6216235	1.9030564
11.790000603698015	3.5999143	1.897344
11.80762066856935	3.5732732	1.8903103
11.825241013609572	3.565329	1.8882079
11.842861639248683	3.5118399	1.8739904
11.860482545916748	3.4347486	1.8533075
11.878103734043883	3.4100845	1.8466414
11.895725204060282	3.383567	1.8394475
11.91334695639619	3.3325114	1.8255167
11.930968991481919	3.3129413	1.8201487
11.948591309747824	3.256379	1.804544
11.966213911624347	3.2912366	1.8141766
11.98383679754198	3.2727177	1.8090655
12.001459967931268	3.2460265	1.8016733
12.019083423222835	3.179912	1.7832308
12.036707163847352	3.1418178	1.7725173
12.05433119023556	3.1239362	1.7674661
12.071955502818259	3.1320825	1.7697691
12.089580102026313	3.1351714	1.7706416
12.107204988290643	3.122435	1.7670413
12.12483016204224	3.1024477	1.7613766
12.142455623712152	3.0718932	1.7526817
12.16008137373149	3.0560477	1.7481555
12.177707412531431	3.0375574	1.742859
12.19533374054321	3.0795343	1.7548602
12.212960358198126	3.0909777	1.7581177
12.230587265927545	3.0394232	1.7433941
12.248214464162889	2.9671133	1.7225311
12.265841953335649	2.9276664	1.7110425
12.283469733877375	2.9449868	1.7160964
12.301097806219685	2.9707985	1.7236004
12.31872617079425	2.9522684	1.7182167
12.336354828032825	2.919571	1.7086751
12.353983778367205	2.8602607	1.6912305
12.371613022229262	2.832125	1.6828918
12.389242560050928	2.8092473	1.676081
12.406872392264201	2.8152115	1.6778592
12.424502519301143	2.8001287	1.6733586
12.442132941593874	2.8057718	1.6750438
12.459763659574586	2.8146834	1.6777018
12.477394673675532	2.7995908	1.6731977
12.49502598432903	2.7598495	1.6612794
12.51265759196746	2.744438	1.6566346
12.530289497023267	2.7393575	1.6551005
12.547921699928967	2.741654	1.655794
12.565554201117134	2.7095315	1.6460655
12.583187001020404	2.6913042	1.6405195
12.600820100071486	2.7176197	1.6485205
12.618453498703152	2.7146506	1.6476197
12.636087197348235	2.750108	1.658345
12.65372119643964	2.7562032	1.6601816
12.671355496410326	2.7916706	1.6708293
12.68899009769333	2.7771091	1.6664661
12.706625000721749	2.7792416	1.6671058
12.724260205928752	2.8240457	1.6804897
12.741895713747551	2.876526	1.6960324
12.759531524611454	2.9341333	1.7129312
12.777167638953818	2.9144566	1.707178
12.794804057208072	2.9133024	1.7068399
12.812440779807702	2.9690518	1.7230936
12.830077807186271	3.1599066	1.7776126
12.847715139777405	3.2196445	1.7943368
12.865352778014795	3.3951533	1.8425941
12.882990722332197	3.5244439	1.8773502
12.90062897316344	3.570454	1.8895645
12.918267530942412	3.650794	1.9107051
12.935906396103071	3.520102	1.8761935
12.953545569079449	3.755073	1.9378011
12.971185050305628	3.5655887	1.8882767
12.988824840215775	3.5598464	1.8867555
13.006464939244115	3.5296526	1.878737
13.024105347824943	3.3543031	1.8314756
13.041746066392617	3.4364011	1.8537532
13.05938709538157	3.2325695	1.7979348
13.077028435226296	3.2839108	1.8121564
13.094670086361363	3.1481364	1.7742988
13.112312049221401	3.0677233	1.7514918
13.129954324241112	2.998316	1.7315646
13.147596911855258	2.858042	1.6905744
13.165239812498685	2.8265946	1.681248
13.182883026606293	2.7469637	1.6573967
13.200526554613058	2.6883411	1.6396161
13.218170396954017	2.684101	1.6383226
13.235814554064284	2.663133	1.6319108
13.253459026379034	2.61534	1.6172013
13.271103814333523	2.5778732	1.6055757
13.288748918363058	2.5899563	1.6093341
13.306394338903031	2.6565604	1.6298958
13.32404007638889	2.653052	1.6288192
13.341686131256164	2.6690648	1.6337273
13.359332503940449	2.622031	1.6192687
13.376979194877402	2.6037526	1.6136148
13.394626204502751	2.635032	1.6232781
13.412273533252307	2.628357	1.6212208
13.429921181561937	2.6421762	1.6254772
13.447569149867581	2.6592097	1.6307083
13.465217438605247	2.6663787	1.632905
13.482866048211022	2.6588082	1.6305852
13.500514979121052	2.6490788	1.6275991
13.518164231771568	2.5955684	1.6110768
13.535813806598844	2.5902224	1.6094167
13.553463704039254	2.601087	1.6127886
13.571113924529229	2.5992372	1.612215
13.588764468505275	2.6445541	1.6262085
13.606415336403956	2.666324	1.6328882
13.624066528661917	2.7076888	1.6455057
13.641718045715882	2.7466853	1.6573126
13.659369888002635	2.7685843	1.6639063
13.67702205595903	2.8410485	1.685541
13.694674550021993	2.9023108	1.703617
13.712327370628532	2.9480445	1.716987
13.729980518215713	3.013796	1.7360288
13.747633993220681	3.046497	1.7454218
13.765287796080647	3.0947788	1.7591983
13.7829419272329	3.147418	1.7740964
13.800596387114801	3.1679876	1.7798841
13.818251176163775	3.2224963	1.7951313
13.835906294817324	3.2922676	1.8144606
13.853561743513023	3.3986568	1.8435446
13.871217522688525	3.4300098	1.8520286
13.888873632781538	3.467862	1.8622196
13.906530074229858	3.4633417	1.8610055
13.92418684747135	3.5080745	1.8729855
13.941843952943948	3.5042696	1.8719695
13.959501391085665	3.4741526	1.8639079
13.977159162334578	3.350687	1.8304882
13.994817267128846	3.279743	1.8110061
14.012475705906693	3.2314787	1.7976314
14.030134479106424	3.1656892	1.7792383
14.047793587166414	3.0956035	1.7594327
14.065453030525108	3.04755	1.7457234
14.083112809621026	2.9627771	1.721272
14.100772924892766	2.8925278	1.7007433
14.118433376778997	2.8470628	1.6873242
14.136094165718458	2.8009224	1.6735957
14.153755292149969	2.760587	1.6615014
14.171416756512416	2.6706276	1.6342055
14.189078559244768	2.5933957	1.6104023
14.20674070078606	2.5387971	1.5933603
14.224403181575408	2.501332	1.58156
14.242066002051999	2.4588132	1.5680603
14.259729162655093	2.3797088	1.5426304
14.277392663824022	2.396815	1.5481651
14.295056505998208	2.384539	1.5441952
14.312720689617128	2.3665555	1.5383613
14.330385215120348	2.3342748	1.5278333
14.348050082947497	2.3281326	1.5258219
14.3657152935383	2.3671038	1.5385395
14.383380847332528	2.3394663	1.5295314
14.401046744770051	2.3443372	1.5311229
14.418712986290798	2.3085852	1.5194029
14.436379572334793	2.3129814	1.5208489
14.454046503342123	2.327761	1.5257001
14.471713779752946	2.3357604	1.5283195
14.489381402007504	2.3017397	1.5171485
14.507049370546113	2.2936366	1.5144757
14.524717685809168	2.2961028	1.5152897
14.542386348237134	2.342837	1.5306329
14.560055358270553	2.3670335	1.5385166
14.577724716350051	2.375547	1.541281
14.595394422916325	2.3564234	1.5350646
14.61306447841015	2.3652573	1.5379393
14.63073488327237	2.4019792	1.549832
14.648405637943917	2.4286835	1.5584234
14.6660767428658	2.4271245	1.5579231
14.683748198479094	2.4731908	1.5726382
14.701420005224954	2.511566	1.584792
14.719092163544628	2.5772605	1.6053848
14.73676467387942	2.621964	1.6192479
14.754437536670727	2.6360216	1.623583
14.772110752360014	2.6255684	1.6203606
14.78978432138882	2.5954902	1.6110525
14.807458244198777	2.61907	1.6183541
14.82513252123159	2.6233814	1.6196855
14.842807152929028	2.6690118	1.6337111
14.860482139732962	2.6352978	1.62336
14.87815748208531	2.6218116	1.619201
14.8958331804281	2.6151428	1.6171403
14.91350923520342	2.594053	1.6106064
14.931185646853438	2.6295896	1.6216009
14.948862415820408	2.6476836	1.6271704
14.966539542546656	2.6853468	1.6387028
14.98421702747459	2.6046271	1.6138858
15.001894871046696	2.5911498	1.6097049
15.019573073705542	2.5665133	1.6020341
15.037251635893766	2.5909517	1.6096433
15.054930558054092	2.5898633	1.6093053
15.072609840629323	2.6155412	1.6172636
15.090289484062351	2.7016315	1.643664
15.107969488796124	2.8439417	1.686399
15.125649855273691	3.0701964	1.7521976
15.14333058393817	3.4285944	1.8516464
15.161011675232768	3.9608984	1.9902006
15.17869312960076	4.525902	2.1274166
15.196374947485506	5.176262	2.27514
15.214057129330447	6.500571	2.5496216
15.231739675579114	8.636701	2.9388263
15.249422586675102	13.30876	3.6481173
15.267105863062092	18.093397	4.2536335
15.284789505183847	25.755291	5.074967
15.302473513484218	31.285812	5.5933723
15.320157888407127	35.88014	5.990003
15.337842630396578	34.459312	5.8702054
15.355527739896656	31.23365	5.5887074
15.37321321735153	24.067501	4.905864
15.39089906320545	16.117374	4.014645
15.408585277902748	10.191472	3.1924086
15.42627186188783	6.1729465	2.4845414
15.443958815605198	4.416165	2.1014674
15.461646139499424	3.5859628	1.8936639
15.479333834015168	3.153326	1.7757607
15.497021899597165	2.8713996	1.6945205
15.514710336690234	2.66431	1.6322714
15.53239914573928	2.5653946	1.6016849
15.550088327189297	2.5368495	1.592749
15.567777881485336	2.4911773	1.5783464
15.58546780907256	2.4802465	1.5748799
15.6031581103962	2.453972	1.5665159
15.620848785901568	2.4994926	1.5809784
15.638539836034063	2.4873476	1.5771327
15.656231261239173	2.4836555	1.5759617
15.673923061962451	2.4309375	1.5591464
15.691615238649552	2.4161592	1.5544
15.709307791746202	2.3645241	1.5377009
15.727000721698221	2.3483348	1.5324278
15.744694028951498	2.3340166	1.5277488
15.76238771395202	2.319784	1.5230837
15.780081777145844	2.3356426	1.528281
15.797776218979125	2.3280964	1.5258101
15.815471039898094	2.3610203	1.5365613
15.833166240349064	2.3535986	1.5341443
15.850861820778437	2.3770652	1.5417734
15.868557781632699	2.392955	1.5469179
15.886254123358412	2.4576128	1.5676775
15.903950846402232	2.4837878	1.5760038
15.921647951210897	2.535056	1.592186
15.939345438231225	2.5563416	1.5988563
15.957043307910133	2.5527349	1.597728
15.974741560694602	2.5381372	1.5931532
15.992440197031714	2.5232234	1.5884657
16.01013921736862	2.4893522	1.5777681
16.02783862215259	2.4677336	1.5709021
16.045538411830933	2.4280105	1.5582074
16.06323858685107	2.4382288	1.5614829
16.080939147660512	2.446455	1.5641148
16.09864009470684	2.4271588	1.5579342
16.11634142843774	2.3889568	1.5456251
16.134043149300954	2.3461554	1.5317165
16.15174525774433	2.373304	1.5405531
16.169447754215817	2.3827229	1.5436071
16.18715063916342	2.3844192	1.5441564
16.204853913035244	2.3815703	1.5432338
16.222557576279478	2.400611	1.5493906
16.240261629344403	22.395836	4.732424
16.257966072678386	42.945553	6.5532856
16.275670906729868	38.064873	6.1696734
16.293376131947387	2.4614344	1.5688959
16.31108174877957	2.456014	1.5671675
16.328787757675133	2.4830208	1.5757604
16.34649415908287	2.5152383	1.5859503
16.364200953451657	2.5491624	1.5966097
16.38190814123048	2.6030085	1.6133841
16.39961572286839	2.6582797	1.6304232
16.41732369881455	2.6612842	1.6313443
16.43503206951817	2.688126	1.6395506
16.45274083542859	2.7299378	1.6522523
16.47044999699522	2.793727	1.6714445
16.488159554667558	2.836495	1.6841897
16.505869508895184	2.8765688	1.696045
16.523579860127786	2.9244564	1.7101042
16.541290608815117	2.98101	1.7265601
16.559001755407035	3.0358896	1.7423805
16.57671330035348	3.157138	1.7768338
16.59442524410448	3.269711	1.8082342
16.61213758711015	3.481041	1.8657548
16.629850329820705	3.569147	1.8892187
16.647563472686436	3.5736935	1.8904215
16.665277016157724	3.5087357	1.8731619
16.682990960685053	3.491311	1.868505
16.70070530671898	3.4367177	1.8538387
16.718420054710155	3.446421	1.8564539
16.736135205109335	3.4379244	1.8541641
16.753850758367335	3.5330222	1.8796335
16.771566714935087	3.584609	1.8933064
16.789283075263597	3.6514096	1.9108661
16.80699983980398	3.7112324	1.926456
16.82471700900741	3.7806246	1.9443828
16.84243458332518	3.8585334	1.9643149
16.860152563208665	3.9184709	1.9795128
16.87787094910932	4.0050745	2.0012681
16.89558974147871	4.0719695	2.0179121
16.913308940768466	4.1084642	2.0269346
16.931028547430333	4.133094	2.0330012
16.94874856191613	4.170058	2.0420718
16.966468984677785	4.257261	2.063313
16.98418981616729	4.2784095	2.0684316
17.00191105683676	4.352471	2.0862577
17.019632707138374	4.3683076	2.0900497
17.03735476752442	4.4285893	2.1044214
17.05507723844728	4.464447	2.1129239
17.072800120359403	4.4812636	2.1168995
17.090523413713353	4.493442	2.119774
17.108247118961785	4.4878564	2.1184561
17.125971236557437	4.539655	2.1306467
17.143695766953133	4.610488	2.1472046
17.161420710601806	4.684838	2.1644485
17.179146067956477	4.6432195	2.154813
17.19687183947025	4.5935507	2.1432571
17.21459802559634	4.557154	2.1347492
17.232324626788028	4.5981603	2.1443322
17.25005164349871	4.6212864	2.1497178
17.267779076181863	4.6109295	2.1473074
17.285506925291074	4.6024103	2.1453228
17.30323519127999	4.5740056	2.1386926
17.320963874602384	4.567058	2.1370676
17.33869297571211	4.51225	2.1242058
17.356422495063114	4.5171185	2.1253514
17.37415243310944	4.5180006	2.1255589
17.391882790305218	4.5302687	2.1284428
17.40961356710468	4.496138	2.12041
17.42734476396215	4.493279	2.1197355
17.445076381332044	4.515513	2.1249735
17.462808419668868	4.600231	2.144815
17.48054087942723	4.6851807	2.164528
17.498273761061835	4.7764573	2.1855109
17.51600706502747	5.049371	2.2470806
17.533740791779024	5.5891533	2.364139
17.551474941771485	6.440765	2.537866
17.56920951545993	8.29088	2.8793888
17.586944513299528	9.578735	3.0949533
17.60467993574556	12.544436	3.5418127
17.622415783253373	15.328035	3.9151034
17.64015205627843	18.3461	4.2832346
17.657888755276293	20.99164	4.5816636
17.675625880702604	22.801636	4.775106
17.69336343301311	21.426207	4.628845
17.71110141266366	19.265574	4.3892565
17.728839820110178	16.22163	4.0276084
17.746578655808705	12.923227	3.5948892
17.764317920215372	10.762333	3.2805996
17.7820576137864	8.926354	2.9877005
17.79979773697811	7.5087705	2.7402136
17.81753829024692	6.073333	2.4644132
17.835279274049356	5.275829	2.2969172
17.85302068884201	4.415735	2.101365
17.870762535081607	3.97649	1.9941138
17.888504813224934	3.737917	1.9333693
17.90624752372891	3.5925953	1.8954142
17.923990667050536	3.4575315	1.8594439
17.941734243646895	3.3796928	1.838394
17.959478253975185	3.3473806	1.8295848
17.9772226984927	3.3731673	1.8366184
17.994967577656833	3.371495	1.8361632
18.01271289192506	3.3515544	1.8307251
18.030458641754965	3.2923865	1.8144934
18.04820482760425	3.2398329	1.7999536
18.06595144993067	3.2161229	1.7933552
18.083698509192125	3.195843	1.7876921
18.101446005846576	3.1536095	1.7758405
18.119193940352105	3.1133876	1.7644794
18.136942313166887	3.1190493	1.766083
18.1546911247492	3.1053689	1.7622057
18.1724403755574	3.0821197	1.7555966
18.19019006604997	3.0752614	1.7536423
18.207940196685467	3.0419424	1.7441165
18.225690767922575	3.0066102	1.7339579
18.243441780220046	3.0007858	1.7322776
18.261193234036764	2.9998603	1.7320105
18.278945129831676	2.971349	1.7237601
18.29669746806386	2.9167523	1.7078502
18.314450249192483	2.891638	1.7004817
18.3322034736768	2.9419758	1.7152189
18.349957141976184	2.9756305	1.7250016
18.3677112545501	2.9985423	1.73163
18.385465811858108	3.0158544	1.7366215
18.403220814359884	3.0102847	1.7350172
18.420976262515172	3.0349927	1.742123
18.43873215678387	3.0639062	1.7504017
18.456488497625923	3.0904443	1.7579659
18.474245285501407	3.1576574	1.7769798
18.492002520870486	3.242424	1.8006732
18.50976020419343	3.3290052	1.8245562
18.527518335930615	3.5775988	1.8914541
18.545276916542516	4.136804	2.0339136
18.563035946489688	4.278785	2.0685225
18.580795426232832	4.6977763	2.1674354
18.598555356232698	4.6115093	2.1474426
18.616315736950185	4.9001937	2.213638
18.63407656884626	4.5542536	2.1340697
18.65183785238201	4.7208214	2.1727452
18.669599588018617	4.515344	2.124934
18.68736177621737	4.507767	2.1231503
18.705124417439652	4.459335	2.1117136
18.72288751214696	4.325661	2.0798223
18.740651060800886	4.5067434	2.1229093
18.758415063863115	4.2912884	2.0715425
18.77617952179546	4.415161	2.1012285
18.793944435059814	4.1155496	2.0286818
18.811709804118184	4.0551844	2.013749
18.829475629432675	4.019563	2.0048847
18.8472419114655	3.851253	1.962461
18.86500865067897	3.9768894	1.9942139
18.88277584753551	3.6690886	1.9154866
18.90054350249763	3.6238532	1.903642
18.918311616027957	3.307682	1.8187034
18.936080188589226	3.1996648	1.7887607
18.953849220644265	2.972742	1.7241641
18.971618712656007	2.8485074	1.6877521
18.9893886650875	2.8020806	1.6739416
19.007159078401887	7.94738	2.81911
19.024929953062408	32.807858	5.727814
19.042701289532435	32.800404	5.727164
19.060473088275405	25.395298	5.039375
19.07824534975489	2.6629088	1.6318421
19.096018074434568	2.6454747	1.6264915
19.113791262778197	2.5745397	1.6045372
19.13156491524966	2.5289183	1.5902573
19.149339032312945	2.4849935	1.5763862
19.167113614432136	2.4934669	1.5790715
19.184888662071433	2.5135353	1.5854133
19.202664175695123	2.538222	1.5931798
19.220440155767623	2.5619898	1.6006217
19.238216602753447	2.5425873	1.5945493
19.2559935171172	2.5308192	1.5908549
19.27377089932361	2.5095918	1.5841691
19.291548749837514	2.4988976	1.5807902
19.309327069123835	2.4696667	1.5715173
19.32710585764763	2.526722	1.5895666
19.344885115874032	2.5478098	1.596186
19.362664844268313	2.50099	1.5814519
19.380445043295822	2.4694955	1.5714629
19.39822571342203	2.4947677	1.5794834
19.41600685511252	2.507749	1.5835874
19.43378846883297	2.5074313	1.583487
19.451570555049173	2.478956	1.57447
19.469353114227037	2.45842	1.567935
19.48713614683254	2.4576561	1.5676913
19.50491965333182	2.480724	1.5750314
19.52270363419109	2.4634619	1.5695419
19.540488089876686	2.4389412	1.561711
19.55827302085503	2.4003615	1.54931
19.576058427592674	2.395135	1.5476223
19.593844310556282	2.4062064	1.5511951
19.611630670212598	2.451497	1.5657257
19.629417507028506	2.4619365	1.5690559
19.64720482147098	2.4565103	1.5673258
19.6649926140071	2.430681	1.5590641
19.682780885104084	2.4208076	1.5558945
19.70056963522921	2.397404	1.5483552
19.718358864849908	2.447679	1.564506
19.7361485744337	2.4479077	1.5645791
19.753938764448215	2.470571	1.571805
19.771729435361202	2.4416485	1.5625775
19.789520587640506	2.434777	1.5603772
19.807312221754092	2.4097495	1.5523368
19.825104338170043	2.3832502	1.543778
19.842896937356517	2.4416156	1.562567
19.860690019781824	2.4996307	1.581022
19.87848358591436	2.5101888	1.5843575
19.896277636222635	2.4868047	1.5769606
19.914072171175278	2.4693756	1.5714247
19.931867191241015	2.485175	1.5764438
19.94966269688869	2.477139	1.573893
19.967458688587264	2.488083	1.5773658
19.985255166805807	2.4689112	1.5712769
20.00305213201348	2.4567647	1.567407
20.020849584679578	2.400577	1.5493796
20.038647525273507	2.3873155	1.545094
20.05644595426477	2.350324	1.5330766
20.07424487212299	2.3352296	1.5281458
20.092044279317903	2.3523612	1.5337409
20.109844176319353	2.399104	1.5489042
20.127644563597304	2.4221132	1.556314
20.145445441621817	2.4352994	1.5605446
20.16324681086307	2.399179	1.5489284
20.181048671791373	2.3657706	1.5381062
20.198851024877122	2.350747	1.5332147
20.216653870590836	2.3230193	1.5241454
20.234457209403146	2.3212311	1.5235587
20.252261041784802	2.3574688	1.5354052
20.270065368206662	2.3921955	1.5466723
20.287870189139685	2.3784573	1.5422248
20.305675505054968	2.3387964	1.5293124
20.323481316423702	2.3168657	1.5221254
20.341287623717207	2.326232	1.5251989
20.359094427406884	2.3627315	1.537118
20.376901727964288	2.3171701	1.5222254
20.39470952586107	2.2503207	1.5001069
20.41251782156899	2.23192	1.4939612
20.430326615559935	2.3140519	1.5212008
20.448135908305886	2.3491666	1.5326991
20.465945700278965	2.3251536	1.5248455
20.483755991951384	2.3118196	1.5204669
20.50156678379548	2.3417668	1.5302832
20.519378076283708	2.3623378	1.5369898
20.537189869888635	2.3756778	1.5413234
20.55500216508294	2.3460314	1.531676
20.572814962339415	2.3471627	1.5320452
20.59062826213098	2.323336	1.5242493
20.60844206493066	2.303188	1.5176258
20.626256371211593	2.257419	1.502471
20.644071181447032	2.2912672	1.5136932
20.66188649611036	2.332727	1.5273267
20.67970231567506	2.3327022	1.5273186
20.697518640614742	2.2771008	1.5090066
20.715335471403122	2.2632568	1.5044124
20.73315280851404	2.251018	1.5003393
20.750970652421447	2.2589152	1.5029688
20.768789003599412	2.2587945	1.5029286
20.786607862522136	2.3191926	1.5228896
20.8044272296639	2.3031921	1.5176271
20.82224710549913	2.277675	1.5091968
20.84006749050237	2.2697656	1.5065742
20.857888385148268	3.8257356	1.9559487
20.8757097899116	45.912254	6.7758584
20.893531705267254	64.75639	8.047135
20.911354131690224	83.769714	9.152579
20.92917706965566	69.04374	8.309257
20.94700051963877	50.116497	7.0793004
20.96482448211493	29.346115	5.4172053
20.982648957559622	4.0617127	2.0153692
21.00047394644843	2.1908004	1.4801353
21.01829944925707	2.2256355	1.4918565
21.036125466461375	2.2329195	1.4942956
21.053951998537297	2.2320914	1.4940186
21.071779045960906	2.1731575	1.4741633
21.089606609208378	2.1565845	1.4685314
21.10743468875603	2.173418	1.4742517
21.12526328508028	2.1893077	1.479631
21.143092398657675	2.1669292	1.4720494
21.16092202996488	2.189706	1.4797655
21.17875217947867	2.2045677	1.4847786
21.19658284767596	2.2084558	1.4860874
21.21441403503377	2.1656811	1.4716253
21.232245742029225	2.1722512	1.4738559
21.2500779691396	2.1748555	1.4747391
21.26791071684227	2.171178	1.4734918
21.28574398561475	2.159318	1.4694618
21.30357777593465	2.1525166	1.4671457
21.321412088279704	2.1150322	1.4543151
21.339246923127792	2.1070187	1.4515574
21.357082280956888	2.130791	1.4597229
21.3749181622451	2.1585953	1.4692159
21.392754567470647	2.1528401	1.467256
21.41059149711187	2.110917	1.4528996
21.42842895164726	2.0804744	1.442385
21.446266931555378	2.0993223	1.4489038
21.464105437314945	2.0946224	1.447281
21.481944469404798	2.0881774	1.4450527
21.49978402830388	2.0634396	1.4364678
21.51762411449127	2.0736785	1.4400272
21.53546472844617	2.0992506	1.4488791
21.553305870647876	2.0998175	1.4490747
21.571147541575865	2.0846374	1.4438274
21.58898974170967	2.0497956	1.4317107
21.60683247152899	2.0313582	1.4252572
21.62467573151363	2.0085711	1.4172407
21.642519522143523	2.0265076	1.4235545
21.660363843898722	2.0066917	1.4165775
21.6782086972594	2.0228546	1.4222709
21.696054082705864	2.0081143	1.4170796
21.713900000718535	1.9988126	1.4137937
21.73174645177795	1.9966285	1.4130211
21.749593436364794	2.0028195	1.4152101
21.767440954959845	2.0282211	1.4241563
21.785289008044032	1.9899602	1.4106594
21.803137596098388	1.9892095	1.4103934
21.820986719604086	1.9723183	1.4043925
21.838836379042412	1.9988303	1.4138
21.85668657489478	1.9912192	1.4111056
21.87453730764273	1.9933517	1.4118611
21.892388577767914	1.9730389	1.404649
21.91024038575213	1.9592825	1.3997437
21.928092732077285	1.9503946	1.3965653
21.945945617225426	1.9522856	1.3972422
21.963799041678694	1.9673904	1.402637
21.981653005919398	31.290651	5.593805
21.999507510429943	78.1045	8.837675
22.01736255569286	73.08276	8.548845
22.035218142190818	4.1697073	2.0419862
22.05307427040661	1.9676129	1.4027163
22.07093094082315	1.9209117	1.3859695
22.088788153923474	1.9283379	1.3886461
22.106645910190746	1.962049	1.4007316
22.12450421010827	1.9878421	1.4099085
22.142363054159464	1.9630309	1.401082
22.16022244282787	1.9416871	1.3934443
22.178082376597164	1.93878	1.3924007
22.195942855951145	1.9459043	1.3949567
22.213803881373742	1.9711447	1.4039747
22.231665453349002	1.9732386	1.4047201
22.24952757236111	1.983637	1.4084165
22.26739023889438	1.9343348	1.3908037
22.28525345343323	1.9220567	1.3863826
22.30311721646225	1.9157791	1.3841168
22.320981528466113	1.9483786	1.3958433
22.33884638992964	1.9335382	1.3905172
22.356711801337788	1.9349347	1.3910193
22.37457776317561	1.9255421	1.387639
22.392444275928337	1.907652	1.3811778
22.410311340081282	1.8948708	1.376543
22.428178956119904	1.9181876	1.3849865
22.446047124529805	1.930853	1.3895514
22.46391584579669	1.9101009	1.382064
22.481785120406414	1.8632737	1.3650179
22.49965494884496	1.8542027	1.3616911
22.51752533159841	1.8947182	1.3764876
22.53539626915302	1.9085398	1.381499
22.553267761995137	1.9156262	1.3840615
22.571139810611264	1.9173714	1.3846918
22.589012415488025	1.929336	1.3890054
22.60688557711216	1.9176438	1.3847902
22.624759295970566	1.9197736	1.385559
22.642633572550263	1.9538954	1.3978181
22.660508407338362	1.9792043	1.406842
22.67838380082217	2.0030556	1.4152935
22.696259753489077	1.9986175	1.4137247
22.714136265826614	2.0091043	1.4174287
22.73201333832246	2.0309813	1.425125
22.74989097146439	2.0210996	1.4216539
22.76776916574035	1.9705213	1.4037526
22.785647921638393	1.9162433	1.3842844
22.803527239646712	1.9018897	1.3790902
22.82140712025363	1.8657057	1.3659084
22.839287563947593	1.831222	1.3532265
22.85716857121719	1.8324202	1.3536692
22.875050142551135	1.8364	1.3551384
22.892932278438277	1.884037	1.3726022
22.910814979367604	1.9440308	1.3942851
22.928698245828222	1.9587737	1.399562
22.946582078309387	1.924108	1.3871222
22.96446647730047	1.9254274	1.3875977
22.98235144329098	1.9137948	1.3833997
23.000236976770562	1.8937782	1.3761462
23.018123078229	1.8715098	1.3680314
23.03600974815619	1.8590443	1.3634678
23.053896987042194	1.8618318	1.3644896
23.071784795377173	1.8464092	1.3588264
23.08967317365145	1.8623706	1.364687
23.10756212235546	1.869918	1.3674494
23.125451641979787	1.836915	1.3553283
23.143341733015134	1.8339972	1.3542515
23.161232395952357	1.8489361	1.3597559
23.179123631282426	1.9024264	1.3792847
23.197015439496468	1.8971957	1.3773873
23.214907821085717	1.8853128	1.3730669
23.23280077654157	1.9066217	1.3808048
23.250694306355538	1.9373096	1.3918726
23.268588411019277	1.9562042	1.3986437
23.28648309102458	1.9540061	1.3978577
23.304378346863356	1.9142511	1.3835646
23.322274179027676	1.9061518	1.3806345
23.340170588009723	1.9166493	1.384431
23.358067574301852	1.9237335	1.3869872
23.37596513839651	1.9011593	1.3788253
23.39386328078629	1.8816787	1.371743
23.411762001963947	1.8695856	1.3673279
23.429661302422353	1.8995836	1.3782538
23.4475611826545	1.9345026	1.390864
23.46546164315356	1.9537247	1.397757
23.48336268441279	1.9605061	1.4001807
23.501264306925638	1.9855973	1.4091122
23.51916651118564	1.9570094	1.3989315
23.537069297686497	1.9339659	1.390671
23.554972666922037	1.9172746	1.3846569
23.57287661938623	1.946002	1.3949918
23.59078115557318	1.9768512	1.4060054
23.608686275977128	1.9513307	1.3969004
23.62659198109246	1.8773777	1.3701744
23.6444982714137	1.8768232	1.369972
23.66240514743549	1.8629411	1.364896
23.68031260965263	1.8819735	1.3718504
23.698220658560068	1.8839256	1.3725617
23.716129294652845	1.9125915	1.3829647
23.7340385184262	1.9031646	1.3795524
23.75194833037546	1.8802278	1.371214
23.769858730996123	1.8833708	1.3723595
23.78776972078382	1.8742268	1.369024
23.80568130023431	1.8817073	1.3717533
23.823593469843495	1.88069	1.3713825
23.841506230107424	1.8673265	1.3665016
23.859419581522275	1.8639615	1.3652698
23.87733352458438	1.8934442	1.3760247
23.89524805979019	1.9149112	1.3838031
23.913163187636318	1.9145466	1.3836714
23.931078908619508	1.9480059	1.3957099
23.948995223236633	1.9451755	1.3946955
23.966912131984735	1.9822922	1.407939
23.98482963536096	1.988745	1.4102287
24.002747733862616	2.0100322	1.4177561
24.020666427987155	1.9825792	1.4080409
24.038585718232156	1.9935192	1.4119204
24.056505605095353	1.9976437	1.4133803
24.074426089074617	2.011348	1.41822
24.092347170667946	2.0123925	1.4185882
24.110268850373515	2.0640955	1.436696
24.128191128689586	2.0562546	1.4339646
24.146114006114626	1.9747071	1.4052427
24.164037483147187	1.9704509	1.4037275
24.181961560286005	1.9857985	1.4091836
24.199886238029926	2.0160294	1.4198695
24.21781151687797	2.022936	1.4222996
24.235737397329274	2.0032644	1.4153672
24.253663879883135	1.9733939	1.4047754
24.271590965038975	1.9701655	1.4036258
24.289518653296376	1.986912	1.4095787
24.30744694515505	1.9944483	1.4122493
24.32537584111486	1.9810314	1.4074912
24.34330534167581	1.9819576	1.4078201
24.361235447338046	1.9858389	1.4091979
24.379166158601876	1.9742552	1.4050819
24.39709747596772	2.016941	1.4201905
24.41502939993615	2.0493627	1.4315596
24.432961931007917	2.0296543	1.4246594
24.450895069683856	1.9830583	1.408211
24.468828816465	1.9728827	1.4045935
24.4867631718525	2.0043404	1.4157473
24.504698136347656	2.0073166	1.416798
24.52263371045192	1.9641804	1.4014922
24.540569894666874	1.9186337	1.3851476
24.558506689494266	1.8796357	1.370998
24.57644409543597	1.9017059	1.3790236
24.594382112994012	1.9385569	1.3923206
24.61232074267057	1.980232	1.4072071
24.630259984967953	1.9877373	1.4098713
24.64819984038863	1.9244108	1.3872313
24.66614030943522	1.9514425	1.3969404
24.684081392610462	1.9811058	1.4075176
24.702023090417274	1.9749532	1.4053303
24.7199654033587	1.9410479	1.393215
24.737908331937927	1.9484072	1.3958535
24.755851876658305	1.9785625	1.4066138
24.773796038023324	2.0020306	1.4149313
24.79174081653661	2.0326996	1.4257277
24.809686212701962	2.0973768	1.4482323
24.827632227023294	2.0796893	1.4421128
24.8455788600047	2.0814683	1.4427295
24.8635261121504	2.059572	1.4351209
24.88147398396475	2.0874615	1.444805
24.899422475952303	2.0855856	1.4441557
24.917371588617698	2.135123	1.461206
24.935321322465768	2.1901858	1.4799277
24.953271678001478	2.301297	1.5170026
24.97122265572994	2.5018451	1.5817223
24.989174256156414	2.8586025	1.6907402
25.00712647978632	3.3599913	1.833028
25.02507932712521	4.2771087	2.0681171
25.043032798678798	5.791986	2.4066546
25.060986894952933	7.5473566	2.7472453
25.078941616453637	9.118089	3.0196173
25.096896963687055	10.047147	3.1697235
25.114852937159508	10.726666	3.275159
25.132809537377444	10.492545	3.23922
25.150766764847468	9.758578	3.1238723
25.168724620076347	8.310253	2.882751
25.186683103570985	7.0639567	2.6578104
25.204642215838426	5.6889224	2.3851461
25.222601957385894	4.493847	2.1198695
25.24056232872074	3.4708056	1.8630098
25.25852333035048	2.7827208	1.6681489
25.276484962782778	2.3490515	1.5326616
25.294447226525435	2.1331177	1.4605197
25.312410122086423	2.0497842	1.4317068
25.330373649973843	2.0039387	1.4156054
25.348337810695988	1.9032602	1.3795869
25.366302604761245	1.839402	1.3562455
25.384268032678207	1.8443855	1.3580816
25.40223409495558	1.9039396	1.3798332
25.420200792102257	1.9438592	1.3942236
25.438168124627246	1.9265099	1.3879877
25.45613609303974	1.8986906	1.3779298
25.474104697849057	1.8795868	1.3709803
25.492073939564698	1.8989664	1.37803
25.510043818696285	1.9378794	1.3920773
25.528014335753614	1.9389602	1.3924655
25.54598549124664	1.8973671	1.3774495
25.56395728568544	1.8490015	1.35978
25.58192971958028	1.8376858	1.3556128
25.59990279344156	1.8366253	1.3552215
25.617876507779833	1.823048	1.3502029
25.635850863105826	1.8501459	1.3602006
25.653825859930386	1.8546144	1.3618423
25.671801498764548	1.867497	1.3665639
25.68977778011949	1.8115388	1.3459342
25.707754704506524	1.8240838	1.3505864
25.725732272437153	1.8615878	1.3644001
25.743710484423012	1.8775469	1.370236
25.761689340975888	1.9036276	1.3797201
25.77966884260774	1.848842	1.3597213
25.797648989830662	1.8221415	1.3498672
25.815629783156922	1.8306117	1.353001
25.83361122309895	1.865648	1.3658873
25.85159331016929	1.8673142	1.366497
25.869576044880695	1.8542583	1.3617115
25.887559427746034	1.8621867	1.3646196
25.90554345927836	1.8262265	1.3513795
25.92352813999086	1.8364861	1.3551701
25.94151347039689	1.8412895	1.3569412
25.959499451009965	1.8517352	1.3607848
25.97748608234374	1.8489377	1.3597565
25.995473364912062	1.8306837	1.3530276
26.013461299228904	1.7961545	1.3402069
26.03144988580839	1.8226057	1.3500391
26.04943912516483	1.8405979	1.3566864
26.067429017812675	1.8679923	1.3667451
26.085419564266537	1.8463573	1.3588073
26.103410765041186	1.8560592	1.3623726
26.12140262065155	1.8527775	1.3611677
26.139395131612723	1.8630637	1.3649409
26.157388298439948	1.8448721	1.3582608
26.17538212164861	1.8150808	1.3472494
26.193376601754295	1.8213917	1.3495895
26.211371739272714	1.8162631	1.3476881
26.229367534719746	1.8505774	1.3603593
26.247363988611433	1.8583212	1.3632026
26.26536110146397	1.8595598	1.3636568
26.283358873793727	1.8316686	1.3533915
26.301357306117204	1.8606361	1.3640513
26.319356398951104	1.8471707	1.3591065
26.33735615281224	1.8091094	1.3450314
26.35535656821762	1.766503	1.3290986
26.373357645684404	1.7654389	1.3286982
26.39135938572991	1.7835072	1.3354801
26.409361788871614	1.8106998	1.3456224
26.427364855627165	1.8379476	1.3557093
26.445368586514352	1.850194	1.3602184
26.46337298205115	1.8310267	1.3531543
26.48137804275568	1.817508	1.3481499
26.499383769146217	1.807598	1.3444694
26.517390161741215	1.7386316	1.3185718
26.53539722105928	1.6849909	1.298072
26.553404947619182	1.7830087	1.3352935
26.571413341939856	1.837251	1.3554523
26.589422404540397	1.8515117	1.3607026
26.60743213594006	1.785649	1.3362818
26.62544253665827	1.7769908	1.3330382
26.64345360721459	1.7787803	1.3337092
26.66146534812879	1.8000566	1.3416619
26.679477759920758	1.7696158	1.3302691
26.69749084311057	1.780702	1.3344295
26.71550459821847	1.7989004	1.3412309
26.733519025764842	1.7731199	1.3315855
26.751534126270258	1.7671872	1.329356
26.769549900255434	1.765882	1.3288649
26.787566348241267	1.7974116	1.3406758
26.80558347074881	1.8414657	1.3570062
26.823601268299267	1.8230883	1.3502178
26.841619741414036	1.7842443	1.3357561
26.85963889061465	1.7611613	1.3270875
26.877658716422832	1.8079594	1.3446038
26.89567921936045	1.7977908	1.3408172
26.913700399949544	1.7508187	1.3231851
26.93172225871233	1.7307128	1.3155656
26.949744796171174	1.7616761	1.3272815
26.967768012848605	1.794366	1.3395395
26.98579190926733	1.8220891	1.3498478
27.003816485950225	1.8240963	1.3505911
27.021841743420318	1.7841799	1.335732
27.039867682200814	1.7683009	1.3297747
27.057894302815072	1.7835519	1.3354969
27.07592160578664	1.7963356	1.3402745
27.0939495916392	1.8104407	1.3455262
27.111978260896635	1.8182368	1.3484201
27.13000761408296	1.8044522	1.343299
27.148037651722397	1.8186157	1.3485606
27.166068374339304	1.8506964	1.3604031
27.184099782458215	1.8660142	1.3660213
27.20213187660384	1.8607674	1.3640995
27.22016465730105	1.8793771	1.3709037
27.23819812507487	1.8671323	1.3664305
27.256232280450533	1.8711624	1.3679044
27.274267123953383	1.862453	1.3647171
27.292302656108987	1.829797	1.3526999
27.31033887744306	1.788969	1.3375235
27.32837578848146	1.8305663	1.3529842
27.34641338975026	1.8187604	1.3486142
27.364451681775673	1.7864622	1.336586
27.382490665084074	1.751952	1.3236133
27.400530340202046	1.7576401	1.3257602
27.41857070765629	1.7341038	1.3168538
27.436611767973726	1.740118	1.3191353
27.454653521681404	1.8022349	1.3424734
27.472695969306564	1.7963543	1.3402814
27.490739111376627	1.7661417	1.3289626
27.508782948419153	1.780781	1.3344591
27.526827480961902	1.7970042	1.3405238
27.54487270953279	1.8351139	1.3546637
27.562918634659898	1.8353329	1.3547446
27.580965256871508	1.812935	1.3464527
27.599012576696026	1.7839825	1.3356581
27.617060594662068	1.7690806	1.3300679
27.63510931129842	1.8099936	1.34536
27.65315872713401	1.8512015	1.3605887
27.67120884269797	1.849459	1.3599482
27.68925965851958	1.8114121	1.3458871
27.707311175128307	1.8193839	1.3488454
27.725363393053787	1.8507541	1.3604243
27.74341631282583	1.9080982	1.3813393
27.7614699349744	1.9532188	1.3975761
27.77952426002968	2.1225257	1.456889
27.797579288521973	2.1585844	1.4692122
27.815635020981784	2.433627	1.5600086
27.83369145793979	2.5124972	1.5850859
27.85174859992682	2.404311	1.5505841
27.869806447473923	2.2229853	1.4909679
27.887865001112267	1.9440178	1.3942804
27.905924261373233	1.9407597	1.3931115
27.92398422878836	1.9627181	1.4009705
27.94204490388936	1.8907217	1.3750352
27.96010628720813	1.8502488	1.3602386
27.978168379276728	1.8774741	1.3702095
27.9962311806274	1.9223431	1.3864859
28.014294691792568	1.8920193	1.3755069
28.0323589133048	1.8594615	1.3636208
28.050423845696887	1.8145535	1.3470536
28.068489489501758	1.8288307	1.3523427
28.086555845252523	1.8331892	1.3539532
28.104622913482487	1.8943151	1.3763412
28.122690694725115	1.8766437	1.3699064
28.14075918951405	1.9012759	1.3788676
28.15882839838312	1.9533113	1.3976091
28.176898321866304	2.035405	1.4266762
28.1949689604978	1.986154	1.4093097
28.213040314811945	1.9203334	1.3857609
28.23111238534327	1.9058459	1.3805238
28.249185172626493	1.9229226	1.3866949
28.267258677196473	1.9177543	1.3848301
28.285332899588294	1.9289634	1.3888713
28.303407840337172	1.9536111	1.3977164
28.321483499978545	1.9873791	1.4097444
28.33955987904799	1.9844118	1.4086915
28.357636978081285	2.0139499	1.419137
28.37571479761439	2.0324516	1.4256408
28.393793338183425	2.0722377	1.4395269
28.41187260032469	2.0499177	1.4317534
28.429952584574686	2.0361388	1.4269333
28.448033291470065	2.0391207	1.4279778
28.46611472154769	1.9722996	1.4043858
28.484196875344566	1.9203944	1.385783
28.502279753397914	1.9451919	1.3947014
28.52036335624511	2.00887	1.4173461
28.538447684423716	2.0381584	1.4276409
28.556532738471482	2.0542576	1.4332682
28.574618518926325	2.0149922	1.4195042
28.59270502632635	1.9613056	1.4004662
28.61079226120985	2.0015965	1.4147779
28.628880224115274	2.0042896	1.4157294
28.646968915581287	1.977395	1.4061987
28.66505833614671	1.9811296	1.407526
28.68314848635055	2.0125885	1.4186573
28.701239366732004	2.0290406	1.424444
28.71933097783044	2.0505097	1.4319601
28.737423320185403	2.1055045	1.4510356
28.75551639433665	2.1534848	1.4674757
28.773610200824074	2.1422322	1.4636366
28.791704740187793	2.0915456	1.4462177
28.80980001296809	2.1334636	1.460638
28.827896019705413	2.2251093	1.49168
28.845992760940433	2.2219715	1.4906279
28.86409023721397	2.2024355	1.4840605
28.88218844906704	2.233829	1.4945999
28.900287397040845	2.2298818	1.4932789
28.918387081676755	2.263975	1.5046511
28.936487503516343	2.2783263	1.5094125
28.954588663101365	2.2757404	1.5085558
28.97269056097374	2.3271756	1.5255083
28.990793197675597	2.3442829	1.5311052
29.00889657374923	2.3458457	1.5316154
29.027000689737125	2.329287	1.5262002
29.04510554618196	2.3799598	1.5427119
29.06321114362659	2.4379835	1.5614043
29.08131748261405	2.4667318	1.5705832
29.099424563687567	2.4858527	1.5766587
29.11753238739057	2.47724	1.573925
29.13564095426663	2.5626266	1.6008207
29.15375026485954	2.613048	1.6164925
29.171860319713275	2.6886277	1.6397035
29.18997111937199	2.753198	1.6592764
29.20808266438002	2.790788	1.6705651
29.226194955281898	2.8083515	1.6758137
29.244307992622335	2.8654351	1.6927596
29.26242177694624	2.8956842	1.701671
29.2805363087987	2.8427176	1.6860361
29.29865158872498	2.8234475	1.6803117
29.316767617270557	2.856007	1.6899725
29.334884394981064	2.8504758	1.6883352
29.353001922402367	2.9435303	1.715672
29.37112020008047	3.0341575	1.7418833
29.389239228561596	3.1058452	1.7623408
29.407359008392152	3.2470245	1.8019502
29.42547954011872	3.5360448	1.8804374
29.44360082428809	4.048278	2.0120332
29.46172286144722	4.9389687	2.222379
29.479845652143283	6.560801	2.5614061
29.497969196923606	9.21984	3.036419
29.516093496335728	12.996539	3.6050713
29.5342185509274	16.68833	4.085135
29.55234436124651	19.96125	4.4678016
29.570470927841175	21.535168	4.6405997
29.588598251259686	21.541767	4.6413107
29.60672633205055	19.989815	4.470997
29.624855170762405	16.671019	4.083016
29.642984767944146	13.087699	3.6176925
29.66111512414481	9.654176	3.107117
29.67924623991366	7.1311293	2.6704175
29.697378115800138	5.2282314	2.2865326
29.71551075235387	4.2268476	2.05593
29.733644150124675	3.758272	1.9386263
29.751778309662576	3.6027117	1.8980811
29.769913231517766	3.496363	1.8698564
29.78804891624066	3.4329576	1.8528242
29.806185364381818	3.4244199	1.8505188
29.82432257649206	3.4240308	1.8504137
29.842460553122333	3.381012	1.8387529
29.86059929482382	3.3101335	1.8193772
29.878738802147872	3.2626672	1.8062855
29.896879075646048	3.2573328	1.8048083
29.915020115870114	3.3163164	1.8210756
29.933161923371976	3.367678	1.8351234
29.951304498703777	3.3327017	1.8255689
29.969447842417857	3.2999108	1.8165656
29.987591955066733	3.2935007	1.8148005
30.005736837203123	3.2793045	1.810885
30.023882489379943	3.2269735	1.7963779
30.04202891215028	3.1198194	1.766301
30.060176106067455	3.082464	1.7556947
30.078324071684946	3.1146343	1.7648326
30.09647280955646	3.1983974	1.7884064
30.114622320235863	3.184509	1.7845193
30.132772604277257	3.1727936	1.7812338
30.1509236622349	3.1694613	1.7802981
30.16907549466328	3.1651525	1.7790875
30.18722810211705	3.0710907	1.7524527
30.205381485151097	3.0333471	1.7416507
30.22353564432045	3.0382864	1.7430681
30.241690580180403	3.0295422	1.740558
30.25984629328638	3.073046	1.7530105
30.278002784194037	3.036089	1.7424376
30.296160053459246	2.9805245	1.7264196
30.314318101638033	2.9499862	1.7175524
30.332476929286646	2.9405463	1.7148021
30.35063653696153	2.865649	1.6928228
30.368796925219307	2.8816726	1.697549
30.386958094616844	2.9404047	1.7147608
30.40512004571115	2.9264503	1.710687
30.423282779059463	2.8781757	1.6965187
30.441446295219233	2.8630936	1.6920679
30.459610594748067	2.8467436	1.6872295
30.47777567820382	2.7781873	1.6667895
30.495941546144504	2.7760625	1.666152
30.51410819912835	2.8296092	1.6821442
30.532275637713795	2.766768	1.6633605
30.55044386245946	2.8107994	1.6765438
30.56861287392416	2.8919334	1.7005686
30.586782672666956	2.8852272	1.6985956
30.604953259247047	2.8896415	1.6998945
30.623124634223885	2.8964896	1.7019076
30.641296798157075	2.8622553	1.6918201
30.659469751606462	2.808399	1.6758279
30.677643495132074	2.7801647	1.6673826
30.695818029294152	2.7510374	1.6586251
30.713993354653116	2.7277699	1.6515962
30.73216947176962	2.6911538	1.6404736
30.75034638120448	2.7310216	1.6525803
30.768524083518756	2.7364883	1.6542335
30.786702579273673	2.7556794	1.6600239
30.80488186903069	2.9258614	1.7105149
30.82306195335144	3.0372996	1.742785
30.841242832797782	3.2471216	1.8019772
30.85942450793176	3.6767411	1.917483
30.877606979315637	4.1009226	2.0250735
30.895790247511883	4.455927	2.1109066
30.913974313083134	4.8637295	2.2053864
30.932159176592283	5.292773	2.3006027
30.95034483860237	5.6537657	2.377765
30.968531299676698	5.587918	2.3638778
30.98671856037873	5.262949	2.2941117
31.00490662127215	4.7848196	2.187423
31.023095482920848	4.323142	2.0792167
31.04128514588892	3.7244174	1.929875
31.059475610740662	3.2066872	1.7907225
31.07766687804056	2.8319721	1.6828464
31.09585894835335	2.6216724	1.6191579
31.11405182224393	2.5208619	1.5877222
31.132245500277417	2.534925	1.5921447
31.15043998301914	2.5294268	1.5904171
31.168635271034628	2.4252656	1.5573264
31.18683136488964	2.4261925	1.557624
31.20502826515008	2.3948867	1.5475422
31.223225972382135	2.4588053	1.5680578
31.241424487152155	2.4910243	1.5782979
31.259623810026692	2.4701316	1.5716653
31.27782394157253	2.4123619	1.553178
31.296024882356644	2.3940384	1.547268
31.314226632946237	2.4297028	1.5587504
31.332429193908684	2.4460018	1.5639699
31.350632565811598	2.4160619	1.5543686
31.368836749222787	2.4565737	1.5673461
31.387041744710295	2.5303009	1.5906919
31.40524755284232	2.5015388	1.5816253
31.423454174187317	2.4138372	1.5536529
31.441661609313922	2.4108262	1.5526836
31.459869858791002	2.461309	1.5688559
31.478078923187628	2.4490676	1.5649498
31.496288803073064	2.4237244	1.5568315
31.514499499016807	2.394493	1.547415
31.532711011588546	2.3817275	1.5432847
31.550923341358178	2.312232	1.5206025
31.56913648889584	2.2318666	1.4939433
31.587350454771844	2.1385717	1.4623857
31.605565239556732	2.1961539	1.4819427
31.62378084382127	2.2874658	1.512437
31.641997268136382	2.3181798	1.522557
31.660214513073274	2.3482444	1.5323982
31.67843257920331	2.3491726	1.5327011
31.6966514670981	2.288593	1.5128096
31.71487117732944	2.2099755	1.4865986
31.733091710469346	2.231949	1.4939709
31.751313067090052	2.2820218	1.5106362
31.769535247764008	2.354353	1.5343901
31.787758253063878	2.3264213	1.525261
31.805982083562526	2.2671623	1.5057099
31.824206739833024	2.2113776	1.4870702
31.84243222244869	2.1433363	1.4640138
31.860658531983013	2.134023	1.4608295
31.878885669009737	2.2284336	1.4927939
31.897113634102784	2.2755857	1.5085044
31.91534242783632	2.2024846	1.484077
31.933572050784694	2.1795032	1.4763141
31.951802503522508	2.1791062	1.4761796
31.970033786624548	2.1103811	1.452715
31.988265900665834	2.0871007	1.4446801
32.006498846221575	2.1295547	1.4592994
32.02473262386724	2.200253	1.483325
32.04296723417845	2.218034	1.4893066
32.0612026777311	2.2325103	1.4941587
32.07943895510129	2.225291	1.491741
32.097676066865304	2.337137	1.5287697
32.115914013599685	2.2900088	1.5132775
32.13415279588115	2.2488406	1.4996135
32.152392414286666	2.187638	1.4790666
32.1706328693934	2.1376662	1.462076
32.18887416177875	2.0417273	1.4288902
32.20711629202032	2.0821755	1.4429746
32.225359260695924	2.1480021	1.4656065
32.243603068383614	2.1768384	1.4754113
32.26184771566166	2.1735399	1.474293
32.28009320310852	2.1686301	1.4726269
32.2983395313029	2.1055276	1.4510436
32.31658670082372	2.1251237	1.4577804
32.33483471225012	2.12682	1.4583621
32.35308356616143	2.1326144	1.4603473
32.371333263137245	2.141192	1.4632813
32.38958380375734	2.0640564	1.4366825
32.407835188601744	1.9527383	1.3974041
32.42608741825067	1.9021177	1.3791728
32.444340493284585	2.0038888	1.4155878
32.46259441428416	2.095591	1.4476156
32.48084918183028	2.048408	1.431226
32.49910479650405	2.0004811	1.4143836
32.51736125888683	2.12826	1.4588556
32.53561856956014	2.2380908	1.496025
32.5538767291058	2.1622171	1.4704479
32.572135738105764	2.0704844	1.4389178
32.59039559714228	2.0318274	1.4254218
32.608656306797776	2.0305195	1.424963
32.62691786765491	2.0004363	1.4143678
32.645180280296586	2.0005355	1.4144028
32.663443545305896	2.1009443	1.4494635
32.68170766326619	2.117451	1.4551463
32.69997263476099	2.0475996	1.4309436
32.7182384603741	2.0025218	1.4151049
32.7365051406895	1.9683355	1.4029738
32.75477267629144	1.9742681	1.4050865
32.77304106776434	2.008524	1.417224
32.79131031569289	2.1337612	1.46074
32.809580420661966	2.126501	1.4582528
32.827851383256714	2.0261526	1.4234298
32.84612320406245	1.9899063	1.4106404
32.86439588366476	1.9932681	1.4118315
32.88266942264945	1.9457726	1.3949095
32.9009438216025	1.9807262	1.4073827
32.9192190811102	1.9907438	1.4109372
32.937495201758985	1.9328051	1.3902535
32.95577218413556	1.910746	1.3822974
32.974050028826866	1.954342	1.3979778
32.992328736420035	2.0579765	1.434565
33.010608307502444	2.0405324	1.428472
33.02888874266169	1.9867898	1.4095353
33.047170042485604	2.0078611	1.4169902
33.06545220756225	1.9862522	1.4093446
33.083735238479896	1.9479378	1.3956854
33.10201913582707	1.8885323	1.3742388
33.12030390019248	1.8578957	1.3630465
33.138589532165135	1.9106234	1.382253
33.15687603233419	2.0333095	1.4259416
33.17516340128909	2.113435	1.4537659
33.19345163961947	2.1176128	1.455202
33.211740747915215	1.9751828	1.405412
33.23003072676643	1.8950472	1.3766072
33.248321576763466	1.9370977	1.3917966
33.266613298496885	1.9294688	1.3890532
33.28490589255747	1.9280627	1.388547
33.30319935953626	2.0597055	1.4351674
33.32149370002451	2.062346	1.436087
33.339788914613706	1.9532065	1.3975717
33.358085003895575	1.9352621	1.391137
33.376381968462034	2.0633864	1.4364493
33.39467980890529	2.0793276	1.4419874
33.41297852581774	2.0068014	1.4166162
33.43127811979204	1.9712007	1.4039946
33.44957859142105	2.0072856	1.416787
33.467879941297866	1.9575877	1.3991382
33.486182170015844	1.8266187	1.3515246
33.50448527816853	1.7897705	1.337823
33.522789266349754	1.8807018	1.3713868
33.541094135153514	1.8899337	1.3747486
33.55939988517411	1.8480538	1.3594314
33.57770651700602	1.8519162	1.3608513
33.59601403124398	1.9640632	1.4014504
33.61432242848296	1.9965284	1.4129857
33.632631709318154	1.930525	1.3894333
33.650941874344994	1.8654653	1.3658204
33.66925292415916	1.8350074	1.3546245
33.68756485935654	1.8770771	1.3700646
33.70587768053328	1.9098756	1.3819824
33.724191388285746	1.8312225	1.3532267
33.74250598321054	1.8051124	1.3435447
33.760821465904506	1.9189922	1.3852769
33.77913783696474	1.9898682	1.4106269
33.79745509698852	1.9526985	1.3973899
33.815773246573414	1.8951532	1.3766456
33.8340922863172	1.9510355	1.3967947
33.852412216817896	1.8696018	1.3673339
33.87073303867377	1.879445	1.3709285
33.889054752483304	1.9885535	1.4101608
33.907377358845245	2.1153657	1.4544297
33.92570085835853	2.1095798	1.4524393
33.94402525162239	2.0528286	1.4327695
33.96235053923627	2.006979	1.4166789
33.980676721799824	1.9527786	1.3974185
33.999003799912984	1.8595599	1.3636568
34.01733177417592	1.8476301	1.3592756
34.03566064518901	1.9881994	1.4100353
34.0539904135529	1.9230468	1.3867396
34.07232107986846	1.8545086	1.3618034
34.090652644736785	1.7797804	1.3340842
34.108985108759235	1.7991394	1.34132
34.12731847253742	1.9117447	1.3826586
34.14565273667313	1.9566646	1.3988082
34.16398790176847	2.00231	1.41503
34.18232396842574	2.0515518	1.4323239
34.20066093724749	2.0693505	1.4385238
34.21899880883651	1.951545	1.3969771
34.23733758379583	1.8867055	1.373574
34.25567726272874	2.0173497	1.4203343
34.27401784623872	2.0718606	1.4393959
34.29235933492957	1.9314549	1.3897679
34.31070172940526	1.7653606	1.3286687
34.32904503027003	1.836158	1.3550491
34.347389238128386	1.9894787	1.4104888
34.36573435358502	2.0188024	1.4208456
34.38408037724492	2.0640373	1.4366758
34.402427309713296	1.9082856	1.3814071
34.42077515159559	1.8842604	1.3726836
34.43912390349752	1.9724416	1.4044363
34.45747356602499	1.9665871	1.4023505
34.47582413978423	1.9024546	1.379295
34.49417562538163	1.8395205	1.3562893
34.51252802342388	1.923633	1.386951
34.53088133451789	2.0401073	1.4283233
34.54923555927084	1.9389482	1.3924612
34.567590698290104	1.8663172	1.3661321
34.58594675218336	1.8391985	1.3561705
34.6043037215585	1.7993368	1.3413936
34.62266160702365	1.811938	1.3460824
34.641020409187234	1.9837148	1.4084442
34.65938012865785	2.0716345	1.4393173
34.677740766044394	2.140778	1.4631398
34.69610232195598	2.1388156	1.462469
34.714464797002016	1.9560685	1.3985952
34.73282819179208	1.7711082	1.3308299
34.751192506936064	1.7104274	1.3078331
34.76955774304408	1.7674385	1.3294505
34.7879239007265	1.9296867	1.3891317
34.80629098059391	2.0991762	1.4488534
34.824658983257194	2.2119222	1.4872532
34.843027909327446	2.2355106	1.4951624
34.86139775941603	2.1200795	1.4560493
34.879768534134534	2.0708108	1.4390312
34.89814023409483	2.1195905	1.4558814
34.91651285990901	1.8995405	1.3782382
34.93488641218944	1.6361234	1.2791104
34.95326089154871	1.628167	1.2759964
34.97163629859967	1.767637	1.3295251
34.99001263395542	1.7451942	1.321058
35.00838989822934	1.6774749	1.2951736
35.02676809203499	1.7329108	1.3164006
35.04514721598624	1.8151667	1.3472812
35.063527270697215	1.8980201	1.3776865
35.081908256782256	2.033622	1.4260513
35.10029017485597	2.1614242	1.4701782
35.11867302553321	2.1648135	1.4713305
35.137056809429104	2.124062	1.4574162
35.155441527159006	2.072945	1.4397726
35.173827179338524	2.112751	1.4535306
35.19221376658354	2.191394	1.4803358
35.21060128951017	2.1588666	1.4693083
35.2289897487348	2.1991012	1.4829367
35.24737914487405	2.1893773	1.4796544
35.26576947854479	2.1669621	1.4720606
35.28416075036418	1.9680133	1.402859
35.30255296094958	1.7408344	1.3194069
35.32094611091867	1.7654269	1.3286936
35.33934020088932	1.8386257	1.3559593
35.35773523147969	1.9646269	1.4016515
35.3761312033082	2.0227962	1.4222504
35.394528116993506	1.9606829	1.4002439
35.41292597315452	2.0302966	1.4248848
35.431324772410434	1.9777814	1.4063362
35.449724515380666	1.895835	1.3768933
35.46812520268491	2.0184393	1.4207178
35.486526834943106	2.0470533	1.4307528
35.504929412775454	1.9861485	1.4093078
35.52333293680242	1.7445871	1.3208282
35.54173740764471	1.9083424	1.3814276
35.560142825923286	1.8525667	1.3610903
35.5785491922594	1.5907679	1.2612565
35.59695650727454	1.8971701	1.377378
35.61536477159042	2.20624	1.4853417
