0.008763373481513119	0.0	0.0
0.026290120649546365	0.0	0.0
0.043816868432600686	0.054749444	0.23398599
0.06134361724069026	0.15308686	0.39126316
0.07887036748382949	0.15838455	0.39797556
0.0963971195720331	0.14954107	0.3867054
0.11392387391531617	0.07314275	0.27044916
0.1314506309236943	0.044554487	0.21107934
0.1489773910071836	0.0996893	0.31573611
0.16650415457580078	0.18187204	0.4264646
0.18403092203956356	0.23134625	0.48098466
0.20155769380849	0.2084021	0.45651078
0.2190844702925996	0.14322336	0.37844864
0.2366112519019124	0.10058692	0.3171544
0.2541380390464497	0.11528188	0.33953187
0.27166483213623416	0.11973915	0.34603345
0.28919163158128947	0.16261744	0.40325853
0.3067184377916406	0.1663204	0.40782398
0.324245251177314	0.2428062	0.49275368
0.34177207214833777	0.23728281	0.48711684
0.3592989011147415	0.20774578	0.45579138
0.37682573848655654	0.12514286	0.35375535
0.39435258467381573	0.07062162	0.26574728
0.41187944008655414	0.06234837	0.24969655
0.42940630513480854	0.09410306	0.30676222
0.446933180228618	0.12434239	0.35262215
0.4644600657780234	0.11829702	0.34394333
0.48198696219306775	0.14916815	0.38622293
0.49951386988379676	0.14324139	0.37847245
0.5170407892602581	0.13491592	0.36730903
0.5345677207325025	0.16088228	0.40110132
0.5520946647105822	0.19739029	0.44428626
0.5696216216045534	0.2164467	0.46523833
0.5871485918244737	0.2131262	0.46165594
0.6046755757804043	0.16521987	0.40647247
0.6222025738824094	0.13363507	0.3655613
0.6397295865405557	0.1253025	0.35398093
0.6572566141649129	0.19120748	0.4372728
0.6747836571655547	0.21019119	0.45846614
0.6923107159525568	0.23477505	0.4845359
0.7098377909359992	0.25470373	0.5046818
0.7273648825259653	0.24928473	0.4992842
0.7448919911325411	0.22272715	0.47193977
0.762419117165817	0.18041772	0.42475608
0.7799462610358868	0.15948941	0.39936125
0.7974734231528482	0.17106794	0.4136036
0.8150006039268024	0.18271585	0.42745274
0.8325278037678551	0.17238477	0.41519246
0.8500550230861152	0.18248802	0.42718616
0.8675822622916969	0.20496541	0.45273107
0.8851095217947171	0.23526974	0.48504612
0.9026368020052984	0.2464089	0.49639592
0.9201641033335665	0.2396061	0.48949575
0.9376914261896523	0.24810055	0.4980969
0.9552187709836915	0.1996358	0.44680622
0.9727461381258234	0.1891486	0.43491217
0.990273528026193	0.19002149	0.43591455
1.0078009410949496	0.1986154	0.4456629
1.0253283777422473	0.23756008	0.48740137
1.0428558383782454	0.30335528	0.55077696
1.0603833234131086	0.34574535	0.58800113
1.0779108332570058	0.38850805	0.6233041
1.0954383683201119	0.337971	0.5813527
1.112965929012607	0.38548815	0.6208769
1.1304935157446763	0.49896792	0.7063766
1.1480211289265108	0.5548989	0.74491537
1.1655487689683062	1.4338226	1.1974233
1.1830764362802655	1.6627204	1.2894652
1.200604131272596	1.9983175	1.4136186
1.2181318543555117	2.1792266	1.4762204
1.235659605939232	2.2542665	1.5014215
1.253187386433982	4.221099	2.0545313
1.270715196249994	6.8242884	2.6123338
1.2882430357975057	12.17402	3.4891288
1.3057709054867608	16.551197	4.0683165
1.3232988057280106	22.241684	4.716109
1.3408267369315112	27.026955	5.1987453
1.358354699507526	30.685637	5.5394616
1.3758826938663256	34.513714	5.8748374
1.3934107204181858	36.443142	6.0368156
1.410938779573391	36.970966	6.0803757
1.4284668717422309	37.26385	6.1044126
1.4459949973350033	36.68701	6.0569806
1.4635231567620117	36.704144	6.0583944
1.4810513504335687	35.939396	5.9949474
1.4985795787599925	35.25293	5.937418
1.5161078421516088	34.551388	5.8780427
1.5336361410187505	34.32398	5.858667
1.5511644757717598	34.64168	5.8857183
1.5686928468209842	35.334587	5.94429
1.58622125457678	35.72556	5.977086
1.6037496994495108	36.663815	6.055065
1.621278181849548	36.842323	6.069788
1.6388067021872719	37.307926	6.1080213
1.6563352608730693	36.72869	6.06042
1.673863858317336	35.55115	5.9624786
1.6913924949304753	35.11118	5.925469
1.7089211711228998	33.950012	5.826664
1.7264498873050296	33.59565	5.7961755
1.7439786438872935	32.510086	5.7017617
1.7615074412801288	31.687	5.629121
1.779036279893981	30.98235	5.5661793
1.796565160139305	29.753965	5.4547195
1.814094082426564	29.232475	5.4067063
1.8316230471662298	28.399416	5.32911
1.849152054768784	27.975962	5.289231
1.8666811056447168	27.44952	5.2392287
1.8842102002045273	26.583094	5.1558795
1.901739338858724	25.920477	5.0912156
1.9192685220178245	25.310083	5.030913
1.9367977500923557	24.867054	4.9866877
1.9543270234928547	24.5783	4.9576507
1.971856342629867	23.569014	4.854793
1.9893857079139496	22.783253	4.7731805
2.006915119755667	22.156351	4.707053
2.0244445785655945	21.651478	4.653115
2.0419740847543175	21.11768	4.5953975
2.0595036387324317	20.767021	4.5570846
2.0770332409105414	20.4207	4.518927
2.094562891699263	20.00231	4.472394
2.1120925915092217	19.69072	4.4374228
2.129622340751053	19.22267	4.3843665
2.1471521398354043	187.52817	13.694093
2.1646819891729323	443.85797	21.067938
2.182211889174303	440.16052	20.980003
2.1997418402501974	452.7348	21.277565
2.2172718428113023	432.48553	20.796286
2.234801897268317	320.5566	17.904095
2.2523320040319548	17.075857	4.1322947
2.269862163512935	16.835981	4.103167
2.287392376121992	16.56566	4.0700936
2.304922642269869	16.160019	4.019953
2.322452962367322	15.884935	3.985591
2.3399833368251164	15.586735	3.948004
2.357513766054032	15.401686	3.924498
2.3750442504648586	15.083689	3.8837724
2.3925747904683963	14.5549345	3.815093
2.410105386475459	14.185166	3.76632
2.4276360388968707	13.828187	3.718627
2.445166748143469	13.729744	3.7053668
2.4626975146261025	13.592571	3.6868105
2.4802283387556323	13.571053	3.683891
2.4977592209429305	13.240954	3.6388123
2.5152901615988825	12.866423	3.5869796
2.5328211611343865	12.5542555	3.5431986
2.5503522199603523	12.267846	3.5025485
2.5678833384877024	12.080955	3.4757667
2.5854145171273712	11.991589	3.4628873
2.6029457562903064	11.896057	3.4490662
2.620477056387469	11.833183	3.4399395
2.6380084178298326	11.638781	3.4115658
2.655539841028383	11.368811	3.3717668
2.673071326394119	11.19235	3.3454971
2.6906028743380523	11.006058	3.3175378
2.708134485271211	10.716383	3.2735887
2.7256661596046325	10.480156	3.2373068
2.743197897749369	10.292748	3.2082314
2.760729700116486	10.180088	3.190625
2.778261567117063	10.00169	3.162545
2.795793499162193	9.956146	3.1553361
2.8133254966629817	9.83271	3.1357152
2.830857560030551	9.679837	3.1112437
2.8483896896760337	9.532911	3.0875413
2.865921886010578	9.458694	3.075499
2.883454149445347	9.447056	3.0736063
2.9009864803915177	9.371045	3.0612164
2.91851887926028	9.178671	3.029632
2.9360513464628384	9.045998	3.0076566
2.953583882410413	8.85442	2.9756377
2.9711164875142373	8.662078	2.9431407
2.9886491621855606	8.512245	2.9175751
3.0061819068356455	8.380547	2.8949172
3.023714721875769	8.367256	2.892621
3.041247607717225	8.287642	2.8788264
3.0587805647713213	8.205643	2.8645494
3.0763135934493806	8.145618	2.854053
3.0938466941627407	7.9610863	2.8215396
3.1113798673227544	7.8680806	2.8050098
3.1289131133407904	7.83319	2.7987835
3.1464464326282315	7.7134013	2.777301
3.1639798255964786	7.4974456	2.7381463
3.1815132926569443	7.333598	2.7080617
3.1990468342210603	7.295596	2.7010362
3.216580450700272	7.3650885	2.7138696
3.2341141425060416	7.425792	2.7250307
3.251647910049847	7.288606	2.6997418
3.2691817537431813	7.1293383	2.670082
3.286715673997555	7.0544105	2.656014
3.3042496712244938	7.0038643	2.6464815
3.32178374583554	7.0220075	2.649907
3.339317898242251	6.862551	2.6196473
3.3568521288562034	6.740689	2.5962837
3.3743864380889876	6.679934	2.5845568
3.3919208263522127	6.8276973	2.6129863
3.4094552940575023	6.881728	2.6233048
3.4269898416164972	6.822576	2.6120062
3.444524469440858	6.589501	2.5670023
3.4620591779422587	6.388882	2.527624
3.479593967532391	6.379142	2.5256963
3.4971288386229658	6.3645034	2.5227966
3.5146637916257086	6.376523	2.5251777
3.5321988269523628	6.3127027	2.5125093
3.5497339450146903	6.2109246	2.4921727
3.5672691462244708	6.251508	2.5003016
3.5848044309934988	6.273021	2.5046
3.60233979973359	6.2561646	2.5012326
3.619875252856575	6.1977606	2.48953
3.6374107907743034	6.206967	2.4913785
3.6549464138986427	6.164194	2.4827795
3.6724821226414788	6.197914	2.489561
3.690017917414714	6.183974	2.4867597
3.7075537986302702	6.13925	2.477751
3.7250897667000857	6.195855	2.4891474
3.7426258220361235	6.376576	2.5251882
3.7601619650503553	6.6812305	2.5848076
3.777698196154779	7.244212	2.6915073
3.7952345157614067	8.2214985	2.8673155
3.8127709242822716	8.928754	2.988102
3.830307422129425	10.927251	3.3056393
3.847844009714936	12.395382	3.5207076
3.8653806874508954	15.789523	3.9736032
3.882917455749409	15.477699	3.9341707
3.900454315022606	15.478823	3.9343135
3.917991265682631	12.452657	3.5288322
3.9355283081416506	10.54307	3.2470093
3.9530654428118495	8.54736	2.9235868
3.970602670105433	7.36157	2.7132213
3.9881399904346244	6.527291	2.5548563
4.005677404211669	6.4418044	2.538071
4.023214911848827	6.3228517	2.514528
4.0407525137583855	6.331876	2.516322
4.058290210352644	6.3908668	2.5280163
4.075828002043927	6.3191915	2.5138001
4.0933658892445814	6.265128	2.5030239
4.110903872366966	6.150548	2.4800298
4.128441951823468	6.092512	2.4683015
4.145980128026488	6.035384	2.456702
4.163518401388452	6.054083	2.4605045
4.181056772321807	6.0407267	2.457789
4.1985952412390155	6.1316924	2.4762254
4.216133808552567	6.2321424	2.4964259
4.233672474674966	6.3212004	2.5141997
4.251211240018741	6.5013757	2.5497797
4.268750104996445	6.6357007	2.5759854
4.286289070020643	7.5177975	2.7418602
4.303828135503928	9.16494	3.0273652
4.3213673018589125	29.505054	5.4318557
4.3389065694982305	90.76024	9.526816
4.356445938834537	165.82733	12.877397
4.3739854102805085	171.28703	13.087667
4.391524984248844	172.10359	13.118826
4.409064661152262	136.2362	11.672027
4.426604441403504	96.715805	9.834419
4.444144325415337	75.65533	8.698007
4.461684313600543	21.656435	4.6536474
4.47922440637193	22.03805	4.69447
4.496764604142329	20.328928	4.5087614
4.5143049073245916	18.495262	4.300612
4.531845316331589	16.266079	4.0331225
4.5493858315762195	13.436986	3.6656494
4.566926453471405	11.090714	3.3302724
4.584467182430081	9.185178	3.030706
4.602008018865218	7.9996357	2.8283627
4.619548963189798	7.3363376	2.7085674
4.637090015816834	6.8804765	2.6230662
4.654631177159353	6.591654	2.5674217
4.672172447630417	6.3186545	2.5136933
4.689713827643102	6.1297555	2.4758344
4.7072553176105085	6.0593653	2.461578
4.724796917945764	5.88283	2.4254546
4.742338629062015	5.685507	2.3844302
4.759880451372434	5.5231977	2.3501484
4.777422385290215	5.4958873	2.3443308
4.794964431228581	5.556759	2.3572779
4.812506589600768	5.6186256	2.370364
4.830048860820047	5.6377	2.3743842
4.847591245299709	5.55864	2.3576767
4.8651337434530655	5.563009	2.3586032
4.882676355693457	5.4873776	2.3425152
4.900219082434242	5.5493894	2.355714
4.917761924088813	5.557025	2.3573344
4.935304881070575	5.5664415	2.3593307
4.952847953792969	5.534106	2.352468
4.970391142669449	5.4811773	2.3411915
4.9879344481135055	5.359465	2.3150518
5.005477870538642	5.2685504	2.2953322
5.023021410358394	5.286378	2.2992125
5.040565067986324	5.3873324	2.3210628
5.05810884383601	5.3957663	2.3228788
5.075652738321066	5.277375	2.2972538
5.09319675185512	5.285666	2.2990577
5.110740884851836	5.3715796	2.3176668
5.128285137724894	5.412611	2.3265018
5.145829510888007	5.2949653	2.301079
5.163374004754908	5.1704235	2.2738566
5.1809186197393595	5.2037735	2.281178
5.198463356255145	5.2522564	2.2917802
5.216008214716077	5.297093	2.3015413
5.233553195535998	5.237382	2.2885327
5.251098299128764	5.1468005	2.268656
5.268643525908272	5.1228223	2.2633653
5.286188876288432	5.1286383	2.2646496
5.3037343506831895	5.148001	2.2689207
5.32127994950651	5.0922666	2.2566051
5.3388256731723915	5.0358496	2.2440698
5.356371522094851	5.071519	2.2520032
5.373917496687938	5.1358333	2.2662377
5.391463597365729	5.1479087	2.2689004
5.40900982454232	5.094884	2.257185
5.426556178631843	5.0676365	2.251141
5.444102660048449	5.045488	2.2462163
5.4616492692063225	5.0324306	2.243308
5.479196006519669	5.0721917	2.2521527
5.496742872402727	5.111788	2.2609262
5.514289867269756	5.099288	2.2581604
5.531836991535049	5.1365204	2.2663894
5.549384245612924	5.0691366	2.2514744
5.566931629917724	5.1377544	2.2666614
5.584479144863822	5.112101	2.2609956
5.6020267908656205	5.0972433	2.2577076
5.619574568337545	5.0612197	2.2497156
5.637122477694054	5.0102024	2.2383482
5.654670519349629	4.971878	2.229771
5.672218693718784	5.009037	2.238088
5.689767001216059	5.019657	2.2404592
5.707315442256021	5.0166163	2.2397804
5.724864017253266	5.0158386	2.2396069
5.7424127266224225	5.131631	2.2653103
5.75996157077814	5.1790824	2.2757597
5.777510550135105	5.193566	2.2789397
5.795059665108022	5.117407	2.2621686
5.812608916111639	5.082228	2.2543797
5.830158303560715	5.1606064	2.2716968
5.847707827870055	5.2153277	2.2837093
5.86525748945448	5.2709045	2.295845
5.8828072887288485	5.353341	2.3137288
5.900357226108044	5.4759736	2.3400798
5.917907302006979	5.614567	2.3695078
5.9354575168406	6.256234	2.5012465
5.9530078710238765	6.825878	2.6126382
5.970558364971812	7.3104	2.7037752
5.988108999099438	7.659427	2.767567
6.005659773821818	8.116506	2.8489482
6.023210689554039	7.8160033	2.7957115
6.040761746711227	8.146171	2.8541498
6.058312945708531	7.5791283	2.7530217
6.075864286961132	7.170904	2.6778543
6.093415770884244	6.5986958	2.5687926
6.1109673978931065	6.053205	2.4603262
6.128519168402993	5.473043	2.3394535
6.146071082829204	5.3436537	2.3116343
6.163623141587075	5.2096195	2.282459
6.181175345091969	5.127928	2.2644928
6.198727693759281	5.062824	2.250072
6.216280188004435	5.087873	2.2556314
6.233832828242885	5.054771	2.2482817
6.251385614890126	5.0359445	2.244091
6.268938548361669	4.995737	2.2351146
6.286491629073067	4.94286	2.2232544
6.304044857439898	4.9312754	2.2206476
6.321598233877777	4.8780923	2.2086403
6.339151758802344	4.806625	2.1924016
6.356705432629277	4.801701	2.1912785
6.37425925577428	4.8234334	2.1962316
6.391813228653095	4.875667	2.2080913
6.409367351681486	4.88099	2.2092962
6.426921625275259	4.929554	2.22026
6.44447604985025	4.926588	2.2195919
6.46203062582232	4.958507	2.2267706
6.47958535360737	4.8875923	2.21079
6.497140233621328	4.8533163	2.2030244
6.514695266280161	4.865043	2.2056842
6.532250451999859	4.8694077	2.2066734
6.549805791196454	4.910509	2.215967
6.567361284286002	4.959061	2.2268949
6.584916931684597	5.03199	2.2432098
6.602472733808367	4.92438	2.2190943
6.6200286910734665	4.8762336	2.2082195
6.637584803896092	4.8294554	2.1976023
6.655141072692462	4.8712854	2.207099
6.672697497878842	4.935675	2.221638
6.690254079871514	4.9139924	2.2167528
6.707810819086808	4.9331074	2.22106
6.725367715941078	4.9363556	2.221791
6.742924770850719	4.960404	2.2271965
6.760481984232151	4.979844	2.2315564
6.778039356501836	4.9835696	2.232391
6.795596888076266	4.975887	2.2306695
6.813154579371963	4.9842944	2.2325532
6.830712430805492	4.948425	2.2245054
6.84827044279344	4.932741	2.2209775
6.865828615752445	4.8972416	2.2129712
6.883386950099159	4.901179	2.2138605
6.900945446250287	4.8807406	2.2092397
6.918504104622553	4.9213033	2.218401
6.936062925632727	4.982957	2.2322538
6.953621909697607	4.991171	2.234093
6.971181057234028	5.0255046	2.2417638
6.988740368658859	5.0185046	2.240202
7.006299844389007	5.118462	2.2624018
7.023859484841407	5.2264757	2.2861485
7.041419290433036	5.287669	2.2994933
7.058979261580902	5.326045	2.3078225
7.0765393987020495	5.559062	2.3577664
7.094099702213559	5.947668	2.4387841
7.111660172532549	6.3875585	2.5273619
7.129220810076164	6.7724323	2.6023898
7.146781615261595	7.366247	2.7140832
7.16434258850606	7.5788937	2.752979
7.181903730226821	7.9620824	2.8217163
7.1994650408411704	8.077277	2.842055
7.217026520766437	8.238168	2.870221
7.234588170419983	8.471133	2.910521
7.252149990219215	8.356349	2.890735
7.269711980581568	8.310796	2.8828452
7.2872741419245175	8.1575775	2.8561473
7.304836474665574	7.813437	2.7952526
7.322398979222286	7.502655	2.7390976
7.339961656012233	7.180135	2.6795774
7.357524505453039	6.73641	2.5954595
7.375087527962357	6.476017	2.544802
7.392650723957886	6.187818	2.4875326
7.410214093857353	5.919896	2.4330838
7.427777638078528	5.6674547	2.3806417
7.445341357039213	5.4886456	2.3427858
7.4629052511572525	5.3282866	2.3083081
7.480469320850524	5.1990595	2.2801447
7.498033566536948	5.1807766	2.2761319
7.5155979886344735	5.1393948	2.2670233
7.5331625875610975	5.1235447	2.2635248
7.550727363734844	5.121712	2.26312
7.568292317573788	5.110606	2.260665
7.585857449496025	5.148379	2.2690039
7.603422759919705	5.089632	2.2560213
7.620988249263007	5.0826697	2.2544777
7.638553917944147	5.058367	2.2490814
7.656119766381391	5.124521	2.2637405
7.673685794993023	5.195321	2.2793248
7.691252004197388	5.228182	2.2865217
7.70881839441285	5.1812725	2.2762408
7.726384966057826	5.198105	2.2799354
7.743951719550762	5.18086	2.2761502
7.761518655310149	5.158597	2.2712545
7.779085773754511	5.1803026	2.276028
7.796653075302419	5.185015	2.277063
7.814220560372475	5.222142	2.2852006
7.831788229383323	5.1850767	2.2770762
7.8493560827536495	5.1283913	2.2645953
7.866924120902174	5.13253	2.265509
7.884492344247663	5.200427	2.2804444
7.9020607532089135	5.3191276	2.3063233
7.919629348204771	5.3609514	2.315373
7.937198129654115	5.3460536	2.3121533
7.954767097975865	5.3376875	2.3103435
7.972336253588986	5.334561	2.3096669
7.989905596912472	5.3137054	2.3051476
8.007475128365371	5.2729483	2.2962902
8.025044848366756	5.3205395	2.3066294
8.042614757335754	5.488768	2.342812
8.060184855691523	5.6113014	2.3688185
8.07775514385327	5.7387295	2.3955646
8.095325622240228	5.778888	2.4039319
8.112896291271687	5.7857404	2.4053566
8.130467151366968	5.8092117	2.4102306
8.148038202945436	5.8168015	2.4118047
8.165609446426497	5.851533	2.4189942
8.183180882229594	5.883919	2.425679
8.200752510774217	5.857232	2.420172
8.218324332479893	5.8515763	2.4190032
8.235896347766193	5.8515697	2.4190018
8.253468557052724	5.862479	2.4212558
8.27104096075914	5.904339	2.4298844
8.288613559305137	5.9526668	2.4398088
8.306186353110448	6.023643	2.4543111
8.32375934259485	6.0613995	2.461991
8.341332528178162	6.162934	2.4825256
8.358905910280246	6.2161794	2.4932268
8.376479489321003	6.171374	2.484225
8.394053265720377	6.2282505	2.4956462
8.411627239898356	6.1898446	2.4879398
8.42920141227497	6.1780543	2.4855692
8.44677578327029	6.120748	2.4740145
8.464350353304427	6.1257763	2.4750307
8.48192512279754	6.1500635	2.479932
8.499500092169827	6.1128635	2.4724207
8.51707526184153	6.011434	2.4518225
8.534650632232934	5.9816384	2.4457388
8.552226203764365	6.051461	2.459972
8.569801976856192	6.1530795	2.4805403
8.587377951928834	6.25019	2.500038
8.60495412940274	6.235575	2.4971135
8.622530509698416	6.246412	2.4992824
8.6401070932364	6.360815	2.5220656
8.657683880437283	6.459576	2.5415697
8.675260871721695	6.6300063	2.57488
8.692838067510303	6.813339	2.6102374
8.710415468223834	6.9272933	2.6319752
8.727993074283043	7.009375	2.6475224
8.745570886108737	7.0114985	2.6479235
8.763148904121765	7.0884066	2.6624062
8.78072712874302	7.164066	2.6765773
8.798305560393441	7.4438663	2.728345
8.815884199494006	7.66182	2.7679992
8.833463046465745	7.780387	2.7893345
8.851042101729728	7.898041	2.8103454
8.86862136570707	8.119823	2.8495305
8.886200838818924	8.295627	2.880213
8.903780521486505	8.316546	2.8838422
8.921360414131055	8.460272	2.9086547
8.938940517173874	8.582146	2.92953
8.956520831036297	8.773953	2.962086
8.97410135613971	9.029641	3.0049362
8.99168209290554	9.25698	3.0425286
9.009263041755265	9.443392	3.0730102
9.026844203110405	9.60709	3.0995307
9.044425577392525	9.698612	3.1142595
9.062007165023239	9.782483	3.127696
9.079588966424197	10.046479	3.1696181
9.097170982017108	10.131953	3.1830728
9.11475321222372	11.088367	3.32992
9.132335657465825	12.037166	3.469462
9.149918318165264	12.20054	3.492927
9.167501194743924	12.696376	3.5631974
9.18508428762374	12.299767	3.5071023
9.202667597226693	12.237398	3.4981992
9.220251123974803	11.918386	3.4523015
9.237834868290143	11.681446	3.417813
9.255418830594836	11.542314	3.397398
9.273003011311046	11.021428	3.3198535
9.290587410860985	10.802033	3.2866447
9.308172029666911	10.15838	3.1872213
9.32575686815113	9.914628	3.1487503
9.343341926735997	8.676712	2.945626
9.360927205843916	8.443814	2.9058242
9.378512705897327	8.243967	2.8712308
9.396098427318728	8.006352	2.8295498
9.413684370530664	7.9447393	2.8186414
9.431270535955722	7.7920394	2.7914224
9.448856924016539	7.7020545	2.7752576
9.466443535135806	7.560859	2.7497017
9.484030369736251	7.6045623	2.757637
9.501617428240658	7.579886	2.7531593
9.519204711071852	7.5483575	2.7474275
9.536792218652714	7.590715	2.7551253
9.55437995140617	7.7277627	2.7798853
9.571967909755191	7.8087006	2.7944052
9.589556094122802	7.774633	2.788303
9.60714450493207	7.7969565	2.792303
9.624733142606116	7.8458424	2.801043
9.642322007568108	7.887607	2.8084884
9.659911100241267	7.9148755	2.8133388
9.677500421048851	7.9246697	2.815079
9.695089970414175	7.9349217	2.8168993
9.712679748760609	7.894166	2.809656
9.730269756511557	7.8878655	2.8085344
9.747859994090492	8.012682	2.8306682
9.765450461920915	8.161023	2.8567505
9.78304116042639	8.208941	2.865125
9.800632090030527	8.23555	2.8697648
9.81822325115699	8.245878	2.8715637
9.835814644229481	8.301877	2.8812978
9.853406269671762	8.232307	2.8691998
9.870998127907646	8.237451	2.870096
9.888590219360985	8.189172	2.8616729
9.906182544455698	8.188622	2.861577
9.923775103615734	8.136689	2.8524883
9.941367897265108	8.162043	2.8569288
9.958960925827878	8.156003	2.8558717
9.97655418972816	8.115577	2.8487852
9.994147689390106	8.139887	2.8530488
10.011741425237934	8.128119	2.8509858
10.029335397695904	8.139274	2.8529413
10.04692960718833	8.077399	2.8420765
10.06452405413958	8.072215	2.8411644
10.082118738974064	8.045172	2.8364012
10.099713662116246	8.051432	2.8375044
10.117308823990651	8.075173	2.841685
10.134904225021844	8.066342	2.8401308
10.152499865634445	8.077905	2.8421655
10.170095746253125	8.090462	2.8443737
10.18769186730261	8.117545	2.8491306
10.205288229207675	8.087827	2.8439105
10.222884832393145	8.071883	2.841106
10.2404816772839	8.02965	2.8336637
10.258078764304868	8.02966	2.8336656
10.275676093881035	7.9686027	2.8228714
10.293273666437438	7.963743	2.8220105
10.310871482399158	8.038238	2.8351786
10.32846954219134	8.095284	2.8452213
10.346067846239173	8.128012	2.8509667
10.363666394967908	8.016757	2.8313878
10.38126518880283	8.015873	2.8312316
10.398864228169298	8.08169	2.8428314
10.416463513492713	8.219428	2.8669546
10.434063045198531	8.20815	2.864987
10.451662823712262	8.124585	2.8503659
10.469262849459467	8.011542	2.8304667
10.486863122865758	7.8589478	2.8033814
10.504463644356806	7.889735	2.8088672
10.522064414358338	7.851449	2.8020437
10.539665433296118	7.8665824	2.8047428
10.557266701595987	7.901683	2.8109932
10.574868219683818	7.7993326	2.7927284
10.592469987985552	7.6954947	2.7740755
10.610072006927185	7.526942	2.7435272
10.627674276934751	7.464788	2.7321763
10.64527679843435	7.4031625	2.7208753
10.662879571852143	7.258745	2.6942058
10.680482597614331	7.1397376	2.6720288
10.698085876147173	7.008863	2.6474257
10.715689407876988	6.8966594	2.6261492
10.733293193230146	6.723711	2.5930119
10.750897232633072	6.64544	2.5778751
10.76850152651225	6.5793934	2.5650327
10.786106075294207	6.553017	2.5598862
10.803710879405534	6.4782124	2.5452332
10.821315939272877	6.401513	2.530121
10.83892125532294	6.31759	2.5134816
10.856526827982472	6.227828	2.4955616
10.874132657678285	6.187513	2.487471
10.891738744837243	6.1306167	2.4760082
10.909345089886271	6.097476	2.4693067
10.926951693252343	6.064578	2.4626365
10.944558555362494	5.9970202	2.4488814
10.96216567664381	5.8876896	2.4264562
10.979773057523436	5.818002	2.4120536
10.997380698428573	5.766016	2.401253
11.014988599786477	5.6534915	2.3777072
11.032596762024461	5.586578	2.3635943
11.050205185569892	5.5629096	2.358582
11.067813870850198	5.5344877	2.3525493
11.085422818292859	5.4678836	2.3383505
11.10303202832541	5.3698745	2.317299
11.120641501375454	5.2791543	2.297641
11.138251237870636	5.24326	2.2898166
11.155861238238671	5.21096	2.2827528
11.173471502907317	5.215818	2.2838166
11.191082032304402	5.124931	2.263831
11.208692826857805	5.048252	2.2468317
11.226303886995465	5.005176	2.237225
11.243915213145371	4.987914	2.2333639
11.261526805735578	4.9246373	2.2191525
11.279138665194196	4.819549	2.195347
11.296750791949393	4.767782	2.183525
11.314363186429393	4.7737207	2.1848845
11.331975849062479	4.747503	2.1788764
11.34958878027699	4.660961	2.158926
11.36720198050133	4.5772214	2.139444
11.384815450163948	4.5197797	2.1259773
11.402429189693366	4.4650617	2.1130693
11.420043199518153	4.3751636	2.091689
11.437657480066942	63.294228	7.955767
11.455272031768422	85.03816	9.221614
11.472886855051353	107.49798	10.368123
11.490501950344528	99.11005	9.955403
11.508117318076819	84.47694	9.1911335
11.52573295867715	45.833614	6.770053
11.543348872574514	4.1651754	2.0408762
11.560965060197946	4.097388	2.0242004
11.57858152197655	4.0511274	2.0127413
11.59619825833949	3.9872358	1.9968064
11.613815269715985	3.9350872	1.9837054
11.631432556535323	38.39552	6.1964116
11.649050119226837	82.944595	9.107392
11.666667958219929	93.37862	9.663261
11.68428607394406	107.66197	10.376029
11.701904466828756	82.45902	9.080695
11.719523137303586	65.302704	8.081009
11.737142085798196	4.4910507	2.11921
11.754761312742286	3.6175845	1.9019948
11.772380818565619	3.584588	1.8933009
11.790000603698015	3.5873075	1.8940189
11.80762066856935	3.5522444	1.8847399
11.825241013609572	3.4667342	1.8619168
11.842861639248683	3.4727988	1.8635447
11.860482545916748	3.4589586	1.8598276
11.878103734043883	3.4910524	1.8684359
11.895725204060282	3.4447467	1.8560029
11.91334695639619	3.4288814	1.8517239
11.930968991481919	3.4050276	1.8452717
11.948591309747824	3.3537366	1.831321
11.966213911624347	3.3008695	1.8168296
11.98383679754198	3.287613	1.8131776
12.001459967931268	3.2562935	1.8045202
12.019083423222835	3.225802	1.7960517
12.036707163847352	3.172282	1.7810901
12.05433119023556	3.157139	1.776834
12.071955502818259	3.1696968	1.7803643
12.089580102026313	3.1708603	1.7806909
12.107204988290643	3.1093433	1.763333
12.12483016204224	3.0843658	1.7562363
12.142455623712152	3.1133516	1.7644693
12.16008137373149	3.1079023	1.7629243
12.177707412531431	3.0762944	1.7539369
12.19533374054321	3.0257747	1.7394754
12.212960358198126	3.0280037	1.740116
12.230587265927545	3.0455413	1.745148
12.248214464162889	3.0408134	1.7437929
12.265841953335649	3.0286057	1.740289
12.283469733877375	3.006838	1.7340237
12.301097806219685	2.9748688	1.7247808
12.31872617079425	2.933459	1.7127343
12.336354828032825	2.9126515	1.7066492
12.353983778367205	2.9054496	1.704538
12.371613022229262	2.9067955	1.7049327
12.389242560050928	2.898293	1.7024374
12.406872392264201	2.8873556	1.6992221
12.424502519301143	2.8958068	1.701707
12.442132941593874	2.8820913	1.6976724
12.459763659574586	2.8360019	1.6840433
12.477394673675532	2.8630657	1.6920596
12.49502598432903	2.8588493	1.6908132
12.51265759196746	2.84244	1.6859537
12.530289497023267	2.7987156	1.6729362
12.547921699928967	2.7829847	1.668228
12.565554201117134	2.7927055	1.671139
12.583187001020404	2.7674258	1.6635581
12.600820100071486	2.7384274	1.6548195
12.618453498703152	2.7511332	1.658654
12.636087197348235	2.7538612	1.6594762
12.65372119643964	2.7734056	1.6653545
12.671355496410326	2.7667186	1.6633456
12.68899009769333	2.790643	1.6705217
12.706625000721749	2.8375723	1.6845095
12.724260205928752	2.8945017	1.7013235
12.741895713747551	2.9080606	1.7053037
12.759531524611454	2.92802	1.7111458
12.777167638953818	2.915106	1.7073681
12.794804057208072	2.9340224	1.7128989
12.812440779807702	2.9787738	1.7259125
12.830077807186271	3.1815608	1.783693
12.847715139777405	3.2035053	1.7898339
12.865352778014795	3.3828285	1.8392467
12.882990722332197	3.4966304	1.8699279
12.90062897316344	3.613905	1.9010273
12.918267530942412	3.731377	1.9316772
12.935906396103071	3.6243095	1.903762
12.953545569079449	3.758679	1.9387313
12.971185050305628	3.5509403	1.8843939
12.988824840215775	3.510871	1.8737319
13.006464939244115	3.502287	1.8714398
13.024105347824943	3.3555012	1.8318027
13.041746066392617	3.4967563	1.8699616
13.05938709538157	3.3155024	1.8208522
13.077028435226296	3.3285425	1.8244294
13.094670086361363	3.201741	1.789341
13.112312049221401	3.1529336	1.7756501
13.129954324241112	3.084828	1.7563678
13.147596911855258	2.9152281	1.7074039
13.165239812498685	2.879793	1.6969953
13.182883026606293	2.7699332	1.6643116
13.200526554613058	2.7148066	1.647667
13.218170396954017	2.6450193	1.6263515
13.235814554064284	2.640132	1.6248482
13.253459026379034	2.6327527	1.6225759
13.271103814333523	2.6417754	1.6253539
13.288748918363058	2.6993682	1.6429754
13.306394338903031	2.6932976	1.641127
13.32404007638889	2.701067	1.6434923
13.341686131256164	2.6672256	1.6331643
13.359332503940449	2.6516407	1.6283859
13.376979194877402	2.6621597	1.6316127
13.394626204502751	2.7270226	1.6513699
13.412273533252307	2.7488058	1.6579523
13.429921181561937	2.7294705	1.6521109
13.447569149867581	2.6782038	1.6365218
13.465217438605247	2.6585402	1.630503
13.482866048211022	2.6539407	1.629092
13.500514979121052	2.6693363	1.6338104
13.518164231771568	2.663611	1.6320573
13.535813806598844	2.6866906	1.6391127
13.553463704039254	2.6883538	1.6396201
13.571113924529229	2.6756527	1.6357423
13.588764468505275	2.623669	1.6197743
13.606415336403956	2.6650796	1.6325072
13.624066528661917	2.6841657	1.6383424
13.641718045715882	2.7768786	1.6663969
13.659369888002635	2.818169	1.6787404
13.67702205595903	2.878921	1.6967384
13.694674550021993	2.953171	1.7184793
13.712327370628532	3.0009825	1.7323344
13.729980518215713	3.083872	1.7560956
13.747633993220681	3.125671	1.7679567
13.765287796080647	3.1828516	1.7840548
13.7829419272329	3.2072446	1.7908782
13.800596387114801	3.242621	1.8007278
13.818251176163775	3.2649508	1.8069174
13.835906294817324	3.296216	1.8155484
13.853561743513023	3.335568	1.8263538
13.871217522688525	3.391306	1.8415499
13.888873632781538	3.4287913	1.8516996
13.906530074229858	3.473395	1.8637047
13.92418684747135	3.4729226	1.8635778
13.941843952943948	3.4799278	1.8654565
13.959501391085665	3.4488585	1.8571103
13.977159162334578	3.3775127	1.8378011
13.994817267128846	3.3224177	1.8227501
14.012475705906693	3.2142088	1.7928215
14.030134479106424	3.136345	1.7709728
14.047793587166414	3.0758176	1.7538009
14.065453030525108	3.0283637	1.7402195
14.083112809621026	2.9898252	1.7291111
14.100772924892766	2.9095316	1.705735
14.118433376778997	2.8712227	1.6944683
14.136094165718458	2.8267221	1.6812859
14.153755292149969	2.7848213	1.6687784
14.171416756512416	2.7321846	1.6529322
14.189078559244768	2.6315093	1.6221927
14.20674070078606	2.5570576	1.5990802
14.224403181575408	2.4750714	1.573236
14.242066002051999	2.3886008	1.5455099
14.259729162655093	2.3568375	1.5351995
14.277392663824022	2.3440695	1.5310354
14.295056505998208	2.365441	1.537999
14.312720689617128	2.3921826	1.5466682
14.330385215120348	2.4358172	1.5607105
14.348050082947497	2.4214027	1.5560857
14.3657152935383	2.3801107	1.5427607
14.383380847332528	2.3438263	1.530956
14.401046744770051	2.3502674	1.5330582
14.418712986290798	2.4001646	1.5492464
14.436379572334793	2.402922	1.5501361
14.454046503342123	2.39156	1.546467
14.471713779752946	2.385455	1.5444918
14.489381402007504	2.3899217	1.5459372
14.507049370546113	2.3723211	1.5402341
14.524717685809168	2.3775964	1.5419457
14.542386348237134	2.4034061	1.5502923
14.560055358270553	2.40144	1.549658
14.577724716350051	2.3836849	1.5439187
14.595394422916325	2.3492837	1.5327374
14.61306447841015	2.3627808	1.5371339
14.63073488327237	2.4317462	1.5594057
14.648405637943917	2.477414	1.5739802
14.6660767428658	2.4558794	1.5671246
14.683748198479094	2.4709291	1.571919
14.701420005224954	2.5310388	1.5909239
14.719092163544628	2.6199687	1.6186317
14.73676467387942	2.6737092	1.635148
14.754437536670727	2.6878514	1.6394668
14.772110752360014	2.6697426	1.6339347
14.78978432138882	2.6574953	1.6301826
14.807458244198777	2.6773374	1.6362572
14.82513252123159	2.6581824	1.6303933
14.842807152929028	2.653819	1.6290547
14.860482139732962	2.6429129	1.6257038
14.87815748208531	2.6263082	1.6205889
14.8958331804281	2.6346538	1.6231617
14.91350923520342	2.6012118	1.6128273
14.931185646853438	2.5992777	1.6122276
14.948862415820408	2.6052911	1.6140914
14.966539542546656	2.6195762	1.6185105
14.98421702747459	2.6223352	1.6193626
15.001894871046696	2.6350691	1.6232896
15.019573073705542	2.635207	1.623332
15.037251635893766	2.6134548	1.6166183
15.054930558054092	2.6198442	1.6185933
15.072609840629323	2.6527672	1.6287317
15.090289484062351	2.7815676	1.6678032
15.107969488796124	2.9496574	1.7174567
15.125649855273691	3.1502042	1.7748815
15.14333058393817	3.4875278	1.8674924
15.161011675232768	4.0211234	2.0052738
15.17869312960076	4.7330747	2.175563
15.196374947485506	5.45083	2.3347013
15.214057129330447	6.769516	2.6018293
15.231739675579114	8.876247	2.9793031
15.249422586675102	13.43998	3.6660578
15.267105863062092	17.916212	4.2327547
15.284789505183847	25.007019	5.000702
15.302473513484218	29.74988	5.454345
15.320157888407127	33.79292	5.8131676
15.337842630396578	32.4946	5.700403
15.355527739896656	29.676666	5.4476295
15.37321321735153	23.104053	4.806668
15.39089906320545	15.805549	3.9756193
15.408585277902748	10.122255	3.1815493
15.42627186188783	6.2486243	2.4997249
15.443958815605198	4.527621	2.1278207
15.461646139499424	3.7701232	1.9416806
15.479333834015168	3.3413749	1.8279428
15.497021899597165	3.0843923	1.7562438
15.514710336690234	2.8805332	1.6972134
15.53239914573928	2.7622764	1.6620097
15.550088327189297	2.6646316	1.6323699
15.567777881485336	2.5634167	1.6010674
15.58546780907256	2.4855008	1.5765471
15.6031581103962	2.4571655	1.5675348
15.620848785901568	2.4377496	1.5613295
15.638539836034063	2.4504666	1.5653967
15.656231261239173	2.4366343	1.5609722
15.673923061962451	2.4334857	1.5599633
15.691615238649552	2.3798041	1.5426614
15.709307791746202	2.378387	1.542202
15.727000721698221	2.3889992	1.5456388
15.744694028951498	2.4030473	1.5501765
15.76238771395202	2.418763	1.5552373
15.780081777145844	2.4038935	1.5504495
15.797776218979125	2.406115	1.5511657
15.815471039898094	2.431902	1.5594556
15.833166240349064	2.4463384	1.5640775
15.850861820778437	2.4242105	1.5569876
15.868557781632699	2.4158711	1.5543073
15.886254123358412	2.4490385	1.5649405
15.903950846402232	2.4888818	1.5776191
15.921647951210897	2.5266023	1.5895289
15.939345438231225	2.5260267	1.5893478
15.957043307910133	2.497186	1.5802487
15.974741560694602	2.4672735	1.5707557
15.992440197031714	2.4762766	1.573619
16.01013921736862	2.4902642	1.578057
16.02783862215259	2.501867	1.5817292
16.045538411830933	2.472661	1.5724697
16.06323858685107	2.462339	1.5691842
16.080939147660512	2.3982115	1.5486159
16.09864009470684	2.4050293	1.5508157
16.11634142843774	2.4056516	1.5510163
16.134043149300954	2.4258585	1.5575168
16.15174525774433	2.4249282	1.5572181
16.169447754215817	2.4382064	1.5614758
16.18715063916342	2.4684918	1.5711435
16.204853913035244	2.513216	1.5853126
16.222557576279478	2.5176122	1.5866985
16.240261629344403	22.473309	4.740602
16.257966072678386	42.947937	6.5534678
16.275670906729868	38.0285	6.166725
16.293376131947387	2.4622288	1.569149
16.31108174877957	2.4854255	1.5765232
16.328787757675133	2.4764972	1.573689
16.34649415908287	2.491152	1.5783384
16.364200953451657	2.4845307	1.5762395
16.38190814123048	2.539358	1.5935363
16.39961572286839	2.5998626	1.6124089
16.41732369881455	2.6640768	1.6322
16.43503206951817	2.6890972	1.6398467
16.45274083542859	2.729068	1.6519891
16.47044999699522	2.8097334	1.6762259
16.488159554667558	2.8411336	1.6855663
16.505869508895184	2.9176033	1.7080994
16.523579860127786	2.9377928	1.713999
16.541290608815117	2.94461	1.7159866
16.559001755407035	2.9893713	1.7289798
16.57671330035348	3.112582	1.7642511
16.59442524410448	3.2465317	1.8018135
16.61213758711015	3.4272661	1.8512877
16.629850329820705	3.486468	1.8672086
16.647563472686436	3.492391	1.8687941
16.665277016157724	3.428483	1.8516164
16.682990960685053	3.4484298	1.8569949
16.70070530671898	3.4834452	1.8663989
16.718420054710155	3.520402	1.8762734
16.736135205109335	3.547731	1.8835422
16.753850758367335	3.598215	1.8968961
16.771566714935087	3.6313941	1.9056218
16.789283075263597	3.680628	1.9184963
16.80699983980398	3.6956856	1.9224166
16.82471700900741	3.733491	1.9322244
16.84243458332518	3.7801507	1.944261
16.860152563208665	3.877344	1.9690973
16.87787094910932	3.9888833	1.9972188
16.89558974147871	4.0603576	2.015033
16.913308940768466	4.1075306	2.0267043
16.931028547430333	4.0946236	2.0235176
16.94874856191613	4.15629	2.0386982
16.966468984677785	4.2570004	2.06325
16.98418981616729	4.3351817	2.08211
17.00191105683676	4.3999596	2.097608
17.019632707138374	4.3760333	2.091897
17.03735476752442	4.37285	2.091136
17.05507723844728	4.3700147	2.090458
17.072800120359403	4.4543586	2.1105351
17.090523413713353	4.5337543	2.1292615
17.108247118961785	4.594006	2.1433632
17.125971236557437	4.6128564	2.147756
17.143695766953133	4.647079	2.1557086
17.161420710601806	4.6779923	2.1628666
17.179146067956477	4.7006316	2.168094
17.19687183947025	4.681445	2.1636648
17.21459802559634	4.666407	2.1601868
17.232324626788028	4.6779294	2.162852
17.25005164349871	4.644166	2.1550326
17.267779076181863	4.594098	2.1433847
17.285506925291074	4.5693955	2.1376145
17.30323519127999	4.551859	2.1335087
17.320963874602384	4.554771	2.134191
17.33869297571211	4.5257907	2.1273906
17.356422495063114	4.5591497	2.1352165
17.37415243310944	4.492746	2.1196098
17.391882790305218	4.465151	2.1130903
17.40961356710468	4.425052	2.1035807
17.42734476396215	4.480663	2.1167576
17.445076381332044	4.5333796	2.1291735
17.462808419668868	4.651727	2.1567862
17.48054087942723	4.7488117	2.1791768
17.498273761061835	4.8555045	2.203521
17.51600706502747	5.1359134	2.2662554
17.533740791779024	5.709291	2.3894122
17.551474941771485	6.570586	2.5633154
17.56920951545993	8.538479	2.9220676
17.586944513299528	9.823193	3.1341972
17.60467993574556	12.66492	3.5587807
17.622415783253373	15.312892	3.9131691
17.64015205627843	18.059551	4.249653
17.657888755276293	20.29478	4.504973
17.675625880702604	21.677221	4.6558805
17.69336343301311	20.20347	4.4948273
17.71110141266366	18.20524	4.26676
17.728839820110178	15.609	3.9508228
17.746578655808705	12.43126	3.5257993
17.764317920215372	10.236561	3.1994627
17.7820576137864	8.584464	2.9299257
17.79979773697811	7.211298	2.685386
17.81753829024692	5.9414797	2.437515
17.835279274049356	5.1744566	2.274743
17.85302068884201	4.506029	2.122741
17.870762535081607	4.0420756	2.0104914
17.888504813224934	3.8120613	1.95245
17.90624752372891	3.680425	1.9184433
17.923990667050536	3.645594	1.9093438
17.941734243646895	3.5452058	1.8828717
17.959478253975185	3.4628987	1.8608866
17.9772226984927	3.3618686	1.83354
17.994967577656833	3.3333797	1.8257545
18.01271289192506	3.324602	1.8233491
18.030458641754965	3.3507612	1.8305085
18.04820482760425	3.3277504	1.8242123
18.06595144993067	3.2576041	1.8048834
18.083698509192125	3.2276053	1.7965537
18.101446005846576	3.2378817	1.7994115
18.119193940352105	3.237571	1.7993251
18.136942313166887	3.1995852	1.7887385
18.1546911247492	3.1799448	1.78324
18.1724403755574	3.1318805	1.769712
18.19019006604997	3.1300755	1.7692019
18.207940196685467	3.1184993	1.7659273
18.225690767922575	3.0779417	1.7544063
18.243441780220046	3.0702844	1.7522227
18.261193234036764	3.1013067	1.7610527
18.278945129831676	3.0911868	1.7581772
18.29669746806386	3.017269	1.7370287
18.314450249192483	3.0009787	1.7323333
18.3322034736768	2.9953074	1.7306956
18.349957141976184	3.025356	1.7393551
18.3677112545501	3.02701	1.7398305
18.385465811858108	3.0684283	1.751693
18.403220814359884	3.0377324	1.7429092
18.420976262515172	3.0576174	1.7486044
18.43873215678387	3.0472155	1.7456275
18.456488497625923	3.0934517	1.7588211
18.474245285501407	3.1906657	1.7862434
18.492002520870486	3.2755747	1.8098549
18.50976020419343	3.3397715	1.8275042
18.527518335930615	3.6491709	1.9102803
18.545276916542516	4.2367983	2.0583484
18.563035946489688	4.37536	2.091736
18.580795426232832	4.774785	2.1851282
18.598555356232698	4.659484	2.1585839
18.616315736950185	4.994616	2.2348638
18.63407656884626	4.6819797	2.1637883
18.65183785238201	4.8936663	2.2121632
18.669599588018617	4.7146263	2.171319
18.68736177621737	4.6545367	2.1574376
18.705124417439652	4.6019125	2.145207
18.72288751214696	4.404983	2.0988052
18.740651060800886	4.610683	2.1472502
18.758415063863115	4.3524346	2.0862489
18.77617952179546	4.4740973	2.1152062
18.793944435059814	4.19581	2.0483675
18.811709804118184	4.1759343	2.0435102
18.829475629432675	4.127206	2.0315526
18.8472419114655	3.925875	1.9813821
18.86500865067897	3.997675	1.9994186
18.88277584753551	3.6914093	1.9213041
18.90054350249763	3.7441814	1.9349887
18.918311616027957	3.4950488	1.8695049
18.936080188589226	3.3875313	1.8405247
18.953849220644265	3.0648115	1.7506603
18.971618712656007	2.860327	1.6912501
18.9893886650875	2.7888784	1.6699935
19.007159078401887	7.977883	2.8245146
19.024929953062408	32.868298	5.733088
19.042701289532435	32.80963	5.727969
19.060473088275405	25.390526	5.0389013
19.07824534975489	2.679815	1.637014
19.096018074434568	2.6929176	1.6410111
19.113791262778197	2.6256325	1.6203804
19.13156491524966	2.588722	1.6089506
19.149339032312945	2.5575671	1.5992396
19.167113614432136	2.5334086	1.5916685
19.184888662071433	2.538349	1.5932196
19.202664175695123	2.5570354	1.5990733
19.220440155767623	2.5624058	1.6007516
19.238216602753447	2.5191817	1.587193
19.2559935171172	2.468296	1.5710812
19.27377089932361	2.4520013	1.5658867
19.291548749837514	2.4666994	1.570573
19.309327069123835	2.5009506	1.5814394
19.32710585764763	2.5078924	1.5836327
19.344885115874032	2.4999003	1.5811073
19.362664844268313	2.4970183	1.5801957
19.380445043295822	2.5121667	1.5849817
19.39822571342203	2.5233917	1.5885187
19.41600685511252	2.5115077	1.5847738
19.43378846883297	2.471403	1.5720696
19.451570555049173	2.424013	1.5569242
19.469353114227037	2.392242	1.5466874
19.48713614683254	2.4279833	1.5581987
19.50491965333182	2.471531	1.5721103
19.52270363419109	2.5036066	1.582279
19.540488089876686	2.4725566	1.5724366
19.55827302085503	2.4448302	1.5635953
19.576058427592674	2.4764569	1.5736762
19.593844310556282	2.498814	1.5807638
19.611630670212598	2.4973385	1.580297
19.629417507028506	2.4687421	1.5712231
19.64720482147098	2.4578564	1.5677552
19.6649926140071	2.4408028	1.5623069
19.682780885104084	2.451048	1.5655823
19.70056963522921	2.4146957	1.5539291
19.718358864849908	2.4177134	1.5548998
19.7361485744337	2.4168885	1.5546346
19.753938764448215	2.4690673	1.5713266
19.771729435361202	2.4971304	1.5802311
19.789520587640506	2.5131269	1.5852845
19.807312221754092	2.5216007	1.5879549
19.825104338170043	2.4917026	1.5785128
19.842896937356517	2.4953508	1.5796679
19.860690019781824	2.462162	1.5691278
19.87848358591436	2.4611707	1.5688119
19.896277636222635	2.4629211	1.5693697
19.914072171175278	2.4777107	1.5740745
19.931867191241015	2.4841974	1.5761337
19.94966269688869	2.50523	1.5827918
19.967458688587264	2.4992433	1.5808995
19.985255166805807	2.4880278	1.5773484
20.00305213201348	2.4702222	1.571694
20.020849584679578	2.4459074	1.5639397
20.038647525273507	2.4249866	1.5572368
20.05644595426477	2.4219592	1.5562645
20.07424487212299	2.4127002	1.5532869
20.092044279317903	2.37496	1.5410905
20.109844176319353	2.4076161	1.5516495
20.127644563597304	2.4355128	1.5606129
20.145445441621817	2.453744	1.5664431
20.16324681086307	2.4432902	1.5631027
20.181048671791373	2.4379234	1.5613852
20.198851024877122	2.4115436	1.5529145
20.216653870590836	2.3699503	1.5394642
20.234457209403146	2.3362598	1.5284829
20.252261041784802	2.3200786	1.5231805
20.270065368206662	2.2999952	1.5165735
20.287870189139685	2.3261788	1.5251815
20.305675505054968	2.348944	1.5326265
20.323481316423702	2.3807766	1.5429765
20.341287623717207	2.359352	1.5360183
20.359094427406884	2.3405375	1.5298816
20.376901727964288	2.3261228	1.5251632
20.39470952586107	2.3457088	1.5315707
20.41251782156899	2.330429	1.5265743
20.430326615559935	2.3257115	1.5250283
20.448135908305886	2.327504	1.5256159
20.465945700278965	2.3595088	1.5360693
20.483755991951384	2.336273	1.5284871
20.50156678379548	2.316064	1.521862
20.519378076283708	2.3131514	1.5209048
20.537189869888635	2.359669	1.5361214
20.55500216508294	2.3647811	1.5377845
20.572814962339415	2.3646157	1.5377307
20.59062826213098	2.3511207	1.5333365
20.60844206493066	2.3221793	1.5238699
20.626256371211593	2.31676	1.5220907
20.644071181447032	2.3074677	1.5190351
20.66188649611036	2.3137803	1.5211115
20.67970231567506	2.2982194	1.515988
20.697518640614742	2.3122773	1.5206174
20.715335471403122	2.3212097	1.5235517
20.73315280851404	2.3155797	1.5217029
20.750970652421447	2.3276904	1.525677
20.768789003599412	2.320325	1.5232613
20.786607862522136	2.321258	1.5235676
20.8044272296639	2.2924583	1.5140866
20.82224710549913	2.2280238	1.4926566
20.84006749050237	2.1948447	1.4815009
20.857888385148268	3.79579	1.9482787
20.8757097899116	45.939083	6.7778378
20.893531705267254	64.831085	8.051775
20.911354131690224	83.85142	9.157042
20.92917706965566	69.10972	8.313226
20.94700051963877	50.113846	7.0791135
20.96482448211493	29.395565	5.4217677
20.982648957559622	4.1315217	2.0326145
21.00047394644843	2.2378683	1.4959506
21.01829944925707	2.2214222	1.4904436
21.036125466461375	2.230811	1.49359
21.053951998537297	2.2494295	1.4998099
21.071779045960906	2.2486155	1.4995384
21.089606609208378	2.2486494	1.4995497
21.10743468875603	2.2643335	1.5047703
21.12526328508028	2.2378395	1.495941
21.143092398657675	2.1984434	1.4827149
21.16092202996488	2.2070827	1.4856254
21.17875217947867	2.2192676	1.4897207
21.19658284767596	2.1845512	1.4780227
21.21441403503377	2.1469653	1.4652526
21.232245742029225	2.1530192	1.467317
21.2500779691396	2.1872284	1.4789281
21.26791071684227	2.2165833	1.4888194
21.28574398561475	2.1899645	1.4798529
21.30357777593465	2.17066	1.473316
21.321412088279704	2.148427	1.4657513
21.339246923127792	2.1654103	1.4715333
21.357082280956888	2.1254604	1.4578959
21.3749181622451	2.1375804	1.4620466
21.392754567470647	2.1434045	1.4640371
21.41059149711187	2.1770124	1.4754703
21.42842895164726	2.1844895	1.4780018
21.446266931555378	2.1506555	1.4665114
21.464105437314945	2.1260948	1.4581134
21.481944469404798	2.1251462	1.4577881
21.49978402830388	2.1148565	1.4542546
21.51762411449127	2.098581	1.448648
21.53546472844617	2.1017826	1.4497526
21.553305870647876	2.107758	1.451812
21.571147541575865	2.1056328	1.4510798
21.58898974170967	2.0514042	1.4322724
21.60683247152899	2.0656722	1.4372447
21.62467573151363	2.0643208	1.4367745
21.642519522143523	2.030458	1.4249414
21.660363843898722	2.0388305	1.4278762
21.6782086972594	2.0355167	1.4267154
21.696054082705864	2.0285132	1.4242588
21.713900000718535	2.0174031	1.4203532
21.73174645177795	2.010891	1.4180589
21.749593436364794	2.0093338	1.4175098
21.767440954959845	1.9801178	1.4071666
21.785289008044032	1.9546684	1.3980945
21.803137596098388	1.9799951	1.407123
21.820986719604086	1.999049	1.4138772
21.838836379042412	1.9872417	1.4096956
21.85668657489478	1.9763278	1.4058193
21.87453730764273	1.9798561	1.4070736
21.892388577767914	1.9707668	1.4038401
21.91024038575213	1.989287	1.4104209
21.928092732077285	2.0022676	1.4150151
21.945945617225426	1.999452	1.4140198
21.963799041678694	1.9803576	1.4072518
21.981653005919398	31.30074	5.5947065
21.999507510429943	78.10203	8.837535
22.01736255569286	73.07709	8.548513
22.035218142190818	4.1781054	2.0440414
22.05307427040661	2.0001264	1.4142582
22.07093094082315	2.0300434	1.4247959
22.088788153923474	2.0400896	1.4283171
22.106645910190746	2.018673	1.4208001
22.12450421010827	2.0079448	1.4170197
22.142363054159464	2.024762	1.4229413
22.16022244282787	2.0266085	1.42359
22.178082376597164	2.0073276	1.4168019
22.195942855951145	2.002663	1.4151547
22.213803881373742	1.9630575	1.4010916
22.231665453349002	1.9489353	1.3960427
22.24952757236111	1.9492083	1.3961405
22.26739023889438	1.9462711	1.3950882
22.28525345343323	1.9395344	1.3926717
22.30311721646225	1.9451456	1.3946848
22.320981528466113	1.9841905	1.408613
22.33884638992964	2.006099	1.4163682
22.356711801337788	1.957951	1.399268
22.37457776317561	1.9523287	1.3972576
22.392444275928337	1.9350082	1.3910457
22.410311340081282	1.9724166	1.4044275
22.428178956119904	1.9879091	1.4099323
22.446047124529805	1.9376116	1.3919811
22.46391584579669	1.9167564	1.3844697
22.481785120406414	1.9282651	1.3886199
22.49965494884496	1.9688189	1.403146
22.51752533159841	1.9447478	1.3945421
22.53539626915302	1.9448158	1.3945665
22.553267761995137	1.9495357	1.3962578
22.571139810611264	1.9663972	1.4022828
22.589012415488025	1.9680128	1.4028589
22.60688557711216	1.9832057	1.4082633
22.624759295970566	1.9616275	1.4005811
22.642633572550263	1.9520599	1.3971614
22.660508407338362	1.9597948	1.3999267
22.67838380082217	2.0128002	1.4187319
22.696259753489077	2.002837	1.4152162
22.714136265826614	1.9918455	1.4113276
22.73201333832246	1.9614029	1.4005009
22.74989097146439	1.9616797	1.4005997
22.76776916574035	1.9504646	1.3965904
22.785647921638393	1.9187952	1.3852059
22.803527239646712	1.87345	1.3687403
22.82140712025363	1.8478345	1.3593508
22.839287563947593	1.8436747	1.3578198
22.85716857121719	1.863749	1.3651919
22.875050142551135	1.8819094	1.371827
22.892932278438277	1.8989077	1.3780086
22.910814979367604	1.9558486	1.3985165
22.928698245828222	1.982175	1.4078974
22.946582078309387	1.9037192	1.3797534
22.96446647730047	1.8220145	1.3498201
22.98235144329098	1.8296725	1.3526539
23.000236976770562	1.8839267	1.3725622
23.018123078229	1.932049	1.3899816
23.03600974815619	1.9531279	1.3975435
23.053896987042194	1.9480674	1.3957318
23.071784795377173	1.8893603	1.3745401
23.08967317365145	1.843948	1.3579205
23.10756212235546	1.8443199	1.3580574
23.125451641979787	1.8999832	1.3783988
23.143341733015134	1.9792674	1.4068644
23.161232395952357	1.9680593	1.4028754
23.179123631282426	1.9321836	1.39003
23.197015439496468	1.9146436	1.3837065
23.214907821085717	1.9367905	1.3916862
23.23280077654157	1.922553	1.3865615
23.250694306355538	1.9111284	1.3824357
23.268588411019277	1.9021587	1.3791877
23.28648309102458	1.9327053	1.3902177
23.304378346863356	1.9291052	1.3889223
23.322274179027676	1.8994032	1.3781884
23.340170588009723	1.8840344	1.3726013
23.358067574301852	1.9318137	1.389897
23.37596513839651	1.9502674	1.3965198
23.39386328078629	1.9470164	1.3953552
23.411762001963947	1.9473585	1.3954779
23.429661302422353	1.9392481	1.3925688
23.4475611826545	1.9156334	1.3840641
23.46546164315356	1.885725	1.373217
23.48336268441279	1.890942	1.3751153
23.501264306925638	1.8847069	1.3728462
23.51916651118564	1.9151604	1.3838933
23.537069297686497	1.9302744	1.3893431
23.554972666922037	1.9241912	1.3871522
23.57287661938623	1.8896688	1.3746523
23.59078115557318	1.8482556	1.3595057
23.608686275977128	1.8340812	1.3542825
23.62659198109246	1.8484159	1.3595645
23.6444982714137	1.8211923	1.3495156
23.66240514743549	1.7972641	1.3406208
23.68031260965263	1.8420647	1.3572268
23.698220658560068	1.8887024	1.3743007
23.716129294652845	1.8932668	1.3759604
23.7340385184262	1.9084315	1.38146
23.75194833037546	1.9361528	1.3914571
23.769858730996123	1.9336798	1.3905681
23.78776972078382	1.9307158	1.389502
23.80568130023431	1.9684969	1.4030313
23.823593469843495	1.967658	1.4027324
23.841506230107424	1.9514841	1.3969553
23.859419581522275	1.9233431	1.3868464
23.87733352458438	1.8943549	1.3763556
23.89524805979019	1.8985173	1.3778669
23.913163187636318	1.9159186	1.3841671
23.931078908619508	1.9737862	1.404915
23.948995223236633	2.0300882	1.4248116
23.966912131984735	2.0166	1.4200704
23.98482963536096	2.0233436	1.4224428
24.002747733862616	2.0058978	1.4162972
24.020666427987155	2.0595691	1.4351199
24.038585718232156	2.053499	1.4330034
24.056505605095353	1.9948399	1.412388
24.074426089074617	2.013985	1.4191494
24.092347170667946	2.0420454	1.4290016
24.110268850373515	2.0532439	1.4329145
24.128191128689586	2.046464	1.4305468
24.146114006114626	2.0320787	1.42551
24.164037483147187	2.0585797	1.4347751
24.181961560286005	2.0413785	1.4287682
24.199886238029926	2.017251	1.4202996
24.21781151687797	1.9938636	1.4120424
24.235737397329274	1.997291	1.4132555
24.253663879883135	2.0093286	1.4175079
24.271590965038975	2.0357535	1.4267983
24.289518653296376	2.051236	1.4322137
24.30744694515505	2.0442934	1.4297879
24.32537584111486	2.0473633	1.430861
24.34330534167581	2.0263746	1.4235078
24.361235447338046	2.017027	1.4202207
24.379166158601876	1.9892019	1.4103907
24.39709747596772	1.9890354	1.4103316
24.41502939993615	2.0065417	1.4165245
24.432961931007917	2.056733	1.4341314
24.450895069683856	2.0524173	1.432626
24.468828816465	1.9950213	1.4124522
24.4867631718525	1.9493576	1.396194
24.504698136347656	1.9610484	1.4003744
24.52263371045192	1.9602295	1.400082
24.540569894666874	1.9506522	1.3966575
24.558506689494266	1.9049358	1.3801942
24.57644409543597	1.9004202	1.3785573
24.594382112994012	1.9012588	1.3788614
24.61232074267057	1.9150879	1.383867
24.630259984967953	1.958598	1.3994992
24.64819984038863	1.9964234	1.4129485
24.66614030943522	1.9544063	1.3980008
24.684081392610462	1.9092784	1.3817664
24.702023090417274	1.9186225	1.3851435
24.7199654033587	1.9974763	1.413321
24.737908331937927	2.030191	1.4248477
24.755851876658305	2.0215223	1.4218025
24.773796038023324	1.9968036	1.4130831
24.79174081653661	2.011517	1.4182796
24.809686212701962	2.0474906	1.4309055
24.827632227023294	2.0637853	1.436588
24.8455788600047	2.0608032	1.4355497
24.8635261121504	2.0968642	1.4480553
24.88147398396475	2.1234598	1.4572096
24.899422475952303	2.1157436	1.4545596
24.917371588617698	2.103601	1.4503796
24.935321322465768	2.1849997	1.4781744
24.953271678001478	2.33029	1.5265287
24.97122265572994	2.4945714	1.5794213
24.989174256156414	2.836284	1.6841271
25.00712647978632	3.4815931	1.8659028
25.02507932712521	4.477059	2.1159062
25.043032798678798	5.931868	2.4355426
25.060986894952933	7.493666	2.737456
25.078941616453637	9.000262	3.0000436
25.096896963687055	9.914341	3.1487048
25.114852937159508	10.652103	3.263756
25.132809537377444	10.490074	3.2388384
25.150766764847468	9.810663	3.1321979
25.168724620076347	8.369971	2.8930902
25.186683103570985	7.1713614	2.67794
25.204642215838426	5.757226	2.399422
25.222601957385894	4.6500077	2.1563876
25.24056232872074	3.5674696	1.8887746
25.25852333035048	2.879313	1.6968539
25.276484962782778	2.4224257	1.5564144
25.294447226525435	2.1778796	1.475764
25.312410122086423	2.0427513	1.4292486
25.330373649973843	1.9657574	1.4020547
25.348337810695988	1.9446636	1.3945119
25.366302604761245	1.914342	1.3835975
25.384268032678207	1.9086579	1.3815418
25.40223409495558	1.9240358	1.3870962
25.420200792102257	1.9319086	1.3899312
25.438168124627246	1.9458319	1.3949308
25.45613609303974	1.9334885	1.3904994
25.474104697849057	1.9417691	1.3934737
25.492073939564698	1.9184842	1.3850936
25.510043818696285	1.8447648	1.3582212
25.528014335753614	1.8074253	1.3444052
25.54598549124664	1.827887	1.3519937
25.56395728568544	1.8735495	1.3687767
25.58192971958028	1.8721133	1.3682519
25.59990279344156	1.8495522	1.3599824
25.617876507779833	1.8019334	1.3423611
25.635850863105826	1.8528425	1.3611915
25.653825859930386	1.9027218	1.3793918
25.671801498764548	1.9026996	1.3793838
25.68977778011949	1.8978716	1.3776326
25.707754704506524	1.9076141	1.3811641
25.725732272437153	1.8716652	1.3680881
25.743710484423012	1.8648652	1.3656007
25.761689340975888	1.8316764	1.3533944
25.77966884260774	1.8419571	1.3571872
25.797648989830662	1.8278766	1.3519899
25.815629783156922	1.8352869	1.3547276
25.83361122309895	1.8446931	1.3581948
25.85159331016929	1.8477533	1.3593209
25.869576044880695	1.8337156	1.3541476
25.887559427746034	1.7974082	1.3406745
25.90554345927836	1.7760525	1.3326862
25.92352813999086	1.7827716	1.3352047
25.94151347039689	1.7866802	1.3366675
25.959499451009965	1.78623	1.3364991
25.97748608234374	1.8147408	1.3471231
25.995473364912062	1.8403776	1.3566052
26.013461299228904	1.8431641	1.3576318
26.03144988580839	1.8227772	1.3501027
26.04943912516483	1.8163866	1.3477339
26.067429017812675	1.8311857	1.3532131
26.085419564266537	1.8092047	1.3450668
26.103410765041186	1.7730176	1.3315471
26.12140262065155	1.8106664	1.34561
26.139395131612723	1.8523599	1.3610142
26.157388298439948	1.8648235	1.3655854
26.17538212164861	1.8334609	1.3540535
26.193376601754295	1.8230628	1.3502084
26.211371739272714	1.7960527	1.340169
26.229367534719746	1.7937524	1.3393104
26.247363988611433	1.7994356	1.3414304
26.26536110146397	1.7947228	1.3396727
26.283358873793727	1.7892103	1.3376137
26.301357306117204	1.8025888	1.3426052
26.319356398951104	1.8067901	1.3441689
26.33735615281224	1.8491076	1.3598189
26.35535656821762	1.8482473	1.3595026
26.373357645684404	1.8021984	1.3424598
26.39135938572991	1.7916983	1.3385434
26.409361788871614	1.7845104	1.3358557
26.427364855627165	1.8053561	1.3436354
26.445368586514352	1.8156425	1.3474578
26.46337298205115	1.8008602	1.3419613
26.48137804275568	1.7738353	1.3318541
26.499383769146217	1.761804	1.3273296
26.517390161741215	1.8071705	1.3443104
26.53539722105928	1.7953948	1.3399234
26.553404947619182	1.8116847	1.3459884
26.571413341939856	1.8036685	1.3430072
26.589422404540397	1.8137395	1.3467515
26.60743213594006	1.8142861	1.3469543
26.62544253665827	1.7913651	1.3384188
26.64345360721459	1.7727925	1.3314625
26.66146534812879	1.7924998	1.3388427
26.679477759920758	1.8155835	1.3474358
26.69749084311057	1.8331465	1.3539374
26.71550459821847	1.7949702	1.339765
26.733519025764842	1.7945113	1.3395938
26.751534126270258	1.8248222	1.3508598
26.769549900255434	1.7979609	1.3408806
26.787566348241267	1.7567669	1.3254309
26.80558347074881	1.7466375	1.3216041
26.823601268299267	1.7250468	1.3134104
26.841619741414036	1.7201625	1.3115497
26.85963889061465	1.7737243	1.3318124
26.877658716422832	1.774247	1.3320086
26.89567921936045	1.7671477	1.329341
26.913700399949544	1.807755	1.3445278
26.93172225871233	1.8025613	1.342595
26.949744796171174	1.7698894	1.3303719
26.967768012848605	1.7447923	1.3209059
26.98579190926733	1.7955073	1.3399655
27.003816485950225	1.8417654	1.3571166
27.021841743420318	1.8135257	1.346672
27.039867682200814	1.7938389	1.3393427
27.057894302815072	1.8374196	1.3555145
27.07592160578664	1.861781	1.364471
27.0939495916392	1.8560812	1.3623807
27.111978260896635	1.864778	1.3655688
27.13000761408296	1.8427083	1.357464
27.148037651722397	1.8303156	1.3528916
27.166068374339304	1.8389535	1.3560802
27.184099782458215	1.8067347	1.3441483
27.20213187660384	1.8127513	1.3463845
27.22016465730105	1.8054595	1.3436738
27.23819812507487	1.8037608	1.3430417
27.256232280450533	1.7845998	1.3358891
27.274267123953383	1.8017362	1.3422877
27.292302656108987	1.8252647	1.3510236
27.31033887744306	1.8842548	1.3726816
27.32837578848146	1.9055554	1.3804185
27.34641338975026	1.8901895	1.3748417
27.364451681775673	1.8298035	1.3527023
27.382490665084074	1.8168213	1.3478951
27.400530340202046	1.818129	1.3483801
27.41857070765629	1.8147119	1.3471124
27.436611767973726	1.7863177	1.336532
27.454653521681404	1.8061897	1.3439455
27.472695969306564	1.843463	1.3577418
27.490739111376627	1.8280308	1.3520468
27.508782948419153	1.7908872	1.3382404
27.526827480961902	1.8198136	1.3490046
27.54487270953279	1.8109794	1.3457264
27.562918634659898	1.8446366	1.358174
27.580965256871508	1.8667551	1.3662925
27.599012576696026	1.8042268	1.3432151
27.617060594662068	1.7449934	1.320982
27.63510931129842	1.7905225	1.338104
27.65315872713401	1.7959162	1.3401179
27.67120884269797	1.8194916	1.3488853
27.68925965851958	1.8819867	1.3718553
27.707311175128307	1.9040294	1.3798658
27.725363393053787	1.906434	1.3807368
27.74341631282583	1.8924985	1.375681
27.7614699349744	1.8557171	1.3622471
27.77952426002968	2.0888696	1.4452922
27.797579288521973	2.2103014	1.4867083
27.815635020981784	2.6334302	1.6227847
27.83369145793979	2.6612692	1.6313397
27.85174859992682	2.4728994	1.5725455
27.869806447473923	2.3529909	1.5339462
27.887865001112267	2.0462751	1.4304807
27.905924261373233	1.9306477	1.3894775
27.92398422878836	1.9375508	1.3919593
27.94204490388936	1.8783675	1.3705355
27.96010628720813	1.8122874	1.3462123
27.978168379276728	1.8246795	1.350807
27.9962311806274	1.8582338	1.3631705
28.014294691792568	1.8319759	1.353505
28.0323589133048	1.7895031	1.3377231
28.050423845696887	1.8118767	1.3460597
28.068489489501758	1.8643985	1.3654298
28.086555845252523	1.8780409	1.3704163
28.104622913482487	1.8940983	1.3762624
28.122690694725115	1.8951972	1.3766615
28.14075918951405	1.8600916	1.3638518
28.15882839838312	1.8389562	1.3560812
28.176898321866304	1.895241	1.3766775
28.1949689604978	1.9387137	1.392377
28.213040314811945	1.9474859	1.3955235
28.23111238534327	1.9391105	1.3925195
28.249185172626493	1.9623828	1.4008508
28.267258677196473	2.0085394	1.4172295
28.285332899588294	2.004661	1.4158605
28.303407840337172	1.9521103	1.3971794
28.321483499978545	1.9163998	1.3843409
28.33955987904799	1.9198667	1.3855926
28.357636978081285	1.9512994	1.3968892
28.37571479761439	1.956437	1.3987269
28.393793338183425	1.9749403	1.4053257
28.41187260032469	2.0149229	1.4194797
28.429952584574686	2.0040114	1.415631
28.448033291470065	1.9902374	1.4107578
28.46611472154769	2.048671	1.4313179
28.484196875344566	2.104501	1.4506898
28.502279753397914	2.084493	1.4437773
28.52036335624511	2.0102282	1.4178251
28.538447684423716	1.9980739	1.4135324
28.556532738471482	1.9818097	1.4077677
28.574618518926325	1.9350448	1.3910589
28.59270502632635	1.9310018	1.3896049
28.61079226120985	1.9392992	1.3925872
28.628880224115274	1.9869174	1.4095806
28.646968915581287	2.0442083	1.4297581
28.66505833614671	2.0175145	1.4203924
28.68314848635055	2.0257094	1.4232742
28.701239366732004	2.1009688	1.449472
28.71933097783044	2.1083982	1.4520324
28.737423320185403	2.1183167	1.4554437
28.75551639433665	2.1376634	1.462075
28.773610200824074	2.1293464	1.459228
28.791704740187793	2.1365037	1.4616784
28.80980001296809	2.171055	1.4734501
28.827896019705413	2.2516046	1.5005348
28.845992760940433	2.3108304	1.5201416
28.86409023721397	2.3276901	1.525677
28.88218844906704	2.290643	1.513487
28.900287397040845	2.2707558	1.5069027
28.918387081676755	2.2795975	1.5098336
28.936487503516343	2.3139095	1.521154
28.954588663101365	2.3416116	1.5302325
28.97269056097374	2.3291934	1.5261695
28.990793197675597	2.302539	1.517412
29.00889657374923	2.346986	1.5319877
29.027000689737125	2.384346	1.5441327
29.04510554618196	2.3998892	1.5491576
29.06321114362659	2.4088821	1.5520574
29.08131748261405	2.4564233	1.567298
29.099424563687567	2.4818177	1.5753785
29.11753238739057	2.4981828	1.580564
29.13564095426663	2.5227747	1.5883245
29.15375026485954	2.6049755	1.6139936
29.171860319713275	2.63094	1.6220173
29.18997111937199	2.623715	1.6197885
29.20808266438002	2.6947558	1.6415712
29.226194955281898	2.7531698	1.6592679
29.244307992622335	2.8510633	1.6885092
29.26242177694624	2.8904428	1.7001302
29.2805363087987	2.8405151	1.6853828
29.29865158872498	2.8658738	1.6928892
29.316767617270557	2.9318366	1.7122607
29.334884394981064	2.9936585	1.7302192
29.353001922402367	3.026106	1.7395706
29.37112020008047	3.0553896	1.7479672
29.389239228561596	3.1808462	1.7834927
29.407359008392152	3.363459	1.8339735
29.42547954011872	3.6534245	1.9113933
29.44360082428809	4.1133847	2.0281482
29.46172286144722	4.9642844	2.2280674
29.479845652143283	6.6392097	2.5766664
29.497969196923606	9.518177	3.0851543
29.516093496335728	13.324896	3.6503282
29.5342185509274	16.731268	4.0903873
29.55234436124651	19.538525	4.4202404
29.570470927841175	20.67967	4.5474906
29.588598251259686	20.493355	4.5269585
29.60672633205055	18.83934	4.3404307
29.624855170762405	15.823794	3.9779134
29.642984767944146	12.426802	3.525167
29.66111512414481	9.281871	3.0466163
29.67924623991366	6.9747763	2.6409802
29.697378115800138	5.2011943	2.2806127
29.71551075235387	4.286502	2.070387
29.733644150124675	3.8671348	1.9665031
29.751778309662576	3.593121	1.895553
29.769913231517766	3.4542854	1.8585708
29.78804891624066	3.3271365	1.824044
29.806185364381818	3.270065	1.8083321
29.82432257649206	3.291424	1.8142282
29.842460553122333	3.3001664	1.816636
29.86059929482382	3.312981	1.8201596
29.878738802147872	3.265285	1.8070099
29.896879075646048	3.2023602	1.789514
29.915020115870114	3.1445904	1.7732993
29.933161923371976	3.194717	1.7873771
29.951304498703777	3.1689925	1.7801664
29.969447842417857	3.1669214	1.7795846
29.987591955066733	3.2371778	1.7992159
30.005736837203123	3.2425084	1.8006966
30.023882489379943	3.2282615	1.7967364
30.04202891215028	3.2529514	1.803594
30.060176106067455	3.2210293	1.7947227
30.078324071684946	3.1574636	1.7769253
30.09647280955646	3.1342678	1.7703863
30.114622320235863	3.2137332	1.7926888
30.132772604277257	3.2191036	1.794186
30.1509236622349	3.1626608	1.7783872
30.16907549466328	3.051223	1.746775
30.18722810211705	3.0838313	1.7560841
30.205381485151097	3.1169765	1.7654961
30.22353564432045	3.1157825	1.7651579
30.241690580180403	3.0917568	1.7583392
30.25984629328638	3.0624807	1.7499945
30.278002784194037	2.9684944	1.722932
30.296160053459246	2.9274411	1.7109766
30.314318101638033	2.9451208	1.7161354
30.332476929286646	2.9586008	1.7200583
30.35063653696153	2.9096634	1.7057736
30.368796925219307	2.88288	1.6979046
30.386958094616844	2.8825479	1.6978068
30.40512004571115	2.8344162	1.6835724
30.423282779059463	2.7614374	1.6617573
30.441446295219233	2.7919283	1.6709064
30.459610594748067	2.866636	1.6931143
30.47777567820382	2.913278	1.7068328
30.495941546144504	2.9108152	1.7061112
30.51410819912835	2.8289833	1.6819582
30.532275637713795	2.8053887	1.6749295
30.55044386245946	2.8016088	1.6738007
30.56861287392416	2.7803974	1.6674523
30.586782672666956	2.8194673	1.679127
30.604953259247047	2.8766363	1.696065
30.623124634223885	2.8477626	1.6875315
30.641296798157075	2.7882657	1.66981
30.659469751606462	2.7649508	1.6628141
30.677643495132074	2.7412298	1.655666
30.695818029294152	2.7400622	1.6553134
30.713993354653116	2.7812912	1.6677203
30.73216947176962	2.7599714	1.6613162
30.75034638120448	2.6899354	1.6401023
30.768524083518756	2.6984837	1.6427062
30.786702579273673	2.7553444	1.659923
30.80488186903069	2.8420734	1.685845
30.82306195335144	3.0283508	1.7402158
30.841242832797782	3.30208	1.8171626
30.85942450793176	3.6027355	1.8980874
30.877606979315637	3.9168217	1.9790962
30.895790247511883	4.3622637	2.0886033
30.913974313083134	4.8807745	2.2092476
30.932159176592283	5.3811154	2.3197231
30.95034483860237	5.6959276	2.3866143
30.968531299676698	5.604989	2.3674858
30.98671856037873	5.3330827	2.309347
31.00490662127215	4.9287705	2.2200835
31.023095482920848	4.3751388	2.0916831
31.04128514588892	3.7962058	1.9483855
31.059475610740662	3.331335	1.8251945
31.07766687804056	2.9364202	1.7135986
31.09585894835335	2.6335926	1.6228348
31.11405182224393	2.5004582	1.5812837
31.132245500277417	2.4571283	1.567523
31.15043998301914	2.4950242	1.5795646
31.168635271034628	2.4782267	1.5742384
31.18683136488964	2.4537413	1.5664423
31.20502826515008	2.3900616	1.5459824
31.223225972382135	2.3895688	1.545823
31.241424487152155	2.3972754	1.5483137
31.259623810026692	2.344655	1.5312266
31.27782394157253	2.360345	1.5363414
31.296024882356644	2.4169457	1.5546529
31.314226632946237	2.501547	1.581628
31.332429193908684	2.491791	1.5785408
31.350632565811598	2.4265916	1.5577521
31.368836749222787	2.4234657	1.5567484
31.387041744710295	2.4368923	1.5610548
31.40524755284232	2.5007405	1.581373
31.423454174187317	2.5077765	1.5835961
31.441661609313922	2.585093	1.6078224
31.459869858791002	2.557608	1.5992523
31.478078923187628	2.4838784	1.5760325
31.496288803073064	2.3569767	1.5352448
31.514499499016807	2.3553708	1.5347217
31.532711011588546	2.3229053	1.524108
31.550923341358178	2.3293943	1.5262353
31.56913648889584	2.3182795	1.5225897
31.587350454771844	2.3488014	1.53258
31.605565239556732	2.2498884	1.4999628
31.62378084382127	2.1660502	1.4717507
31.641997268136382	2.2497473	1.4999157
31.660214513073274	2.3883846	1.54544
31.67843257920331	2.4282215	1.5582751
31.6966514670981	2.3575606	1.535435
31.71487117732944	2.2666543	1.5055412
31.733091710469346	2.212321	1.4873873
31.751313067090052	2.2279525	1.4926327
31.769535247764008	2.2418356	1.4972761
31.787758253063878	2.2179618	1.4892823
31.805982083562526	2.2765696	1.5088305
31.824206739833024	2.3392212	1.5294513
31.84243222244869	2.2879968	1.5126126
31.860658531983013	2.2618642	1.5039495
31.878885669009737	2.2151322	1.488332
31.897113634102784	2.15373	1.4675592
31.91534242783632	2.1336884	1.460715
31.933572050784694	2.2057686	1.485183
31.951802503522508	2.1957657	1.4818116
31.970033786624548	2.1412904	1.4633149
31.988265900665834	2.060913	1.4355881
32.006498846221575	2.018043	1.4205784
32.02473262386724	2.0433342	1.4294524
32.04296723417845	2.1084645	1.4520552
32.0612026777311	2.189627	1.4797388
32.07943895510129	2.2290196	1.4929901
32.097676066865304	2.1793442	1.4762602
32.115914013599685	2.0537603	1.4330946
32.13415279588115	2.0062456	1.41642
32.152392414286666	2.053079	1.4328569
32.1706328693934	2.122539	1.4568937
32.18887416177875	2.1185508	1.4555242
32.20711629202032	2.1590946	1.4693857
32.225359260695924	2.1832998	1.4775994
32.243603068383614	2.1609535	1.4700181
32.26184771566166	2.138045	1.4622055
32.28009320310852	2.189333	1.4796394
32.2983395313029	2.1177237	1.4552401
32.31658670082372	2.0794485	1.4420292
32.33483471225012	2.0838342	1.4435492
32.35308356616143	2.1047094	1.4507617
32.371333263137245	2.0893903	1.4454724
32.38958380375734	2.082362	1.4430392
32.407835188601744	2.1430352	1.4639109
32.42608741825067	2.1823728	1.4772856
32.444340493284585	2.1323085	1.4602426
32.46259441428416	2.0611556	1.4356725
32.48084918183028	2.0223236	1.4220842
32.49910479650405	2.072508	1.4396209
32.51736125888683	2.2375674	1.4958501
32.53561856956014	2.2643976	1.5047915
32.5538767291058	2.1984	1.4827002
32.572135738105764	2.1311207	1.4598359
32.59039559714228	2.1158326	1.4545902
32.608656306797776	2.1122215	1.4533484
32.62691786765491	2.0764995	1.4410064
32.645180280296586	2.1016965	1.4497229
32.663443545305896	2.0517342	1.4323876
32.68170766326619	1.9824513	1.4079955
32.69997263476099	2.0261564	1.4234312
32.7182384603741	2.0341618	1.4262404
32.7365051406895	2.0707595	1.4390134
32.75477267629144	2.045151	1.4300878
32.77304106776434	2.0350492	1.4265515
32.79131031569289	1.9301548	1.3893001
32.809580420661966	1.9017724	1.3790476
32.827851383256714	1.9077392	1.3812093
32.84612320406245	1.9852353	1.4089838
32.86439588366476	2.0507307	1.4320372
32.88266942264945	2.0515714	1.4323307
32.9009438216025	2.0964012	1.4478954
32.9192190811102	2.033076	1.4258598
32.937495201758985	1.9283167	1.3886385
32.95577218413556	1.8786917	1.3706537
32.974050028826866	1.8780562	1.3704219
32.992328736420035	1.8295288	1.3526008
33.010608307502444	1.8146484	1.3470888
33.02888874266169	1.8590333	1.3634638
33.047170042485604	1.8683302	1.3668687
33.06545220756225	1.8633337	1.3650398
33.083735238479896	1.897216	1.3773947
33.10201913582707	1.9482164	1.3957852
33.12030390019248	2.0020247	1.4149292
33.138589532165135	1.9789459	1.4067501
33.15687603233419	1.9216405	1.3862325
33.17516340128909	1.9139078	1.3834405
33.19345163961947	1.9465092	1.3951735
33.211740747915215	1.967111	1.4025373
33.23003072676643	1.9404176	1.3929888
33.248321576763466	1.870832	1.3677835
33.266613298496885	1.8461343	1.3587253
33.28490589255747	1.8992087	1.3781178
33.30319935953626	1.9482926	1.3958125
33.32149370002451	2.0010345	1.4145793
33.339788914613706	2.0937245	1.4469708
33.358085003895575	2.0244	1.4228141
33.376381968462034	1.86066	1.36406
33.39467980890529	1.837211	1.3554375
33.41297852581774	2.0049849	1.4159749
33.43127811979204	2.1067035	1.4514488
33.44957859142105	2.0258355	1.4233185
33.467879941297866	1.9460325	1.3950027
33.486182170015844	1.8862234	1.3733985
33.50448527816853	1.915799	1.3841239
33.522789266349754	2.0019724	1.4149108
33.541094135153514	1.9980279	1.4135162
33.55939988517411	1.9016569	1.3790058
33.57770651700602	1.8603071	1.3639307
33.59601403124398	1.95562	1.3984349
33.61432242848296	1.9548464	1.3981582
33.632631709318154	1.9481148	1.3957489
33.650941874344994	1.8749597	1.3692917
33.66925292415916	1.8160818	1.3476207
33.68756485935654	1.8749375	1.3692836
33.70587768053328	1.8491243	1.3598251
33.724191388285746	1.7343043	1.3169299
33.74250598321054	1.751032	1.3232657
33.760821465904506	1.9613461	1.4004806
33.77913783696474	2.0628877	1.4362756
33.79745509698852	2.1204393	1.4561728
33.815773246573414	2.1321156	1.4601766
33.8340922863172	2.078639	1.4417486
33.852412216817896	2.012265	1.4185432
33.87073303867377	1.9800463	1.4071412
33.889054752483304	1.9967681	1.4130704
33.907377358845245	1.8889866	1.3744041
33.92570085835853	1.7954892	1.3399587
33.94402525162239	1.8586713	1.363331
33.96235053923627	2.0119083	1.4184176
33.980676721799824	1.9522482	1.3972287
33.999003799912984	1.8642328	1.3653691
34.01733177417592	1.8160399	1.3476052
34.03566064518901	1.7415923	1.319694
34.0539904135529	1.8012376	1.3421019
34.07232107986846	1.9452579	1.3947251
34.090652644736785	2.033861	1.426135
34.108985108759235	2.0447147	1.4299352
34.12731847253742	2.0800214	1.442228
34.14565273667313	2.1351917	1.4612296
34.16398790176847	2.055373	1.4336572
34.18232396842574	2.0108922	1.4180593
34.20066093724749	1.9579674	1.3992739
34.21899880883651	1.9141117	1.3835143
34.23733758379583	1.9876283	1.4098327
34.25567726272874	1.9189445	1.3852597
34.27401784623872	1.7712349	1.3308774
34.29235933492957	1.7496302	1.3227359
34.31070172940526	1.8869268	1.3736545
34.32904503027003	1.9796581	1.4070033
34.347389238128386	2.0325897	1.4256892
34.36573435358502	2.1890876	1.4795566
34.38408037724492	2.147196	1.4653314
34.402427309713296	2.0159595	1.4198449
34.42077515159559	1.8976072	1.3775367
34.43912390349752	1.9399638	1.3928258
34.45747356602499	1.8230647	1.3502091
34.47582413978423	1.76816	1.3297218
34.49417562538163	1.8023096	1.3425013
34.51252802342388	1.9068133	1.380874
34.53088133451789	1.9690976	1.4032453
34.54923555927084	1.9611641	1.4004157
34.567590698290104	1.9434803	1.3940876
34.58594675218336	2.0083566	1.4171649
34.6043037215585	2.0728333	1.4397337
34.62266160702365	2.0136936	1.4190468
34.641020409187234	2.0377991	1.427515
34.65938012865785	1.9851846	1.4089658
34.677740766044394	1.9468448	1.3952938
34.69610232195598	1.7816439	1.3347824
34.714464797002016	1.7226105	1.3124826
34.73282819179208	1.8009506	1.341995
34.751192506936064	1.9432273	1.3939968
34.76955774304408	2.01949	1.4210876
34.7879239007265	1.9134672	1.3832814
34.80629098059391	1.8324102	1.3536655
34.824658983257194	2.0460517	1.4304026
34.843027909327446	1.9764977	1.4058796
34.86139775941603	1.8977933	1.3776041
34.879768534134534	2.0365307	1.4270707
34.89814023409483	2.0866683	1.4445305
34.91651285990901	2.0541031	1.4332143
34.93488641218944	2.154964	1.4679796
34.95326089154871	2.1355972	1.4613683
34.97163629859967	1.8132728	1.3465782
34.99001263395542	1.7414955	1.3196573
35.00838989822934	1.8005569	1.3418484
35.02676809203499	1.829669	1.3526525
35.04514721598624	1.7093619	1.3074257
35.063527270697215	1.7021685	1.3046718
35.081908256782256	1.7758813	1.3326219
35.10029017485597	1.835597	1.3548421
35.11867302553321	1.952461	1.3973049
35.137056809429104	2.1685727	1.4726075
35.155441527159006	2.1935039	1.4810482
35.173827179338524	2.0844421	1.4437597
35.19221376658354	2.0009732	1.4145576
35.21060128951017	2.0418096	1.4289191
35.2289897487348	2.0982053	1.4485183
35.24737914487405	2.1590927	1.4693851
35.26576947854479	2.1978867	1.4825271
35.28416075036418	1.9633828	1.4012077
35.30255296094958	1.990954	1.4110117
35.32094611091867	2.2210994	1.4903353
35.33934020088932	2.1397984	1.462805
35.35773523147969	2.020553	1.4214616
35.3761312033082	2.0310886	1.4251627
35.394528116993506	2.2770107	1.5089767
35.41292597315452	2.2718108	1.5072527
35.431324772410434	2.2999492	1.5165583
35.449724515380666	2.309633	1.5197477
35.46812520268491	2.231983	1.4939822
35.486526834943106	2.2783692	1.5094268
35.504929412775454	2.1411486	1.4632664
35.52333293680242	1.7276112	1.3143862
35.54173740764471	1.375245	1.1727084
35.560142825923286	1.218975	1.104072
35.5785491922594	1.068425	1.0336465
35.59695650727454	0.8963791	0.946773
35.61536477159042	1.3578206	1.1652557
