0.008763373481513119	0.0	0.0
0.026290120649546365	0.0	0.0
0.043816868432600686	0.0	0.0
0.06134361724069026	0.06194876	0.24889508
0.07887036748382949	0.14334916	0.37861478
0.0963971195720331	0.11851892	0.34426576
0.11392387391531617	0.16042767	0.40053424
0.1314506309236943	0.08964537	0.29940838
0.1489773910071836	0.10102793	0.31784892
0.16650415457580078	0.10506053	0.32413042
0.18403092203956356	0.11746206	0.3427274
0.20155769380849	0.17235841	0.41516072
0.2190844702925996	0.20188266	0.44931355
0.2366112519019124	0.20105785	0.44839475
0.2541380390464497	0.12826549	0.35814172
0.27166483213623416	0.05504375	0.23461404
0.28919163158128947	0.049130462	0.22165392
0.3067184377916406	0.076891765	0.27729365
0.324245251177314	0.1303847	0.36108822
0.34177207214833777	0.12267018	0.35024303
0.3592989011147415	0.12620422	0.35525233
0.37682573848655654	0.17767872	0.42151955
0.39435258467381573	0.23963422	0.48952448
0.41187944008655414	0.2639646	0.5137749
0.42940630513480854	0.25359997	0.5035871
0.446933180228618	0.21959114	0.46860552
0.4644600657780234	0.18994677	0.43582883
0.48198696219306775	0.17678617	0.42045948
0.49951386988379676	0.14623453	0.38240623
0.5170407892602581	0.13764322	0.371003
0.5345677207325025	0.11484695	0.33889076
0.5520946647105822	0.097278625	0.31189522
0.5696216216045534	0.13507691	0.3675281
0.5871485918244737	0.21042031	0.45871595
0.6046755757804043	0.2180749	0.4669849
0.6222025738824094	0.20690492	0.45486802
0.6397295865405557	0.18104622	0.42549527
0.6572566141649129	0.16001222	0.40001526
0.6747836571655547	0.16905208	0.41115943
0.6923107159525568	0.15180016	0.3896154
0.7098377909359992	0.17355199	0.41659573
0.7273648825259653	0.16514786	0.40638387
0.7448919911325411	0.16331516	0.4041227
0.762419117165817	0.15552115	0.3943617
0.7799462610358868	0.14945842	0.38659853
0.7974734231528482	0.15981577	0.39976966
0.8150006039268024	0.15590587	0.39484918
0.8325278037678551	0.17560501	0.4190525
0.8500550230861152	0.20672181	0.4546667
0.8675822622916969	0.22731517	0.4767758
0.8851095217947171	0.21771567	0.46660012
0.9026368020052984	0.2000814	0.44730458
0.9201641033335665	0.24290453	0.49285346
0.9376914261896523	0.25645792	0.50641674
0.9552187709836915	0.25313458	0.50312483
0.9727461381258234	0.24997267	0.49997267
0.990273528026193	0.23264788	0.48233587
1.0078009410949496	0.26182652	0.51168984
1.0253283777422473	0.23471914	0.4844782
1.0428558383782454	0.24808389	0.4980802
1.0603833234131086	0.28822526	0.5368661
1.0779108332570058	0.34842074	0.5902718
1.0954383683201119	0.3950891	0.62856114
1.112965929012607	0.4317322	0.6570633
1.1304935157446763	0.5143621	0.71719044
1.1480211289265108	0.52114415	0.72190315
1.1655487689683062	1.3332886	1.1546812
1.1830764362802655	1.6046584	1.266751
1.200604131272596	2.0387137	1.4278353
1.2181318543555117	2.2717586	1.5072354
1.235659605939232	2.2843506	1.5114069
1.253187386433982	3.847168	1.9614199
1.270715196249994	6.237035	2.4974055
1.2882430357975057	11.875318	3.4460583
1.3057709054867608	16.874521	4.107861
1.3232988057280106	22.620237	4.756074
1.3408267369315112	27.312119	5.2261
1.358354699507526	30.577589	5.5297008
1.3758826938663256	34.63548	5.8851914
1.3934107204181858	37.13651	6.093973
1.410938779573391	37.59437	6.131425
1.4284668717422309	38.359196	6.19348
1.4459949973350033	37.631023	6.1344132
1.4635231567620117	37.60438	6.1322412
1.4810513504335687	37.097538	6.090775
1.4985795787599925	36.25181	6.0209475
1.5161078421516088	35.7262	5.97714
1.5336361410187505	34.773037	5.896867
1.5511644757717598	34.85181	5.903542
1.5686928468209842	35.595646	5.9662085
1.58622125457678	36.21184	6.0176277
1.6037496994495108	37.219307	6.100763
1.621278181849548	36.930195	6.077022
1.6388067021872719	37.925793	6.158392
1.6563352608730693	37.587646	6.1308765
1.673863858317336	36.76191	6.06316
1.6913924949304753	36.063957	6.005327
1.7089211711228998	34.585865	5.880975
1.7264498873050296	33.790127	5.8129277
1.7439786438872935	32.49587	5.700515
1.7615074412801288	31.50197	5.612662
1.779036279893981	30.966797	5.5647817
1.796565160139305	30.19732	5.4952087
1.814094082426564	29.640018	5.444265
1.8316230471662298	29.031178	5.3880587
1.849152054768784	28.14396	5.305088
1.8666811056447168	27.691364	5.2622585
1.8842102002045273	26.755804	5.172601
1.901739338858724	26.071852	5.1060605
1.9192685220178245	25.527401	5.052465
1.9367977500923557	24.895992	4.9895883
1.9543270234928547	24.777271	4.9776773
1.971856342629867	24.056509	4.9047437
1.9893857079139496	23.589111	4.856862
2.006915119755667	23.210228	4.8176994
2.0244445785655945	22.728888	4.7674823
2.0419740847543175	22.271727	4.719293
2.0595036387324317	21.665104	4.6545787
2.0770332409105414	20.965551	4.5788155
2.094562891699263	20.44353	4.521452
2.1120925915092217	19.911663	4.462249
2.129622340751053	19.62001	4.429448
2.1471521398354043	187.82355	13.704873
2.1646819891729323	444.01608	21.07169
2.182211889174303	440.3484	20.98448
2.1997418402501974	452.73477	21.277565
2.2172718428113023	432.6758	20.800861
2.234801897268317	320.4846	17.902082
2.2523320040319548	16.731634	4.090432
2.269862163512935	16.388767	4.048304
2.287392376121992	15.993441	3.99918
2.304922642269869	15.919102	3.9898748
2.322452962367322	15.806941	3.9757943
2.3399833368251164	15.597401	3.9493544
2.357513766054032	15.456109	3.9314258
2.3750442504648586	15.259599	3.9063537
2.3925747904683963	15.025371	3.8762572
2.410105386475459	14.760074	3.8418841
2.4276360388968707	14.404059	3.795268
2.445166748143469	14.174593	3.7649162
2.4626975146261025	13.972011	3.7379153
2.4802283387556323	13.653908	3.6951194
2.4977592209429305	13.337854	3.6521027
2.5152901615988825	12.998985	3.6054106
2.5328211611343865	12.732144	3.568213
2.5503522199603523	12.430495	3.5256908
2.5678833384877024	12.173439	3.4890456
2.5854145171273712	11.790109	3.4336727
2.6029457562903064	11.645055	3.4124851
2.620477056387469	11.64462	3.4124215
2.6380084178298326	11.677628	3.4172544
2.655539841028383	11.45543	3.384587
2.673071326394119	11.3019	3.3618298
2.6906028743380523	11.082525	3.3290427
2.708134485271211	10.932736	3.306469
2.7256661596046325	10.699237	3.270969
2.743197897749369	10.367398	3.2198443
2.760729700116486	10.201736	3.1940157
2.778261567117063	10.023473	3.1659868
2.795793499162193	10.021387	3.1656575
2.8133254966629817	10.008228	3.1635785
2.830857560030551	9.809897	3.1320755
2.8483896896760337	9.765632	3.125001
2.865921886010578	9.620405	3.101678
2.883454149445347	9.495808	3.0815268
2.9009864803915177	9.393781	3.0649276
2.91851887926028	9.184921	3.0306635
2.9360513464628384	9.09804	3.0162957
2.953583882410413	8.951848	2.9919639
2.9711164875142373	8.828849	2.9713378
2.9886491621855606	8.685341	2.9470901
3.0061819068356455	8.56521	2.9266381
3.023714721875769	8.443419	2.9057562
3.041247607717225	8.312158	2.8830812
3.0587805647713213	8.225679	2.8680446
3.0763135934493806	8.135969	2.852362
3.0938466941627407	8.030939	2.8338912
3.1113798673227544	8.138464	2.8527994
3.1289131133407904	8.180449	2.8601484
3.1464464326282315	8.0022	2.828816
3.1639798255964786	7.7796335	2.7891994
3.1815132926569443	7.5781407	2.7528422
3.1990468342210603	7.5419335	2.746258
3.216580450700272	7.524023	2.7429953
3.2341141425060416	7.3404264	2.7093222
3.251647910049847	7.248256	2.6922586
3.2691817537431813	7.10094	2.664759
3.286715673997555	7.0778246	2.660418
3.3042496712244938	7.046509	2.654526
3.32178374583554	6.9792333	2.6418238
3.339317898242251	7.0287757	2.6511838
3.3568521288562034	6.888875	2.6246667
3.3743864380889876	6.816405	2.6108246
3.3919208263522127	6.695126	2.5874941
3.4094552940575023	6.621887	2.5733027
3.4269898416164972	6.5859838	2.566317
3.444524469440858	6.5204835	2.5535238
3.4620591779422587	6.4882584	2.547206
3.479593967532391	6.5551486	2.5603025
3.4971288386229658	6.6189146	2.572725
3.5146637916257086	6.559692	2.5611897
3.5321988269523628	6.4818416	2.5459461
3.5497339450146903	6.325537	2.515062
3.5672691462244708	6.2208767	2.4941685
3.5848044309934988	6.161866	2.4823108
3.60233979973359	6.057282	2.4611547
3.619875252856575	6.095421	2.4688907
3.6374107907743034	6.171632	2.484277
3.6549464138986427	6.319241	2.5138102
3.6724821226414788	6.3367786	2.5172958
3.690017917414714	6.319701	2.5139015
3.7075537986302702	6.335147	2.5169718
3.7250897667000857	6.3636975	2.5226371
3.7426258220361235	6.444442	2.5385904
3.7601619650503553	6.7921004	2.606166
3.777698196154779	7.3259006	2.70664
3.7952345157614067	8.367497	2.8926628
3.8127709242822716	9.1008835	3.016767
3.830307422129425	11.404592	3.3770685
3.847844009714936	30.29939	5.5044885
3.8653806874508954	97.88957	9.893916
3.882917455749409	97.06924	9.852372
3.900454315022606	96.704994	9.83387
3.917991265682631	41.234543	6.421413
3.9355283081416506	10.886523	3.2994733
3.9530654428118495	8.746139	2.9573872
3.970602670105433	7.5408134	2.7460542
3.9881399904346244	6.6073165	2.57047
4.005677404211669	6.393887	2.5286136
4.023214911848827	6.2935476	2.5086944
4.0407525137583855	6.336037	2.5171487
4.058290210352644	6.429165	2.5355797
4.075828002043927	6.3800807	2.5258822
4.0933658892445814	6.2516246	2.500325
4.110903872366966	6.144332	2.4787762
4.128441951823468	5.9983287	2.4491487
4.145980128026488	6.015975	2.4527485
4.163518401388452	6.1011715	2.4700549
4.181056772321807	6.2604113	2.5020814
4.1985952412390155	6.307454	2.5114646
4.216133808552567	6.3274913	2.5154505
4.233672474674966	6.31802	2.5135672
4.251211240018741	6.548789	2.55906
4.268750104996445	6.7466583	2.597433
4.286289070020643	7.6600275	2.7676754
4.303828135503928	9.222163	3.0368016
4.3213673018589125	29.575006	5.4382906
4.3389065694982305	90.76009	9.526809
4.356445938834537	166.00668	12.884358
4.3739854102805085	171.38594	13.091445
4.391524984248844	172.178	13.121661
4.409064661152262	136.30363	11.674914
4.426604441403504	96.59367	9.828208
4.444144325415337	75.515785	8.689981
4.461684313600543	21.651815	4.653151
4.47922440637193	22.011246	4.6916146
4.496764604142329	20.511322	4.5289426
4.5143049073245916	18.781345	4.333745
4.531845316331589	16.642708	4.0795474
4.5493858315762195	13.772797	3.7111719
4.566926453471405	11.39007	3.3749177
4.584467182430081	9.253516	3.0419593
4.602008018865218	8.159969	2.856566
4.619548963189798	7.476663	2.7343488
4.637090015816834	7.0055294	2.646796
4.654631177159353	6.708475	2.5900724
4.672172447630417	6.5301466	2.5554152
4.689713827643102	6.4115906	2.532112
4.7072553176105085	6.2464304	2.499286
4.724796917945764	5.958488	2.4410014
4.742338629062015	5.753015	2.3985443
4.759880451372434	5.616402	2.369895
4.777422385290215	5.672979	2.3818016
4.794964431228581	5.690909	2.3855627
4.812506589600768	5.669687	2.3811104
4.830048860820047	5.586668	2.3636134
4.847591245299709	5.6303854	2.3728433
4.8651337434530655	5.710439	2.3896525
4.882676355693457	5.7855577	2.4053187
4.900219082434242	5.728061	2.3933368
4.917761924088813	5.6602783	2.379134
4.935304881070575	5.541599	2.3540602
4.952847953792969	5.555936	2.3571033
4.970391142669449	5.5397987	2.3536777
4.9879344481135055	5.583678	2.3629806
5.005477870538642	5.5397267	2.3536625
5.023021410358394	5.5106564	2.3474786
5.040565067986324	5.4469357	2.333867
5.05810884383601	5.357339	2.3145926
5.075652738321066	5.4122944	2.326434
5.09319675185512	5.394662	2.3226411
5.110740884851836	5.383923	2.3203282
5.128285137724894	5.395322	2.3227832
5.145829510888007	5.41612	2.327256
5.163374004754908	5.470825	2.3389795
5.1809186197393595	5.398171	2.3233964
5.198463356255145	5.3512154	2.3132694
5.216008214716077	5.336006	2.3099797
5.233553195535998	5.2982287	2.301788
5.251098299128764	5.242739	2.289703
5.268643525908272	5.1458898	2.2684553
5.286188876288432	5.108558	2.260212
5.3037343506831895	5.1683135	2.2733924
5.32127994950651	5.210225	2.2825918
5.3388256731723915	5.249043	2.291079
5.356371522094851	5.226679	2.2861931
5.373917496687938	5.1840415	2.276849
5.391463597365729	5.1527433	2.2699654
5.40900982454232	5.153749	2.270187
5.426556178631843	5.1279793	2.2645042
5.444102660048449	5.13617	2.266312
5.4616492692063225	5.1242247	2.263675
5.479196006519669	5.171406	2.2740724
5.496742872402727	5.182025	2.276406
5.514289867269756	5.246826	2.290595
5.531836991535049	5.190607	2.2782903
5.549384245612924	5.165945	2.2728715
5.566931629917724	5.116579	2.2619855
5.584479144863822	5.0934944	2.2568772
5.6020267908656205	5.059217	2.2492704
5.619574568337545	5.0935044	2.2568793
5.637122477694054	5.163662	2.2723691
5.654670519349629	5.2094316	2.282418
5.672218693718784	5.133292	2.265677
5.689767001216059	5.07665	2.2531424
5.707315442256021	5.0619216	2.2498715
5.724864017253266	5.1492114	2.2691875
5.7424127266224225	5.167512	2.2732162
5.75996157077814	5.162005	2.2720046
5.777510550135105	5.1618958	2.2719805
5.795059665108022	5.13251	2.2655044
5.812608916111639	5.121248	2.2630174
5.830158303560715	5.222035	2.2851772
5.847707827870055	5.266483	2.2948818
5.86525748945448	5.406794	2.3252513
5.8828072887288485	5.504364	2.346138
5.900357226108044	5.537121	2.3531086
5.917907302006979	5.6315165	2.3730817
5.9354575168406	6.1994147	2.4898624
5.9530078710238765	6.771028	2.60212
5.970558364971812	7.288443	2.6997116
5.988108999099438	7.660651	2.7677882
6.005659773821818	8.352288	2.8900325
6.023210689554039	8.023215	2.832528
6.040761746711227	8.350599	2.8897405
6.058312945708531	7.7048016	2.7757525
6.075864286961132	7.216364	2.6863291
6.093415770884244	6.6373935	2.576314
6.1109673978931065	6.0247912	2.454545
6.128519168402993	5.515291	2.3484657
6.146071082829204	5.3411636	2.3110957
6.163623141587075	5.28839	2.29965
6.181175345091969	5.2211595	2.2849855
6.198727693759281	5.2556376	2.2925177
6.216280188004435	5.288512	2.2996767
6.233832828242885	5.2960877	2.301323
6.251385614890126	5.3261056	2.3078356
6.268938548361669	5.2914233	2.3003094
6.286491629073067	5.197942	2.2798996
6.304044857439898	5.1049957	2.2594237
6.321598233877777	4.9897766	2.2337809
6.339151758802344	4.9295645	2.2202623
6.356705432629277	4.878091	2.20864
6.37425925577428	4.891662	2.2117102
6.391813228653095	4.963203	2.2278247
6.409367351681486	5.033939	2.243644
6.426921625275259	4.971137	2.2296047
6.44447604985025	4.9522552	2.2253664
6.46203062582232	4.935061	2.2214997
6.47958535360737	4.9683676	2.2289836
6.497140233621328	4.9366026	2.2218466
6.514695266280161	4.974294	2.2303126
6.532250451999859	5.059391	2.249309
6.549805791196454	5.1593432	2.2714188
6.567361284286002	5.1187005	2.2624545
6.584916931684597	5.0697875	2.2516189
6.602472733808367	4.950659	2.2250075
6.6200286910734665	4.9424934	2.223172
6.637584803896092	4.974651	2.2303925
6.655141072692462	5.0578423	2.2489648
6.672697497878842	5.071745	2.2520535
6.690254079871514	4.9968395	2.235361
6.707810819086808	4.95164	2.225228
6.725367715941078	4.9422784	2.2231236
6.742924770850719	4.979044	2.2313771
6.760481984232151	5.0263667	2.241956
6.778039356501836	5.0448775	2.2460804
6.795596888076266	5.064461	2.2504358
6.813154579371963	5.106647	2.2597892
6.830712430805492	5.100516	2.2584321
6.84827044279344	5.0556703	2.2484818
6.865828615752445	4.981236	2.2318683
6.883386950099159	4.9874883	2.2332685
6.900945446250287	4.9706564	2.229497
6.918504104622553	4.9735074	2.2301362
6.936062925632727	4.919538	2.2180033
6.953621909697607	4.9101667	2.2158897
6.971181057234028	4.8921995	2.2118318
6.988740368658859	5.002354	2.2365942
7.006299844389007	5.086919	2.25542
7.023859484841407	5.2081885	2.2821455
7.041419290433036	5.349413	2.3128798
7.058979261580902	5.492996	2.3437142
7.0765393987020495	5.69602	2.3866336
7.094099702213559	6.047499	2.4591663
7.111660172532549	6.39445	2.528725
7.129220810076164	6.8141594	2.6103945
7.146781615261595	7.52578	2.7433155
7.16434258850606	7.7902966	2.7911103
7.181903730226821	8.1698065	2.8582873
7.1994650408411704	8.218439	2.866782
7.217026520766437	8.271129	2.875957
7.234588170419983	8.449705	2.9068377
7.252149990219215	8.483888	2.9127114
7.269711980581568	8.37459	2.8938885
7.2872741419245175	8.198866	2.8633661
7.304836474665574	7.7962217	2.7921715
7.322398979222286	7.490271	2.736836
7.339961656012233	7.2461443	2.6918664
7.357524505453039	6.9353127	2.6334982
7.375087527962357	6.6301575	2.5749092
7.392650723957886	6.3506923	2.520058
7.410214093857353	5.9866333	2.4467597
7.427777638078528	5.7238817	2.3924634
7.445341357039213	5.555156	2.356938
7.4629052511572525	5.4171696	2.3274813
7.480469320850524	5.3641405	2.3160615
7.498033566536948	5.3298187	2.30864
7.5155979886344735	5.3010445	2.3023996
7.5331625875610975	5.251728	2.2916648
7.550727363734844	5.1716957	2.2741363
7.568292317573788	5.16141	2.2718737
7.585857449496025	5.1719146	2.2741845
7.603422759919705	5.2263184	2.2861142
7.620988249263007	5.2019367	2.2807755
7.638553917944147	5.2012186	2.280618
7.656119766381391	5.143408	2.2679083
7.673685794993023	5.1928544	2.2787836
7.691252004197388	5.2123117	2.2830489
7.70881839441285	5.25196	2.2917154
7.726384966057826	5.2585864	2.2931607
7.743951719550762	5.2416487	2.2894647
7.761518655310149	5.251245	2.2915595
7.779085773754511	5.228111	2.2865062
7.796653075302419	5.195504	2.2793648
7.814220560372475	5.23335	2.2876515
7.831788229383323	5.232525	2.2874713
7.8493560827536495	5.2448754	2.2901692
7.866924120902174	5.275358	2.2968147
7.884492344247663	5.2757525	2.2969007
7.9020607532089135	5.350006	2.313008
7.919629348204771	5.415628	2.32715
7.937198129654115	5.4338484	2.3310616
7.954767097975865	5.429071	2.3300366
7.972336253588986	5.3803916	2.3195672
7.989905596912472	5.3389564	2.3106182
8.007475128365371	5.382445	2.3200097
8.025044848366756	5.434177	2.3311322
8.042614757335754	5.6097507	2.3684912
8.060184855691523	5.6860814	2.3845506
8.07775514385327	5.8226666	2.4130201
8.095325622240228	5.844356	2.4175103
8.112896291271687	5.8891063	2.426748
8.130467151366968	5.886057	2.4261198
8.148038202945436	5.9086223	2.4307659
8.165609446426497	5.998262	2.4491348
8.183180882229594	6.0497723	2.4596286
8.200752510774217	6.0243177	2.4544485
8.218324332479893	5.9631777	2.4419618
8.235896347766193	5.923159	2.4337542
8.253468557052724	5.9200077	2.4331067
8.27104096075914	5.8485007	2.4183674
8.288613559305137	5.889815	2.4268942
8.306186353110448	5.9913015	2.4477136
8.32375934259485	6.177948	2.4855478
8.341332528178162	6.1854243	2.4870512
8.358905910280246	6.265473	2.5030928
8.376479489321003	6.2077503	2.4915357
8.394053265720377	6.2488313	2.4997663
8.411627239898356	6.2695193	2.5039008
8.42920141227497	6.2841926	2.5068293
8.44677578327029	6.349207	2.5197632
8.464350353304427	6.328402	2.5156314
8.48192512279754	6.277037	2.5054016
8.499500092169827	6.179307	2.4858212
8.51707526184153	6.105385	2.4709077
8.534650632232934	6.133333	2.4765568
8.552226203764365	6.203948	2.4907725
8.569801976856192	6.2447977	2.4989593
8.587377951928834	6.3188267	2.5137277
8.60495412940274	6.353343	2.5205839
8.622530509698416	6.386157	2.5270846
8.6401070932364	6.4781466	2.5452204
8.657683880437283	6.5396194	2.557268
8.675260871721695	6.650394	2.5788357
8.692838067510303	6.7383804	2.595839
8.710415468223834	6.87074	2.6212096
8.727993074283043	7.0668373	2.6583524
8.745570886108737	7.1600447	2.675826
8.763148904121765	7.172315	2.6781178
8.78072712874302	7.148746	2.673714
8.798305560393441	7.3316407	2.7077003
8.815884199494006	7.4887476	2.7365577
8.833463046465745	7.6795177	2.7711942
8.851042101729728	7.794786	2.7919145
8.86862136570707	8.026394	2.833089
8.886200838818924	8.173544	2.858941
8.903780521486505	8.269837	2.8757324
8.921360414131055	8.544891	2.9231646
8.938940517173874	8.679885	2.9461644
8.956520831036297	8.824136	2.9705446
8.97410135613971	8.979142	2.9965217
8.99168209290554	9.125361	3.0208213
9.009263041755265	9.444711	3.0732248
9.026844203110405	9.692774	3.113322
9.044425577392525	9.914523	3.1487336
9.062007165023239	9.920743	3.1497211
9.079588966424197	10.189211	3.1920543
9.097170982017108	10.291262	3.2079997
9.11475321222372	11.281899	3.3588538
9.132335657465825	12.133555	3.4833252
9.149918318165264	12.232752	3.4975352
9.167501194743924	12.765745	3.5729184
9.18508428762374	12.474875	3.531979
9.202667597226693	12.522968	3.5387807
9.220251123974803	12.3396635	3.5127857
9.237834868290143	12.040351	3.4699209
9.255418830594836	11.719968	3.4234438
9.273003011311046	11.220662	3.3497257
9.290587410860985	10.992171	3.3154445
9.308172029666911	10.413791	3.2270405
9.32575686815113	10.12238	3.1815689
9.343341926735997	8.8311825	2.9717305
9.360927205843916	8.619131	2.9358356
9.378512705897327	8.390004	2.8965504
9.396098427318728	8.187103	2.8613114
9.413684370530664	8.062902	2.839525
9.431270535955722	7.9311805	2.816235
9.448856924016539	7.8757315	2.8063734
9.466443535135806	7.729763	2.780245
9.484030369736251	7.7118783	2.777027
9.501617428240658	7.6716805	2.76978
9.519204711071852	7.74507	2.7829967
9.536792218652714	7.83791	2.7996268
9.55437995140617	7.873658	2.806004
9.571967909755191	7.8914714	2.8091762
9.589556094122802	7.9169617	2.8137095
9.60714450493207	7.918233	2.8139355
9.624733142606116	7.9253473	2.8151994
9.642322007568108	7.9540753	2.820297
9.659911100241267	7.985497	2.8258622
9.677500421048851	8.020064	2.831972
9.695089970414175	8.003718	2.8290844
9.712679748760609	7.9655085	2.8223233
9.730269756511557	8.039078	2.8353267
9.747859994090492	8.085861	2.843565
9.765450461920915	8.17277	2.8588057
9.78304116042639	8.212111	2.865678
9.800632090030527	8.243119	2.8710833
9.81822325115699	8.357446	2.8909247
9.835814644229481	8.327198	2.8856885
9.853406269671762	8.23739	2.8700852
9.870998127907646	8.20019	2.8635974
9.888590219360985	8.210506	2.8653982
9.906182544455698	8.289371	2.8791268
9.923775103615734	8.327967	2.8858216
9.941367897265108	8.313567	2.8833258
9.958960925827878	8.346107	2.888963
9.97655418972816	8.332518	2.88661
9.994147689390106	8.362546	2.8918066
10.011741425237934	8.343105	2.8884435
10.029335397695904	8.320134	2.8844643
10.04692960718833	8.297488	2.880536
10.06452405413958	8.359424	2.8912668
10.082118738974064	8.367277	2.8926246
10.099713662116246	8.299323	2.8808546
10.117308823990651	8.171364	2.8585598
10.134904225021844	8.126796	2.8507535
10.152499865634445	8.09855	2.8457952
10.170095746253125	8.142673	2.8535368
10.18769186730261	8.169739	2.8582754
10.205288229207675	8.151794	2.8551347
10.222884832393145	8.126749	2.8507454
10.2404816772839	8.063165	2.8395712
10.258078764304868	8.046395	2.836617
10.275676093881035	8.098672	2.8458166
10.293273666437438	8.149265	2.8546917
10.310871482399158	8.208661	2.865076
10.32846954219134	8.185394	2.8610127
10.346067846239173	8.193791	2.86248
10.363666394967908	8.175145	2.859221
10.38126518880283	8.182449	2.8604982
10.398864228169298	8.224237	2.867793
10.416463513492713	8.216601	2.8664615
10.434063045198531	8.235366	2.8697326
10.451662823712262	8.237543	2.870112
10.469262849459467	8.250734	2.872409
10.486863122865758	8.150754	2.8549526
10.504463644356806	8.076411	2.8419027
10.522064414358338	8.019493	2.831871
10.539665433296118	7.987211	2.8261654
10.557266701595987	7.972195	2.8235075
10.574868219683818	7.86231	2.803981
10.592469987985552	7.790817	2.7912035
10.610072006927185	7.741738	2.7823977
10.627674276934751	7.663413	2.768287
10.64527679843435	7.5385714	2.745646
10.662879571852143	7.4179487	2.723591
10.680482597614331	7.3308697	2.707558
10.698085876147173	7.2738686	2.697011
10.715689407876988	7.154529	2.6747952
10.733293193230146	6.959848	2.6381524
10.750897232633072	6.8106117	2.609715
10.76850152651225	6.664607	2.58159
10.786106075294207	6.5550694	2.560287
10.803710879405534	6.4616594	2.5419793
10.821315939272877	6.3792977	2.5257273
10.83892125532294	6.291284	2.5082433
10.856526827982472	6.2510715	2.5002143
10.874132657678285	6.237487	2.4974961
10.891738744837243	6.2210827	2.4942098
10.909345089886271	6.198851	2.4897492
10.926951693252343	6.1456676	2.4790456
10.944558555362494	6.078491	2.4654596
10.96216567664381	5.991746	2.4478042
10.979773057523436	5.84811	2.4182866
10.997380698428573	5.764259	2.400887
11.014988599786477	5.7161655	2.3908503
11.032596762024461	5.6956377	2.3865535
11.050205185569892	5.660546	2.3791902
11.067813870850198	5.616471	2.3699095
11.085422818292859	5.522874	2.3500795
11.10303202832541	5.4451785	2.3334906
11.120641501375454	5.3595805	2.3150768
11.138251237870636	5.326748	2.3079748
11.155861238238671	5.2891307	2.2998111
11.173471502907317	5.232892	2.2875516
11.191082032304402	5.176447	2.2751806
11.208692826857805	5.1250334	2.2638535
11.226303886995465	5.060365	2.2495255
11.243915213145371	4.997461	2.2355
11.261526805735578	4.9395385	2.2225072
11.279138665194196	4.894801	2.2124197
11.296750791949393	4.836573	2.1992211
11.314363186429393	4.770776	2.1842105
11.331975849062479	4.665923	2.1600747
11.34958878027699	4.635863	2.1531055
11.36720198050133	4.5891657	2.1422338
11.384815450163948	4.558744	2.1351216
11.402429189693366	4.504288	2.122331
11.420043199518153	4.475353	2.115503
11.437657480066942	63.483517	7.967654
11.455272031768422	85.222855	9.231623
11.472886855051353	107.61194	10.373617
11.490501950344528	99.176544	9.958742
11.508117318076819	84.51159	9.193019
11.52573295867715	45.864433	6.7723284
11.543348872574514	4.1854477	2.0458367
11.560965060197946	4.195988	2.0484111
11.57858152197655	4.176897	2.0437458
11.59619825833949	4.0998535	2.0248096
11.613815269715985	4.0088167	2.002203
11.631432556535323	38.472565	6.2026258
11.649050119226837	83.07229	9.1144
11.666667958219929	93.49645	9.669356
11.68428607394406	107.727356	10.379179
11.701904466828756	82.47031	9.081316
11.719523137303586	65.285736	8.079959
11.737142085798196	4.5600295	2.1354225
11.754761312742286	3.719191	1.9285204
11.772380818565619	3.6406934	1.9080601
11.790000603698015	3.6318836	1.9057502
11.80762066856935	3.5836837	1.893062
11.825241013609572	3.5470233	1.8833543
11.842861639248683	3.4970424	1.870038
11.860482545916748	3.4636471	1.8610876
11.878103734043883	3.4402657	1.8547953
11.895725204060282	3.4496458	1.8573222
11.91334695639619	3.432171	1.852612
11.930968991481919	3.4266207	1.8511133
11.948591309747824	3.4253395	1.8507673
11.966213911624347	3.438057	1.8541998
11.98383679754198	3.3954635	1.8426783
12.001459967931268	3.3748558	1.8370781
12.019083423222835	3.3334928	1.8257855
12.036707163847352	3.2837617	1.8121153
12.05433119023556	3.2202349	1.7945013
12.071955502818259	3.1644936	1.7789023
12.089580102026313	3.1360404	1.7708869
12.107204988290643	3.1749127	1.7818285
12.12483016204224	3.2038116	1.7899195
12.142455623712152	3.1871572	1.785261
12.16008137373149	3.137166	1.7712047
12.177707412531431	3.0860057	1.756703
12.19533374054321	3.074538	1.7534361
12.212960358198126	3.055309	1.7479442
12.230587265927545	3.0362816	1.7424929
12.248214464162889	3.0167933	1.7368919
12.265841953335649	2.9993618	1.7318666
12.283469733877375	3.0022848	1.7327102
12.301097806219685	2.9870758	1.7283158
12.31872617079425	2.9690428	1.723091
12.336354828032825	2.9743288	1.7246243
12.353983778367205	2.9682872	1.7228718
12.371613022229262	3.003137	1.7329562
12.389242560050928	2.973636	1.7244234
12.406872392264201	2.9612403	1.7208254
12.424502519301143	2.9175756	1.7080913
12.442132941593874	2.91493	1.7073166
12.459763659574586	2.874357	1.6953928
12.477394673675532	2.868853	1.6937689
12.49502598432903	2.8626351	1.6919323
12.51265759196746	2.8282535	1.6817412
12.530289497023267	2.8216126	1.6797656
12.547921699928967	2.8048759	1.6747763
12.565554201117134	2.803093	1.674244
12.583187001020404	2.7818847	1.6678983
12.600820100071486	2.7735744	1.6654052
12.618453498703152	2.759427	1.6611524
12.636087197348235	2.7490375	1.6580222
12.65372119643964	2.7530813	1.6592412
12.671355496410326	2.7688482	1.6639856
12.68899009769333	2.8101115	1.6763387
12.706625000721749	2.8514912	1.688636
12.724260205928752	2.8733032	1.6950821
12.741895713747551	2.8945062	1.7013248
12.759531524611454	2.9352946	1.7132702
12.777167638953818	2.9564066	1.7194204
12.794804057208072	2.979038	1.725989
12.812440779807702	3.0465024	1.7454233
12.830077807186271	3.206356	1.7906301
12.847715139777405	3.241324	1.8003677
12.865352778014795	3.466548	1.8618668
12.882990722332197	3.5819354	1.8926002
12.90062897316344	3.6677592	1.9151394
12.918267530942412	3.7298965	1.931294
12.935906396103071	3.6100326	1.9000086
12.953545569079449	3.7692108	1.9414456
12.971185050305628	3.6152153	1.901372
12.988824840215775	3.6582758	1.912662
13.006464939244115	3.6670842	1.9149632
13.024105347824943	3.4888794	1.8678542
13.041746066392617	3.5150425	1.8748447
13.05938709538157	3.3039136	1.8176671
13.077028435226296	3.309773	1.8192781
13.094670086361363	3.2401903	1.8000529
13.112312049221401	3.1786757	1.7828841
13.129954324241112	3.1356335	1.770772
13.147596911855258	2.9397593	1.7145727
13.165239812498685	2.8686182	1.6936996
13.182883026606293	2.7618415	1.661879
13.200526554613058	2.731851	1.6528312
13.218170396954017	2.7390237	1.6549996
13.235814554064284	2.7484643	1.6578493
13.253459026379034	2.7373116	1.6544822
13.271103814333523	2.6635647	1.6320431
13.288748918363058	2.6369617	1.6238724
13.306394338903031	2.6736019	1.6351153
13.32404007638889	2.7047591	1.6446152
13.341686131256164	2.7338748	1.6534433
13.359332503940449	2.7067854	1.6452311
13.376979194877402	2.6692173	1.6337739
13.394626204502751	2.7126892	1.6470244
13.412273533252307	2.7150817	1.6477505
13.429921181561937	2.7329674	1.6531689
13.447569149867581	2.6602263	1.6310201
13.465217438605247	2.63759	1.6240659
13.482866048211022	2.6278834	1.6210748
13.500514979121052	2.6718063	1.6345661
13.518164231771568	2.699392	1.6429827
13.535813806598844	2.7036054	1.6442643
13.553463704039254	2.6905756	1.6402974
13.571113924529229	2.6991088	1.6428965
13.588764468505275	2.6552968	1.6295081
13.606415336403956	2.6555135	1.6295747
13.624066528661917	2.6671746	1.6331487
13.641718045715882	2.7151644	1.6477757
13.659369888002635	2.7861664	1.6691813
13.67702205595903	2.8451536	1.6867583
13.694674550021993	2.9131129	1.7067844
13.712327370628532	2.9571042	1.7196233
13.729980518215713	3.0715806	1.7525926
13.747633993220681	3.1427677	1.7727853
13.765287796080647	3.1994123	1.7886901
13.7829419272329	3.2550812	1.8041843
13.800596387114801	3.2813838	1.8114591
13.818251176163775	3.2837608	1.812115
13.835906294817324	3.321319	1.8224486
13.853561743513023	3.3934202	1.8421239
13.871217522688525	3.4870298	1.867359
13.888873632781538	3.5100555	1.8735142
13.906530074229858	3.5063384	1.8725219
13.92418684747135	3.4844832	1.866677
13.941843952943948	3.4699335	1.8627758
13.959501391085665	3.4585228	1.8597105
13.977159162334578	3.4030116	1.8447254
13.994817267128846	3.3534644	1.8312466
14.012475705906693	3.2590132	1.8052738
14.030134479106424	3.194379	1.7872826
14.047793587166414	3.0945296	1.7591275
14.065453030525108	3.058192	1.7487687
14.083112809621026	3.0228982	1.7386484
14.100772924892766	2.958781	1.7201108
14.118433376778997	2.9135315	1.706907
14.136094165718458	2.860477	1.6912944
14.153755292149969	2.7835655	1.6684021
14.171416756512416	2.7336369	1.6533713
14.189078559244768	2.6635714	1.6320451
14.20674070078606	2.6186104	1.6182121
14.224403181575408	2.5597677	1.5999274
14.242066002051999	2.534097	1.5918847
14.259729162655093	2.4773648	1.5739647
14.277392663824022	2.4299479	1.558829
14.295056505998208	2.3984132	1.5486811
14.312720689617128	2.4055607	1.550987
14.330385215120348	2.4420557	1.5627078
14.348050082947497	2.456614	1.567359
14.3657152935383	2.4644501	1.5698568
14.383380847332528	2.4455316	1.5638195
14.401046744770051	2.4142716	1.5537926
14.418712986290798	2.3721669	1.540184
14.436379572334793	2.3542004	1.5343404
14.454046503342123	2.3757246	1.5413386
14.471713779752946	2.4048986	1.5507736
14.489381402007504	2.4076843	1.5516715
14.507049370546113	2.418159	1.5550431
14.524717685809168	2.3994539	1.5490171
14.542386348237134	2.4365814	1.5609553
14.560055358270553	2.4189577	1.5552999
14.577724716350051	2.4369526	1.5610741
14.595394422916325	2.427407	1.5580138
14.61306447841015	2.4395616	1.5619096
14.63073488327237	2.4211545	1.556006
14.648405637943917	2.4266684	1.5577768
14.6660767428658	2.430936	1.5591459
14.683748198479094	2.4463303	1.5640749
14.701420005224954	2.4904802	1.5781255
14.719092163544628	2.5641606	1.6012996
14.73676467387942	2.620903	1.6189203
14.754437536670727	2.6665561	1.6329594
14.772110752360014	2.6565745	1.6299001
14.78978432138882	2.6511538	1.6282364
14.807458244198777	2.6719942	1.6346235
14.82513252123159	2.686955	1.6391934
14.842807152929028	2.6888754	1.6397791
14.860482139732962	2.6662986	1.6328804
14.87815748208531	2.6377864	1.6241263
14.8958331804281	2.6318626	1.6223017
14.91350923520342	2.5775735	1.6054823
14.931185646853438	2.6234396	1.6197035
14.948862415820408	2.610804	1.6157982
14.966539542546656	2.647093	1.626989
14.98421702747459	2.6335354	1.6228172
15.001894871046696	2.6732862	1.6350187
15.019573073705542	2.6666796	1.6329972
15.037251635893766	2.6435502	1.6258998
15.054930558054092	2.63193	1.6223224
15.072609840629323	2.6799505	1.6370554
15.090289484062351	2.8250833	1.6807984
15.107969488796124	3.1192088	1.7661282
15.125649855273691	3.5254269	1.877612
15.14333058393817	4.017222	2.0043008
15.161011675232768	5.0540786	2.2481277
15.17869312960076	6.439921	2.5377
15.196374947485506	8.282097	2.8778632
15.214057129330447	11.291671	3.3603082
15.231739675579114	15.955778	3.9944685
15.249422586675102	20.997938	4.5823507
15.267105863062092	24.27124	4.926585
15.284789505183847	24.635752	4.9634414
15.302473513484218	22.643808	4.758551
15.320157888407127	18.924189	4.350194
15.337842630396578	14.656074	3.8283253
15.355527739896656	11.359172	3.370337
15.37321321735153	8.856892	2.976053
15.39089906320545	6.515526	2.5525527
15.408585277902748	4.8934836	2.212122
15.42627186188783	3.762403	1.9396914
15.443958815605198	3.2052894	1.7903322
15.461646139499424	2.8912714	1.7003739
15.479333834015168	2.7577083	1.6606349
15.497021899597165	2.682208	1.6377448
15.514710336690234	2.645244	1.6264206
15.53239914573928	2.5744293	1.6045028
15.550088327189297	2.5269525	1.5896391
15.567777881485336	2.50458	1.5825865
15.58546780907256	2.4602373	1.5685143
15.6031581103962	2.4543972	1.5666516
15.620848785901568	2.4250457	1.5572559
15.638539836034063	2.4404347	1.5621891
15.656231261239173	2.4718666	1.5722171
15.673923061962451	2.4805439	1.5749742
15.691615238649552	2.4715855	1.5721277
15.709307791746202	2.4492688	1.565014
15.727000721698221	2.4170592	1.5546894
15.744694028951498	2.3930228	1.5469398
15.76238771395202	2.3766558	1.5416406
15.780081777145844	2.3497157	1.5328783
15.797776218979125	2.3497002	1.5328732
15.815471039898094	2.3715796	1.5399934
15.833166240349064	2.4027774	1.5500895
15.850861820778437	2.391436	1.5464269
15.868557781632699	2.3863869	1.5447935
15.886254123358412	2.3844879	1.5441787
15.903950846402232	2.4199064	1.5556048
15.921647951210897	2.4097214	1.5523278
15.939345438231225	2.3815136	1.5432154
15.957043307910133	2.348163	1.5323716
15.974741560694602	2.336778	1.5286523
15.992440197031714	2.4002094	1.549261
16.01013921736862	2.4176114	1.554867
16.02783862215259	2.4055352	1.5509788
16.045538411830933	2.3658888	1.5381446
16.06323858685107	2.3767712	1.5416781
16.080939147660512	2.3884952	1.5454757
16.09864009470684	2.4116871	1.5529608
16.11634142843774	2.418914	1.5552858
16.134043149300954	2.4248648	1.5571977
16.15174525774433	2.3951824	1.5476377
16.169447754215817	2.3791118	1.542437
16.18715063916342	2.3587825	1.5358329
16.204853913035244	2.390683	1.5461833
16.222557576279478	2.3984678	1.5486988
16.240261629344403	22.366772	4.729352
16.257966072678386	42.937275	6.5526543
16.275670906729868	38.088066	6.171553
16.293376131947387	2.5336971	1.5917591
16.31108174877957	2.5642974	1.6013424
16.328787757675133	2.5202863	1.587541
16.34649415908287	2.503835	1.5823511
16.364200953451657	2.5433486	1.594788
16.38190814123048	2.610899	1.6158277
16.39961572286839	2.6438916	1.6260048
16.41732369881455	2.645862	1.6266106
16.43503206951817	2.6550202	1.6294233
16.45274083542859	2.6951447	1.6416895
16.47044999699522	2.7332823	1.6532642
16.488159554667558	2.8143318	1.677597
16.505869508895184	2.902266	1.7036039
16.523579860127786	2.9414465	1.7150646
16.541290608815117	2.9418766	1.7151899
16.559001755407035	2.9982803	1.7315543
16.57671330035348	3.0994482	1.760525
16.59442524410448	3.1947289	1.7873805
16.61213758711015	3.228674	1.7968512
16.629850329820705	3.27619	1.8100249
16.647563472686436	3.3388658	1.8272563
16.665277016157724	3.4140172	1.847706
16.682990960685053	3.4874284	1.8674657
16.70070530671898	3.5026016	1.8715239
16.718420054710155	3.482247	1.866078
16.736135205109335	3.5098658	1.8734636
16.753850758367335	3.547821	1.883566
16.771566714935087	3.6255476	1.9040871
16.789283075263597	3.700472	1.9236611
16.80699983980398	3.7458618	1.9354229
16.82471700900741	3.8149264	1.9531837
16.84243458332518	3.9080777	1.9768859
16.860152563208665	3.9626877	1.99065
16.87787094910932	4.0022507	2.0005627
16.89558974147871	4.078126	2.019437
16.913308940768466	4.143687	2.0356047
16.931028547430333	4.2205896	2.0544074
16.94874856191613	4.2610464	2.0642302
16.966468984677785	4.3506556	2.0858226
16.98418981616729	4.399606	2.097524
17.00191105683676	4.4503865	2.1095939
17.019632707138374	4.494258	2.1199665
17.03735476752442	4.4925127	2.1195548
17.05507723844728	4.5213017	2.1263354
17.072800120359403	4.5573626	2.134798
17.090523413713353	4.6408567	2.1542647
17.108247118961785	4.645932	2.1554425
17.125971236557437	4.67918	2.1631413
17.143695766953133	4.7306085	2.1749961
17.161420710601806	4.8003364	2.190967
17.179146067956477	4.8106422	2.1933177
17.19687183947025	4.772017	2.1844947
17.21459802559634	4.7274184	2.1742628
17.232324626788028	4.715863	2.171604
17.25005164349871	4.695897	2.167002
17.267779076181863	4.646954	2.1556795
17.285506925291074	4.613778	2.1479707
17.30323519127999	4.5544577	2.1341176
17.320963874602384	4.539536	2.1306186
17.33869297571211	4.5109763	2.123906
17.356422495063114	4.507405	2.123065
17.37415243310944	4.420682	2.1025417
17.391882790305218	4.398908	2.0973575
17.40961356710468	4.4000177	2.097622
17.42734476396215	4.4742665	2.1152463
17.445076381332044	4.478601	2.1162705
17.462808419668868	4.5532694	2.1338391
17.48054087942723	4.6654572	2.159967
17.498273761061835	4.960875	2.227302
17.51600706502747	5.495391	2.344225
17.533740791779024	6.249239	2.499848
17.551474941771485	7.6791396	2.771126
17.56920951545993	8.735752	2.9556305
17.586944513299528	10.959771	3.3105545
17.60467993574556	12.597214	3.5492554
17.622415783253373	14.459221	3.8025281
17.64015205627843	15.9015255	3.9876716
17.657888755276293	17.023205	4.125919
17.675625880702604	17.480556	4.1809754
17.69336343301311	17.241585	4.152299
17.71110141266366	16.423723	4.0526195
17.728839820110178	15.454103	3.9311707
17.746578655808705	14.567619	3.816755
17.764317920215372	13.0737705	3.615767
17.7820576137864	11.510035	3.3926442
17.79979773697811	9.456867	3.075202
17.81753829024692	7.5613675	2.749794
17.835279274049356	5.8675013	2.4222925
17.85302068884201	4.8214436	2.1957786
17.870762535081607	4.1367645	2.0339038
17.888504813224934	3.8659413	1.9661998
17.90624752372891	3.6944041	1.9220833
17.923990667050536	3.6139657	1.9010433
17.941734243646895	3.5321681	1.8794063
17.959478253975185	3.4967947	1.8699719
17.9772226984927	3.4643126	1.8612664
17.994967577656833	3.4314957	1.8524296
18.01271289192506	3.3766272	1.8375602
18.030458641754965	3.3236153	1.8230785
18.04820482760425	3.3230286	1.8229176
18.06595144993067	3.3219697	1.8226272
18.083698509192125	3.3394432	1.8274144
18.101446005846576	3.2797003	1.8109943
18.119193940352105	3.2301214	1.7972538
18.136942313166887	3.2004158	1.7889706
18.1546911247492	3.1850631	1.7846745
18.1724403755574	3.1367135	1.7710769
18.19019006604997	3.1150258	1.7649436
18.207940196685467	3.1074312	1.7627907
18.225690767922575	3.0683937	1.7516831
18.243441780220046	2.9954143	1.7307265
18.261193234036764	2.987548	1.7284526
18.278945129831676	3.0375314	1.7428515
18.29669746806386	3.068051	1.7515854
18.314450249192483	3.0725071	1.7528569
18.3322034736768	3.0614734	1.7497066
18.349957141976184	3.0561802	1.7481934
18.3677112545501	3.0610263	1.749579
18.385465811858108	3.0862591	1.7567753
18.403220814359884	3.0665915	1.7511686
18.420976262515172	3.0936933	1.7588898
18.43873215678387	3.0826592	1.7557503
18.456488497625923	3.1060033	1.7623857
18.474245285501407	3.1781304	1.7827312
18.492002520870486	3.3024318	1.8172594
18.50976020419343	3.3751416	1.8371558
18.527518335930615	3.6699388	1.9157084
18.545276916542516	4.220872	2.054476
18.563035946489688	4.4362345	2.106237
18.580795426232832	4.8755984	2.2080758
18.598555356232698	4.7801743	2.186361
18.616315736950185	5.0500813	2.2472386
18.63407656884626	4.6599374	2.1586888
18.65183785238201	4.860955	2.2047575
18.669599588018617	4.6692514	2.160845
18.68736177621737	4.642773	2.1547096
18.705124417439652	4.598289	2.1443622
18.72288751214696	4.422534	2.1029823
18.740651060800886	4.5903263	2.1425047
18.758415063863115	4.3368483	2.08251
18.77617952179546	4.4308295	2.1049535
18.793944435059814	4.1115303	2.027691
18.811709804118184	4.108664	2.026984
18.829475629432675	4.1569705	2.038865
18.8472419114655	3.9870777	1.9967668
18.86500865067897	4.0976205	2.024258
18.88277584753551	3.7683852	1.9412329
18.90054350249763	3.8089657	1.9516572
18.918311616027957	3.534969	1.8801514
18.936080188589226	3.4275827	1.8513732
18.953849220644265	3.0691893	1.7519102
18.971618712656007	2.859117	1.6908923
18.9893886650875	2.817534	1.6785512
19.007159078401887	8.007829	2.8298106
19.024929953062408	32.90644	5.7364135
19.042701289532435	32.824734	5.729287
19.060473088275405	25.38923	5.0387726
19.07824534975489	2.6697762	1.633945
19.096018074434568	2.6548102	1.6293588
19.113791262778197	2.5888631	1.6089945
19.13156491524966	2.5387564	1.5933475
19.149339032312945	2.5117066	1.5848365
19.167113614432136	2.5427914	1.5946132
19.184888662071433	2.5681396	1.6025416
19.202664175695123	2.571837	1.6036948
19.220440155767623	2.5432944	1.5947709
19.238216602753447	2.5352843	1.5922576
19.2559935171172	2.529371	1.5903996
19.27377089932361	2.503799	1.5823398
19.291548749837514	2.4781106	1.5742016
19.309327069123835	2.5013685	1.5815716
19.32710585764763	2.5121553	1.584978
19.344885115874032	2.5004027	1.5812662
19.362664844268313	2.4701278	1.571664
19.380445043295822	2.4564006	1.5672909
19.39822571342203	2.4530706	1.5662282
19.41600685511252	2.4410448	1.5623844
19.43378846883297	2.4727483	1.5724975
19.451570555049173	2.486581	1.5768896
19.469353114227037	2.4908898	1.5782553
19.48713614683254	2.4657023	1.5702555
19.50491965333182	2.4580555	1.5678188
19.52270363419109	2.4821205	1.5754747
19.540488089876686	2.5186124	1.5870137
19.55827302085503	2.534061	1.5918734
19.576058427592674	2.4938684	1.5791986
19.593844310556282	2.4386165	1.561607
19.611630670212598	2.4081116	1.5518091
19.629417507028506	2.4695482	1.5714797
19.64720482147098	2.5112658	1.5846974
19.6649926140071	2.5186613	1.5870291
19.682780885104084	2.53076	1.5908363
19.70056963522921	2.5302165	1.5906655
19.718358864849908	2.5380085	1.5931128
19.7361485744337	2.5267215	1.5895665
19.753938764448215	2.4942703	1.5793259
19.771729435361202	2.4844127	1.576202
19.789520587640506	2.4965692	1.5800536
19.807312221754092	2.5244539	1.588853
19.825104338170043	2.5043545	1.5825152
19.842896937356517	2.506729	1.5832653
19.860690019781824	2.480762	1.5750434
19.87848358591436	2.5088482	1.5839344
19.896277636222635	2.5067239	1.5832636
19.914072171175278	2.4960136	1.5798777
19.931867191241015	2.469722	1.5715349
19.94966269688869	2.4883933	1.5774642
19.967458688587264	2.4907956	1.5782255
19.985255166805807	2.499222	1.5808928
20.00305213201348	2.4592142	1.5681882
20.020849584679578	2.4490774	1.5649529
20.038647525273507	2.4508228	1.5655104
20.05644595426477	2.4727778	1.5725069
20.07424487212299	2.4922984	1.5787015
20.092044279317903	2.4408472	1.5623211
20.109844176319353	2.399078	1.5488957
20.127644563597304	2.3774145	1.5418867
20.145445441621817	2.377635	1.5419582
20.16324681086307	2.3648984	1.5378226
20.181048671791373	2.3684785	1.5389862
20.198851024877122	2.3676946	1.5387315
20.216653870590836	2.403866	1.5504405
20.234457209403146	2.4228275	1.5565435
20.252261041784802	2.421091	1.5559856
20.270065368206662	2.3881872	1.5453761
20.287870189139685	2.397623	1.548426
20.305675505054968	2.3902369	1.5460391
20.323481316423702	2.3781505	1.5421253
20.341287623717207	2.3630497	1.5372214
20.359094427406884	2.3689396	1.539136
20.376901727964288	2.3964398	1.5480438
20.39470952586107	2.389392	1.5457658
20.41251782156899	2.3509676	1.5332866
20.430326615559935	2.3246996	1.5246966
20.448135908305886	2.3226457	1.5240228
20.465945700278965	2.3218005	1.5237455
20.483755991951384	2.3432624	1.5307719
20.50156678379548	2.3472	1.5320574
20.519378076283708	2.3032815	1.5176566
20.537189869888635	2.299029	1.516255
20.55500216508294	2.3159277	1.5218172
20.572814962339415	2.3393204	1.5294837
20.59062826213098	2.3233309	1.5242476
20.60844206493066	2.3008535	1.5168564
20.626256371211593	2.293322	1.5143719
20.644071181447032	2.315309	1.521614
20.66188649611036	2.3330827	1.5274432
20.67970231567506	2.3156865	1.5217379
20.697518640614742	2.3126163	1.520729
20.715335471403122	2.2941597	1.5146483
20.73315280851404	2.3079355	1.5191891
20.750970652421447	2.3011024	1.5169384
20.768789003599412	2.3217504	1.5237291
20.786607862522136	2.3130147	1.5208598
20.8044272296639	2.2776859	1.5092005
20.82224710549913	2.2614694	1.5038183
20.84006749050237	2.3003132	1.5166783
20.857888385148268	3.886624	1.9714522
20.8757097899116	46.013092	6.783295
20.893531705267254	64.850266	8.052966
20.911354131690224	83.83029	9.155889
20.92917706965566	69.075066	8.311141
20.94700051963877	50.1403	7.0809817
20.96482448211493	29.387823	5.421054
20.982648957559622	4.1200066	2.02978
21.00047394644843	2.2530994	1.5010328
21.01829944925707	2.2923694	1.5140573
21.036125466461375	2.276964	1.5089612
21.053951998537297	2.2793624	1.5097557
21.071779045960906	2.2618124	1.5039324
21.089606609208378	2.2434676	1.497821
21.10743468875603	2.2245684	1.4914987
21.12526328508028	2.2274516	1.4924649
21.143092398657675	2.2142665	1.4880412
21.16092202996488	2.1815813	1.4770176
21.17875217947867	2.182019	1.4771658
21.19658284767596	2.2027168	1.4841553
21.21441403503377	2.229241	1.4930643
21.232245742029225	2.22229	1.4907347
21.2500779691396	2.2215002	1.4904698
21.26791071684227	2.2332222	1.4943969
21.28574398561475	2.231047	1.4936689
21.30357777593465	2.2401571	1.4967154
21.321412088279704	2.206464	1.4854171
21.339246923127792	2.171258	1.473519
21.357082280956888	2.1302817	1.4595485
21.3749181622451	2.1401002	1.4629081
21.392754567470647	2.0998228	1.4490765
21.41059149711187	2.094989	1.4474077
21.42842895164726	2.0928552	1.4466704
21.446266931555378	2.1160955	1.4546806
21.464105437314945	2.1245844	1.4575955
21.481944469404798	2.1311045	1.4598303
21.49978402830388	2.1357498	1.4614205
21.51762411449127	2.1342943	1.4609224
21.53546472844617	2.1065524	1.4513967
21.553305870647876	2.115499	1.4544755
21.571147541575865	2.1182058	1.4554057
21.58898974170967	2.116513	1.4548241
21.60683247152899	2.095595	1.4476169
21.62467573151363	2.0758953	1.4407967
21.642519522143523	2.051503	1.4323069
21.660363843898722	2.048975	1.4314241
21.6782086972594	2.0444932	1.4298577
21.696054082705864	2.0654671	1.4371734
21.713900000718535	2.0544312	1.4333287
21.73174645177795	2.0278535	1.4240272
21.749593436364794	2.0269496	1.4237099
21.767440954959845	2.0361357	1.4269322
21.785289008044032	2.047465	1.4308966
21.803137596098388	2.0485072	1.4312607
21.820986719604086	2.0150466	1.4195234
21.838836379042412	2.0020943	1.4149538
21.85668657489478	2.0151024	1.419543
21.87453730764273	2.0167513	1.4201237
21.892388577767914	1.9906651	1.4109093
21.91024038575213	1.981204	1.4075525
21.928092732077285	1.9660443	1.4021571
21.945945617225426	1.9929454	1.4117172
21.963799041678694	2.0010507	1.414585
21.981653005919398	31.316715	5.596134
21.999507510429943	78.07347	8.835919
22.01736255569286	73.026276	8.545541
22.035218142190818	4.1777883	2.043964
22.05307427040661	2.0325267	1.4256672
22.07093094082315	2.049141	1.4314821
22.088788153923474	2.0421302	1.4290313
22.106645910190746	2.0226135	1.4221861
22.12450421010827	1.977872	1.4063684
22.142363054159464	1.9458225	1.3949274
22.16022244282787	1.9504113	1.3965713
22.178082376597164	1.951914	1.3971092
22.195942855951145	2.0091279	1.4174371
22.213803881373742	1.9985969	1.4137174
22.231665453349002	1.9731005	1.404671
22.24952757236111	1.9423405	1.3936788
22.26739023889438	1.9589366	1.3996202
22.28525345343323	1.9792511	1.4068586
22.30311721646225	1.9775043	1.4062376
22.320981528466113	1.9259117	1.3877722
22.33884638992964	1.9333928	1.3904649
22.356711801337788	1.9554482	1.3983734
22.37457776317561	2.0037422	1.415536
22.392444275928337	1.9880787	1.4099925
22.410311340081282	1.9648389	1.4017271
22.428178956119904	1.9290714	1.3889102
22.446047124529805	1.8974824	1.3774914
22.46391584579669	1.9011348	1.3788165
22.481785120406414	1.9089248	1.3816384
22.49965494884496	1.9135836	1.3833234
22.51752533159841	1.8974669	1.3774858
22.53539626915302	1.9520236	1.3971484
22.553267761995137	1.9603407	1.4001217
22.571139810611264	1.9601835	1.4000655
22.589012415488025	1.9352107	1.3911185
22.60688557711216	1.9588917	1.3996041
22.624759295970566	1.9748273	1.4052855
22.642633572550263	1.970907	1.4038899
22.660508407338362	1.9490585	1.3960868
22.67838380082217	1.9250196	1.3874508
22.696259753489077	1.9315381	1.3897978
22.714136265826614	1.9211695	1.3860626
22.73201333832246	1.9335018	1.3905041
22.74989097146439	1.9072239	1.3810228
22.76776916574035	1.9201885	1.3857087
22.785647921638393	1.9102253	1.382109
22.803527239646712	1.8868085	1.3736115
22.82140712025363	1.8703077	1.367592
22.839287563947593	1.8614862	1.364363
22.85716857121719	1.9120716	1.3827767
22.875050142551135	1.9255003	1.387624
22.892932278438277	1.9280328	1.3885362
22.910814979367604	1.8980054	1.3776811
22.928698245828222	1.913461	1.3832791
22.946582078309387	1.9164544	1.3843607
22.96446647730047	1.928476	1.3886958
22.98235144329098	1.941264	1.3932925
23.000236976770562	1.9487724	1.3959844
23.018123078229	1.9286137	1.3887453
23.03600974815619	1.9255502	1.3876419
23.053896987042194	1.942701	1.3938081
23.071784795377173	1.930368	1.3893769
23.08967317365145	1.9132335	1.3831968
23.10756212235546	1.893098	1.375899
23.125451641979787	1.9092932	1.3817718
23.143341733015134	1.9187875	1.385203
23.161232395952357	1.9158084	1.3841274
23.179123631282426	1.9152051	1.3839093
23.197015439496468	1.9485487	1.3959043
23.214907821085717	1.9602358	1.4000843
23.23280077654157	1.9598846	1.3999588
23.250694306355538	1.9484763	1.3958783
23.268588411019277	1.9512198	1.3968607
23.28648309102458	1.9480673	1.3957318
23.304378346863356	1.9158566	1.3841447
23.322274179027676	1.9231893	1.386791
23.340170588009723	1.9311128	1.3896449
23.358067574301852	1.9529145	1.3974671
23.37596513839651	1.9807096	1.4073769
23.39386328078629	1.9860173	1.4092612
23.411762001963947	1.9869626	1.4095966
23.429661302422353	1.9712138	1.4039992
23.4475611826545	1.9644171	1.4015766
23.46546164315356	1.9475895	1.3955606
23.48336268441279	1.9053589	1.3803474
23.501264306925638	1.882733	1.3721272
23.51916651118564	1.862524	1.3647432
23.537069297686497	1.8804646	1.3713003
23.554972666922037	1.9166259	1.3844225
23.57287661938623	1.9263234	1.3879205
23.59078115557318	1.9147227	1.3837351
23.608686275977128	1.9481556	1.3957635
23.62659198109246	1.9478958	1.3956704
23.6444982714137	1.908469	1.3814734
23.66240514743549	1.8778461	1.3703452
23.68031260965263	1.9034585	1.3796588
23.698220658560068	1.9048096	1.3801484
23.716129294652845	1.8885908	1.3742601
23.7340385184262	1.8861018	1.3733542
23.75194833037546	1.8777009	1.3702923
23.769858730996123	1.8762197	1.3697517
23.78776972078382	1.88054	1.3713279
23.80568130023431	1.898598	1.3778962
23.823593469843495	1.9168088	1.3844887
23.841506230107424	1.8868797	1.3736374
23.859419581522275	1.8870031	1.3736823
23.87733352458438	1.8997974	1.3783314
23.89524805979019	1.9256208	1.3876674
23.913163187636318	1.8824816	1.3720355
23.931078908619508	1.8840871	1.3726205
23.948995223236633	1.9436562	1.3941507
23.966912131984735	2.011177	1.4181597
23.98482963536096	2.063603	1.4365246
24.002747733862616	2.0605576	1.4354643
24.020666427987155	2.0788686	1.4418283
24.038585718232156	2.079347	1.4419941
24.056505605095353	2.0707815	1.439021
24.074426089074617	2.032199	1.4255521
24.092347170667946	1.9959161	1.412769
24.110268850373515	1.9904548	1.4108348
24.128191128689586	2.032104	1.4255189
24.146114006114626	2.0885901	1.4451956
24.164037483147187	2.061897	1.4359307
24.181961560286005	2.0398629	1.4282377
24.199886238029926	2.0456548	1.4302639
24.21781151687797	2.0672839	1.4378052
24.235737397329274	2.0406597	1.4285166
24.253663879883135	1.9716904	1.404169
24.271590965038975	1.9693831	1.4033471
24.289518653296376	1.9514139	1.3969302
24.30744694515505	1.9638771	1.401384
24.32537584111486	2.00456	1.4158249
24.34330534167581	2.0397806	1.4282088
24.361235447338046	2.0454888	1.4302058
24.379166158601876	1.985468	1.4090663
24.39709747596772	1.9737971	1.4049189
24.41502939993615	1.9821568	1.4078909
24.432961931007917	1.9796511	1.4070008
24.450895069683856	1.937289	1.3918653
24.468828816465	1.9529085	1.397465
24.4867631718525	1.9586908	1.3995323
24.504698136347656	1.9165403	1.3843917
24.52263371045192	1.8320996	1.3535507
24.540569894666874	1.8817596	1.3717724
24.558506689494266	1.9836388	1.4084171
24.57644409543597	2.0001743	1.4142752
24.594382112994012	1.952055	1.3971596
24.61232074267057	1.9243118	1.3871956
24.630259984967953	1.9368569	1.39171
24.64819984038863	1.9855016	1.4090782
24.66614030943522	2.0189424	1.4208949
24.684081392610462	2.0101874	1.4178108
24.702023090417274	2.0113647	1.4182259
24.7199654033587	1.9584217	1.3994362
24.737908331937927	1.9591706	1.3997037
24.755851876658305	1.9801152	1.4071656
24.773796038023324	2.0313594	1.4252577
24.79174081653661	2.0648334	1.4369528
24.809686212701962	2.114207	1.4540313
24.827632227023294	2.0946841	1.4473023
24.8455788600047	2.082454	1.443071
24.8635261121504	2.0965676	1.4479529
24.88147398396475	2.065508	1.4371874
24.899422475952303	2.0762825	1.4409311
24.917371588617698	2.0954423	1.4475642
24.935321322465768	2.1711903	1.473496
24.953271678001478	2.2986324	1.5161241
24.97122265572994	2.4738314	1.5728419
24.989174256156414	2.7677958	1.6636693
25.00712647978632	3.23638	1.7989942
25.02507932712521	3.8332849	1.9578776
25.043032798678798	4.399102	2.0974038
25.060986894952933	5.0816054	2.2542417
25.078941616453637	5.789985	2.4062388
25.096896963687055	6.7440405	2.596929
25.114852937159508	7.9144516	2.8132634
25.132809537377444	8.302818	2.8814611
25.150766764847468	8.259053	2.8738568
25.168724620076347	7.671303	2.7697117
25.186683103570985	6.764503	2.6008658
25.204642215838426	5.578356	2.3618543
25.222601957385894	4.2192006	2.0540693
25.24056232872074	3.1710167	1.7807349
25.25852333035048	2.6150448	1.61711
25.276484962782778	2.2670622	1.5056766
25.294447226525435	2.1113424	1.453046
25.312410122086423	2.0563724	1.4340057
25.330373649973843	2.0601509	1.4353225
25.348337810695988	1.9755948	1.4055585
25.366302604761245	1.9048183	1.3801515
25.384268032678207	1.8829416	1.3722032
25.40223409495558	1.8977959	1.3776051
25.420200792102257	1.9078171	1.3812375
25.438168124627246	1.8874037	1.3738282
25.45613609303974	1.8603777	1.3639566
25.474104697849057	1.8742969	1.3690497
25.492073939564698	1.8513645	1.3606485
25.510043818696285	1.8274357	1.3518268
25.528014335753614	1.8661959	1.3660878
25.54598549124664	1.8852574	1.3730468
25.56395728568544	1.9150558	1.3838553
25.58192971958028	1.90556	1.3804202
25.59990279344156	1.8896571	1.374648
25.617876507779833	1.8511394	1.3605659
25.635850863105826	1.8795513	1.3709673
25.653825859930386	1.9062184	1.3806587
25.671801498764548	1.8689603	1.3670992
25.68977778011949	1.8630883	1.36495
25.707754704506524	1.8518052	1.3608105
25.725732272437153	1.8958594	1.3769021
25.743710484423012	1.8624076	1.3647006
25.761689340975888	1.8768089	1.3699667
25.77966884260774	1.8707972	1.3677709
25.797648989830662	1.867113	1.3664235
25.815629783156922	1.8649871	1.3656453
25.83361122309895	1.8404454	1.3566302
25.85159331016929	1.8677131	1.366643
25.869576044880695	1.8576689	1.3629633
25.887559427746034	1.8041059	1.34317
25.90554345927836	1.8226491	1.3500552
25.92352813999086	1.8238943	1.3505163
25.94151347039689	1.8461053	1.3587146
25.959499451009965	1.8413564	1.3569659
25.97748608234374	1.8385627	1.355936
25.995473364912062	1.8471582	1.359102
26.013461299228904	1.8373225	1.3554786
26.03144988580839	1.83276	1.3537947
26.04943912516483	1.7989614	1.3412536
26.067429017812675	1.7709544	1.330772
26.085419564266537	1.8250531	1.3509452
26.103410765041186	1.850358	1.3602786
26.12140262065155	1.857403	1.3628657
26.139395131612723	1.8036854	1.3430135
26.157388298439948	1.8290435	1.3524214
26.17538212164861	1.8255818	1.351141
26.193376601754295	1.8548298	1.3619213
26.211371739272714	1.8511801	1.3605808
26.229367534719746	1.803944	1.3431098
26.247363988611433	1.7741431	1.3319696
26.26536110146397	1.7992834	1.3413737
26.283358873793727	1.8565891	1.3625671
26.301357306117204	1.8499451	1.3601269
26.319356398951104	1.8427213	1.3574687
26.33735615281224	1.8536249	1.3614789
26.35535656821762	1.8642665	1.3653815
26.373357645684404	1.8505647	1.3603547
26.39135938572991	1.8294818	1.3525834
26.409361788871614	1.8433906	1.3577152
26.427364855627165	1.8142065	1.3469248
26.445368586514352	1.7859536	1.3363957
26.46337298205115	1.817567	1.3481717
26.48137804275568	1.9074664	1.3811105
26.499383769146217	1.8796059	1.3709872
26.517390161741215	1.8483231	1.3595304
26.53539722105928	1.8897988	1.3746995
26.553404947619182	1.9076469	1.3811759
26.571413341939856	1.8266311	1.3515291
26.589422404540397	1.8295583	1.3526117
26.60743213594006	1.8121402	1.3461576
26.62544253665827	1.8120604	1.3461279
26.64345360721459	1.8044066	1.343282
26.66146534812879	1.8405857	1.3566818
26.679477759920758	1.8081224	1.3446645
26.69749084311057	1.789578	1.337751
26.71550459821847	1.7791679	1.3338546
26.733519025764842	1.7797625	1.3340774
26.751534126270258	1.7663137	1.3290273
26.769549900255434	1.7739027	1.3318794
26.787566348241267	1.750184	1.3229452
26.80558347074881	1.7556362	1.3250042
26.823601268299267	1.7583988	1.3260463
26.841619741414036	1.7456284	1.3212223
26.85963889061465	1.7485423	1.3223246
26.877658716422832	1.8095067	1.3451791
26.89567921936045	1.83048	1.3529524
26.913700399949544	1.8292906	1.3525127
26.93172225871233	1.8154697	1.3473936
26.949744796171174	1.8246725	1.3508043
26.967768012848605	1.8463387	1.3588005
26.98579190926733	1.8044529	1.3432993
27.003816485950225	1.8170599	1.3479836
27.021841743420318	1.8451772	1.358373
27.039867682200814	1.8393532	1.3562275
27.057894302815072	1.8219572	1.3497989
27.07592160578664	1.8043493	1.3432606
27.0939495916392	1.7842368	1.3357533
27.111978260896635	1.7589253	1.3262448
27.13000761408296	1.7778506	1.3333607
27.148037651722397	1.8571863	1.3627862
27.166068374339304	1.8574069	1.3628671
27.184099782458215	1.8052886	1.3436103
27.20213187660384	1.7557123	1.325033
27.22016465730105	1.7447529	1.3208909
27.23819812507487	1.7559258	1.3251135
27.256232280450533	1.8088714	1.3449429
27.274267123953383	1.8284714	1.3522098
27.292302656108987	1.8434079	1.3577216
27.31033887744306	1.8396146	1.356324
27.32837578848146	1.815739	1.3474936
27.34641338975026	1.8029274	1.3427314
27.364451681775673	1.7892842	1.3376412
27.382490665084074	1.778275	1.3335198
27.400530340202046	1.7842551	1.3357601
27.41857070765629	1.7916692	1.3385324
27.436611767973726	1.8083315	1.3447422
27.454653521681404	1.7824394	1.3350803
27.472695969306564	1.8010632	1.342037
27.490739111376627	1.7983629	1.3410305
27.508782948419153	1.8013895	1.3421586
27.526827480961902	1.8382616	1.3558251
27.54487270953279	1.8314759	1.3533204
27.562918634659898	1.8004367	1.3418036
27.580965256871508	1.8004718	1.3418165
27.599012576696026	1.827778	1.3519534
27.617060594662068	1.8540475	1.3616341
27.63510931129842	1.8279223	1.3520068
27.65315872713401	1.8066299	1.3441093
27.67120884269797	1.8023314	1.3425094
27.68925965851958	1.8528774	1.3612044
27.707311175128307	1.8795702	1.3709742
27.725363393053787	1.8832611	1.3723196
27.74341631282583	1.8824772	1.372034
27.7614699349744	1.913789	1.3833977
27.77952426002968	2.0942729	1.4471602
27.797579288521973	2.097851	1.448396
27.815635020981784	2.4661314	1.5703921
27.83369145793979	2.534461	1.591999
27.85174859992682	2.4137735	1.5536324
27.869806447473923	2.294547	1.5147762
27.887865001112267	2.0088053	1.4173232
27.905924261373233	1.9321827	1.3900298
27.92398422878836	1.894487	1.3764037
27.94204490388936	1.86266	1.3647931
27.96010628720813	1.8466772	1.358925
27.978168379276728	1.8533646	1.3613833
27.9962311806274	1.8178303	1.3482693
28.014294691792568	1.864067	1.3653084
28.0323589133048	1.8740665	1.3689655
28.050423845696887	1.8547732	1.3619006
28.068489489501758	1.8619223	1.3645227
28.086555845252523	1.8741428	1.3689933
28.104622913482487	1.8824649	1.3720294
28.122690694725115	1.8530383	1.3612635
28.14075918951405	1.8463064	1.3587886
28.15882839838312	1.8673877	1.366524
28.176898321866304	1.8398217	1.3564003
28.1949689604978	1.8493667	1.3599142
28.213040314811945	1.9189603	1.3852655
28.23111238534327	1.9316485	1.3898376
28.249185172626493	1.9241618	1.3871416
28.267258677196473	1.8945642	1.3764317
28.285332899588294	1.8716007	1.3680646
28.303407840337172	1.8520631	1.3609053
28.321483499978545	1.8750631	1.3693295
28.33955987904799	1.8906612	1.3750132
28.357636978081285	1.8896214	1.374635
28.37571479761439	1.8909649	1.3751236
28.393793338183425	1.9333318	1.3904431
28.41187260032469	1.9784412	1.4065708
28.429952584574686	2.002509	1.4151003
28.448033291470065	1.9657556	1.4020541
28.46611472154769	1.9444928	1.3944507
28.484196875344566	1.9624126	1.4008614
28.502279753397914	1.9736814	1.4048778
28.52036335624511	1.980921	1.407452
28.538447684423716	1.9920504	1.4114002
28.556532738471482	1.963467	1.4012377
28.574618518926325	1.9909284	1.4110026
28.59270502632635	2.0365248	1.4270686
28.61079226120985	2.003277	1.4153717
28.628880224115274	1.9651449	1.4018363
28.646968915581287	1.98012	1.4071673
28.66505833614671	2.029751	1.4246933
28.68314848635055	2.0369856	1.42723
28.701239366732004	2.0373955	1.4273736
28.71933097783044	2.0422995	1.4290905
28.737423320185403	2.0573232	1.4343373
28.75551639433665	2.0872524	1.4447327
28.773610200824074	2.116976	1.4549831
28.791704740187793	2.1489403	1.4659264
28.80980001296809	2.1342964	1.4609232
28.827896019705413	2.115816	1.4545845
28.845992760940433	2.1478794	1.4655645
28.86409023721397	2.1913245	1.4803123
28.88218844906704	2.2186587	1.4895163
28.900287397040845	2.196915	1.4821993
28.918387081676755	2.2389698	1.4963187
28.936487503516343	2.3134713	1.5210099
28.954588663101365	2.3432233	1.5307591
28.97269056097374	2.3568075	1.5351897
28.990793197675597	2.3202925	1.5232506
29.00889657374923	2.3333657	1.5275358
29.027000689737125	2.3745866	1.5409694
29.04510554618196	2.4572766	1.5675703
29.06321114362659	2.4694958	1.571463
29.08131748261405	2.5035653	1.5822659
29.099424563687567	2.5207984	1.5877023
29.11753238739057	2.5560296	1.5987587
29.13564095426663	2.506851	1.5833038
29.15375026485954	2.5234156	1.5885262
29.171860319713275	2.5216398	1.5879672
29.18997111937199	2.5684245	1.6026305
29.20808266438002	2.6988251	1.6428101
29.226194955281898	2.7742631	1.665612
29.244307992622335	2.7481148	1.6577439
29.26242177694624	2.8149576	1.6777835
29.2805363087987	2.907392	1.7051076
29.29865158872498	2.9005148	1.7030898
29.316767617270557	2.8942838	1.7012595
29.334884394981064	2.9662738	1.7222874
29.353001922402367	2.985138	1.7277552
29.37112020008047	3.0097477	1.7348624
29.389239228561596	3.137728	1.7713633
29.407359008392152	3.3711908	1.8360803
29.42547954011872	3.7437687	1.934882
29.44360082428809	4.4400806	2.1071498
29.46172286144722	5.570928	2.3602815
29.479845652143283	7.1484213	2.6736531
29.497969196923606	9.238858	3.039549
29.516093496335728	11.552509	3.3988984
29.5342185509274	14.301387	3.7817175
29.55234436124651	16.80059	4.098852
29.570470927841175	18.408337	4.290494
29.588598251259686	17.970474	4.2391596
29.60672633205055	16.494263	4.061313
29.624855170762405	14.283489	3.7793503
29.642984767944146	11.462542	3.3856375
29.66111512414481	8.735664	2.9556158
29.67924623991366	6.5921035	2.5675092
29.697378115800138	5.1747794	2.2748141
29.71551075235387	4.287834	2.0707085
29.733644150124675	3.8506339	1.9623032
29.751778309662576	3.5836704	1.8930584
29.769913231517766	3.4149706	1.8479639
29.78804891624066	3.3103795	1.8194448
29.806185364381818	3.3074327	1.8186349
29.82432257649206	3.3081274	1.8188258
29.842460553122333	3.2875144	1.8131504
29.86059929482382	3.2528152	1.8035563
29.878738802147872	3.244669	1.8012965
29.896879075646048	3.271669	1.8087755
29.915020115870114	3.2875004	1.8131466
29.933161923371976	3.2998917	1.8165604
29.951304498703777	3.2798195	1.8110272
29.969447842417857	3.2724888	1.8090022
29.987591955066733	3.201679	1.7893236
30.005736837203123	3.1963677	1.7878388
30.023882489379943	3.2622395	1.806167
30.04202891215028	3.2894545	1.8136853
30.060176106067455	3.1809437	1.78352
30.078324071684946	3.0687416	1.7517824
30.09647280955646	3.049844	1.7463802
30.114622320235863	3.0952196	1.7593236
30.132772604277257	3.1072886	1.7627503
30.1509236622349	3.0208166	1.7380496
30.16907549466328	3.0205288	1.7379669
30.18722810211705	3.0894535	1.7576841
30.205381485151097	3.1024632	1.761381
30.22353564432045	3.0237527	1.7388941
30.241690580180403	2.9311402	1.7120574
30.25984629328638	2.9096377	1.705766
30.278002784194037	2.9876335	1.7284772
30.296160053459246	2.961908	1.7210195
30.314318101638033	2.919428	1.7086334
30.332476929286646	2.9305794	1.7118936
30.35063653696153	2.9833016	1.7272236
30.368796925219307	2.920784	1.7090302
30.386958094616844	2.8485734	1.6877718
30.40512004571115	2.8974044	1.7021763
30.423282779059463	2.88358	1.6981107
30.441446295219233	2.797984	1.6727176
30.459610594748067	2.8177986	1.67863
30.47777567820382	2.8431382	1.6861608
30.495941546144504	2.8072472	1.6754842
30.51410819912835	2.799161	1.6730694
30.532275637713795	2.8529575	1.68907
30.55044386245946	2.8376665	1.6845375
30.56861287392416	2.8642411	1.6924069
30.586782672666956	2.912316	1.706551
30.604953259247047	2.8361611	1.6840906
30.623124634223885	2.7753866	1.6659491
30.641296798157075	2.7519698	1.6589062
30.659469751606462	2.745058	1.6568217
30.677643495132074	2.7288063	1.6519098
30.695818029294152	2.7308705	1.6525346
30.713993354653116	2.713297	1.6472088
30.73216947176962	2.7114172	1.6466382
30.75034638120448	2.7470856	1.6574334
30.768524083518756	2.7609384	1.6616071
30.786702579273673	2.7964773	1.6722671
30.80488186903069	2.84634	1.68711
30.82306195335144	2.9988704	1.7317247
30.841242832797782	3.1778116	1.7826418
30.85942450793176	3.4513881	1.8577912
30.877606979315637	3.822079	1.9550138
30.895790247511883	4.1460004	2.0361729
30.913974313083134	4.4953594	2.1202264
30.932159176592283	4.7773094	2.1857057
30.95034483860237	4.871328	2.2071085
30.968531299676698	4.703716	2.1688051
30.98671856037873	4.3836384	2.093714
31.00490662127215	4.012458	2.003112
31.023095482920848	3.4833179	1.8663648
31.04128514588892	3.0828304	1.755799
31.059475610740662	2.8156314	1.6779844
31.07766687804056	2.6358223	1.6235216
31.09585894835335	2.4882839	1.5774295
31.11405182224393	2.4446416	1.563535
31.132245500277417	2.4449756	1.5636418
31.15043998301914	2.4790823	1.5745102
31.168635271034628	2.4455106	1.5638129
31.18683136488964	2.407486	1.5516075
31.20502826515008	2.4133563	1.553498
31.223225972382135	2.4490147	1.5649328
31.241424487152155	2.400928	1.5494928
31.259623810026692	2.3493745	1.5327669
31.27782394157253	2.368244	1.53891
31.296024882356644	2.3962681	1.5479884
31.314226632946237	2.4122562	1.553144
31.332429193908684	2.4110904	1.5527686
31.350632565811598	2.4517686	1.5658125
31.368836749222787	2.496909	1.5801611
31.387041744710295	2.5898914	1.609314
31.40524755284232	2.6728382	1.6348817
31.423454174187317	2.623127	1.6196071
31.441661609313922	2.5412974	1.5941447
31.459869858791002	2.4317975	1.5594221
31.478078923187628	2.402184	1.549898
31.496288803073064	2.4077575	1.551695
31.514499499016807	2.3570445	1.5352669
31.532711011588546	2.398249	1.5486281
31.550923341358178	2.4082975	1.551869
31.56913648889584	2.3868027	1.5449281
31.587350454771844	2.306442	1.5186975
31.605565239556732	2.2612476	1.5037445
31.62378084382127	2.3236213	1.5243429
31.641997268136382	2.374349	1.5408924
31.660214513073274	2.3220868	1.5238395
31.67843257920331	2.2549963	1.5016645
31.6966514670981	2.2407465	1.4969124
31.71487117732944	2.2598047	1.5032647
31.733091710469346	2.292189	1.5139977
31.751313067090052	2.3056755	1.5184451
31.769535247764008	2.270748	1.5069001
31.787758253063878	2.1984053	1.482702
31.805982083562526	2.2273793	1.4924407
31.824206739833024	2.2917542	1.5138541
31.84243222244869	2.2861688	1.5120082
31.860658531983013	2.2850087	1.5116245
31.878885669009737	2.285728	1.5118624
31.897113634102784	2.3360474	1.5284134
31.91534242783632	2.2836068	1.5111607
31.933572050784694	2.245107	1.4983681
31.951802503522508	2.208183	1.4859957
31.970033786624548	2.2300022	1.4933192
31.988265900665834	2.2567205	1.5022385
32.006498846221575	2.270387	1.5067803
32.02473262386724	2.2548792	1.5016255
32.04296723417845	2.2448463	1.4982811
32.0612026777311	2.2440164	1.4980042
32.07943895510129	2.2638643	1.5046144
32.097676066865304	2.2854254	1.5117624
32.115914013599685	2.1986315	1.4827783
32.13415279588115	2.1467884	1.4651923
32.152392414286666	2.1238024	1.4573271
32.1706328693934	2.1298447	1.4593987
32.18887416177875	2.1637359	1.4709643
32.20711629202032	2.1320643	1.4601591
32.225359260695924	2.091279	1.4461255
32.243603068383614	2.1112225	1.4530046
32.26184771566166	2.1316895	1.4600307
32.28009320310852	2.0858815	1.4442581
32.2983395313029	2.112562	1.4534655
32.31658670082372	2.151157	1.4666823
32.33483471225012	2.0776212	1.4413956
32.35308356616143	2.0361962	1.4269534
32.371333263137245	2.1198337	1.4559649
32.38958380375734	2.1645296	1.4712341
32.407835188601744	2.1528199	1.467249
32.42608741825067	2.1489851	1.4659418
32.444340493284585	2.1968765	1.4821864
32.46259441428416	2.1640337	1.4710655
32.48084918183028	2.093666	1.4469506
32.49910479650405	2.023318	1.4224339
32.51736125888683	1.9500537	1.3964432
32.53561856956014	2.0089178	1.4173629
32.5538767291058	2.0351102	1.4265729
32.572135738105764	2.1239386	1.4573739
32.59039559714228	2.1135993	1.4538223
32.608656306797776	2.0767224	1.4410838
32.62691786765491	2.0600653	1.4352927
32.645180280296586	1.9926834	1.4116244
32.663443545305896	1.9731046	1.4046724
32.68170766326619	2.0530348	1.4328415
32.69997263476099	2.1046515	1.4507416
32.7182384603741	2.066431	1.4375086
32.7365051406895	2.0506356	1.4320041
32.75477267629144	2.0844414	1.4437594
32.77304106776434	2.077584	1.4413826
32.79131031569289	2.069209	1.4384745
32.809580420661966	1.9800273	1.4071344
32.827851383256714	1.9655491	1.4019804
32.84612320406245	2.0633645	1.4364417
32.86439588366476	2.0306947	1.4250245
32.88266942264945	2.0277781	1.4240007
32.9009438216025	1.97113	1.4039694
32.9192190811102	1.9300824	1.3892741
32.937495201758985	1.9704424	1.4037244
32.95577218413556	1.9862466	1.4093426
32.974050028826866	2.0224996	1.4221461
32.992328736420035	2.0141225	1.4191978
33.010608307502444	2.0102148	1.4178205
33.02888874266169	1.986629	1.4094783
33.047170042485604	1.9400225	1.392847
33.06545220756225	1.8810592	1.3715171
33.083735238479896	1.9244474	1.3872446
33.10201913582707	1.9160175	1.3842028
33.12030390019248	1.7955651	1.339987
33.138589532165135	1.7460468	1.3213806
33.15687603233419	1.8045069	1.3433194
33.17516340128909	1.8290977	1.3524414
33.19345163961947	1.8599795	1.3638107
33.211740747915215	1.8603959	1.3639634
33.23003072676643	1.8428177	1.3575042
33.248321576763466	1.852556	1.3610864
33.266613298496885	1.7911108	1.3383238
33.28490589255747	1.7464958	1.3215505
33.30319935953626	1.787112	1.3368291
33.32149370002451	1.9266473	1.3880372
33.339788914613706	1.9226972	1.3866136
33.358085003895575	1.9027112	1.379388
33.376381968462034	1.9810117	1.4074842
33.39467980890529	1.9402453	1.3929269
33.41297852581774	1.8798603	1.3710799
33.43127811979204	1.8349824	1.3546152
33.44957859142105	1.878299	1.3705105
33.467879941297866	1.8944551	1.376392
33.486182170015844	1.8698192	1.3674133
33.50448527816853	1.8363944	1.3551363
33.522789266349754	1.8016001	1.342237
33.541094135153514	1.8200674	1.3490987
33.55939988517411	1.8001275	1.3416883
33.57770651700602	1.7451227	1.3210309
33.59601403124398	1.8461831	1.3587432
33.61432242848296	1.9443573	1.3944021
33.632631709318154	1.9045172	1.3800424
33.650941874344994	1.9360409	1.3914169
33.66925292415916	1.9342713	1.3907808
33.68756485935654	1.863152	1.3649733
33.70587768053328	1.943625	1.3941395
33.724191388285746	1.9316654	1.3898437
33.74250598321054	1.8650877	1.3656821
33.760821465904506	1.8534088	1.3613995
33.77913783696474	1.8670963	1.3664173
33.79745509698852	2.0093956	1.4175315
33.815773246573414	2.0320575	1.4255025
33.8340922863172	2.0100794	1.4177727
33.852412216817896	2.0022025	1.4149921
33.87073303867377	1.9513688	1.396914
33.889054752483304	1.9118171	1.3826847
33.907377358845245	1.8434408	1.3577337
33.92570085835853	1.7868319	1.3367243
33.94402525162239	1.7676339	1.3295239
33.96235053923627	1.7993047	1.3413817
33.980676721799824	1.9563487	1.3986953
33.999003799912984	2.09438	1.4471972
34.01733177417592	2.1696737	1.4729812
34.03566064518901	2.1264372	1.4582309
34.0539904135529	2.0477989	1.4310132
34.07232107986846	1.9275336	1.3883564
34.090652644736785	1.8759581	1.3696562
34.108985108759235	1.9753993	1.405489
34.12731847253742	2.0067976	1.4166148
34.14565273667313	1.9520066	1.3971423
34.16398790176847	1.8515807	1.360728
34.18232396842574	1.8764497	1.3698356
34.20066093724749	1.9455642	1.3948348
34.21899880883651	1.9095261	1.3818561
34.23733758379583	1.8598238	1.3637536
34.25567726272874	1.913009	1.3831156
34.27401784623872	1.9738877	1.4049511
34.29235933492957	1.9853873	1.4090377
34.31070172940526	1.9287654	1.3888
34.32904503027003	1.866603	1.3662368
34.347389238128386	1.9015291	1.3789594
34.36573435358502	1.9248744	1.3873985
34.38408037724492	1.9868048	1.4095407
34.402427309713296	2.0714815	1.4392642
34.42077515159559	2.0774684	1.4413426
34.43912390349752	2.0371926	1.4273026
34.45747356602499	1.9316223	1.3898281
34.47582413978423	1.9081709	1.3813657
34.49417562538163	1.9206831	1.3858871
34.51252802342388	2.0057514	1.4162455
34.53088133451789	1.9608244	1.4002944
34.54923555927084	1.8322232	1.3535963
34.567590698290104	1.7696913	1.3302975
34.58594675218336	1.7163191	1.3100836
34.6043037215585	1.6182445	1.2721024
34.62266160702365	1.7059346	1.3061143
34.641020409187234	1.9088211	1.381601
34.65938012865785	2.0382447	1.4276711
34.677740766044394	2.0630472	1.4363312
34.69610232195598	2.0264294	1.4235271
34.714464797002016	1.9790021	1.4067701
34.73282819179208	1.8522482	1.3609732
34.751192506936064	1.8895633	1.3746139
34.76955774304408	2.021761	1.4218864
34.7879239007265	1.8915201	1.3753254
34.80629098059391	1.822107	1.3498545
34.824658983257194	2.0501442	1.4318324
34.843027909327446	2.224336	1.4914207
34.86139775941603	1.9853054	1.4090086
34.879768534134534	1.8260802	1.3513254
34.89814023409483	1.891392	1.3752788
34.91651285990901	1.9842968	1.4086508
34.93488641218944	2.1318347	1.4600804
34.95326089154871	2.1907187	1.4801077
34.97163629859967	2.1510427	1.4666433
34.99001263395542	2.0375755	1.4274367
35.00838989822934	2.1129382	1.4535949
35.02676809203499	2.217823	1.4892358
35.04514721598624	2.1386755	1.4624211
35.063527270697215	1.97376	1.4049057
35.081908256782256	1.90886	1.381615
35.10029017485597	1.9810599	1.4075013
35.11867302553321	2.0155742	1.4197092
35.137056809429104	1.9471711	1.3954108
35.155441527159006	2.1138875	1.4539214
35.173827179338524	2.2723646	1.5074364
35.19221376658354	2.1573055	1.4687768
35.21060128951017	2.0061219	1.4163764
35.2289897487348	1.874103	1.3689787
35.24737914487405	2.0886075	1.4452015
35.26576947854479	2.2927465	1.5141819
35.28416075036418	2.2914183	1.5137432
35.30255296094958	2.017946	1.4205443
35.32094611091867	1.8978208	1.3776141
35.33934020088932	2.1473348	1.4653788
35.35773523147969	2.1180778	1.4553617
35.3761312033082	1.8325856	1.3537302
35.394528116993506	1.9113864	1.382529
35.41292597315452	2.0109272	1.4180716
35.431324772410434	2.1076005	1.4517577
35.449724515380666	2.3730838	1.5404817
35.46812520268491	2.1212656	1.4564565
35.486526834943106	2.0368152	1.4271703
35.504929412775454	2.2848382	1.5115681
35.52333293680242	2.2881742	1.5126712
35.54173740764471	2.0477343	1.4309907
35.560142825923286	1.6511123	1.2849561
35.5785491922594	2.11165	1.4531517
35.59695650727454	2.034605	1.4263958
35.61536477159042	1.3168815	1.1475546
