0.008763373481513119	1.1838697	1.0880578
0.026290120649546365	0.56207573	0.7497171
0.043816868432600686	0.34091827	0.5838821
0.06134361724069026	0.16762027	0.40941456
0.07887036748382949	0.08486862	0.2913222
0.0963971195720331	0.10882493	0.32988623
0.11392387391531617	0.11292994	0.3360505
0.1314506309236943	0.13252874	0.36404496
0.1489773910071836	0.13014172	0.3607516
0.16650415457580078	0.069985285	0.26454732
0.18403092203956356	0.11355416	0.336978
0.20155769380849	0.13100493	0.36194602
0.2190844702925996	0.1538461	0.3922322
0.2366112519019124	0.11744931	0.3427088
0.2541380390464497	0.10142217	0.31846848
0.27166483213623416	0.10648301	0.32631734
0.28919163158128947	0.1050916	0.32417834
0.3067184377916406	0.10375577	0.32211143
0.324245251177314	0.08443783	0.29058188
0.34177207214833777	0.08520218	0.29189414
0.3592989011147415	0.090028286	0.30004713
0.37682573848655654	0.08152191	0.28552043
0.39435258467381573	0.0998084	0.31592467
0.41187944008655414	0.10627192	0.32599375
0.42940630513480854	0.17626359	0.41983756
0.446933180228618	0.17852546	0.42252272
0.4644600657780234	0.16135688	0.4016925
0.48198696219306775	0.15982726	0.39978403
0.49951386988379676	0.12153597	0.3486201
0.5170407892602581	0.12157508	0.34867617
0.5345677207325025	0.08700407	0.29496452
0.5520946647105822	0.12832648	0.35822684
0.5696216216045534	0.15861398	0.3982637
0.5871485918244737	0.15797003	0.39745444
0.6046755757804043	0.14019132	0.3744213
0.6222025738824094	0.106255315	0.32596827
0.6397295865405557	0.10401745	0.32251737
0.6572566141649129	0.13097444	0.3619039
0.6747836571655547	0.16948676	0.4116877
0.6923107159525568	0.18570824	0.43093878
0.7098377909359992	0.17649713	0.42011562
0.7273648825259653	0.17422004	0.41739675
0.7448919911325411	0.18507612	0.43020475
0.762419117165817	0.1943448	0.44084555
0.7799462610358868	0.22122695	0.47034767
0.7974734231528482	0.25135618	0.50135434
0.8150006039268024	0.22374336	0.4730152
0.8325278037678551	0.22076418	0.4698555
0.8500550230861152	0.18293677	0.4277111
0.8675822622916969	0.21340045	0.46195287
0.8851095217947171	0.20536713	0.4531745
0.9026368020052984	0.25832844	0.5082602
0.9201641033335665	0.25517163	0.50514513
0.9376914261896523	0.22875473	0.4782831
0.9552187709836915	0.24257436	0.4925184
0.9727461381258234	0.21572949	0.4644669
0.990273528026193	0.24588673	0.49586967
1.0078009410949496	0.24015939	0.4900606
1.0253283777422473	0.23168904	0.4813409
1.0428558383782454	0.25042805	0.50042784
1.0603833234131086	0.25137433	0.50137246
1.0779108332570058	0.28217286	0.53119946
1.0954383683201119	0.29414988	0.54235584
1.112965929012607	0.34042823	0.5834623
1.1304935157446763	0.45523787	0.6747132
1.1480211289265108	0.4781104	0.6914553
1.1655487689683062	1.3055758	1.142618
1.1830764362802655	1.5848486	1.2589077
1.200604131272596	2.001954	1.4149042
1.2181318543555117	2.4126022	1.5532553
1.235659605939232	2.495771	1.579801
1.253187386433982	4.1646276	2.040742
1.270715196249994	6.6798596	2.5845425
1.2882430357975057	12.1163845	3.4808598
1.3057709054867608	16.799488	4.0987177
1.3232988057280106	22.542482	4.7478924
1.3408267369315112	27.32325	5.2271647
1.358354699507526	31.059185	5.5730767
1.3758826938663256	35.39804	5.9496255
1.3934107204181858	37.6009	6.131957
1.410938779573391	37.956818	6.1609106
1.4284668717422309	38.42996	6.19919
1.4459949973350033	37.672153	6.1377645
1.4635231567620117	37.592926	6.131307
1.4810513504335687	37.27851	6.105613
1.4985795787599925	36.897816	6.074357
1.5161078421516088	36.26772	6.022269
1.5336361410187505	35.10981	5.925353
1.5511644757717598	35.143097	5.928161
1.5686928468209842	35.724915	5.977032
1.58622125457678	36.687294	6.0570035
1.6037496994495108	38.28362	6.1873755
1.621278181849548	38.303577	6.188988
1.6388067021872719	39.08677	6.251941
1.6563352608730693	38.138317	6.175623
1.673863858317336	36.634712	6.0526614
1.6913924949304753	35.578957	5.96481
1.7089211711228998	34.5888	5.881224
1.7264498873050296	34.080154	5.837821
1.7439786438872935	33.611225	5.7975187
1.7615074412801288	32.587162	5.7085166
1.779036279893981	31.415077	5.6049156
1.796565160139305	29.864538	5.4648457
1.814094082426564	29.386158	5.4209003
1.8316230471662298	28.893764	5.375292
1.849152054768784	28.337402	5.3232884
1.8666811056447168	28.148167	5.305485
1.8842102002045273	27.339388	5.2287083
1.901739338858724	26.685976	5.1658473
1.9192685220178245	25.79933	5.079304
1.9367977500923557	24.97136	4.997135
1.9543270234928547	24.736414	4.973572
1.971856342629867	23.981686	4.89711
1.9893857079139496	23.619665	4.860007
2.006915119755667	23.109564	4.807241
2.0244445785655945	22.650925	4.759299
2.0419740847543175	22.091505	4.70016
2.0595036387324317	21.509129	4.6377935
2.0770332409105414	21.105642	4.5940876
2.094562891699263	20.668	4.546207
2.1120925915092217	20.196236	4.4940224
2.129622340751053	19.60465	4.427714
2.1471521398354043	187.7901	13.703652
2.1646819891729323	444.21786	21.076477
2.182211889174303	440.69418	20.992718
2.1997418402501974	452.96652	21.28301
2.2172718428113023	432.98538	20.8083
2.234801897268317	321.0916	17.91903
2.2523320040319548	17.356333	4.1660933
2.269862163512935	16.941202	4.115969
2.287392376121992	16.373804	4.046456
2.304922642269869	16.084665	4.010569
2.322452962367322	16.128305	4.016006
2.3399833368251164	15.919335	3.9899042
2.357513766054032	15.698315	3.9621098
2.3750442504648586	15.195233	3.8981063
2.3925747904683963	14.866566	3.8557186
2.410105386475459	14.619733	3.823576
2.4276360388968707	14.594215	3.8202376
2.445166748143469	14.447963	3.8010476
2.4626975146261025	14.2336855	3.7727556
2.4802283387556323	13.824539	3.7181365
2.4977592209429305	13.461484	3.6689894
2.5152901615988825	13.1379	3.6246243
2.5328211611343865	13.132649	3.6238997
2.5503522199603523	12.904455	3.592277
2.5678833384877024	12.69691	3.5632725
2.5854145171273712	12.335016	3.512124
2.6029457562903064	12.054505	3.4719598
2.620477056387469	11.854911	3.4430962
2.6380084178298326	11.74382	3.4269257
2.655539841028383	11.671658	3.416381
2.673071326394119	11.369126	3.3718135
2.6906028743380523	11.201329	3.3468387
2.708134485271211	10.902194	3.301847
2.7256661596046325	10.797959	3.2860248
2.743197897749369	10.603312	3.2562726
2.760729700116486	10.557285	3.2491977
2.778261567117063	10.261699	3.2033887
2.795793499162193	10.184435	3.191306
2.8133254966629817	9.974132	3.1581848
2.830857560030551	9.958386	3.1556911
2.8483896896760337	9.889916	3.1448238
2.865921886010578	9.93221	3.151541
2.883454149445347	9.741112	3.1210754
2.9009864803915177	9.686728	3.1123507
2.91851887926028	9.547241	3.089861
2.9360513464628384	9.375411	3.0619292
2.953583882410413	9.177578	3.0294518
2.9711164875142373	9.005251	3.000875
2.9886491621855606	8.825844	2.970832
3.0061819068356455	8.668575	2.9442444
3.023714721875769	8.446728	2.9063256
3.041247607717225	8.349848	2.8896103
3.0587805647713213	8.231233	2.8690126
3.0763135934493806	8.21185	2.8656325
3.0938466941627407	8.296606	2.880383
3.1113798673227544	8.290889	2.8793902
3.1289131133407904	8.218826	2.8668494
3.1464464326282315	7.9290705	2.8158605
3.1639798255964786	7.894885	2.8097837
3.1815132926569443	7.9558854	2.820618
3.1990468342210603	7.926313	2.8153708
3.216580450700272	7.757468	2.7852232
3.2341141425060416	7.53229	2.7445018
3.251647910049847	7.366409	2.714113
3.2691817537431813	7.170733	2.6778224
3.286715673997555	7.0770903	2.6602802
3.3042496712244938	7.0110564	2.64784
3.32178374583554	7.091519	2.6629906
3.339317898242251	7.0366006	2.6526592
3.3568521288562034	7.0243583	2.6503506
3.3743864380889876	6.9311476	2.6327074
3.3919208263522127	6.8270836	2.6128688
3.4094552940575023	6.771046	2.6021235
3.4269898416164972	6.6817327	2.5849047
3.444524469440858	6.590938	2.5672822
3.4620591779422587	6.5229254	2.5540018
3.479593967532391	6.435773	2.5368824
3.4971288386229658	6.3744946	2.5247762
3.5146637916257086	6.233164	2.4966304
3.5321988269523628	6.1973357	2.489445
3.5497339450146903	6.234161	2.4968302
3.5672691462244708	6.3035126	2.5106797
3.5848044309934988	6.282727	2.5065367
3.60233979973359	6.295595	2.5091023
3.619875252856575	6.2984157	2.5096645
3.6374107907743034	6.271281	2.5042524
3.6549464138986427	6.307875	2.5115483
3.6724821226414788	6.238821	2.4977632
3.690017917414714	6.2552876	2.5010574
3.7075537986302702	6.3558817	2.5210874
3.7250897667000857	6.3682966	2.5235484
3.7426258220361235	6.419204	2.5336149
3.7601619650503553	6.6703415	2.5827005
3.777698196154779	7.194017	2.6821666
3.7952345157614067	8.346715	2.8890681
3.8127709242822716	9.221485	3.0366898
3.830307422129425	11.500177	3.3911912
3.847844009714936	12.8538475	3.5852263
3.8653806874508954	16.148418	4.0185094
3.882917455749409	15.637916	3.9544804
3.900454315022606	15.686957	3.9606764
3.917991265682631	12.7748995	3.5741992
3.9355283081416506	11.010364	3.3181868
3.9530654428118495	8.863691	2.9771953
3.970602670105433	7.672527	2.7699327
3.9881399904346244	6.7484717	2.5977821
4.005677404211669	6.71279	2.5909052
4.023214911848827	6.602997	2.5696297
4.0407525137583855	6.5761294	2.5643966
4.058290210352644	6.5648427	2.5621948
4.075828002043927	6.54348	2.5580227
4.0933658892445814	6.474604	2.5445244
4.110903872366966	6.3423123	2.5183947
4.128441951823468	6.229425	2.4958816
4.145980128026488	6.234311	2.4968603
4.163518401388452	6.2514367	2.5002873
4.181056772321807	6.2872963	2.5074482
4.1985952412390155	6.3754325	2.524962
4.216133808552567	6.346161	2.5191588
4.233672474674966	6.3494887	2.5198193
4.251211240018741	6.591658	2.5674224
4.268750104996445	6.6813235	2.5848255
4.286289070020643	7.7034545	2.7755098
4.303828135503928	9.278523	3.046067
4.3213673018589125	29.733463	5.45284
4.3389065694982305	90.88048	9.533125
4.356445938834537	166.11	12.888367
4.3739854102805085	171.81099	13.107669
4.391524984248844	172.65596	13.139861
4.409064661152262	136.72708	11.693035
4.426604441403504	97.04018	9.850897
4.444144325415337	75.89876	8.711989
4.461684313600543	21.816717	4.670837
4.47922440637193	22.087051	4.6996865
4.496764604142329	20.497232	4.527387
4.5143049073245916	18.774414	4.3329453
4.531845316331589	16.581465	4.0720344
4.5493858315762195	13.671398	3.6974854
4.566926453471405	11.378232	3.3731635
4.584467182430081	9.431456	3.0710676
4.602008018865218	8.350767	2.8897693
4.619548963189798	7.5376897	2.7454853
4.637090015816834	7.0399094	2.6532826
4.654631177159353	6.8167057	2.6108823
4.672172447630417	6.641621	2.5771344
4.689713827643102	6.433989	2.536531
4.7072553176105085	6.252872	2.5005744
4.724796917945764	6.029774	2.45556
4.742338629062015	5.8783107	2.4245229
4.759880451372434	5.7847543	2.4051516
4.777422385290215	5.675972	2.3824298
4.794964431228581	5.668671	2.380897
4.812506589600768	5.598363	2.366086
4.830048860820047	5.6629457	2.3796945
4.847591245299709	5.702812	2.388056
4.8651337434530655	5.748034	2.3975058
4.882676355693457	5.7299767	2.393737
4.900219082434242	5.760963	2.4002006
4.917761924088813	5.727959	2.3933156
4.935304881070575	5.7105274	2.389671
4.952847953792969	5.7016006	2.3878024
4.970391142669449	5.614087	2.3694065
4.9879344481135055	5.594411	2.3652506
5.005477870538642	5.590894	2.3645072
5.023021410358394	5.5972486	2.3658504
5.040565067986324	5.6062136	2.3677444
5.05810884383601	5.6418343	2.3752546
5.075652738321066	5.5873346	2.3637543
5.09319675185512	5.594003	2.3651645
5.110740884851836	5.5253205	2.3506
5.128285137724894	5.487123	2.3424609
5.145829510888007	5.475244	2.3399239
5.163374004754908	5.5273595	2.3510337
5.1809186197393595	5.532697	2.3521686
5.198463356255145	5.503616	2.3459787
5.216008214716077	5.462227	2.3371408
5.233553195535998	5.367683	2.316826
5.251098299128764	5.310097	2.304365
5.268643525908272	5.235485	2.2881181
5.286188876288432	5.230766	2.2870867
5.3037343506831895	5.249933	2.291273
5.32127994950651	5.2071424	2.2819164
5.3388256731723915	5.2276454	2.2864044
5.356371522094851	5.2614455	2.2937841
5.373917496687938	5.347178	2.3123965
5.391463597365729	5.3868103	2.3209503
5.40900982454232	5.3665557	2.3165827
5.426556178631843	5.2828665	2.2984488
5.444102660048449	5.2476063	2.2907655
5.4616492692063225	5.262771	2.294073
5.479196006519669	5.2309766	2.2871327
5.496742872402727	5.173222	2.2744718
5.514289867269756	5.1416817	2.2675276
5.531836991535049	5.0763617	2.2530782
5.549384245612924	5.0757523	2.252943
5.566931629917724	5.051428	2.247538
5.584479144863822	5.1529746	2.2700164
5.6020267908656205	5.270441	2.2957442
5.619574568337545	5.3382916	2.3104744
5.637122477694054	5.3206024	2.306643
5.654670519349629	5.2541466	2.2921925
5.672218693718784	5.159004	2.2713442
5.689767001216059	5.1550264	2.2704682
5.707315442256021	5.0894003	2.25597
5.724864017253266	5.1192827	2.2625833
5.7424127266224225	5.1858053	2.2772362
5.75996157077814	5.2573123	2.292883
5.777510550135105	5.22426	2.285664
5.795059665108022	5.2086716	2.2822514
5.812608916111639	5.224968	2.2858188
5.830158303560715	5.348192	2.3126159
5.847707827870055	5.3781214	2.3190777
5.86525748945448	5.3837767	2.3202968
5.8828072887288485	5.4598722	2.336637
5.900357226108044	5.5248294	2.3504956
5.917907302006979	5.6715326	2.381498
5.9354575168406	6.25028	2.500056
5.9530078710238765	6.840133	2.6153648
5.970558364971812	7.3007793	2.7019954
5.988108999099438	7.5800967	2.7531974
6.005659773821818	8.069428	2.840674
6.023210689554039	7.8296576	2.7981524
6.040761746711227	8.327278	2.8857024
6.058312945708531	7.9200525	2.8142588
6.075864286961132	7.495375	2.7377682
6.093415770884244	6.774052	2.602701
6.1109673978931065	6.0959454	2.4689968
6.128519168402993	5.4746656	2.3398004
6.146071082829204	5.3068795	2.3036666
6.163623141587075	5.2045617	2.2813509
6.181175345091969	5.2278438	2.2864478
6.198727693759281	5.3002186	2.3022203
6.216280188004435	5.312663	2.3049214
6.233832828242885	5.1993093	2.2801995
6.251385614890126	5.147011	2.2687025
6.268938548361669	5.0973535	2.257732
6.286491629073067	5.0822554	2.2543857
6.304044857439898	5.1162143	2.261905
6.321598233877777	5.077072	2.2532358
6.339151758802344	5.0398383	2.2449584
6.356705432629277	4.9794054	2.2314582
6.37425925577428	4.9775763	2.2310483
6.391813228653095	4.9890575	2.23362
6.409367351681486	5.023747	2.2413716
6.426921625275259	5.007543	2.237754
6.44447604985025	5.074067	2.252569
6.46203062582232	5.068297	2.251288
6.47958535360737	5.057859	2.2489684
6.497140233621328	4.983121	2.2322905
6.514695266280161	4.946867	2.2241554
6.532250451999859	4.9908786	2.2340274
6.549805791196454	5.035767	2.2440515
6.567361284286002	5.1018343	2.258724
6.584916931684597	5.1047416	2.2593675
6.602472733808367	5.0423083	2.2455084
6.6200286910734665	5.0052376	2.237239
6.637584803896092	5.0115914	2.2386584
6.655141072692462	4.98607	2.232951
6.672697497878842	5.015754	2.239588
6.690254079871514	4.9692745	2.229187
6.707810819086808	4.951397	2.2251735
6.725367715941078	5.056203	2.2486002
6.742924770850719	5.074733	2.2527168
6.760481984232151	5.021719	2.240919
6.778039356501836	4.9630976	2.227801
6.795596888076266	4.9176435	2.217576
6.813154579371963	5.0172706	2.2399266
6.830712430805492	5.0470033	2.2465537
6.84827044279344	5.00687	2.2376037
6.865828615752445	4.981433	2.2319124
6.883386950099159	4.917547	2.2175543
6.900945446250287	4.9976645	2.2355456
6.918504104622553	4.9752693	2.2305312
6.936062925632727	5.0042872	2.2370265
6.953621909697607	5.0044136	2.2370546
6.971181057234028	5.1382875	2.2667792
6.988740368658859	5.2097263	2.2824824
7.006299844389007	5.2109632	2.2827535
7.023859484841407	5.1642985	2.2725093
7.041419290433036	5.2106957	2.2826948
7.058979261580902	5.4040446	2.32466
7.0765393987020495	5.6958904	2.3866065
7.094099702213559	6.1005273	2.4699244
7.111660172532549	6.430728	2.535888
7.129220810076164	6.804089	2.608465
7.146781615261595	7.4147053	2.7229958
7.16434258850606	7.6528716	2.7663825
7.181903730226821	8.078934	2.8423464
7.1994650408411704	8.22068	2.867173
7.217026520766437	8.384687	2.8956325
7.234588170419983	8.6117935	2.9345858
7.252149990219215	8.501376	2.9157119
7.269711980581568	8.415634	2.9009712
7.2872741419245175	8.150814	2.854963
7.304836474665574	7.7859983	2.7903402
7.322398979222286	7.500761	2.7387516
7.339961656012233	7.249686	2.692524
7.357524505453039	6.9676595	2.6396325
7.375087527962357	6.633241	2.5755079
7.392650723957886	6.341362	2.5182061
7.410214093857353	6.0321884	2.4560513
7.427777638078528	5.8152227	2.4114773
7.445341357039213	5.657976	2.37865
7.4629052511572525	5.5013356	2.3454926
7.480469320850524	5.484596	2.3419213
7.498033566536948	5.386052	2.320787
7.5155979886344735	5.26531	2.2946262
7.5331625875610975	5.1792836	2.275804
7.550727363734844	5.158873	2.2713153
7.568292317573788	5.199593	2.2802615
7.585857449496025	5.224132	2.285636
7.603422759919705	5.2810383	2.2980509
7.620988249263007	5.2923913	2.3005197
7.638553917944147	5.3248386	2.3075612
7.656119766381391	5.2957354	2.3012464
7.673685794993023	5.3117456	2.3047225
7.691252004197388	5.294287	2.300932
7.70881839441285	5.321601	2.3068595
7.726384966057826	5.2688546	2.2953985
7.743951719550762	5.231612	2.2872717
7.761518655310149	5.2195477	2.284633
7.779085773754511	5.242716	2.2896976
7.796653075302419	5.2644973	2.2944493
7.814220560372475	5.2631216	2.2941494
7.831788229383323	5.3017325	2.3025491
7.8493560827536495	5.3272014	2.308073
7.866924120902174	5.4202433	2.3281417
7.884492344247663	5.4237957	2.3289044
7.9020607532089135	5.3525314	2.3135538
7.919629348204771	5.348544	2.312692
7.937198129654115	5.4030232	2.3244405
7.954767097975865	5.5007153	2.3453603
7.972336253588986	5.5004916	2.3453126
7.989905596912472	5.460226	2.3367126
8.007475128365371	5.4290094	2.3300235
8.025044848366756	5.4395013	2.332274
8.042614757335754	5.5596623	2.3578937
8.060184855691523	5.6273303	2.3721995
8.07775514385327	5.829187	2.414371
8.095325622240228	5.916717	2.4324303
8.112896291271687	5.997279	2.4489343
8.130467151366968	6.0149546	2.4525404
8.148038202945436	5.9881988	2.4470797
8.165609446426497	5.933605	2.4358993
8.183180882229594	6.003152	2.450133
8.200752510774217	6.0403285	2.457708
8.218324332479893	6.058177	2.4613364
8.235896347766193	6.0259843	2.454788
8.253468557052724	6.0360293	2.4568331
8.27104096075914	6.0433664	2.4583259
8.288613559305137	6.156978	2.4813259
8.306186353110448	6.196838	2.4893448
8.32375934259485	6.2270994	2.4954157
8.341332528178162	6.234281	2.4968543
8.358905910280246	6.209306	2.4918478
8.376479489321003	6.287629	2.5075145
8.394053265720377	6.308409	2.5116546
8.411627239898356	6.324147	2.5147858
8.42920141227497	6.2973537	2.5094528
8.44677578327029	6.2405457	2.4981084
8.464350353304427	6.2336116	2.49672
8.48192512279754	6.217095	2.4934103
8.499500092169827	6.110637	2.4719703
8.51707526184153	6.1237106	2.4746132
8.534650632232934	6.1465554	2.4792247
8.552226203764365	6.211649	2.492318
8.569801976856192	6.2939568	2.508776
8.587377951928834	6.329984	2.515946
8.60495412940274	6.3293815	2.5158262
8.622530509698416	6.328541	2.515659
8.6401070932364	6.440747	2.5378625
8.657683880437283	6.5634413	2.5619214
8.675260871721695	6.7267385	2.5935957
8.692838067510303	6.8405037	2.6154356
8.710415468223834	6.976586	2.6413229
8.727993074283043	7.092097	2.663099
8.745570886108737	7.1094356	2.6663525
8.763148904121765	7.212915	2.685687
8.78072712874302	7.274774	2.6971788
8.798305560393441	7.5310736	2.74428
8.815884199494006	7.7295713	2.7802107
8.833463046465745	7.921161	2.8144557
8.851042101729728	8.040734	2.835619
8.86862136570707	8.334558	2.8869634
8.886200838818924	8.517314	2.9184437
8.903780521486505	8.610344	2.9343388
8.921360414131055	8.758356	2.959452
8.938940517173874	8.879854	2.9799085
8.956520831036297	8.986269	2.9977107
8.97410135613971	9.21414	3.0354803
8.99168209290554	9.329009	3.0543427
9.009263041755265	9.564399	3.092636
9.026844203110405	9.823961	3.13432
9.044425577392525	9.956898	3.1554554
9.062007165023239	9.935397	3.1520464
9.079588966424197	10.214204	3.1959667
9.097170982017108	10.361831	3.2189798
9.11475321222372	11.394349	3.3755517
9.132335657465825	12.23978	3.4985397
9.149918318165264	12.307077	3.5081444
9.167501194743924	12.808232	3.578859
9.18508428762374	12.522969	3.5387807
9.202667597226693	12.491068	3.5342705
9.220251123974803	12.17591	3.4893997
9.237834868290143	11.924423	3.4531758
9.255418830594836	11.666499	3.4156258
9.273003011311046	11.150215	3.3391938
9.290587410860985	10.983421	3.3141246
9.308172029666911	10.422597	3.2284048
9.32575686815113	10.201915	3.1940436
9.343341926735997	8.946713	2.9911058
9.360927205843916	8.754718	2.9588373
9.378512705897327	8.498315	2.915187
9.396098427318728	8.277639	2.8770888
9.413684370530664	8.098145	2.8457239
9.431270535955722	7.950742	2.819706
9.448856924016539	7.9025154	2.8111413
9.466443535135806	7.8417106	2.8003054
9.484030369736251	7.8171234	2.795912
9.501617428240658	7.777841	2.7888782
9.519204711071852	7.7850585	2.7901719
9.536792218652714	7.790892	2.7912169
9.55437995140617	7.763649	2.7863326
9.571967909755191	7.7834234	2.7898788
9.589556094122802	7.888433	2.8086355
9.60714450493207	7.9915853	2.826939
9.624733142606116	8.145727	2.854072
9.642322007568108	8.213081	2.8658473
9.659911100241267	8.220138	2.8670783
9.677500421048851	8.191542	2.862087
9.695089970414175	8.143665	2.853711
9.712679748760609	8.099542	2.8459694
9.730269756511557	8.126862	2.850765
9.747859994090492	8.114413	2.8485808
9.765450461920915	8.198006	2.863216
9.78304116042639	8.24114	2.8707387
9.800632090030527	8.333667	2.886809
9.81822325115699	8.381117	2.895016
9.835814644229481	8.402159	2.8986478
9.853406269671762	8.3784275	2.8945513
9.870998127907646	8.369899	2.8930779
9.888590219360985	8.407577	2.8995821
9.906182544455698	8.428756	2.9032319
9.923775103615734	8.405534	2.8992298
9.941367897265108	8.40854	2.8997483
9.958960925827878	8.366571	2.8925025
9.97655418972816	8.387081	2.8960457
9.994147689390106	8.389264	2.8964226
10.011741425237934	8.38226	2.8952134
10.029335397695904	8.333163	2.8867218
10.04692960718833	8.340645	2.8880174
10.06452405413958	8.336217	2.8872507
10.082118738974064	8.320394	2.8845093
10.099713662116246	8.239193	2.8703995
10.117308823990651	8.123103	2.8501058
10.134904225021844	8.145731	2.8540728
10.152499865634445	8.156961	2.8560395
10.170095746253125	8.232706	2.8692694
10.18769186730261	8.186762	2.8612518
10.205288229207675	8.145213	2.853982
10.222884832393145	8.097575	2.845624
10.2404816772839	8.117028	2.8490398
10.258078764304868	8.182861	2.8605702
10.275676093881035	8.249244	2.8721497
10.293273666437438	8.206729	2.864739
10.310871482399158	8.1791	2.8599126
10.32846954219134	8.133981	2.8520133
10.346067846239173	8.183683	2.8607137
10.363666394967908	8.213652	2.865947
10.38126518880283	8.307021	2.8821902
10.398864228169298	8.412277	2.9003925
10.416463513492713	8.464592	2.9093971
10.434063045198531	8.410504	2.9000869
10.451662823712262	8.302977	2.8814886
10.469262849459467	8.228904	2.8686066
10.486863122865758	8.125944	2.850604
10.504463644356806	8.119524	2.8494778
10.522064414358338	8.048849	2.8370495
10.539665433296118	7.9739494	2.8238182
10.557266701595987	8.001474	2.8286877
10.574868219683818	7.912347	2.8128893
10.592469987985552	7.8116217	2.7949278
10.610072006927185	7.7206407	2.778604
10.627674276934751	7.6270633	2.7617137
10.64527679843435	7.4805036	2.735051
10.662879571852143	7.3077645	2.7032878
10.680482597614331	7.187254	2.6809053
10.698085876147173	7.152558	2.6744266
10.715689407876988	7.1104136	2.6665359
10.733293193230146	7.044824	2.6542087
10.750897232633072	6.9334717	2.6331487
10.76850152651225	6.84928	2.6171129
10.786106075294207	6.735562	2.5952961
10.803710879405534	6.6312423	2.57512
10.821315939272877	6.529245	2.5552387
10.83892125532294	6.5023894	2.5499783
10.856526827982472	6.432868	2.53631
10.874132657678285	6.461379	2.5419242
10.891738744837243	6.324108	2.514778
10.909345089886271	6.2640023	2.5027988
10.926951693252343	6.1542654	2.4807792
10.944558555362494	6.1567917	2.4812882
10.96216567664381	6.0965667	2.4691226
10.979773057523436	6.0280595	2.4552107
10.997380698428573	5.9296975	2.435097
11.014988599786477	5.8129506	2.4110062
11.032596762024461	5.74465	2.3968
11.050205185569892	5.6628113	2.3796663
11.067813870850198	5.6124716	2.3690655
11.085422818292859	5.5864983	2.3635774
11.10303202832541	5.547253	2.3552608
11.120641501375454	5.5255823	2.3506558
11.138251237870636	5.411701	2.3263063
11.155861238238671	5.342252	2.3113313
11.173471502907317	5.200813	2.280529
11.191082032304402	5.146526	2.2685955
11.208692826857805	5.1273923	2.2643745
11.226303886995465	5.0778747	2.253414
11.243915213145371	5.011604	2.238661
11.261526805735578	4.939115	2.2224119
11.279138665194196	4.877223	2.2084436
11.296750791949393	4.8314815	2.1980631
11.314363186429393	4.7626204	2.1823428
11.331975849062479	4.7494144	2.179315
11.34958878027699	4.713469	2.1710525
11.36720198050133	4.6961856	2.1670685
11.384815450163948	4.6644144	2.1597254
11.402429189693366	4.6133184	2.1478636
11.420043199518153	4.533551	2.1292138
11.437657480066942	63.53601	7.9709477
11.455272031768422	85.27607	9.234505
11.472886855051353	107.65531	10.375708
11.490501950344528	99.19477	9.959657
11.508117318076819	84.47131	9.190827
11.52573295867715	45.830727	6.7698393
11.543348872574514	4.1606307	2.0397625
11.560965060197946	4.1441326	2.0357144
11.57858152197655	4.0690503	2.0171888
11.59619825833949	3.986119	1.9965267
11.613815269715985	3.9768622	1.9942071
11.631432556535323	38.508755	6.205542
11.649050119226837	83.11606	9.116801
11.666667958219929	93.51118	9.670117
11.68428607394406	107.73708	10.379647
11.701904466828756	82.54884	9.085639
11.719523137303586	65.39387	8.086647
11.737142085798196	4.607131	2.1464229
11.754761312742286	3.6714327	1.9160984
11.772380818565619	3.6102073	1.9000546
11.790000603698015	3.5830123	1.8928846
11.80762066856935	3.5952911	1.8961253
11.825241013609572	3.6077788	1.8994154
11.842861639248683	3.664329	1.9142437
11.860482545916748	3.60116	1.8976723
11.878103734043883	3.5933049	1.8956015
11.895725204060282	3.4803693	1.8655748
11.91334695639619	3.438711	1.8543762
11.930968991481919	3.4086337	1.8462485
11.948591309747824	3.3630424	1.8338599
11.966213911624347	3.4158568	1.8482037
11.98383679754198	3.3878496	1.8406112
12.001459967931268	3.3859627	1.8400986
12.019083423222835	3.3299246	1.8248081
12.036707163847352	3.258951	1.8052565
12.05433119023556	3.235534	1.798759
12.071955502818259	3.2359335	1.7988701
12.089580102026313	3.1806786	1.7834457
12.107204988290643	3.159337	1.7774523
12.12483016204224	3.1225853	1.7670839
12.142455623712152	3.1481338	1.7742981
12.16008137373149	3.1033502	1.7616328
12.177707412531431	3.1117506	1.7640154
12.19533374054321	3.078599	1.7545937
12.212960358198126	3.0636692	1.750334
12.230587265927545	3.0325956	1.7414349
12.248214464162889	3.0108035	1.7351667
12.265841953335649	3.0510166	1.7467159
12.283469733877375	3.04034	1.7436571
12.301097806219685	3.0381417	1.7430266
12.31872617079425	2.9693959	1.7231935
12.336354828032825	2.939372	1.7144597
12.353983778367205	2.910304	1.7059613
12.371613022229262	2.9099922	1.7058699
12.389242560050928	2.8766305	1.6960633
12.406872392264201	2.9100614	1.7058902
12.424502519301143	2.9501398	1.7175971
12.442132941593874	2.984925	1.7276936
12.459763659574586	2.9460592	1.7164088
12.477394673675532	2.9144368	1.7071722
12.49502598432903	2.8778288	1.6964165
12.51265759196746	2.8899088	1.6999732
12.530289497023267	2.8590994	1.6908872
12.547921699928967	2.8313546	1.682663
12.565554201117134	2.8488355	1.6878494
12.583187001020404	2.8238394	1.6804284
12.600820100071486	2.7896671	1.6702297
12.618453498703152	2.8064952	1.6752597
12.636087197348235	2.816049	1.6781088
12.65372119643964	2.8537388	1.6893013
12.671355496410326	2.8981519	1.7023959
12.68899009769333	2.9150302	1.707346
12.706625000721749	2.9431481	1.7155606
12.724260205928752	2.9403028	1.7147311
12.741895713747551	2.9291942	1.7114888
12.759531524611454	2.9471128	1.7167157
12.777167638953818	2.9902358	1.7292298
12.794804057208072	3.0578885	1.7486819
12.812440779807702	3.1299741	1.7691733
12.830077807186271	3.2660635	1.8072253
12.847715139777405	3.2784948	1.8106614
12.865352778014795	3.5071301	1.8727334
12.882990722332197	3.6112294	1.9003235
12.90062897316344	3.6949227	1.9222182
12.918267530942412	3.7734592	1.9425393
12.935906396103071	3.6492732	1.910307
12.953545569079449	3.807309	1.9512327
12.971185050305628	3.624925	1.9039235
12.988824840215775	3.6319764	1.9057745
13.006464939244115	3.6580935	1.9126143
13.024105347824943	3.5189679	1.8758912
13.041746066392617	3.5623305	1.8874137
13.05938709538157	3.347105	1.8295095
13.077028435226296	3.3442905	1.8287401
13.094670086361363	3.2642007	1.8067099
13.112312049221401	3.1692672	1.7802435
13.129954324241112	3.1026442	1.7614324
13.147596911855258	2.883541	1.6980993
13.165239812498685	2.897697	1.7022623
13.182883026606293	2.8157065	1.6780066
13.200526554613058	2.7847068	1.6687441
13.218170396954017	2.7545278	1.659677
13.235814554064284	2.7461627	1.657155
13.253459026379034	2.7501328	1.6583525
13.271103814333523	2.7223716	1.6499611
13.288748918363058	2.696994	1.6422527
13.306394338903031	2.6814923	1.6375263
13.32404007638889	2.6605034	1.631105
13.341686131256164	2.6747298	1.6354601
13.359332503940449	2.7031717	1.6441325
13.376979194877402	2.7302494	1.6523466
13.394626204502751	2.7593975	1.6611434
13.412273533252307	2.7564783	1.6602645
13.429921181561937	2.7430737	1.6562227
13.447569149867581	2.7487953	1.6579491
13.465217438605247	2.7748988	1.6658027
13.482866048211022	2.7759	1.6661032
13.500514979121052	2.7884717	1.6698718
13.518164231771568	2.7163236	1.6481273
13.535813806598844	2.6625912	1.6317449
13.553463704039254	2.6258993	1.6204627
13.571113924529229	2.6373641	1.6239964
13.588764468505275	2.6833906	1.6381058
13.606415336403956	2.7339983	1.6534806
13.624066528661917	2.775927	1.6661114
13.641718045715882	2.8616216	1.6916329
13.659369888002635	2.9146929	1.7072471
13.67702205595903	2.9558375	1.719255
13.694674550021993	3.0073733	1.734178
13.712327370628532	3.0446744	1.7448995
13.729980518215713	3.153409	1.775784
13.747633993220681	3.2227924	1.7952137
13.765287796080647	3.275908	1.809947
13.7829419272329	3.3318865	1.8253456
13.800596387114801	3.3288767	1.824521
13.818251176163775	3.2960565	1.8155044
13.835906294817324	3.329652	1.8247334
13.853561743513023	3.437185	1.8539647
13.871217522688525	3.5258343	1.8777205
13.888873632781538	3.5296555	1.8787377
13.906530074229858	3.4783707	1.8650391
13.92418684747135	3.454406	1.8586032
13.941843952943948	3.4230042	1.8501363
13.959501391085665	3.4063504	1.84563
13.977159162334578	3.393342	1.8421026
13.994817267128846	3.3859751	1.840102
14.012475705906693	3.311527	1.8197602
14.030134479106424	3.2808208	1.8113036
14.047793587166414	3.1689186	1.7801456
14.065453030525108	3.126444	1.7681754
14.083112809621026	3.0043826	1.7333155
14.100772924892766	2.9382865	1.714143
14.118433376778997	2.8943527	1.7012798
14.136094165718458	2.859493	1.6910036
14.153755292149969	2.8130548	1.6772164
14.171416756512416	2.7435904	1.6563787
14.189078559244768	2.6815832	1.637554
14.20674070078606	2.6348078	1.6232091
14.224403181575408	2.610429	1.6156822
14.242066002051999	2.5688758	1.6027713
14.259729162655093	2.5660574	1.6018919
14.277392663824022	2.5008214	1.5813985
14.295056505998208	2.4982016	1.58057
14.312720689617128	2.5011034	1.5814878
14.330385215120348	2.5250094	1.5890278
14.348050082947497	2.5305243	1.5907621
14.3657152935383	2.5242388	1.5887853
14.383380847332528	2.5044513	1.5825459
14.401046744770051	2.464992	1.5700293
14.418712986290798	2.4445925	1.5635192
14.436379572334793	2.4453804	1.5637712
14.454046503342123	2.44386	1.563285
14.471713779752946	2.4383717	1.5615287
14.489381402007504	2.4344256	1.5602646
14.507049370546113	2.4467554	1.5642108
14.524717685809168	2.4441042	1.5633631
14.542386348237134	2.4449472	1.5636327
14.560055358270553	2.4288971	1.558492
14.577724716350051	2.4588153	1.568061
14.595394422916325	2.4548266	1.5667887
14.61306447841015	2.477246	1.5739269
14.63073488327237	2.4828572	1.5757085
14.648405637943917	2.5319185	1.5912004
14.6660767428658	2.5257735	1.5892682
14.683748198479094	2.5574243	1.5991949
14.701420005224954	2.6087327	1.6151571
14.719092163544628	2.664806	1.6324233
14.73676467387942	2.7210116	1.6495489
14.754437536670727	2.7211895	1.6496029
14.772110752360014	2.7308908	1.6525407
14.78978432138882	2.7058592	1.6449496
14.807458244198777	2.7274902	1.6515114
14.82513252123159	2.6939366	1.6413215
14.842807152929028	2.6940176	1.6413463
14.860482139732962	2.6617434	1.631485
14.87815748208531	2.6639538	1.6321623
14.8958331804281	2.6733224	1.6350298
14.91350923520342	2.6709566	1.6343062
14.931185646853438	2.6728399	1.6348822
14.948862415820408	2.6708167	1.6342634
14.966539542546656	2.6738353	1.6351867
14.98421702747459	2.6422486	1.6254995
15.001894871046696	2.6528127	1.6287458
15.019573073705542	2.7208176	1.6494901
15.037251635893766	2.750496	1.6584619
15.054930558054092	2.7694852	1.6641771
15.072609840629323	2.8294487	1.6820965
15.090289484062351	2.9259772	1.7105488
15.107969488796124	3.170221	1.7805115
15.125649855273691	3.5304134	1.8789394
15.14333058393817	4.0000806	2.00002
15.161011675232768	4.9989357	2.23583
15.17869312960076	6.370472	2.5239794
15.196374947485506	8.301638	2.8812563
15.214057129330447	11.383322	3.3739178
15.231739675579114	16.081633	4.010191
15.249422586675102	21.08709	4.592068
15.267105863062092	24.19835	4.919182
15.284789505183847	24.535187	4.9533005
15.302473513484218	22.387938	4.7315893
15.320157888407127	18.716827	4.326295
15.337842630396578	14.52837	3.81161
15.355527739896656	11.300974	3.3616922
15.37321321735153	8.862604	2.9770126
15.39089906320545	6.4838758	2.5463455
15.408585277902748	4.8808866	2.2092729
15.42627186188783	3.7627137	1.9397715
15.443958815605198	3.2273653	1.796487
15.461646139499424	2.941769	1.7151586
15.479333834015168	2.7847586	1.6687596
15.497021899597165	2.7261863	1.6511167
15.514710336690234	2.6837478	1.6382148
15.53239914573928	2.6286743	1.6213187
15.550088327189297	2.5744324	1.6045038
15.567777881485336	2.497439	1.5803287
15.58546780907256	2.4677854	1.5709187
15.6031581103962	2.4527795	1.5661352
15.620848785901568	2.4763143	1.5736309
15.638539836034063	2.4682531	1.5710676
15.656231261239173	2.4711332	1.5719838
15.673923061962451	2.457806	1.5677391
15.691615238649552	2.4808257	1.5750637
15.709307791746202	2.483452	1.5758972
15.727000721698221	2.4779284	1.5741436
15.744694028951498	2.4374924	1.5612471
15.76238771395202	2.409227	1.5521685
15.780081777145844	2.4040647	1.5505047
15.797776218979125	2.3768566	1.5417057
15.815471039898094	2.356568	1.5351118
15.833166240349064	2.3586528	1.5357906
15.850861820778437	2.356865	1.5352085
15.868557781632699	2.356603	1.5351231
15.886254123358412	2.323952	1.5244514
15.903950846402232	2.3120375	1.5205386
15.921647951210897	2.3301203	1.5264732
15.939345438231225	2.3320794	1.5271147
15.957043307910133	2.3518007	1.5335581
15.974741560694602	2.3798642	1.5426809
15.992440197031714	2.4139311	1.553683
16.01013921736862	2.417154	1.5547199
16.02783862215259	2.404041	1.550497
16.045538411830933	2.4114995	1.5529003
16.06323858685107	2.4108248	1.5526831
16.080939147660512	2.3989396	1.548851
16.09864009470684	2.342326	1.530466
16.11634142843774	2.3199925	1.5231522
16.134043149300954	2.3500896	1.5330002
16.15174525774433	2.4057815	1.5510582
16.169447754215817	2.434885	1.5604118
16.18715063916342	2.4257374	1.5574778
16.204853913035244	2.419143	1.5553595
16.222557576279478	2.4441626	1.5633818
16.240261629344403	22.44835	4.737969
16.257966072678386	43.019318	6.5589113
16.275670906729868	38.10756	6.173132
16.293376131947387	2.528535	1.5901368
16.31108174877957	2.5209591	1.5877528
16.328787757675133	2.5326514	1.5914307
16.34649415908287	2.5523257	1.5976
16.364200953451657	2.6257427	1.6204144
16.38190814123048	2.6964977	1.6421016
16.39961572286839	2.7317317	1.6527951
16.41732369881455	2.768689	1.6639378
16.43503206951817	2.7771206	1.6664695
16.45274083542859	2.8176694	1.6785915
16.47044999699522	2.8408113	1.6854706
16.488159554667558	2.857986	1.6905578
16.505869508895184	2.8533418	1.6891838
16.523579860127786	2.8981774	1.7024034
16.541290608815117	2.975478	1.7249573
16.559001755407035	3.014479	1.7362255
16.57671330035348	3.058521	1.7488627
16.59442524410448	3.1230474	1.7672145
16.61213758711015	3.2361028	1.7989172
16.629850329820705	3.325437	1.8235781
16.647563472686436	3.41566	1.8481504
16.665277016157724	3.4419541	1.8552505
16.682990960685053	3.4554524	1.8588847
16.70070530671898	3.4543483	1.8585877
16.718420054710155	3.4958186	1.8697108
16.736135205109335	3.5291808	1.8786114
16.753850758367335	3.5643392	1.8879458
16.771566714935087	3.602211	1.8979491
16.789283075263597	3.7099843	1.926132
16.80699983980398	3.7907777	1.9469919
16.82471700900741	3.8749669	1.9684936
16.84243458332518	3.9031544	1.9756403
16.860152563208665	3.977978	1.9944869
16.87787094910932	4.0670447	2.0166914
16.89558974147871	4.1255336	2.031141
16.913308940768466	4.1922464	2.0474975
16.931028547430333	4.273158	2.0671618
16.94874856191613	4.3360744	2.0823243
16.966468984677785	4.441134	2.1073997
16.98418981616729	4.481046	2.1168482
17.00191105683676	4.56097	2.1356428
17.019632707138374	4.6030493	2.1454718
17.03735476752442	4.606349	2.1462407
17.05507723844728	4.592867	2.1430974
17.072800120359403	4.6186676	2.1491086
17.090523413713353	4.664924	2.1598434
17.108247118961785	4.6950316	2.1668022
17.125971236557437	4.69758	2.16739
17.143695766953133	4.7134295	2.1710434
17.161420710601806	4.7407084	2.1773167
17.179146067956477	4.738295	2.1767626
17.19687183947025	4.7566314	2.1809702
17.21459802559634	4.7347307	2.1759436
17.232324626788028	4.7049794	2.1690965
17.25005164349871	4.6584806	2.1583514
17.267779076181863	4.6414638	2.1544056
17.285506925291074	4.654272	2.1573763
17.30323519127999	4.657343	2.1580877
17.320963874602384	4.639067	2.1538494
17.33869297571211	4.6005087	2.1448796
17.356422495063114	4.5773335	2.1394703
17.37415243310944	4.5260015	2.1274402
17.391882790305218	4.556915	2.1346931
17.40961356710468	4.5297136	2.1283123
17.42734476396215	4.542693	2.1313593
17.445076381332044	4.50802	2.1232097
17.462808419668868	4.575505	2.1390429
17.48054087942723	4.7230797	2.1732647
17.498273761061835	5.072316	2.2521803
17.51600706502747	5.5824637	2.3627238
17.533740791779024	6.306865	2.5113473
17.551474941771485	7.735453	2.7812684
17.56920951545993	8.861475	2.9768229
17.586944513299528	11.020519	3.3197167
17.60467993574556	12.60262	3.5500169
17.622415783253373	14.163047	3.7633824
17.64015205627843	15.45605	3.9314184
17.657888755276293	16.413694	4.0513816
17.675625880702604	16.936766	4.1154304
17.69336343301311	16.773907	4.095596
17.71110141266366	16.11993	4.014963
17.728839820110178	15.335923	3.9161108
17.746578655808705	14.413376	3.7964952
17.764317920215372	12.906664	3.5925846
17.7820576137864	11.3141165	3.3636463
17.79979773697811	9.3202305	3.0529053
17.81753829024692	7.475895	2.7342083
17.835279274049356	5.856056	2.419929
17.85302068884201	4.9082527	2.2154577
17.870762535081607	4.2748294	2.0675662
17.888504813224934	3.9451573	1.986242
17.90624752372891	3.7419088	1.9344014
17.923990667050536	3.6274478	1.904586
17.941734243646895	3.5329676	1.879619
17.959478253975185	3.5013878	1.8711996
17.9772226984927	3.4621055	1.8606734
17.994967577656833	3.4449937	1.8560694
18.01271289192506	3.4192817	1.84913
18.030458641754965	3.4029233	1.8447014
18.04820482760425	3.378634	1.838106
18.06595144993067	3.3518734	1.8308122
18.083698509192125	3.351979	1.8308411
18.101446005846576	3.309441	1.8191869
18.119193940352105	3.3050108	1.8179688
18.136942313166887	3.2858944	1.8127036
18.1546911247492	3.2407515	1.8002087
18.1724403755574	3.2008839	1.7891014
18.19019006604997	3.1924896	1.7867539
18.207940196685467	3.2000618	1.7888716
18.225690767922575	3.1659012	1.779298
18.243441780220046	3.12624	1.7681177
18.261193234036764	3.0569372	1.7484099
18.278945129831676	3.0494106	1.7462561
18.29669746806386	3.0774713	1.7542723
18.314450249192483	3.107257	1.7627413
18.3322034736768	3.099177	1.760448
18.349957141976184	3.0456872	1.7451898
18.3677112545501	3.079172	1.7547569
18.385465811858108	3.110172	1.7635679
18.403220814359884	3.1233025	1.7672868
18.420976262515172	3.1420903	1.7725942
18.43873215678387	3.1579936	1.7770745
18.456488497625923	3.1612468	1.7779895
18.474245285501407	3.2382789	1.7995218
18.492002520870486	3.283006	1.8119067
18.50976020419343	3.3636198	1.8340174
18.527518335930615	3.6708124	1.9159365
18.545276916542516	4.2759714	2.0678422
18.563035946489688	4.433152	2.1055052
18.580795426232832	4.8388476	2.199738
18.598555356232698	4.7689176	2.1837852
18.616315736950185	5.1133585	2.2612736
18.63407656884626	4.7813215	2.1866233
18.65183785238201	4.9851203	2.2327383
18.669599588018617	4.7426023	2.1777518
18.68736177621737	4.753941	2.1803534
18.705124417439652	4.757054	2.1810672
18.72288751214696	4.570798	2.1379426
18.740651060800886	4.6461277	2.1554878
18.758415063863115	4.3205647	2.0785968
18.77617952179546	4.466435	2.1133943
18.793944435059814	4.2286344	2.0563643
18.811709804118184	4.2666655	2.0655909
18.829475629432675	4.2124557	2.0524268
18.8472419114655	4.0217133	2.005421
18.86500865067897	4.1174684	2.0291545
18.88277584753551	3.8180292	1.9539778
18.90054350249763	3.8200305	1.9544898
18.918311616027957	3.4575367	1.8594452
18.936080188589226	3.3672752	1.8350137
18.953849220644265	3.071025	1.752434
18.971618712656007	2.906395	1.7048153
18.9893886650875	2.8354974	1.6838936
19.007159078401887	8.026984	2.8331933
19.024929953062408	32.914585	5.7371235
19.042701289532435	32.84841	5.7313533
19.060473088275405	25.382906	5.038145
19.07824534975489	2.6569488	1.630015
19.096018074434568	2.6590807	1.6306688
19.113791262778197	2.6457577	1.6265786
19.13156491524966	2.607179	1.6146761
19.149339032312945	2.6206412	1.6188395
19.167113614432136	2.6459434	1.6266356
19.184888662071433	2.7018714	1.6437371
19.202664175695123	2.67812	1.6364962
19.220440155767623	2.6683342	1.6335037
19.238216602753447	2.6037338	1.613609
19.2559935171172	2.573459	1.6042004
19.27377089932361	2.5132546	1.5853248
19.291548749837514	2.4754634	1.5733606
19.309327069123835	2.4470303	1.5642986
19.32710585764763	2.4815323	1.575288
19.344885115874032	2.5276484	1.589858
19.362664844268313	2.559958	1.5999869
19.380445043295822	2.5214686	1.5879133
19.39822571342203	2.4929752	1.5789158
19.41600685511252	2.4949963	1.5795557
19.43378846883297	2.517596	1.5866934
19.451570555049173	2.531547	1.5910836
19.469353114227037	2.5103624	1.5844123
19.48713614683254	2.5043266	1.5825064
19.50491965333182	2.519467	1.5872829
19.52270363419109	2.5583344	1.5994794
19.540488089876686	2.5828807	1.6071343
19.55827302085503	2.6106174	1.6157405
19.576058427592674	2.5869603	1.6084031
19.593844310556282	2.5475047	1.5960904
19.611630670212598	2.4695296	1.5714737
19.629417507028506	2.45257	1.5660683
19.64720482147098	2.439615	1.5619267
19.6649926140071	2.4763439	1.5736403
19.682780885104084	2.4886878	1.5775576
19.70056963522921	2.5229158	1.5883689
19.718358864849908	2.523876	1.5886711
19.7361485744337	2.5367897	1.5927303
19.753938764448215	2.5297918	1.590532
19.771729435361202	2.4814065	1.575248
19.789520587640506	2.4494097	1.5650591
19.807312221754092	2.4842138	1.5761389
19.825104338170043	2.5401788	1.5937939
19.842896937356517	2.5586352	1.5995735
19.860690019781824	2.5672603	1.6022673
19.87848358591436	2.5723848	1.6038656
19.896277636222635	2.5784276	1.6057483
19.914072171175278	2.5435781	1.59486
19.931867191241015	2.5272021	1.5897176
19.94966269688869	2.5221386	1.5881243
19.967458688587264	2.520763	1.5876911
19.985255166805807	2.4796853	1.5747017
20.00305213201348	2.4839983	1.5760705
20.020849584679578	2.5063794	1.5831549
20.038647525273507	2.5041928	1.5824642
20.05644595426477	2.4595256	1.5682875
20.07424487212299	2.4452555	1.5637313
20.092044279317903	2.4354727	1.5606002
20.109844176319353	2.4228318	1.5565448
20.127644563597304	2.4009047	1.5494853
20.145445441621817	2.3882794	1.5454059
20.16324681086307	2.3908725	1.5462446
20.181048671791373	2.373945	1.5407612
20.198851024877122	2.4022753	1.5499275
20.216653870590836	2.4081786	1.5518308
20.234457209403146	2.414452	1.5538508
20.252261041784802	2.3724332	1.5402704
20.270065368206662	2.3457885	1.5315967
20.287870189139685	2.336444	1.5285431
20.305675505054968	2.3570797	1.5352784
20.323481316423702	2.3745348	1.5409526
20.341287623717207	2.3911493	1.5463341
20.359094427406884	2.3988037	1.5488071
20.376901727964288	2.3783188	1.5421798
20.39470952586107	2.3556914	1.5348262
20.41251782156899	2.3553164	1.534704
20.430326615559935	2.393621	1.5471331
20.448135908305886	2.4211347	1.5559996
20.465945700278965	2.3983412	1.5486579
20.483755991951384	2.3594632	1.5360544
20.50156678379548	2.3400652	1.5297272
20.519378076283708	2.3650992	1.5378879
20.537189869888635	2.360166	1.5362833
20.55500216508294	2.357339	1.5353628
20.572814962339415	2.3541708	1.5343307
20.59062826213098	2.374199	1.5408436
20.60844206493066	2.364457	1.5376791
20.626256371211593	2.3352826	1.5281631
20.644071181447032	2.3032396	1.5176427
20.66188649611036	2.3004596	1.5167266
20.67970231567506	2.3311245	1.5268021
20.697518640614742	2.3245819	1.524658
20.715335471403122	2.3308947	1.5267268
20.73315280851404	2.330711	1.5266666
20.750970652421447	2.327029	1.5254602
20.768789003599412	2.3367445	1.5286415
20.786607862522136	2.3680332	1.5388415
20.8044272296639	2.3591475	1.5359517
20.82224710549913	2.3322685	1.5271766
20.84006749050237	2.2949512	1.5149096
20.857888385148268	3.816073	1.9534771
20.8757097899116	45.95266	6.778839
20.893531705267254	64.83843	8.052232
20.911354131690224	83.826996	9.155708
20.92917706965566	69.045456	8.30936
20.94700051963877	50.13057	7.0802946
20.96482448211493	29.424128	5.4244013
20.982648957559622	4.200906	2.049611
21.00047394644843	2.2993677	1.5163666
21.01829944925707	2.285306	1.5117228
21.036125466461375	2.2363305	1.4954365
21.053951998537297	2.210278	1.4867004
21.071779045960906	2.2112353	1.4870223
21.089606609208378	2.2329466	1.4943048
21.10743468875603	2.2066426	1.4854772
21.12526328508028	2.1819694	1.4771491
21.143092398657675	2.2073615	1.4857192
21.16092202996488	2.2275982	1.492514
21.17875217947867	2.2391672	1.4963847
21.19658284767596	2.2129033	1.487583
21.21441403503377	2.224341	1.4914224
21.232245742029225	2.2083125	1.4860392
21.2500779691396	2.1868339	1.4787947
21.26791071684227	2.1805332	1.4766629
21.28574398561475	2.1795404	1.4763267
21.30357777593465	2.1825228	1.4773364
21.321412088279704	2.1674354	1.4722213
21.339246923127792	2.1539183	1.4676234
21.357082280956888	2.145415	1.4647236
21.3749181622451	2.1545255	1.4678302
21.392754567470647	2.1514616	1.4667861
21.41059149711187	2.1253364	1.4578533
21.42842895164726	2.101214	1.4495565
21.446266931555378	2.1174045	1.4551303
21.464105437314945	2.1725094	1.4739435
21.481944469404798	2.1689987	1.4727521
21.49978402830388	2.1513257	1.4667398
21.51762411449127	2.1144214	1.454105
21.53546472844617	2.0974193	1.448247
21.553305870647876	2.0853527	1.444075
21.571147541575865	2.0791137	1.4419132
21.58898974170967	2.0943906	1.447201
21.60683247152899	2.1047277	1.450768
21.62467573151363	2.0748382	1.4404298
21.642519522143523	2.0641422	1.4367123
21.660363843898722	2.044498	1.4298594
21.6782086972594	2.0191255	1.4209594
21.696054082705864	2.0279446	1.4240592
21.713900000718535	2.0638602	1.4366142
21.73174645177795	2.0489306	1.4314086
21.749593436364794	2.038047	1.4276018
21.767440954959845	2.0558093	1.4338094
21.785289008044032	2.0872042	1.444716
21.803137596098388	2.0979476	1.4484293
21.820986719604086	2.0864813	1.4444658
21.838836379042412	2.0449488	1.4300171
21.85668657489478	2.0426702	1.4292202
21.87453730764273	2.0508463	1.4320776
21.892388577767914	2.0660114	1.4373627
21.91024038575213	2.051913	1.43245
21.928092732077285	2.0136046	1.4190154
21.945945617225426	2.004211	1.4157016
21.963799041678694	1.9966508	1.413029
21.981653005919398	31.319235	5.5963593
21.999507510429943	78.10121	8.837489
22.01736255569286	73.06623	8.547878
22.035218142190818	4.1719155	2.0425267
22.05307427040661	1.9950492	1.4124621
22.07093094082315	1.9915473	1.411222
22.088788153923474	1.9906602	1.4109076
22.106645910190746	1.9676987	1.4027468
22.12450421010827	1.9387169	1.3923781
22.142363054159464	1.9480118	1.3957119
22.16022244282787	1.9934242	1.4118867
22.178082376597164	1.9957399	1.4127066
22.195942855951145	1.9403137	1.3929515
22.213803881373742	1.9446044	1.3944907
22.231665453349002	1.9837918	1.4084715
22.24952757236111	2.0511713	1.4321911
22.26739023889438	2.0263557	1.4235013
22.28525345343323	1.983228	1.4082713
22.30311721646225	1.963505	1.4012512
22.320981528466113	1.9689546	1.4031944
22.33884638992964	1.9823985	1.4079767
22.356711801337788	1.9617233	1.4006153
22.37457776317561	1.9552662	1.3983084
22.392444275928337	1.963207	1.4011449
22.410311340081282	1.9674243	1.402649
22.428178956119904	1.9476962	1.3955989
22.446047124529805	1.9317166	1.3898621
22.46391584579669	1.9420364	1.3935697
22.481785120406414	1.985854	1.4092033
22.49965494884496	2.0062847	1.4164338
22.51752533159841	2.0104742	1.4179119
22.53539626915302	1.9802955	1.4072298
22.553267761995137	1.9856645	1.409136
22.571139810611264	1.9851756	1.4089626
22.589012415488025	1.9646899	1.4016739
22.60688557711216	1.9446731	1.3945154
22.624759295970566	1.927646	1.388397
22.642633572550263	1.9299804	1.3892373
22.660508407338362	1.935451	1.3912048
22.67838380082217	1.9930519	1.4117548
22.696259753489077	2.0310383	1.425145
22.714136265826614	2.0243597	1.4228
22.73201333832246	1.9543236	1.3979713
22.74989097146439	1.8860528	1.3733364
22.76776916574035	1.8934624	1.3760314
22.785647921638393	1.9284873	1.3886999
22.803527239646712	1.9406438	1.3930699
22.82140712025363	1.9351633	1.3911015
22.839287563947593	1.9170123	1.3845621
22.85716857121719	1.913508	1.3832961
22.875050142551135	1.9252511	1.3875341
22.892932278438277	1.9267493	1.3880739
22.910814979367604	1.939924	1.3928115
22.928698245828222	1.9309791	1.3895967
22.946582078309387	1.936636	1.3916306
22.96446647730047	1.9202629	1.3857355
22.98235144329098	1.9002986	1.3785132
23.000236976770562	1.8632803	1.3650203
23.018123078229	1.8441498	1.3579948
23.03600974815619	1.8574606	1.3628869
23.053896987042194	1.9142996	1.3835821
23.071784795377173	1.9457469	1.3949003
23.08967317365145	1.9392946	1.3925855
23.10756212235546	1.9379057	1.3920867
23.125451641979787	1.9383163	1.3922343
23.143341733015134	1.9563912	1.3987106
23.161232395952357	1.9561824	1.3986359
23.179123631282426	1.9384464	1.392281
23.197015439496468	1.9331529	1.3903787
23.214907821085717	1.9466064	1.3952084
23.23280077654157	1.9485253	1.3958958
23.250694306355538	1.9340433	1.3906988
23.268588411019277	1.9203709	1.3857745
23.28648309102458	1.9398019	1.3927677
23.304378346863356	1.9579632	1.3992724
23.322274179027676	1.9324797	1.3901366
23.340170588009723	1.9237107	1.386979
23.358067574301852	1.9268239	1.3881009
23.37596513839651	1.9557503	1.3984815
23.39386328078629	1.9875046	1.4097888
23.411762001963947	1.9707446	1.4038321
23.429661302422353	1.9353886	1.3911824
23.4475611826545	1.8642678	1.365382
23.46546164315356	1.8670363	1.3663954
23.48336268441279	1.8645757	1.3654947
23.501264306925638	1.9013841	1.3789068
23.51916651118564	1.9462472	1.3950796
23.537069297686497	1.9292862	1.3889875
23.554972666922037	1.9121295	1.3827977
23.57287661938623	1.9014417	1.3789277
23.59078115557318	1.9305651	1.3894478
23.608686275977128	1.948767	1.3959824
23.62659198109246	1.9611324	1.4004043
23.6444982714137	1.9685944	1.403066
23.66240514743549	1.9716649	1.4041599
23.68031260965263	1.9890606	1.4103407
23.698220658560068	1.9976963	1.4133989
23.716129294652845	1.9798448	1.4070696
23.7340385184262	1.9538767	1.3978114
23.75194833037546	1.92022	1.38572
23.769858730996123	1.9102705	1.3821254
23.78776972078382	1.9053098	1.3803296
23.80568130023431	1.9005053	1.3785882
23.823593469843495	1.8987533	1.3779526
23.841506230107424	1.9379215	1.3920925
23.859419581522275	1.9260958	1.3878386
23.87733352458438	1.9322054	1.3900379
23.89524805979019	1.9139854	1.3834686
23.913163187636318	1.913126	1.383158
23.931078908619508	1.9022855	1.3792336
23.948995223236633	1.9370562	1.3917817
23.966912131984735	1.986613	1.4094726
23.98482963536096	2.0175617	1.420409
24.002747733862616	1.9760686	1.405727
24.020666427987155	1.99763	1.4133754
24.038585718232156	2.059898	1.4352344
24.056505605095353	2.1093173	1.452349
24.074426089074617	2.102439	1.449979
24.092347170667946	2.0640876	1.4366933
24.110268850373515	2.088637	1.4452118
24.128191128689586	2.1235456	1.457239
24.146114006114626	2.1312125	1.4598672
24.164037483147187	2.1261218	1.4581227
24.181961560286005	2.1202497	1.4561077
24.199886238029926	2.0428627	1.4292874
24.21781151687797	2.0382798	1.4276834
24.235737397329274	2.0340934	1.4262165
24.253663879883135	2.0487478	1.4313447
24.271590965038975	2.0218587	1.4219208
24.289518653296376	2.0115952	1.4183072
24.30744694515505	2.0104485	1.4179028
24.32537584111486	2.0629532	1.4362985
24.34330534167581	2.0746264	1.4403564
24.361235447338046	2.1078832	1.4518551
24.379166158601876	2.0724285	1.4395932
24.39709747596772	2.0574634	1.434386
24.41502939993615	2.04849	1.4312547
24.432961931007917	2.0404108	1.4284295
24.450895069683856	2.0506194	1.4319984
24.468828816465	2.016045	1.419875
24.4867631718525	2.0050976	1.4160147
24.504698136347656	1.9974817	1.4133229
24.52263371045192	1.9981613	1.4135634
24.540569894666874	1.9617766	1.4006344
24.558506689494266	1.956251	1.3986604
24.57644409543597	1.9690104	1.4032143
24.594382112994012	1.9825935	1.408046
24.61232074267057	2.0066705	1.41657
24.630259984967953	2.0536559	1.4330583
24.64819984038863	2.0283942	1.4242171
24.66614030943522	2.0052807	1.4160794
24.684081392610462	1.9779768	1.4064057
24.702023090417274	2.0225017	1.4221469
24.7199654033587	1.9905369	1.4108639
24.737908331937927	2.04407	1.4297098
24.755851876658305	2.0824437	1.4430674
24.773796038023324	2.0956225	1.4476265
24.79174081653661	2.0854301	1.4441018
24.809686212701962	2.0656292	1.4372298
24.827632227023294	2.1109045	1.4528952
24.8455788600047	2.1223705	1.4568357
24.8635261121504	2.1379895	1.4621866
24.88147398396475	2.1272273	1.4585017
24.899422475952303	2.082431	1.4430631
24.917371588617698	2.0681572	1.4381089
24.935321322465768	2.1021726	1.4498872
24.953271678001478	2.2496295	1.4998765
24.97122265572994	2.44659	1.564158
24.989174256156414	2.792059	1.6709455
25.00712647978632	3.2448242	1.8013395
25.02507932712521	3.7720833	1.9421852
25.043032798678798	4.3369055	2.0825238
25.060986894952933	4.944637	2.223654
25.078941616453637	5.666066	2.38035
25.096896963687055	6.648387	2.5784466
25.114852937159508	7.7385707	2.7818286
25.132809537377444	8.153517	2.8554363
25.150766764847468	8.171013	2.8584983
25.168724620076347	7.7013054	2.7751226
25.186683103570985	6.723508	2.5929728
25.204642215838426	5.571868	2.3604805
25.222601957385894	4.262027	2.0644677
25.24056232872074	3.2722154	1.8089266
25.25852333035048	2.6366415	1.6237738
25.276484962782778	2.240634	1.4968747
25.294447226525435	2.053032	1.4328405
25.312410122086423	2.0285695	1.4242786
25.330373649973843	1.9468524	1.3952966
25.348337810695988	1.9335384	1.3905174
25.366302604761245	1.8717735	1.3681277
25.384268032678207	1.889421	1.3745621
25.40223409495558	1.8934264	1.3760183
25.420200792102257	1.9148141	1.3837681
25.438168124627246	1.9177479	1.3848277
25.45613609303974	1.9261806	1.3878691
25.474104697849057	1.8946437	1.3764606
25.492073939564698	1.8949511	1.3765723
25.510043818696285	1.8981266	1.3777251
25.528014335753614	1.9011298	1.3788147
25.54598549124664	1.8541203	1.3616608
25.56395728568544	1.8499658	1.3601345
25.58192971958028	1.8213978	1.3495917
25.59990279344156	1.8445812	1.3581536
25.617876507779833	1.8639678	1.365272
25.635850863105826	1.8543516	1.3617458
25.653825859930386	1.8627187	1.3648145
25.671801498764548	1.8258706	1.3512478
25.68977778011949	1.8073825	1.3443892
25.707754704506524	1.8196448	1.3489422
25.725732272437153	1.7975242	1.3407178
25.743710484423012	1.7997004	1.3415291
25.761689340975888	1.8310223	1.3531528
25.77966884260774	1.8701377	1.3675297
25.797648989830662	1.8522227	1.3609638
25.815629783156922	1.8424021	1.3573512
25.83361122309895	1.8385171	1.3559192
25.85159331016929	1.8467888	1.3589661
25.869576044880695	1.883868	1.3725407
25.887559427746034	1.892953	1.3758463
25.90554345927836	1.9060531	1.3805988
25.92352813999086	1.8960855	1.3769842
25.94151347039689	1.869848	1.3674239
25.959499451009965	1.8114017	1.3458833
25.97748608234374	1.804185	1.3431995
25.995473364912062	1.8504332	1.3603063
26.013461299228904	1.890159	1.3748305
26.03144988580839	1.8710583	1.3678664
26.04943912516483	1.85771	1.3629783
26.067429017812675	1.874513	1.3691286
26.085419564266537	1.8859059	1.3732829
26.103410765041186	1.8701234	1.3675245
26.12140262065155	1.8121952	1.3461779
26.139395131612723	1.7905575	1.3381171
26.157388298439948	1.8300872	1.3528072
26.17538212164861	1.8459874	1.3586712
26.193376601754295	1.8598335	1.3637571
26.211371739272714	1.8481727	1.3594751
26.229367534719746	1.8563982	1.3624971
26.247363988611433	1.821526	1.3496392
26.26536110146397	1.846969	1.3590324
26.283358873793727	1.8955833	1.3768018
26.301357306117204	1.9010495	1.3787855
26.319356398951104	1.8645562	1.3654876
26.33735615281224	1.8426193	1.3574312
26.35535656821762	1.8383783	1.3558681
26.373357645684404	1.8177671	1.348246
26.39135938572991	1.768435	1.3298252
26.409361788871614	1.7664069	1.3290625
26.427364855627165	1.8215123	1.3496342
26.445368586514352	1.8438509	1.3578846
26.46337298205115	1.8262608	1.3513921
26.48137804275568	1.8313588	1.3532771
26.499383769146217	1.823111	1.3502263
26.517390161741215	1.8603804	1.3639576
26.53539722105928	1.8448302	1.3582453
26.553404947619182	1.8347176	1.3545175
26.571413341939856	1.8079969	1.3446177
26.589422404540397	1.7929093	1.3389956
26.60743213594006	1.8042412	1.3432205
26.62544253665827	1.795115	1.3398191
26.64345360721459	1.7488065	1.3224244
26.66146534812879	1.7454425	1.321152
26.679477759920758	1.7294174	1.3150731
26.69749084311057	1.7638652	1.3281059
26.71550459821847	1.7970815	1.3405527
26.733519025764842	1.8151081	1.3472595
26.751534126270258	1.8382154	1.355808
26.769549900255434	1.8327043	1.3537741
26.787566348241267	1.8447787	1.3582263
26.80558347074881	1.891071	1.3751621
26.823601268299267	1.9163228	1.3843131
26.841619741414036	1.8297067	1.3526665
26.85963889061465	1.7630249	1.3277895
26.877658716422832	1.7980859	1.3409272
26.89567921936045	1.8397774	1.3563839
26.913700399949544	1.8417628	1.3571156
26.93172225871233	1.8221995	1.3498887
26.949744796171174	1.8049072	1.3434683
26.967768012848605	1.7739668	1.3319035
26.98579190926733	1.7623556	1.3275374
27.003816485950225	1.8104043	1.3455126
27.021841743420318	1.8157179	1.3474858
27.039867682200814	1.827533	1.3518628
27.057894302815072	1.7878511	1.3371055
27.07592160578664	1.7948003	1.3397015
27.0939495916392	1.7874857	1.3369689
27.111978260896635	1.802052	1.3424053
27.13000761408296	1.7921154	1.3386992
27.148037651722397	1.7802109	1.3342454
27.166068374339304	1.8181909	1.3484031
27.184099782458215	1.8350962	1.3546573
27.20213187660384	1.8437041	1.3578306
27.22016465730105	1.8633112	1.3650316
27.23819812507487	1.8393254	1.3562173
27.256232280450533	1.8143746	1.3469872
27.274267123953383	1.8361095	1.3550311
27.292302656108987	1.8263034	1.3514079
27.31033887744306	1.7894342	1.3376974
27.32837578848146	1.7925854	1.3388747
27.34641338975026	1.8006476	1.3418821
27.364451681775673	1.7911683	1.3383454
27.382490665084074	1.8583949	1.3632295
27.400530340202046	1.8486954	1.3596674
27.41857070765629	1.7947135	1.3396692
27.436611767973726	1.7890494	1.3375535
27.454653521681404	1.8352878	1.354728
27.472695969306564	1.8193718	1.348841
27.490739111376627	1.8241574	1.3506137
27.508782948419153	1.8282688	1.352135
27.526827480961902	1.8323482	1.3536426
27.54487270953279	1.874988	1.369302
27.562918634659898	1.8734012	1.3687224
27.580965256871508	1.840183	1.3565334
27.599012576696026	1.8037486	1.3430371
27.617060594662068	1.819277	1.3488058
27.63510931129842	1.8084848	1.3447992
27.65315872713401	1.8406811	1.356717
27.67120884269797	1.8607792	1.3641038
27.68925965851958	1.8772806	1.3701389
27.707311175128307	1.8856051	1.3731734
27.725363393053787	1.8390234	1.3561059
27.74341631282583	1.8918828	1.3754573
27.7614699349744	1.9417937	1.3934826
27.77952426002968	2.1399527	1.4628577
27.797579288521973	2.1454802	1.4647458
27.815635020981784	2.5510032	1.5971861
27.83369145793979	2.6361775	1.623631
27.85174859992682	2.5347183	1.5920799
27.869806447473923	2.3014603	1.5170565
27.887865001112267	1.9384589	1.3922855
27.905924261373233	1.8934944	1.376043
27.92398422878836	1.904275	1.3799547
27.94204490388936	1.8598233	1.3637534
27.96010628720813	1.8280052	1.3520374
27.978168379276728	1.8287501	1.3523129
27.9962311806274	1.866595	1.366234
28.014294691792568	1.8836428	1.3724587
28.0323589133048	1.8617611	1.3644637
28.050423845696887	1.8672303	1.3664664
28.068489489501758	1.8572489	1.3628092
28.086555845252523	1.8361304	1.3550389
28.104622913482487	1.8486967	1.3596679
28.122690694725115	1.8646138	1.3655086
28.14075918951405	1.8689938	1.3671114
28.15882839838312	1.897113	1.3773572
28.176898321866304	1.9150507	1.3838536
28.1949689604978	1.883596	1.3724416
28.213040314811945	1.860691	1.3640715
28.23111238534327	1.8655835	1.3658637
28.249185172626493	1.9291877	1.388952
28.267258677196473	1.9320923	1.3899972
28.285332899588294	1.9085333	1.3814968
28.303407840337172	1.9123175	1.3828657
28.321483499978545	1.9475853	1.3955592
28.33955987904799	1.9083034	1.3814136
28.357636978081285	1.8797443	1.3710377
28.37571479761439	1.9136906	1.383362
28.393793338183425	1.9644464	1.4015871
28.41187260032469	1.9616797	1.4005997
28.429952584574686	1.9435469	1.3941115
28.448033291470065	1.9551394	1.398263
28.46611472154769	1.9369664	1.3917494
28.484196875344566	1.9538039	1.3977853
28.502279753397914	1.9841835	1.4086105
28.52036335624511	2.0165522	1.4200536
28.538447684423716	2.0069056	1.4166529
28.556532738471482	1.9585019	1.3994648
28.574618518926325	1.9500155	1.3964295
28.59270502632635	1.9466479	1.3952233
28.61079226120985	1.9934735	1.4119042
28.628880224115274	2.0050042	1.4159817
28.646968915581287	1.9908986	1.410992
28.66505833614671	2.0051007	1.4160157
28.68314848635055	2.0004218	1.4143627
28.701239366732004	2.0288267	1.4243689
28.71933097783044	2.0596786	1.435158
28.737423320185403	2.0458467	1.430331
28.75551639433665	2.0217185	1.4218714
28.773610200824074	2.0294232	1.4245783
28.791704740187793	2.0559225	1.4338489
28.80980001296809	2.073902	1.4401048
28.827896019705413	2.124849	1.4576862
28.845992760940433	2.2081075	1.4859703
28.86409023721397	2.2165391	1.4888046
28.88218844906704	2.2344525	1.4948086
28.900287397040845	2.2239366	1.4912869
28.918387081676755	2.196244	1.481973
28.936487503516343	2.1943998	1.4813507
28.954588663101365	2.2717013	1.5072165
28.97269056097374	2.362632	1.5370855
28.990793197675597	2.3390038	1.5293802
29.00889657374923	2.3524206	1.5337603
29.027000689737125	2.3995922	1.5490617
29.04510554618196	2.3716722	1.5400234
29.06321114362659	2.3407161	1.5299399
29.08131748261405	2.3951046	1.5476125
29.099424563687567	2.4823928	1.575561
29.11753238739057	2.5281389	1.5900122
29.13564095426663	2.5521681	1.5975506
29.15375026485954	2.5460093	1.595622
29.171860319713275	2.5436597	1.5948855
29.18997111937199	2.5704007	1.6032469
29.20808266438002	2.592223	1.6100382
29.226194955281898	2.6642144	1.6322421
29.244307992622335	2.7709641	1.6646214
29.26242177694624	2.8336923	1.6833575
29.2805363087987	2.9552872	1.7190949
29.29865158872498	2.9399226	1.7146202
29.316767617270557	2.894898	1.70144
29.334884394981064	2.849602	1.6880764
29.353001922402367	2.8972905	1.702143
29.37112020008047	3.0441465	1.7447482
29.389239228561596	3.2633927	1.8064862
29.407359008392152	3.465607	1.8616141
29.42547954011872	3.7455263	1.9353362
29.44360082428809	4.3652954	2.089329
29.46172286144722	5.393866	2.3224697
29.479845652143283	6.9038386	2.6275158
29.497969196923606	8.891438	2.9818513
29.516093496335728	11.267434	3.3567
29.5342185509274	13.999535	3.7415953
29.55234436124651	16.2959	4.036818
29.570470927841175	17.614113	4.196917
29.588598251259686	17.286764	4.1577353
29.60672633205055	16.255665	4.0318313
29.624855170762405	14.200672	3.768378
29.642984767944146	11.466187	3.3861759
29.66111512414481	8.837865	2.9728546
29.67924623991366	6.6349397	2.5758376
29.697378115800138	5.080207	2.2539315
29.71551075235387	4.1607537	2.0397925
29.733644150124675	3.7822568	1.9448025
29.751778309662576	3.5108612	1.8737292
29.769913231517766	3.3495715	1.8301835
29.78804891624066	3.2823224	1.8117181
29.806185364381818	3.280663	1.8112601
29.82432257649206	3.3695154	1.835624
29.842460553122333	3.337194	1.8267988
29.86059929482382	3.2913508	1.814208
29.878738802147872	3.2644205	1.8067707
29.896879075646048	3.2857342	1.8126594
29.915020115870114	3.348145	1.8297937
29.933161923371976	3.3982766	1.8434415
29.951304498703777	3.3976588	1.843274
29.969447842417857	3.3962266	1.8428854
29.987591955066733	3.358665	1.832666
30.005736837203123	3.3001406	1.8166289
30.023882489379943	3.2050931	1.7902774
30.04202891215028	3.215368	1.7931447
30.060176106067455	3.2169383	1.7935826
30.078324071684946	3.1344466	1.7704369
30.09647280955646	3.0310526	1.7409918
30.114622320235863	3.0944207	1.7590965
30.132772604277257	3.104387	1.7619271
30.1509236622349	3.041559	1.7440066
30.16907549466328	3.02514	1.739293
30.18722810211705	3.0470471	1.7455794
30.205381485151097	3.0898993	1.757811
30.22353564432045	3.1315544	1.7696198
30.241690580180403	3.1057243	1.7623066
30.25984629328638	3.055738	1.7480669
30.278002784194037	3.0129716	1.7357913
30.296160053459246	2.957145	1.7196351
30.314318101638033	3.0008616	1.7322996
30.332476929286646	3.0101008	1.7349643
30.35063653696153	3.0081065	1.7343894
30.368796925219307	2.973009	1.7242416
30.386958094616844	2.8575652	1.6904334
30.40512004571115	2.8641372	1.6923761
30.423282779059463	2.9117243	1.7063775
30.441446295219233	2.8502588	1.6882709
30.459610594748067	2.836226	1.6841098
30.47777567820382	2.8655462	1.6927924
30.495941546144504	2.8514986	1.6886381
30.51410819912835	2.8402436	1.6853023
30.532275637713795	2.8000298	1.673329
30.55044386245946	2.781225	1.6677005
30.56861287392416	2.807967	1.675699
30.586782672666956	2.8415964	1.6857035
30.604953259247047	2.8333013	1.6832414
30.623124634223885	2.8295534	1.6821276
30.641296798157075	2.812174	1.6769538
30.659469751606462	2.819294	1.6790754
30.677643495132074	2.8302784	1.6823431
30.695818029294152	2.7933474	1.671331
30.713993354653116	2.7242005	1.6505152
30.73216947176962	2.671953	1.634611
30.75034638120448	2.6451507	1.6263919
30.768524083518756	2.6603403	1.631055
30.786702579273673	2.7415051	1.6557491
30.80488186903069	2.839946	1.6852139
30.82306195335144	2.977144	1.7254403
30.841242832797782	3.2301958	1.7972746
30.85942450793176	3.5035233	1.8717701
30.877606979315637	3.773793	1.9426253
30.895790247511883	4.0618973	2.015415
30.913974313083134	4.438668	2.1068146
30.932159176592283	4.788151	2.1881843
30.95034483860237	4.824878	2.1965606
30.968531299676698	4.6450953	2.1552484
30.98671856037873	4.3665295	2.0896242
31.00490662127215	4.031812	2.0079372
31.023095482920848	3.6081507	1.8995132
31.04128514588892	3.1220596	1.7669351
31.059475610740662	2.6949525	1.641631
31.07766687804056	2.52932	1.5903836
31.09585894835335	2.554195	1.598185
31.11405182224393	2.5493212	1.5966594
31.132245500277417	2.524162	1.5887612
31.15043998301914	2.4809346	1.5750983
31.168635271034628	2.4639027	1.5696824
31.18683136488964	2.4646037	1.5699056
31.20502826515008	2.4396284	1.561931
31.223225972382135	2.4391887	1.5617902
31.241424487152155	2.4560328	1.5671735
31.259623810026692	2.4682093	1.5710535
31.27782394157253	2.498244	1.5805835
31.296024882356644	2.4665372	1.5705214
31.314226632946237	2.3984473	1.5486921
31.332429193908684	2.3719344	1.5401086
31.350632565811598	2.396393	1.5480287
31.368836749222787	2.4292736	1.5586127
31.387041744710295	2.4976025	1.5803804
31.40524755284232	2.5177262	1.5867344
31.423454174187317	2.561761	1.6005502
31.441661609313922	2.552139	1.5975416
31.459869858791002	2.487297	1.5771167
31.478078923187628	2.416351	1.5544617
31.496288803073064	2.3937752	1.547183
31.514499499016807	2.404274	1.5505722
31.532711011588546	2.4289742	1.5585166
31.550923341358178	2.361323	1.5366597
31.56913648889584	2.3668177	1.5384465
31.587350454771844	2.3576574	1.5354666
31.605565239556732	2.389539	1.5458133
31.62378084382127	2.3914595	1.5464344
31.641997268136382	2.3698146	1.5394202
31.660214513073274	2.3099995	1.5198683
31.67843257920331	2.2588992	1.5029634
31.6966514670981	2.30045	1.5167235
31.71487117732944	2.3110638	1.5202184
31.733091710469346	2.278384	1.5094317
31.751313067090052	2.2315433	1.4938351
31.769535247764008	2.2769608	1.5089602
31.787758253063878	2.2278934	1.492613
31.805982083562526	2.2462306	1.498743
31.824206739833024	2.2795885	1.5098306
31.84243222244869	2.274679	1.5082039
31.860658531983013	2.282852	1.510911
31.878885669009737	2.3306186	1.5266364
31.897113634102784	2.3398204	1.5296471
31.91534242783632	2.296708	1.5154893
31.933572050784694	2.2409675	1.4969862
31.951802503522508	2.197299	1.4823289
31.970033786624548	2.1498709	1.4662437
31.988265900665834	2.1766236	1.4753385
32.006498846221575	2.203756	1.4845053
32.02473262386724	2.126044	1.458096
32.04296723417845	2.1800535	1.4765004
32.0612026777311	2.2268324	1.4922575
32.07943895510129	2.215367	1.488411
32.097676066865304	2.2119734	1.4872705
32.115914013599685	2.2338066	1.4945924
32.13415279588115	2.2409706	1.4969872
32.152392414286666	2.1937478	1.4811306
32.1706328693934	2.1436317	1.4641147
32.18887416177875	2.1299787	1.4594446
32.20711629202032	2.112191	1.4533379
32.225359260695924	2.0858762	1.4442563
32.243603068383614	2.0720935	1.4394768
32.26184771566166	2.1100821	1.4526122
32.28009320310852	2.1717703	1.4736928
32.2983395313029	2.1866632	1.478737
32.31658670082372	2.172751	1.4740254
32.33483471225012	2.1188843	1.4556388
32.35308356616143	2.0729697	1.4397811
32.371333263137245	2.1118937	1.4532356
32.38958380375734	2.1069975	1.45155
32.407835188601744	2.030894	1.4250944
32.42608741825067	1.968346	1.4029776
32.444340493284585	1.9980806	1.4135348
32.46259441428416	2.0350378	1.4265475
32.48084918183028	2.0432007	1.4294057
32.49910479650405	2.0910459	1.4460449
32.51736125888683	2.1657567	1.471651
32.53561856956014	2.1722112	1.4738423
32.5538767291058	2.145201	1.4646505
32.572135738105764	2.0691214	1.438444
32.59039559714228	1.9968061	1.4130839
32.608656306797776	2.0248978	1.422989
32.62691786765491	2.0749743	1.4404771
32.645180280296586	2.0573123	1.4343333
32.663443545305896	2.0423117	1.4290947
32.68170766326619	2.066686	1.4375973
32.69997263476099	2.107141	1.4515995
32.7182384603741	2.0505044	1.4319582
32.7365051406895	1.9867575	1.4095238
32.75477267629144	2.0047092	1.4158776
32.77304106776434	1.9939923	1.4120879
32.79131031569289	1.967799	1.4027826
32.809580420661966	1.8605587	1.364023
32.827851383256714	1.89979	1.3783287
32.84612320406245	2.025077	1.4230521
32.86439588366476	2.051942	1.4324602
32.88266942264945	1.9574021	1.3990719
32.9009438216025	1.9413661	1.3933291
32.9192190811102	2.021953	1.4219539
32.937495201758985	2.0977252	1.4483526
32.95577218413556	2.1364157	1.4616483
32.974050028826866	2.0899038	1.44565
32.992328736420035	1.9612887	1.4004601
33.010608307502444	1.864802	1.3655776
33.02888874266169	1.923741	1.38699
33.047170042485604	2.0458868	1.4303449
33.06545220756225	2.0543718	1.433308
33.083735238479896	2.0049305	1.4159557
33.10201913582707	2.0224428	1.4221262
33.12030390019248	2.0531101	1.4328678
33.138589532165135	1.9992721	1.4139562
33.15687603233419	1.965004	1.401786
33.17516340128909	1.9681306	1.4029008
33.19345163961947	1.9774747	1.4062271
33.211740747915215	1.9373993	1.391905
33.23003072676643	2.0319328	1.4254588
33.248321576763466	2.0358412	1.4268291
33.266613298496885	1.9916793	1.4112687
33.28490589255747	1.9474005	1.3954929
33.30319935953626	2.0416176	1.4288518
33.32149370002451	2.0022662	1.4150145
33.339788914613706	1.8803827	1.3712704
33.358085003895575	1.7475399	1.3219455
33.376381968462034	1.810866	1.3456842
33.39467980890529	1.8987309	1.3779445
33.41297852581774	1.8929185	1.3758337
33.43127811979204	1.9073831	1.3810804
33.44957859142105	2.0158975	1.419823
33.467879941297866	2.116815	1.4549279
33.486182170015844	2.045875	1.4303409
33.50448527816853	2.0367622	1.4271518
33.522789266349754	2.1104236	1.4527297
33.541094135153514	2.078337	1.4416438
33.55939988517411	1.9813213	1.4075942
33.57770651700602	1.9652959	1.4018902
33.59601403124398	1.9506464	1.3966554
33.61432242848296	2.027311	1.4238367
33.632631709318154	1.981594	1.407691
33.650941874344994	1.8908556	1.3750838
33.66925292415916	1.9486833	1.3959525
33.68756485935654	2.007958	1.4170244
33.70587768053328	1.8877976	1.3739715
33.724191388285746	1.8312653	1.3532425
33.74250598321054	1.8321258	1.3535604
33.760821465904506	1.9243275	1.3872013
33.77913783696474	1.9224899	1.3865389
33.79745509698852	1.8895186	1.3745977
33.815773246573414	1.9635117	1.4012536
33.8340922863172	2.005026	1.4159894
33.852412216817896	1.8265173	1.351487
33.87073303867377	1.8224546	1.3499832
33.889054752483304	1.9349244	1.3910155
33.907377358845245	1.9247855	1.3873664
33.92570085835853	1.9263577	1.3879329
33.94402525162239	1.9802213	1.4072033
33.96235053923627	1.9561927	1.3986396
33.980676721799824	1.8248008	1.3508519
33.999003799912984	1.8936319	1.376093
34.01733177417592	1.9842649	1.4086393
34.03566064518901	1.793654	1.3392737
34.0539904135529	1.7377319	1.3182306
34.07232107986846	1.823413	1.3503381
34.090652644736785	1.8218876	1.3497732
34.108985108759235	1.76699	1.3292817
34.12731847253742	1.7886993	1.3374226
34.14565273667313	1.9146188	1.3836975
34.16398790176847	2.037193	1.4273027
34.18232396842574	2.0289989	1.4244293
34.20066093724749	2.028792	1.4243567
34.21899880883651	2.0564406	1.4340295
34.23733758379583	2.0211618	1.4216757
34.25567726272874	1.8509673	1.3605026
34.27401784623872	1.8643645	1.3654174
34.29235933492957	1.9315631	1.3898069
34.31070172940526	1.9608853	1.4003161
34.32904503027003	1.9426271	1.3937815
34.347389238128386	1.956276	1.3986694
34.36573435358502	2.019945	1.4212476
34.38408037724492	2.185721	1.4784184
34.402427309713296	2.079543	1.4420621
34.42077515159559	2.0429373	1.4293135
34.43912390349752	2.060227	1.4353491
34.45747356602499	2.0451996	1.4301047
34.47582413978423	2.0248728	1.4229802
34.49417562538163	1.9694746	1.4033797
34.51252802342388	1.9933629	1.411865
34.53088133451789	1.9034175	1.3796439
34.54923555927084	1.7730327	1.3315527
34.567590698290104	1.77226	1.3312626
34.58594675218336	1.9045357	1.3800491
34.6043037215585	1.9943024	1.4121977
34.62266160702365	1.917466	1.3847259
34.641020409187234	1.9192144	1.3853571
34.65938012865785	2.0239735	1.4226642
34.677740766044394	2.1016233	1.4496976
34.69610232195598	2.0201786	1.4213299
34.714464797002016	1.8638794	1.3652397
34.73282819179208	1.8025132	1.3425771
34.751192506936064	1.87306	1.3685979
34.76955774304408	1.9550875	1.3982445
34.7879239007265	2.0322938	1.4255854
34.80629098059391	1.9515268	1.3969705
34.824658983257194	1.9017475	1.3790386
34.843027909327446	1.9580749	1.3993123
34.86139775941603	2.0348523	1.4264824
34.879768534134534	2.055604	1.4337378
34.89814023409483	2.0495393	1.4316212
34.91651285990901	2.133447	1.4606323
34.93488641218944	2.1742442	1.4745319
34.95326089154871	2.1133678	1.4537427
34.97163629859967	2.1013157	1.4495915
34.99001263395542	2.0727959	1.4397207
35.00838989822934	1.8918227	1.3754355
35.02676809203499	1.7537221	1.3242817
35.04514721598624	1.7792549	1.3338871
35.063527270697215	2.016026	1.4198684
35.081908256782256	2.18225	1.477244
35.10029017485597	2.143724	1.4641461
35.11867302553321	1.9577258	1.3991876
35.137056809429104	1.8812035	1.3715698
35.155441527159006	1.8882264	1.3741275
35.173827179338524	1.976806	1.4059893
35.19221376658354	1.8118899	1.3460646
35.21060128951017	1.7729342	1.3315158
35.2289897487348	1.9747751	1.4052669
35.24737914487405	1.9336494	1.3905573
35.26576947854479	1.897568	1.3775225
35.28416075036418	1.759216	1.3263544
35.30255296094958	1.668085	1.2915436
35.32094611091867	1.6651239	1.2903968
35.33934020088932	1.913602	1.38333
35.35773523147969	1.9528749	1.397453
35.3761312033082	1.912032	1.3827624
35.394528116993506	1.8984374	1.3778379
35.41292597315452	1.9748253	1.4052848
35.431324772410434	2.1910636	1.4802241
35.449724515380666	2.2296062	1.4931866
35.46812520268491	2.2030928	1.4842819
35.486526834943106	2.2257376	1.4918905
35.504929412775454	2.1692696	1.472844
35.52333293680242	2.1328049	1.4604126
35.54173740764471	1.8063232	1.3439952
35.560142825923286	1.3716	1.1711533
35.5785491922594	1.4230564	1.1929193
35.59695650727454	1.6759111	1.2945698
35.61536477159042	1.7820303	1.3349271
