0.008763373481513119	0.051685803	0.22734512
0.026290120649546365	0.29672334	0.54472315
0.043816868432600686	0.24501227	0.49498713
0.06134361724069026	0.1691227	0.4112453
0.07887036748382949	0.102992594	0.32092458
0.0963971195720331	0.06726666	0.25935817
0.11392387391531617	0.10982616	0.3314003
0.1314506309236943	0.10397063	0.32244477
0.1489773910071836	0.06842523	0.26158217
0.16650415457580078	0.077352464	0.2781231
0.18403092203956356	0.099784076	0.31588617
0.20155769380849	0.1657959	0.40718043
0.2190844702925996	0.21170247	0.46011135
0.2366112519019124	0.26753706	0.51723987
0.2541380390464497	0.19455324	0.4410819
0.27166483213623416	0.17781775	0.4216844
0.28919163158128947	0.23028724	0.47988254
0.3067184377916406	0.2385146	0.48837957
0.324245251177314	0.24294502	0.49289453
0.34177207214833777	0.17015441	0.41249776
0.3592989011147415	0.16137639	0.4017168
0.37682573848655654	0.12739633	0.35692623
0.39435258467381573	0.11221389	0.3349834
0.41187944008655414	0.13593277	0.3686906
0.42940630513480854	0.14700562	0.3834131
0.446933180228618	0.15964209	0.39955235
0.4644600657780234	0.19264907	0.43891805
0.48198696219306775	0.20591855	0.4537825
0.49951386988379676	0.19493666	0.4415163
0.5170407892602581	0.14520921	0.38106325
0.5345677207325025	0.11515751	0.33934864
0.5520946647105822	0.13386159	0.36587098
0.5696216216045534	0.1186864	0.34450892
0.5871485918244737	0.12409671	0.3522736
0.6046755757804043	0.13379386	0.36577842
0.6222025738824094	0.18569672	0.43092543
0.6397295865405557	0.19922619	0.4463476
0.6572566141649129	0.17894952	0.42302427
0.6747836571655547	0.1189589	0.34490418
0.6923107159525568	0.11222319	0.3349973
0.7098377909359992	0.104455695	0.32319605
0.7273648825259653	0.14748636	0.38403952
0.7448919911325411	0.15007024	0.387389
0.762419117165817	0.14865762	0.38556144
0.7799462610358868	0.14377548	0.37917736
0.7974734231528482	0.12281359	0.35044768
0.8150006039268024	0.12944824	0.35978916
0.8325278037678551	0.15116031	0.3887934
0.8500550230861152	0.19400269	0.44045737
0.8675822622916969	0.2111537	0.45951465
0.8851095217947171	0.20754571	0.45557186
0.9026368020052984	0.19897845	0.44607002
0.9201641033335665	0.21670105	0.4655116
0.9376914261896523	0.2409714	0.4908884
0.9552187709836915	0.2695917	0.5192222
0.9727461381258234	0.28473118	0.53360206
0.990273528026193	0.2971486	0.5451134
1.0078009410949496	0.29178876	0.5401747
1.0253283777422473	0.25345856	0.5034467
1.0428558383782454	0.26870316	0.51836586
1.0603833234131086	0.27626234	0.52560663
1.0779108332570058	0.31070355	0.55740786
1.0954383683201119	0.3243987	0.5695601
1.112965929012607	0.39660722	0.6297676
1.1304935157446763	0.5434625	0.7371991
1.1480211289265108	0.5883982	0.7670712
1.1655487689683062	1.368976	1.1700325
1.1830764362802655	1.6239865	1.2743573
1.200604131272596	2.0241642	1.4227313
1.2181318543555117	2.4582639	1.5678852
1.235659605939232	2.4428515	1.5629624
1.253187386433982	3.778302	1.9437854
1.270715196249994	6.1273975	2.475358
1.2882430357975057	11.879663	3.4466887
1.3057709054867608	16.784067	4.096836
1.3232988057280106	22.461401	4.739346
1.3408267369315112	27.101795	5.2059383
1.358354699507526	30.939472	5.562326
1.3758826938663256	35.31167	5.9423623
1.3934107204181858	37.252655	6.103495
1.410938779573391	37.605675	6.1323466
1.4284668717422309	38.197636	6.1804237
1.4459949973350033	38.146687	6.1763005
1.4635231567620117	38.351707	6.1928754
1.4810513504335687	37.215317	6.1004357
1.4985795787599925	36.47958	6.0398326
1.5161078421516088	35.936966	5.994745
1.5336361410187505	35.08831	5.9235387
1.5511644757717598	35.138885	5.927806
1.5686928468209842	35.795643	5.982946
1.58622125457678	36.506104	6.042028
1.6037496994495108	37.71435	6.141201
1.621278181849548	37.57923	6.1301904
1.6388067021872719	37.969494	6.161939
1.6563352608730693	37.026768	6.0849624
1.673863858317336	35.91749	5.99312
1.6913924949304753	35.56087	5.9632936
1.7089211711228998	35.236893	5.936067
1.7264498873050296	34.543365	5.8773603
1.7439786438872935	33.664185	5.8020844
1.7615074412801288	32.695614	5.718008
1.779036279893981	32.07105	5.6631308
1.796565160139305	31.02559	5.570062
1.814094082426564	30.133286	5.4893794
1.8316230471662298	29.54492	5.435524
1.849152054768784	28.662077	5.3536973
1.8666811056447168	28.179968	5.3084807
1.8842102002045273	27.179337	5.2133803
1.901739338858724	26.701685	5.1673675
1.9192685220178245	26.142899	5.113013
1.9367977500923557	25.471445	5.046924
1.9543270234928547	24.539383	4.9537244
1.971856342629867	23.686478	4.8668756
1.9893857079139496	23.259615	4.822822
2.006915119755667	23.02287	4.7982154
2.0244445785655945	22.831154	4.778196
2.0419740847543175	22.27671	4.719821
2.0595036387324317	21.71411	4.65984
2.0770332409105414	21.25004	4.6097765
2.094562891699263	21.097761	4.59323
2.1120925915092217	20.480236	4.5255094
2.129622340751053	20.143116	4.488108
2.1471521398354043	187.98557	13.710783
2.1646819891729323	444.26996	21.077713
2.182211889174303	440.47955	20.987604
2.1997418402501974	452.88226	21.28103
2.2172718428113023	432.8189	20.8043
2.234801897268317	320.88367	17.913225
2.2523320040319548	17.509941	4.1844883
2.269862163512935	17.457512	4.178219
2.287392376121992	17.248205	4.1530957
2.304922642269869	16.749296	4.0925903
2.322452962367322	16.2288	4.0284986
2.3399833368251164	15.765784	3.9706151
2.357513766054032	15.563106	3.9450102
2.3750442504648586	15.192826	3.8977976
2.3925747904683963	14.632588	3.8252566
2.410105386475459	14.25905	3.776116
2.4276360388968707	14.214804	3.7702525
2.445166748143469	14.2527685	3.7752838
2.4626975146261025	14.145372	3.7610335
2.4802283387556323	13.763302	3.7098925
2.4977592209429305	13.373822	3.6570237
2.5152901615988825	12.976207	3.6022503
2.5328211611343865	12.81444	3.5797262
2.5503522199603523	12.568746	3.5452428
2.5678833384877024	12.492724	3.534505
2.5854145171273712	12.209913	3.4942687
2.6029457562903064	12.08497	3.4763443
2.620477056387469	11.774801	3.431443
2.6380084178298326	11.593092	3.4048629
2.655539841028383	11.366056	3.3713582
2.673071326394119	11.294504	3.3607297
2.6906028743380523	11.203256	3.3471265
2.708134485271211	11.033185	3.3216238
2.7256661596046325	10.933355	3.3065624
2.743197897749369	10.734549	3.2763622
2.760729700116486	10.460804	3.2343166
2.778261567117063	10.153339	3.1864305
2.795793499162193	10.077627	3.174528
2.8133254966629817	10.053444	3.1707165
2.830857560030551	9.834707	3.1360338
2.8483896896760337	9.707938	3.1157565
2.865921886010578	9.563636	3.0925128
2.883454149445347	9.533695	3.0876682
2.9009864803915177	9.467611	3.0769484
2.91851887926028	9.369344	3.0609384
2.9360513464628384	9.325865	3.053828
2.953583882410413	9.192177	3.0318604
2.9711164875142373	8.951303	2.9918728
2.9886491621855606	8.747772	2.9576633
3.0061819068356455	8.685626	2.9471385
3.023714721875769	8.71112	2.9514606
3.041247607717225	8.594907	2.9317071
3.0587805647713213	8.460744	2.9087358
3.0763135934493806	8.353969	2.8903232
3.0938466941627407	8.203153	2.8641145
3.1113798673227544	8.066928	2.8402338
3.1289131133407904	7.9285016	2.8157594
3.1464464326282315	7.692511	2.7735376
3.1639798255964786	7.6503835	2.7659326
3.1815132926569443	7.626149	2.7615483
3.1990468342210603	7.627385	2.7617722
3.216580450700272	7.560642	2.7496622
3.2341141425060416	7.5130744	2.7409987
3.251647910049847	7.381236	2.7168431
3.2691817537431813	7.357028	2.7123842
3.286715673997555	7.2004323	2.683362
3.3042496712244938	7.1425443	2.6725538
3.32178374583554	6.973785	2.6407924
3.339317898242251	6.9111977	2.6289158
3.3568521288562034	6.851789	2.617592
3.3743864380889876	6.7591624	2.599839
3.3919208263522127	6.8016825	2.6080036
3.4094552940575023	6.7657228	2.6011002
3.4269898416164972	6.7523546	2.5985293
3.444524469440858	6.6246986	2.573849
3.4620591779422587	6.561854	2.5616117
3.479593967532391	6.537736	2.5568998
3.4971288386229658	6.5014324	2.5497906
3.5146637916257086	6.493478	2.5482304
3.5321988269523628	6.4331727	2.53637
3.5497339450146903	6.3817973	2.526222
3.5672691462244708	6.3827343	2.5264075
3.5848044309934988	6.3813686	2.526137
3.60233979973359	6.414898	2.532765
3.619875252856575	6.390081	2.5278609
3.6374107907743034	6.383849	2.526628
3.6549464138986427	6.287969	2.5075824
3.6724821226414788	6.2164483	2.4932806
3.690017917414714	6.073446	2.4644363
3.7075537986302702	6.145111	2.4789336
3.7250897667000857	6.2910185	2.5081904
3.7426258220361235	6.5392056	2.557187
3.7601619650503553	6.8250585	2.6124814
3.777698196154779	7.4188914	2.7237642
3.7952345157614067	8.429884	2.9034262
3.8127709242822716	9.272213	3.0450308
3.830307422129425	11.346373	3.3684378
3.847844009714936	30.271126	5.50192
3.8653806874508954	97.76615	9.887677
3.882917455749409	97.06439	9.852126
3.900454315022606	96.85024	9.841252
3.917991265682631	41.396587	6.434018
3.9355283081416506	11.11485	3.333894
3.9530654428118495	8.894606	2.9823825
3.970602670105433	7.59354	2.755638
3.9881399904346244	6.5802236	2.5651946
4.005677404211669	6.438983	2.5375152
4.023214911848827	6.286898	2.5073688
4.0407525137583855	6.293736	2.5087318
4.058290210352644	6.3433323	2.5185974
4.075828002043927	6.3297963	2.5159087
4.0933658892445814	6.2568774	2.5013752
4.110903872366966	6.157611	2.4814534
4.128441951823468	6.1587267	2.4816782
4.145980128026488	6.1333923	2.4765687
4.163518401388452	6.0886245	2.4675138
4.181056772321807	6.0370426	2.4570394
4.1985952412390155	6.0999165	2.469801
4.216133808552567	6.2100177	2.4919908
4.233672474674966	6.292437	2.5084732
4.251211240018741	6.4051704	2.5308437
4.268750104996445	6.591362	2.5673647
4.286289070020643	7.516799	2.7416782
4.303828135503928	9.174679	3.0289733
4.3213673018589125	29.522038	5.4334188
4.3389065694982305	90.83931	9.530966
4.356445938834537	166.14844	12.889858
4.3739854102805085	171.7572	13.105618
4.391524984248844	172.76845	13.144141
4.409064661152262	136.74783	11.693923
4.426604441403504	96.90579	9.844074
4.444144325415337	75.78181	8.705275
4.461684313600543	21.682812	4.656481
4.47922440637193	22.177681	4.7093186
4.496764604142329	20.6018	4.538921
4.5143049073245916	18.71169	4.325701
4.531845316331589	16.497358	4.061694
4.5493858315762195	13.457795	3.6684868
4.566926453471405	11.100611	3.331758
4.584467182430081	9.207637	3.0344088
4.602008018865218	8.1772175	2.8595834
4.619548963189798	7.535571	2.7450995
4.637090015816834	7.043433	2.6539466
4.654631177159353	6.71029	2.5904226
4.672172447630417	6.3544693	2.5208073
4.689713827643102	6.1694674	2.4838412
4.7072553176105085	6.0163107	2.452817
4.724796917945764	6.001427	2.449781
4.742338629062015	5.946486	2.438542
4.759880451372434	5.8582125	2.4203744
4.777422385290215	5.807128	2.4097984
4.794964431228581	5.7516294	2.3982556
4.812506589600768	5.776879	2.403514
4.830048860820047	5.6715326	2.381498
4.847591245299709	5.6837654	2.384065
4.8651337434530655	5.614323	2.3694563
4.882676355693457	5.5841317	2.3630767
4.900219082434242	5.588196	2.3639364
4.917761924088813	5.5938234	2.3651266
4.935304881070575	5.611087	2.3687732
4.952847953792969	5.615641	2.3697343
4.970391142669449	5.6628776	2.3796802
4.9879344481135055	5.7070584	2.388945
5.005477870538642	5.676008	2.3824375
5.023021410358394	5.5677958	2.3596177
5.040565067986324	5.4969153	2.3445501
5.05810884383601	5.433659	2.331021
5.075652738321066	5.4575615	2.3361425
5.09319675185512	5.3959956	2.3229282
5.110740884851836	5.410216	2.325987
5.128285137724894	5.4535604	2.335286
5.145829510888007	5.508961	2.3471177
5.163374004754908	5.491551	2.3434057
5.1809186197393595	5.404776	2.3248174
5.198463356255145	5.3772693	2.318894
5.216008214716077	5.335524	2.3098752
5.233553195535998	5.3078628	2.30388
5.251098299128764	5.2351046	2.2880352
5.268643525908272	5.263428	2.2942162
5.286188876288432	5.304871	2.3032305
5.3037343506831895	5.297732	2.3016803
5.32127994950651	5.2413287	2.2893949
5.3388256731723915	5.2226734	2.285317
5.356371522094851	5.226425	2.2861376
5.373917496687938	5.211237	2.2828133
5.391463597365729	5.167751	2.2732687
5.40900982454232	5.1036153	2.2591183
5.426556178631843	5.1343603	2.2659128
5.444102660048449	5.1737533	2.2745886
5.4616492692063225	5.231477	2.2872422
5.479196006519669	5.2171087	2.284099
5.496742872402727	5.140119	2.267183
5.514289867269756	5.1867094	2.2774348
5.531836991535049	5.212488	2.2830875
5.549384245612924	5.2653055	2.2946253
5.566931629917724	5.254241	2.2922132
5.584479144863822	5.1305017	2.2650611
5.6020267908656205	5.1415796	2.2675052
5.619574568337545	5.1927953	2.2787704
5.637122477694054	5.1872716	2.2775583
5.654670519349629	5.184639	2.2769802
5.672218693718784	5.139058	2.2669492
5.689767001216059	5.1149635	2.2616286
5.707315442256021	5.147002	2.2687006
5.724864017253266	5.154028	2.2702484
5.7424127266224225	5.2087574	2.2822702
5.75996157077814	5.16285	2.2721906
5.777510550135105	5.1793413	2.2758167
5.795059665108022	5.260561	2.2935913
5.812608916111639	5.303404	2.302912
5.830158303560715	5.429995	2.330235
5.847707827870055	5.3517604	2.3133872
5.86525748945448	5.356436	2.3143976
5.8828072887288485	5.4634805	2.337409
5.900357226108044	5.483781	2.3417473
5.917907302006979	5.6001782	2.3664696
5.9354575168406	6.2492266	2.4998453
5.9530078710238765	6.9601016	2.6382005
5.970558364971812	7.486992	2.7362368
5.988108999099438	7.8152895	2.795584
6.005659773821818	8.4021845	2.898652
6.023210689554039	8.129949	2.8513064
6.040761746711227	8.489486	2.9136722
6.058312945708531	7.685864	2.772339
6.075864286961132	7.1377864	2.6716635
6.093415770884244	6.496558	2.5488346
6.1109673978931065	5.945889	2.4384193
6.128519168402993	5.4272323	2.329642
6.146071082829204	5.3168974	2.3058398
6.163623141587075	5.2347016	2.287947
6.181175345091969	5.1857147	2.2772164
6.198727693759281	5.1984463	2.2800102
6.216280188004435	5.196507	2.279585
6.233832828242885	5.1738176	2.2746027
6.251385614890126	5.1517825	2.269754
6.268938548361669	5.1817937	2.2763553
6.286491629073067	5.2156706	2.2837842
6.304044857439898	5.1537457	2.2701862
6.321598233877777	4.992777	2.2344522
6.339151758802344	4.848843	2.202009
6.356705432629277	4.8208485	2.195643
6.37425925577428	4.876403	2.208258
6.391813228653095	4.9150662	2.2169948
6.409367351681486	4.9634976	2.227891
6.426921625275259	4.9836903	2.232418
6.44447604985025	4.963227	2.2278302
6.46203062582232	4.9672666	2.2287366
6.47958535360737	4.9412785	2.2228987
6.497140233621328	4.999616	2.2359822
6.514695266280161	5.0132995	2.23904
6.532250451999859	5.0176034	2.2400007
6.549805791196454	5.0091844	2.2381208
6.567361284286002	4.9985113	2.2357352
6.584916931684597	5.062124	2.2499163
6.602472733808367	5.084463	2.2548754
6.6200286910734665	5.0519757	2.2476602
6.637584803896092	5.107802	2.2600446
6.655141072692462	5.121055	2.2629747
6.672697497878842	5.101612	2.2586749
6.690254079871514	5.008263	2.2379148
6.707810819086808	4.915984	2.217202
6.725367715941078	4.890751	2.2115042
6.742924770850719	4.9678926	2.228877
6.760481984232151	5.0528965	2.247865
6.778039356501836	5.0814333	2.2542036
6.795596888076266	5.080291	2.25395
6.813154579371963	5.0489197	2.2469802
6.830712430805492	5.0235333	2.241324
6.84827044279344	5.0254126	2.241743
6.865828615752445	5.0172424	2.2399201
6.883386950099159	5.0225315	2.2411005
6.900945446250287	5.059331	2.2492957
6.918504104622553	5.0012407	2.2363453
6.936062925632727	5.034086	2.243677
6.953621909697607	5.01679	2.2398193
6.971181057234028	5.077965	2.253434
6.988740368658859	5.1569166	2.2708845
7.006299844389007	5.215207	2.2836828
7.023859484841407	5.3357635	2.3099272
7.041419290433036	5.3425264	2.3113906
7.058979261580902	5.497411	2.3446558
7.0765393987020495	5.729194	2.3935735
7.094099702213559	6.086443	2.4670718
7.111660172532549	6.439842	2.5376844
7.129220810076164	6.772497	2.6024022
7.146781615261595	7.3543034	2.7118819
7.16434258850606	7.642232	2.7644587
7.181903730226821	8.059391	2.8389068
7.1994650408411704	8.097941	2.845688
7.217026520766437	8.198719	2.8633406
7.234588170419983	8.469205	2.9101899
7.252149990219215	8.583847	2.9298203
7.269711980581568	8.459437	2.9085112
7.2872741419245175	8.160962	2.8567398
7.304836474665574	7.755414	2.7848544
7.322398979222286	7.4941525	2.737545
7.339961656012233	7.301794	2.7021832
7.357524505453039	6.971637	2.6403856
7.375087527962357	6.6708794	2.5828044
7.392650723957886	6.341408	2.5182152
7.410214093857353	6.007786	2.4510784
7.427777638078528	5.7915273	2.4065592
7.445341357039213	5.579594	2.3621163
7.4629052511572525	5.436533	2.3316374
7.480469320850524	5.3873754	2.321072
7.498033566536948	5.367231	2.3167286
7.5155979886344735	5.308413	2.3039994
7.5331625875610975	5.234959	2.2880032
7.550727363734844	5.1927657	2.278764
7.568292317573788	5.147165	2.2687364
7.585857449496025	5.1395564	2.267059
7.603422759919705	5.1156297	2.2617757
7.620988249263007	5.16407	2.272459
7.638553917944147	5.242123	2.2895684
7.656119766381391	5.273127	2.296329
7.673685794993023	5.2838025	2.2986524
7.691252004197388	5.22395	2.2855961
7.70881839441285	5.2182307	2.2843447
7.726384966057826	5.261399	2.293774
7.743951719550762	5.2395296	2.289002
7.761518655310149	5.1981187	2.2799382
7.779085773754511	5.171995	2.274202
7.796653075302419	5.214688	2.283569
7.814220560372475	5.2545223	2.2922745
7.831788229383323	5.315355	2.3055053
7.8493560827536495	5.3262467	2.3078663
7.866924120902174	5.3035913	2.3029528
7.884492344247663	5.325159	2.3076305
7.9020607532089135	5.305562	2.3033805
7.919629348204771	5.2792172	2.2976546
7.937198129654115	5.300507	2.302283
7.954767097975865	5.3102155	2.3043904
7.972336253588986	5.333762	2.309494
7.989905596912472	5.3520865	2.3134577
8.007475128365371	5.402701	2.324371
8.025044848366756	5.495627	2.3442752
8.042614757335754	5.6434836	2.3756018
8.060184855691523	5.6574974	2.3785493
8.07775514385327	5.7768073	2.403499
8.095325622240228	5.801282	2.408585
8.112896291271687	5.8647556	2.4217257
8.130467151366968	5.9884586	2.4471328
8.148038202945436	5.9894466	2.4473345
8.165609446426497	5.924871	2.4341059
8.183180882229594	5.9021187	2.4294276
8.200752510774217	5.8483996	2.4183464
8.218324332479893	5.908898	2.4308224
8.235896347766193	5.901866	2.4293756
8.253468557052724	5.9198866	2.4330816
8.27104096075914	5.9602814	2.4413688
8.288613559305137	6.054088	2.4605057
8.306186353110448	6.1185384	2.473568
8.32375934259485	6.1636286	2.4826655
8.341332528178162	6.174425	2.484839
8.358905910280246	6.224186	2.4948318
8.376479489321003	6.258324	2.5016642
8.394053265720377	6.3342633	2.5167964
8.411627239898356	6.3332562	2.516596
8.42920141227497	6.363885	2.522674
8.44677578327029	6.3670635	2.523304
8.464350353304427	6.3426094	2.5184538
8.48192512279754	6.353423	2.5205998
8.499500092169827	6.3119516	2.5123599
8.51707526184153	6.2600517	2.5020096
8.534650632232934	6.1860533	2.4871778
8.552226203764365	6.1589403	2.4817212
8.569801976856192	6.155707	2.4810698
8.587377951928834	6.218097	2.4936113
8.60495412940274	6.2842383	2.5068383
8.622530509698416	6.3468184	2.5192893
8.6401070932364	6.538237	2.5569978
8.657683880437283	6.639682	2.576758
8.675260871721695	6.795129	2.6067467
8.692838067510303	6.924286	2.6314037
8.710415468223834	7.010413	2.6477184
8.727993074283043	7.1175437	2.6678724
8.745570886108737	7.119808	2.6682968
8.763148904121765	7.234636	2.6897278
8.78072712874302	7.234451	2.6896935
8.798305560393441	7.4116144	2.722428
8.815884199494006	7.6060405	2.757905
8.833463046465745	7.759015	2.7855008
8.851042101729728	7.9132075	2.8130424
8.86862136570707	8.2328205	2.8692892
8.886200838818924	8.380592	2.8949254
8.903780521486505	8.412569	2.9004428
8.921360414131055	8.482228	2.9124265
8.938940517173874	8.61075	2.934408
8.956520831036297	8.806358	2.967551
8.97410135613971	9.068844	3.0114522
8.99168209290554	9.24653	3.0408106
9.009263041755265	9.476753	3.0784335
9.026844203110405	9.588277	3.0964942
9.044425577392525	9.808477	3.1318488
9.062007165023239	9.919235	3.1494818
9.079588966424197	10.250593	3.2016547
9.097170982017108	10.412819	3.22689
9.11475321222372	11.460223	3.3852952
9.132335657465825	12.414015	3.5233529
9.149918318165264	12.5566435	3.5435355
9.167501194743924	13.121192	3.6223185
9.18508428762374	12.766114	3.57297
9.202667597226693	12.731253	3.568088
9.220251123974803	12.402003	3.5216477
9.237834868290143	12.099398	3.4784188
9.255418830594836	11.868235	3.4450305
9.273003011311046	11.317563	3.3641586
9.290587410860985	11.010279	3.318174
9.308172029666911	10.349443	3.217055
9.32575686815113	10.091807	3.1767604
9.343341926735997	8.85752	2.9761586
9.360927205843916	8.650085	2.9411027
9.378512705897327	8.474132	2.9110363
9.396098427318728	8.227561	2.8683724
9.413684370530664	8.119633	2.8494968
9.431270535955722	8.017414	2.8315039
9.448856924016539	7.953615	2.8202155
9.466443535135806	7.87386	2.8060398
9.484030369736251	7.8977914	2.8103008
9.501617428240658	7.877335	2.806659
9.519204711071852	7.7793007	2.7891397
9.536792218652714	7.7858315	2.7903104
9.55437995140617	7.822893	2.7969434
9.571967909755191	7.8953986	2.8098752
9.589556094122802	7.8642397	2.804325
9.60714450493207	7.8423176	2.8004138
9.624733142606116	7.866369	2.8047047
9.642322007568108	7.963203	2.8219147
9.659911100241267	8.063689	2.8396635
9.677500421048851	8.158341	2.856281
9.695089970414175	8.200405	2.863635
9.712679748760609	8.156566	2.8559701
9.730269756511557	8.095993	2.845346
9.747859994090492	8.062833	2.8395128
9.765450461920915	8.078671	2.8423004
9.78304116042639	8.152591	2.8552742
9.800632090030527	8.17028	2.8583703
9.81822325115699	8.210146	2.8653352
9.835814644229481	8.202172	2.8639436
9.853406269671762	8.213943	2.8659976
9.870998127907646	8.251781	2.8725915
9.888590219360985	8.269805	2.875727
9.906182544455698	8.264371	2.8747818
9.923775103615734	8.246488	2.8716698
9.941367897265108	8.314678	2.8835185
9.958960925827878	8.362252	2.8917558
9.97655418972816	8.4478245	2.9065142
9.994147689390106	8.41878	2.9015133
10.011741425237934	8.276701	2.8769257
10.029335397695904	8.213835	2.865979
10.04692960718833	8.260732	2.8741488
10.06452405413958	8.4029045	2.8987763
10.082118738974064	8.444713	2.9059787
10.099713662116246	8.422378	2.9021332
10.117308823990651	8.3386755	2.8876765
10.134904225021844	8.32275	2.8849177
10.152499865634445	8.223176	2.867608
10.170095746253125	8.158849	2.85637
10.18769186730261	8.150812	2.8549628
10.205288229207675	8.145197	2.853979
10.222884832393145	8.128396	2.8510342
10.2404816772839	8.047886	2.8368795
10.258078764304868	8.041825	2.8358111
10.275676093881035	8.074358	2.8415415
10.293273666437438	8.0512085	2.837465
10.310871482399158	8.1314125	2.8515632
10.32846954219134	8.167283	2.8578458
10.346067846239173	8.224962	2.8679194
10.363666394967908	8.25487	2.8731291
10.38126518880283	8.278263	2.877197
10.398864228169298	8.295712	2.8802278
10.416463513492713	8.272835	2.8762536
10.434063045198531	8.210194	2.8653436
10.451662823712262	8.1846695	2.860886
10.469262849459467	8.204187	2.8642952
10.486863122865758	8.140896	2.8532255
10.504463644356806	8.108596	2.8475597
10.522064414358338	7.989267	2.826529
10.539665433296118	7.9916296	2.826947
10.557266701595987	7.937443	2.8173468
10.574868219683818	7.820517	2.7965188
10.592469987985552	7.6942735	2.7738554
10.610072006927185	7.57134	2.7516067
10.627674276934751	7.554355	2.7485187
10.64527679843435	7.480069	2.7349715
10.662879571852143	7.3720703	2.7151556
10.680482597614331	7.23849	2.6904442
10.698085876147173	7.0991964	2.6644318
10.715689407876988	6.9755173	2.6411204
10.733293193230146	6.914439	2.629532
10.750897232633072	6.87263	2.62157
10.76850152651225	6.7911115	2.605976
10.786106075294207	6.662481	2.5811782
10.803710879405534	6.55733	2.5607285
10.821315939272877	6.4857	2.5467038
10.83892125532294	6.402511	2.5303185
10.856526827982472	6.3696995	2.5238264
10.874132657678285	6.3414664	2.5182269
10.891738744837243	6.3018856	2.5103557
10.909345089886271	6.166636	2.4832711
10.926951693252343	6.1213727	2.474141
10.944558555362494	6.052072	2.460096
10.96216567664381	6.055601	2.460813
10.979773057523436	5.9937725	2.4482183
10.997380698428573	5.8763566	2.4241197
11.014988599786477	5.7727385	2.4026523
11.032596762024461	5.6897655	2.3853228
11.050205185569892	5.6694303	2.3810565
11.067813870850198	5.7385025	2.395517
11.085422818292859	5.71249	2.3900816
11.10303202832541	5.547541	2.355322
11.120641501375454	5.4100776	2.3259573
11.138251237870636	5.3057384	2.3034189
11.155861238238671	5.3086905	2.3040595
11.173471502907317	5.268072	2.295228
11.191082032304402	5.215623	2.283774
11.208692826857805	5.1923957	2.278683
11.226303886995465	5.0898333	2.2560658
11.243915213145371	5.0267124	2.242033
11.261526805735578	4.93424	2.221315
11.279138665194196	4.8191013	2.1952453
11.296750791949393	4.7524977	2.1800225
11.314363186429393	4.698159	2.1675239
11.331975849062479	4.6945257	2.1666853
11.34958878027699	4.6881495	2.1652136
11.36720198050133	4.635409	2.1529999
11.384815450163948	4.608674	2.1467822
11.402429189693366	4.5172906	2.125392
11.420043199518153	4.4950843	2.1201613
11.437657480066942	63.41241	7.963191
11.455272031768422	85.104	9.225183
11.472886855051353	107.49865	10.3681555
11.490501950344528	99.1296	9.956385
11.508117318076819	84.53063	9.194055
11.52573295867715	45.92678	6.77693
11.543348872574514	4.2174716	2.0536485
11.560965060197946	4.1195307	2.0296626
11.57858152197655	4.057564	2.0143394
11.59619825833949	4.041044	2.0102348
11.613815269715985	4.010836	2.0027072
11.631432556535323	38.53372	6.2075534
11.649050119226837	83.0749	9.114543
11.666667958219929	93.44195	9.666537
11.68428607394406	107.66293	10.376075
11.701904466828756	82.452255	9.080322
11.719523137303586	65.324425	8.082353
11.737142085798196	4.6108246	2.147283
11.754761312742286	3.7571576	1.9383389
11.772380818565619	3.7173517	1.9280435
11.790000603698015	3.66728	1.9150144
11.80762066856935	3.5926986	1.8954415
11.825241013609572	3.5851622	1.8934524
11.842861639248683	3.5486472	1.8837854
11.860482545916748	3.5457199	1.8830082
11.878103734043883	3.5174215	1.875479
11.895725204060282	3.4682097	1.862313
11.91334695639619	3.4201052	1.8493526
11.930968991481919	3.3651476	1.8344339
11.948591309747824	3.3393402	1.8273861
11.966213911624347	3.3239245	1.8231634
11.98383679754198	3.3268123	1.823955
12.001459967931268	3.3065333	1.8183875
12.019083423222835	3.3112936	1.8196961
12.036707163847352	3.2704594	1.8084412
12.05433119023556	3.2446964	1.8013041
12.071955502818259	3.2386653	1.7996292
12.089580102026313	3.2290726	1.796962
12.107204988290643	3.194018	1.7871815
12.12483016204224	3.154042	1.7759622
12.142455623712152	3.1135705	1.7645313
12.16008137373149	3.1138961	1.7646235
12.177707412531431	3.1377592	1.7713721
12.19533374054321	3.1315193	1.7696099
12.212960358198126	3.10001	1.7606845
12.230587265927545	3.0784335	1.7545465
12.248214464162889	3.0701437	1.7521826
12.265841953335649	3.0962324	1.7596115
12.283469733877375	3.0765903	1.7540212
12.301097806219685	3.0356996	1.7423259
12.31872617079425	3.0344937	1.7419798
12.336354828032825	3.0051754	1.7335441
12.353983778367205	2.9834495	1.7272664
12.371613022229262	2.9701903	1.723424
12.389242560050928	2.9613934	1.7208699
12.406872392264201	2.89957	1.7028124
12.424502519301143	2.847842	1.6875551
12.442132941593874	2.8277209	1.6815828
12.459763659574586	2.821458	1.6797197
12.477394673675532	2.816077	1.6781172
12.49502598432903	2.841177	1.6855792
12.51265759196746	2.8324466	1.6829875
12.530289497023267	2.8319054	1.6828266
12.547921699928967	2.811046	1.6766174
12.565554201117134	2.7818453	1.6678865
12.583187001020404	2.7893693	1.6701405
12.600820100071486	2.7625968	1.6621062
12.618453498703152	2.7514336	1.6587446
12.636087197348235	2.7647386	1.6627502
12.65372119643964	2.7925646	1.6710968
12.671355496410326	2.8651884	1.6926867
12.68899009769333	2.896465	1.7019005
12.706625000721749	2.8997247	1.7028579
12.724260205928752	2.9313471	1.7121178
12.741895713747551	2.9482632	1.7170507
12.759531524611454	3.014399	1.7362025
12.777167638953818	3.0434132	1.7445381
12.794804057208072	3.0656252	1.7508926
12.812440779807702	3.1162097	1.7652789
12.830077807186271	3.278497	1.810662
12.847715139777405	3.3147647	1.8206495
12.865352778014795	3.5226998	1.8768857
12.882990722332197	3.641352	1.9082327
12.90062897316344	3.7009978	1.9237977
12.918267530942412	3.7660556	1.9406328
12.935906396103071	3.6476533	1.909883
12.953545569079449	3.830896	1.9572674
12.971185050305628	3.6365528	1.9069748
12.988824840215775	3.5927505	1.8954552
13.006464939244115	3.5865839	1.8938278
13.024105347824943	3.444684	1.855986
13.041746066392617	3.6046097	1.898581
13.05938709538157	3.39274	1.8419392
13.077028435226296	3.3848445	1.8397948
13.094670086361363	3.2627568	1.8063103
13.112312049221401	3.156377	1.7766196
13.129954324241112	3.084438	1.7562568
13.147596911855258	2.8949754	1.7014627
13.165239812498685	2.9087238	1.7054981
13.182883026606293	2.8556387	1.6898636
13.200526554613058	2.8095129	1.6761601
13.218170396954017	2.7509675	1.658604
13.235814554064284	2.759367	1.6611342
13.253459026379034	2.767039	1.6634419
13.271103814333523	2.7499733	1.6583043
13.288748918363058	2.7183764	1.64875
13.306394338903031	2.7449567	1.6567911
13.32404007638889	2.7294986	1.6521194
13.341686131256164	2.7199523	1.6492279
13.359332503940449	2.6543596	1.6292205
13.376979194877402	2.6296325	1.6216141
13.394626204502751	2.6585758	1.6305139
13.412273533252307	2.6948998	1.641615
13.429921181561937	2.7082424	1.6456739
13.447569149867581	2.731911	1.6528493
13.465217438605247	2.7161174	1.6480647
13.482866048211022	2.6902144	1.6401873
13.500514979121052	2.6794996	1.6369177
13.518164231771568	2.6608598	1.6312143
13.535813806598844	2.7157812	1.6479627
13.553463704039254	2.6675344	1.6332588
13.571113924529229	2.6803958	1.6371914
13.588764468505275	2.6782367	1.636532
13.606415336403956	2.745563	1.6569741
13.624066528661917	2.7735813	1.6654072
13.641718045715882	2.809636	1.6761969
13.659369888002635	2.8458292	1.6869586
13.67702205595903	2.9142158	1.7071074
13.694674550021993	2.9856176	1.727894
13.712327370628532	3.0289712	1.740394
13.729980518215713	3.0960402	1.7595569
13.747633993220681	3.186817	1.7851658
13.765287796080647	3.2691374	1.8080755
13.7829419272329	3.3135285	1.82031
13.800596387114801	3.3386695	1.8272027
13.818251176163775	3.385814	1.8400581
13.835906294817324	3.4396076	1.854618
13.853561743513023	3.4415238	1.8551345
13.871217522688525	3.4511738	1.8577335
13.888873632781538	3.4544396	1.8586123
13.906530074229858	3.4755118	1.8642725
13.92418684747135	3.4569976	1.8593003
13.941843952943948	3.4621167	1.8606764
13.959501391085665	3.455269	1.8588355
13.977159162334578	3.41219	1.8472114
13.994817267128846	3.3726315	1.8364726
14.012475705906693	3.2840347	1.8121905
14.030134479106424	3.1985495	1.7884489
14.047793587166414	3.1701977	1.780505
14.065453030525108	3.1245677	1.7676446
14.083112809621026	3.0642884	1.7505109
14.100772924892766	2.9768596	1.7253578
14.118433376778997	2.93604	1.7134876
14.136094165718458	2.880755	1.6972787
14.153755292149969	2.8062537	1.6751877
14.171416756512416	2.6789355	1.6367455
14.189078559244768	2.6281767	1.6211653
14.20674070078606	2.5585847	1.5995576
14.224403181575408	2.496225	1.5799446
14.242066002051999	2.4508083	1.5655057
14.259729162655093	2.460427	1.5685748
14.277392663824022	2.4793677	1.5746008
14.295056505998208	2.4600153	1.5684435
14.312720689617128	2.4543915	1.5666498
14.330385215120348	2.4533122	1.5663053
14.348050082947497	2.4508111	1.5655067
14.3657152935383	2.4028826	1.5501235
14.383380847332528	2.36319	1.5372671
14.401046744770051	2.3685586	1.5390122
14.418712986290798	2.3549602	1.534588
14.436379572334793	2.3755372	1.5412778
14.454046503342123	2.3895946	1.5458313
14.471713779752946	2.3780344	1.5420877
14.489381402007504	2.3571646	1.535306
14.507049370546113	2.3746116	1.5409775
14.524717685809168	2.3628376	1.5371524
14.542386348237134	2.380588	1.5429155
14.560055358270553	2.3737512	1.5406983
14.577724716350051	2.4025362	1.5500116
14.595394422916325	2.391612	1.5464838
14.61306447841015	2.4599235	1.5684143
14.63073488327237	2.5153022	1.5859704
14.648405637943917	2.544563	1.5951687
14.6660767428658	2.5146506	1.585765
14.683748198479094	2.4924188	1.5787396
14.701420005224954	2.5124803	1.5850805
14.719092163544628	2.57529	1.604771
14.73676467387942	2.5897357	1.6092656
14.754437536670727	2.670923	1.6342958
14.772110752360014	2.67745	1.6362915
14.78978432138882	2.6916666	1.6406299
14.807458244198777	2.698718	1.6427776
14.82513252123159	2.681135	1.6374172
14.842807152929028	2.7072868	1.6453835
14.860482139732962	2.7333367	1.6532806
14.87815748208531	2.7285058	1.651819
14.8958331804281	2.7310164	1.6525787
14.91350923520342	2.6844919	1.6384419
14.931185646853438	2.6831017	1.6380177
14.948862415820408	2.641691	1.625328
14.966539542546656	2.6594744	1.6307895
14.98421702747459	2.658638	1.6305331
15.001894871046696	2.6862	1.6389631
15.019573073705542	2.6634698	1.632014
15.037251635893766	2.6740353	1.6352478
15.054930558054092	2.669903	1.6339839
15.072609840629323	2.7432323	1.6562706
15.090289484062351	2.8681686	1.6935668
15.107969488796124	3.176651	1.7823162
15.125649855273691	3.5882318	1.8942629
15.14333058393817	4.0938926	2.023337
15.161011675232768	5.019224	2.2403624
15.17869312960076	6.3435264	2.5186357
15.196374947485506	8.151535	2.8550894
15.214057129330447	11.229858	3.351098
15.231739675579114	15.962568	3.9953184
15.249422586675102	21.022053	4.5849814
15.267105863062092	24.20825	4.920188
15.284789505183847	24.565428	4.956352
15.302473513484218	22.541553	4.7477946
15.320157888407127	18.925978	4.3503995
15.337842630396578	14.795934	3.8465483
15.355527739896656	11.597568	3.4055202
15.37321321735153	9.143567	3.0238333
15.39089906320545	6.6874013	2.586001
15.408585277902748	4.9424596	2.2231643
15.42627186188783	3.751248	1.9368138
15.443958815605198	3.2132936	1.7925662
15.461646139499424	2.9408598	1.7148936
15.479333834015168	2.7841964	1.6685911
15.497021899597165	2.7380335	1.6547004
15.514710336690234	2.715545	1.647891
15.53239914573928	2.6787684	1.6366943
15.550088327189297	2.6232862	1.6196562
15.567777881485336	2.5647707	1.6014901
15.58546780907256	2.5113552	1.5847256
15.6031581103962	2.5050254	1.5827272
15.620848785901568	2.5188706	1.587095
15.638539836034063	2.5146987	1.5857801
15.656231261239173	2.5117898	1.5848627
15.673923061962451	2.4859223	1.5766808
15.691615238649552	2.5157115	1.5860995
15.709307791746202	2.495413	1.5796876
15.727000721698221	2.467774	1.570915
15.744694028951498	2.439745	1.5619683
15.76238771395202	2.4486744	1.5648241
15.780081777145844	2.4219856	1.556273
15.797776218979125	2.3827016	1.5436002
15.815471039898094	2.4034197	1.5502967
15.833166240349064	2.393235	1.5470084
15.850861820778437	2.3804252	1.5428627
15.868557781632699	2.36497	1.5378458
15.886254123358412	2.3599355	1.5362082
15.903950846402232	2.3787067	1.5423056
15.921647951210897	2.3949387	1.5475589
15.939345438231225	2.4275436	1.5580577
15.957043307910133	2.462297	1.5691708
15.974741560694602	2.4300966	1.5588768
15.992440197031714	2.422804	1.556536
16.01013921736862	2.4277492	1.5581236
16.02783862215259	2.4376602	1.5613008
16.045538411830933	2.43285	1.5597596
16.06323858685107	2.4023085	1.5499382
16.080939147660512	2.379812	1.5426639
16.09864009470684	2.381483	1.5432055
16.11634142843774	2.3862257	1.5447413
16.134043149300954	2.4183717	1.5551114
16.15174525774433	2.4340718	1.5601512
16.169447754215817	2.4370828	1.5611159
16.18715063916342	2.4261713	1.5576172
16.204853913035244	2.4266305	1.5577645
16.222557576279478	2.3922997	1.5467061
16.240261629344403	22.413315	4.73427
16.257966072678386	42.978928	6.5558314
16.275670906729868	38.1301	6.1749573
16.293376131947387	2.5406156	1.5939308
16.31108174877957	2.5525386	1.5976666
16.328787757675133	2.5566342	1.5989479
16.34649415908287	2.5440683	1.5950136
16.364200953451657	2.5967352	1.6114389
16.38190814123048	2.6280944	1.6211399
16.39961572286839	2.6600983	1.6309807
16.41732369881455	2.7058911	1.6449593
16.43503206951817	2.7181582	1.6486838
16.45274083542859	2.7521334	1.6589555
16.47044999699522	2.743942	1.6564848
16.488159554667558	2.7959225	1.6721013
16.505869508895184	2.8387737	1.6848661
16.523579860127786	2.8978055	1.7022942
16.541290608815117	2.9770029	1.7253994
16.559001755407035	3.0323296	1.7413585
16.57671330035348	3.0650098	1.7507169
16.59442524410448	3.1427906	1.7727917
16.61213758711015	3.2009766	1.7891273
16.629850329820705	3.270945	1.8085754
16.647563472686436	3.3207607	1.8222954
16.665277016157724	3.3742216	1.8369055
16.682990960685053	3.4275076	1.8513529
16.70070530671898	3.4507248	1.8576127
16.718420054710155	3.4698594	1.8627559
16.736135205109335	3.5281184	1.8783286
16.753850758367335	3.6029398	1.8981411
16.771566714935087	3.676509	1.9174224
16.789283075263597	3.7423818	1.9345237
16.80699983980398	3.846605	1.9612764
16.82471700900741	3.9365053	1.9840628
16.84243458332518	4.0151267	2.0037782
16.860152563208665	4.0274158	2.0068421
16.87787094910932	4.064273	2.016004
16.89558974147871	4.0987563	2.0245385
16.913308940768466	4.1749144	2.0432608
16.931028547430333	4.214105	2.0528286
16.94874856191613	4.25478	2.0627117
16.966468984677785	4.2741055	2.067391
16.98418981616729	4.276713	2.0680215
17.00191105683676	4.3250227	2.079669
17.019632707138374	4.4391537	2.10693
17.03735476752442	4.5366025	2.1299303
17.05507723844728	4.5697193	2.13769
17.072800120359403	4.595417	2.1436925
17.090523413713353	4.6600137	2.1587064
17.108247118961785	4.734444	2.1758778
17.125971236557437	4.778218	2.1859136
17.143695766953133	4.7624197	2.182297
17.161420710601806	4.69719	2.1673002
17.179146067956477	4.6961966	2.1670709
17.19687183947025	4.691154	2.1659071
17.21459802559634	4.7211523	2.1728213
17.232324626788028	4.660675	2.1588597
17.25005164349871	4.6311283	2.1520057
17.267779076181863	4.6241827	2.1503913
17.285506925291074	4.6497893	2.156337
17.30323519127999	4.6408978	2.1542742
17.320963874602384	4.580983	2.1403232
17.33869297571211	4.5476866	2.1325305
17.356422495063114	4.5614576	2.135757
17.37415243310944	4.578892	2.1398346
17.391882790305218	4.572415	2.1383207
17.40961356710468	4.5322585	2.12891
17.42734476396215	4.5174184	2.125422
17.445076381332044	4.5065594	2.122866
17.462808419668868	4.571692	2.1381516
17.48054087942723	4.712771	2.1708918
17.498273761061835	4.9814014	2.2319052
17.51600706502747	5.435528	2.3314219
17.533740791779024	6.162258	2.4823897
17.551474941771485	7.580659	2.7532997
17.56920951545993	8.668954	2.9443088
17.586944513299528	10.933684	3.3066123
17.60467993574556	12.651252	3.5568597
17.622415783253373	14.383959	3.792619
17.64015205627843	15.776191	3.9719253
17.657888755276293	16.891346	4.109908
17.675625880702604	17.48097	4.181025
17.69336343301311	17.29953	4.1592703
17.71110141266366	16.489489	4.060725
17.728839820110178	15.453635	3.931111
17.746578655808705	14.415941	3.796833
17.764317920215372	12.817797	3.580195
17.7820576137864	11.359795	3.3704295
17.79979773697811	9.4087105	3.067362
17.81753829024692	7.588509	2.754725
17.835279274049356	5.9294324	2.4350426
17.85302068884201	4.922287	2.2186227
17.870762535081607	4.266754	2.0656123
17.888504813224934	3.918076	1.979413
17.90624752372891	3.7162528	1.9277585
17.923990667050536	3.5993612	1.8971982
17.941734243646895	3.5321462	1.8794005
17.959478253975185	3.4993546	1.8706563
17.9772226984927	3.4865758	1.8672374
17.994967577656833	3.439526	1.8545959
18.01271289192506	3.396951	1.843082
18.030458641754965	3.3937774	1.8422208
18.04820482760425	3.3848271	1.83979
18.06595144993067	3.3741279	1.83688
18.083698509192125	3.3336132	1.8258185
18.101446005846576	3.3116875	1.8198042
18.119193940352105	3.2795572	1.8109548
18.136942313166887	3.2472517	1.8020133
18.1546911247492	3.1998923	1.7888243
18.1724403755574	3.1865873	1.7851015
18.19019006604997	3.1543143	1.7760389
18.207940196685467	3.149395	1.7746534
18.225690767922575	3.1938217	1.7871267
18.243441780220046	3.2034395	1.7898155
18.261193234036764	3.1430144	1.7728549
18.278945129831676	3.0910814	1.7581471
18.29669746806386	3.0910347	1.7581339
18.314450249192483	3.0591178	1.7490333
18.3322034736768	3.039234	1.7433399
18.349957141976184	2.9984014	1.7315893
18.3677112545501	3.00272	1.7328359
18.385465811858108	3.0326698	1.7414563
18.403220814359884	3.0590596	1.7490168
18.420976262515172	3.0694506	1.7519847
18.43873215678387	3.1125875	1.7642527
18.456488497625923	3.1909745	1.7863299
18.474245285501407	3.3060012	1.8182412
18.492002520870486	3.356523	1.8320816
18.50976020419343	3.3702872	1.8358341
18.527518335930615	3.6637018	1.9140799
18.545276916542516	4.245663	2.0605006
18.563035946489688	4.433872	2.1056762
18.580795426232832	4.922145	2.2185907
18.598555356232698	4.785044	2.1874745
18.616315736950185	5.114926	2.2616203
18.63407656884626	4.755145	2.1806295
18.65183785238201	4.967303	2.2287447
18.669599588018617	4.7198153	2.1725135
18.68736177621737	4.738774	2.1768725
18.705124417439652	4.7248797	2.1736789
18.72288751214696	4.510681	2.1238365
18.740651060800886	4.5773654	2.1394777
18.758415063863115	4.2698107	2.0663521
18.77617952179546	4.4530244	2.110219
18.793944435059814	4.1764255	2.0436304
18.811709804118184	4.161917	2.0400777
18.829475629432675	4.167383	2.041417
18.8472419114655	3.9986734	1.9996684
18.86500865067897	4.072053	2.017933
18.88277584753551	3.766893	1.9408485
18.90054350249763	3.8008657	1.9495809
18.918311616027957	3.478411	1.8650498
18.936080188589226	3.3584013	1.8325942
18.953849220644265	3.0449274	1.744972
18.971618712656007	2.8865528	1.6989858
18.9893886650875	2.8781202	1.6965023
19.007159078401887	8.052235	2.837646
19.024929953062408	32.920647	5.737652
19.042701289532435	32.832165	5.7299356
19.060473088275405	25.379152	5.0377727
19.07824534975489	2.6376092	1.6240718
19.096018074434568	2.6175907	1.617897
19.113791262778197	2.6104221	1.6156801
19.13156491524966	2.633571	1.622828
19.149339032312945	2.6399856	1.6248032
19.167113614432136	2.587612	1.6086056
19.184888662071433	2.5478482	1.5961981
19.202664175695123	2.5461693	1.595672
19.220440155767623	2.5756454	1.6048818
19.238216602753447	2.57917	1.6059794
19.2559935171172	2.5802948	1.6063296
19.27377089932361	2.5356064	1.5923587
19.291548749837514	2.523263	1.5884782
19.309327069123835	2.5042505	1.5824823
19.32710585764763	2.5173793	1.5866251
19.344885115874032	2.5184307	1.5869564
19.362664844268313	2.5291555	1.5903319
19.380445043295822	2.5300527	1.590614
19.39822571342203	2.5600924	1.6000289
19.41600685511252	2.5309772	1.5909046
19.43378846883297	2.5183835	1.5869416
19.451570555049173	2.510144	1.5843434
19.469353114227037	2.5522642	1.5975808
19.48713614683254	2.5124044	1.5850567
19.50491965333182	2.4816236	1.575317
19.52270363419109	2.4621618	1.5691277
19.540488089876686	2.4831712	1.5758082
19.55827302085503	2.4733715	1.5726956
19.576058427592674	2.4873848	1.5771445
19.593844310556282	2.4766946	1.5737518
19.611630670212598	2.5051038	1.582752
19.629417507028506	2.529928	1.5905747
19.64720482147098	2.5733135	1.6041551
19.6649926140071	2.5396497	1.5936278
19.682780885104084	2.5446205	1.5951867
19.70056963522921	2.519368	1.5872517
19.718358864849908	2.525116	1.5890614
19.7361485744337	2.5076122	1.5835443
19.753938764448215	2.5609212	1.6002878
19.771729435361202	2.5953155	1.6109983
19.789520587640506	2.5565212	1.5989125
19.807312221754092	2.5592453	1.5997641
19.825104338170043	2.5780354	1.6056261
19.842896937356517	2.5985312	1.611996
19.860690019781824	2.5802777	1.6063243
19.87848358591436	2.551796	1.5974342
19.896277636222635	2.5576904	1.5992781
19.914072171175278	2.5439682	1.5949821
19.931867191241015	2.5158548	1.5861447
19.94966269688869	2.4695659	1.5714853
19.967458688587264	2.4394302	1.5618676
19.985255166805807	2.4458928	1.563935
20.00305213201348	2.4350195	1.5604548
20.020849584679578	2.4616358	1.5689601
20.038647525273507	2.4321215	1.5595261
20.05644595426477	2.4781654	1.574219
20.07424487212299	2.4719071	1.57223
20.092044279317903	2.4579792	1.5677943
20.109844176319353	2.4270985	1.5579149
20.127644563597304	2.4301229	1.5588851
20.145445441621817	2.4391181	1.5617676
20.16324681086307	2.4138587	1.5536598
20.181048671791373	2.390707	1.5461911
20.198851024877122	2.3763933	1.5415555
20.216653870590836	2.3760815	1.5414543
20.234457209403146	2.406685	1.5513494
20.252261041784802	2.4373844	1.5612124
20.270065368206662	2.413047	1.5533986
20.287870189139685	2.3563945	1.5350553
20.305675505054968	2.3467183	1.5319003
20.323481316423702	2.3628929	1.5371704
20.341287623717207	2.3640332	1.5375413
20.359094427406884	2.3564517	1.5350739
20.376901727964288	2.346537	1.531841
20.39470952586107	2.3289795	1.5260994
20.41251782156899	2.3669164	1.5384786
20.430326615559935	2.3513517	1.5334117
20.448135908305886	2.333111	1.5274525
20.465945700278965	2.319044	1.5228409
20.483755991951384	2.354749	1.5345191
20.50156678379548	2.3810956	1.54308
20.519378076283708	2.3949983	1.5475782
20.537189869888635	2.3975017	1.5483868
20.55500216508294	2.3622248	1.5369531
20.572814962339415	2.359148	1.5359519
20.59062826213098	2.3253038	1.5248947
20.60844206493066	2.3397248	1.5296159
20.626256371211593	2.3137867	1.5211136
20.644071181447032	2.3180761	1.5225229
20.66188649611036	2.3161564	1.5218924
20.67970231567506	2.3112504	1.5202798
20.697518640614742	2.3361392	1.5284433
20.715335471403122	2.326921	1.5254248
20.73315280851404	2.3424425	1.530504
20.750970652421447	2.3627927	1.5371379
20.768789003599412	2.3617976	1.5368141
20.786607862522136	2.310538	1.5200454
20.8044272296639	2.3085566	1.5193934
20.82224710549913	2.3073146	1.5189848
20.84006749050237	2.3043075	1.5179945
20.857888385148268	3.8436632	1.9605262
20.8757097899116	45.99706	6.782113
20.893531705267254	64.834145	8.051966
20.911354131690224	83.851234	9.157032
20.92917706965566	69.08064	8.311477
20.94700051963877	50.127975	7.080111
20.96482448211493	29.38373	5.420676
20.982648957559622	4.144984	2.0359232
21.00047394644843	2.2770076	1.5089756
21.01829944925707	2.2685661	1.506176
21.036125466461375	2.2531621	1.5010537
21.053951998537297	2.249546	1.4998487
21.071779045960906	2.2635732	1.5045176
21.089606609208378	2.2416065	1.4971995
21.10743468875603	2.2388997	1.4962953
21.12526328508028	2.2135239	1.4877917
21.143092398657675	2.2361028	1.4953604
21.16092202996488	2.2206223	1.4901752
21.17875217947867	2.2431061	1.4977003
21.19658284767596	2.2713232	1.5070909
21.21441403503377	2.23658	1.49552
21.232245742029225	2.1698108	1.4730277
21.2500779691396	2.122178	1.4567697
21.26791071684227	2.15589	1.468295
21.28574398561475	2.1741076	1.4744855
21.30357777593465	2.1840258	1.477845
21.321412088279704	2.1820977	1.4771925
21.339246923127792	2.156243	1.4684151
21.357082280956888	2.1442542	1.4643272
21.3749181622451	2.1501908	1.4663529
21.392754567470647	2.1703484	1.4732102
21.41059149711187	2.1888254	1.479468
21.42842895164726	2.174622	1.47466
21.446266931555378	2.136336	1.461621
21.464105437314945	2.143508	1.4640723
21.481944469404798	2.150719	1.466533
21.49978402830388	2.1498258	1.4662285
21.51762411449127	2.1248167	1.4576751
21.53546472844617	2.0883036	1.4450964
21.553305870647876	2.1094375	1.4523903
21.571147541575865	2.1227138	1.4569536
21.58898974170967	2.1196	1.4558846
21.60683247152899	2.0696034	1.4386116
21.62467573151363	2.0616379	1.4358405
21.642519522143523	2.060106	1.4353069
21.660363843898722	2.0620973	1.4360005
21.6782086972594	2.07584	1.4407775
21.696054082705864	2.0794504	1.44203
21.713900000718535	2.0770223	1.4411879
21.73174645177795	2.05936	1.435047
21.749593436364794	2.0363429	1.4270048
21.767440954959845	2.0228481	1.4222686
21.785289008044032	2.0072784	1.4167845
21.803137596098388	2.0029802	1.4152669
21.820986719604086	1.997389	1.4132901
21.838836379042412	2.012704	1.418698
21.85668657489478	2.0262141	1.4234514
21.87453730764273	2.016787	1.4201363
21.892388577767914	1.9932494	1.4118248
21.91024038575213	1.9673625	1.402627
21.928092732077285	1.9634036	1.4012151
21.945945617225426	1.9964725	1.4129659
21.963799041678694	2.0237806	1.4225965
21.981653005919398	31.344704	5.5986342
21.999507510429943	78.108154	8.837882
22.01736255569286	73.08051	8.548714
22.035218142190818	4.1683836	2.041662
22.05307427040661	1.996721	1.4130538
22.07093094082315	1.9737879	1.4049156
22.088788153923474	1.9781946	1.406483
22.106645910190746	1.9709468	1.4039041
22.12450421010827	2.000567	1.414414
22.142363054159464	1.9953859	1.4125813
22.16022244282787	2.0058632	1.416285
22.178082376597164	1.982431	1.4079883
22.195942855951145	1.9514967	1.3969598
22.213803881373742	1.9388145	1.3924133
22.231665453349002	1.9727359	1.4045411
22.24952757236111	2.0006697	1.4144503
22.26739023889438	1.9919252	1.4113559
22.28525345343323	1.9769924	1.4060556
22.30311721646225	1.9522123	1.397216
22.320981528466113	1.947319	1.3954637
22.33884638992964	1.9188021	1.3852084
22.356711801337788	1.9291034	1.3889216
22.37457776317561	1.960223	1.4000796
22.392444275928337	2.012254	1.4185394
22.410311340081282	2.0185206	1.4207464
22.428178956119904	1.992659	1.4116157
22.446047124529805	1.9995029	1.4140378
22.46391584579669	2.020255	1.4213568
22.481785120406414	2.0014021	1.4147092
22.49965494884496	1.9713719	1.4040555
22.51752533159841	1.960077	1.4000275
22.53539626915302	1.9778501	1.4063606
22.553267761995137	1.9736236	1.4048572
22.571139810611264	1.9582684	1.3993814
22.589012415488025	1.9402646	1.3929338
22.60688557711216	1.9235202	1.3869103
22.624759295970566	1.9572263	1.399009
22.642633572550263	1.9733993	1.4047773
22.660508407338362	1.9852611	1.4089929
22.67838380082217	1.9852775	1.4089987
22.696259753489077	1.9815775	1.4076852
22.714136265826614	1.9360464	1.3914188
22.73201333832246	1.912967	1.3831005
22.74989097146439	1.908867	1.3816175
22.76776916574035	1.9473537	1.3954762
22.785647921638393	1.9499736	1.3964145
22.803527239646712	1.9455123	1.3948163
22.82140712025363	1.9106148	1.38225
22.839287563947593	1.9058197	1.3805143
22.85716857121719	1.9000134	1.3784097
22.875050142551135	1.9281003	1.3885605
22.892932278438277	1.9274423	1.3883235
22.910814979367604	1.9298502	1.3891904
22.928698245828222	1.926367	1.3879362
22.946582078309387	1.9317919	1.3898891
22.96446647730047	1.9264529	1.3879672
22.98235144329098	1.8986827	1.377927
23.000236976770562	1.8698426	1.3674219
23.018123078229	1.8388282	1.356034
23.03600974815619	1.8558254	1.3622868
23.053896987042194	1.9033248	1.3796104
23.071784795377173	1.9496318	1.3962922
23.08967317365145	1.9261204	1.3878474
23.10756212235546	1.9108772	1.3823448
23.125451641979787	1.8822954	1.3719677
23.143341733015134	1.8905298	1.3749653
23.161232395952357	1.8910745	1.3751634
23.179123631282426	1.8899273	1.3747462
23.197015439496468	1.8492017	1.3598535
23.214907821085717	1.8265961	1.3515162
23.23280077654157	1.8235531	1.35039
23.250694306355538	1.8925974	1.375717
23.268588411019277	1.9393796	1.392616
23.28648309102458	1.9174016	1.3847027
23.304378346863356	1.9008689	1.37872
23.322274179027676	1.928642	1.3887556
23.340170588009723	1.9906278	1.4108961
23.358067574301852	1.9950472	1.4124614
23.37596513839651	1.986068	1.4092792
23.39386328078629	1.9785804	1.4066201
23.411762001963947	1.974282	1.4050915
23.429661302422353	1.9479545	1.3956914
23.4475611826545	1.9286228	1.3887486
23.46546164315356	1.9098849	1.3819859
23.48336268441279	1.9092398	1.3817524
23.501264306925638	1.9120902	1.3827835
23.51916651118564	1.913508	1.3832961
23.537069297686497	1.9351797	1.3911073
23.554972666922037	1.948736	1.3959713
23.57287661938623	1.921873	1.3863163
23.59078115557318	1.9137377	1.3833791
23.608686275977128	1.9181038	1.3849562
23.62659198109246	1.9296304	1.3891114
23.6444982714137	1.9045181	1.3800428
23.66240514743549	1.8865443	1.3735154
23.68031260965263	1.9041904	1.379924
23.698220658560068	1.9490014	1.3960664
23.716129294652845	1.9509512	1.3967645
23.7340385184262	1.9605837	1.4002085
23.75194833037546	1.9547544	1.3981253
23.769858730996123	1.8991915	1.3781116
23.78776972078382	1.8981675	1.37774
23.80568130023431	1.9406378	1.3930677
23.823593469843495	1.969284	1.4033118
23.841506230107424	1.9306375	1.3894738
23.859419581522275	1.889725	1.3746727
23.87733352458438	1.872806	1.368505
23.89524805979019	1.8922828	1.3756027
23.913163187636318	1.8925945	1.375716
23.931078908619508	1.8975481	1.3775152
23.948995223236633	1.9638665	1.4013802
23.966912131984735	2.0280452	1.4240946
23.98482963536096	2.0877457	1.4449034
24.002747733862616	2.0724525	1.4396015
24.020666427987155	2.0888834	1.445297
24.038585718232156	2.0790613	1.441895
24.056505605095353	2.0965908	1.4479609
24.074426089074617	2.095854	1.4477065
24.092347170667946	2.046495	1.4305576
24.110268850373515	1.9945353	1.4122802
24.128191128689586	2.0125968	1.4186603
24.146114006114626	1.9924457	1.4115402
24.164037483147187	2.0314412	1.4252864
24.181961560286005	2.040657	1.4285157
24.199886238029926	2.0560458	1.4338918
24.21781151687797	2.0919929	1.4463723
24.235737397329274	2.095045	1.447427
24.253663879883135	2.0884821	1.4451581
24.271590965038975	2.039958	1.4282709
24.289518653296376	2.0334918	1.4260056
24.30744694515505	2.068122	1.4380966
24.32537584111486	2.072057	1.4394641
24.34330534167581	2.037667	1.4274688
24.361235447338046	1.9931039	1.4117733
24.379166158601876	2.013461	1.4189649
24.39709747596772	2.0650609	1.437032
24.41502939993615	2.0891795	1.4453994
24.432961931007917	2.0624523	1.4361241
24.450895069683856	2.0426428	1.4292105
24.468828816465	2.0090942	1.4174252
24.4867631718525	2.0123842	1.4185853
24.504698136347656	2.0382693	1.4276797
24.52263371045192	2.0224183	1.4221175
24.540569894666874	1.9864699	1.4094218
24.558506689494266	1.9395486	1.3926768
24.57644409543597	1.9082648	1.3813995
24.594382112994012	1.9261354	1.3878528
24.61232074267057	2.0096836	1.417633
24.630259984967953	2.0101862	1.4178103
24.64819984038863	2.0062785	1.4164317
24.66614030943522	1.9807216	1.407381
24.684081392610462	1.9848372	1.4088424
24.702023090417274	2.0025332	1.4151089
24.7199654033587	2.0490835	1.431462
24.737908331937927	2.0604675	1.4354329
24.755851876658305	2.04215	1.4290382
24.773796038023324	2.0396473	1.4281622
24.79174081653661	2.0873878	1.4447795
24.809686212701962	2.1131766	1.4536769
24.827632227023294	2.1450992	1.4646157
24.8455788600047	2.1196797	1.455912
24.8635261121504	2.129259	1.4591981
24.88147398396475	2.12257	1.4569043
24.899422475952303	2.0746534	1.4403657
24.917371588617698	2.0952108	1.4474843
24.935321322465768	2.1616118	1.4702421
24.953271678001478	2.2236004	1.4911742
24.97122265572994	2.3761835	1.5414875
24.989174256156414	2.6934037	1.6411593
25.00712647978632	3.206111	1.7905617
25.02507932712521	3.8284333	1.9566382
25.043032798678798	4.3885407	2.0948844
25.060986894952933	5.001966	2.2365077
25.078941616453637	5.761078	2.4002244
25.096896963687055	6.779699	2.6037855
25.114852937159508	7.863923	2.8042688
25.132809537377444	8.2417755	2.8708494
25.150766764847468	8.224593	2.867855
25.168724620076347	7.7263746	2.7796357
25.186683103570985	6.8010283	2.6078782
25.204642215838426	5.666615	2.3804653
25.222601957385894	4.2593274	2.0638137
25.24056232872074	3.242036	1.8005655
25.25852333035048	2.7155259	1.6478853
25.276484962782778	2.364033	1.5375413
25.294447226525435	2.124685	1.4576299
25.312410122086423	2.0164957	1.4200337
25.330373649973843	1.9707121	1.4038205
25.348337810695988	1.9396752	1.3927222
25.366302604761245	1.925378	1.3875799
25.384268032678207	1.9577347	1.3991908
25.40223409495558	1.9559077	1.3985378
25.420200792102257	1.9680158	1.4028598
25.438168124627246	1.9154829	1.3840097
25.45613609303974	1.8433857	1.3577135
25.474104697849057	1.8636259	1.3651469
25.492073939564698	1.8661746	1.36608
25.510043818696285	1.872214	1.3682888
25.528014335753614	1.853324	1.3613684
25.54598549124664	1.8500773	1.3601755
25.56395728568544	1.8605382	1.3640155
25.58192971958028	1.9053617	1.3803483
25.59990279344156	1.915022	1.3838432
25.617876507779833	1.8964075	1.3771011
25.635850863105826	1.8624032	1.3646989
25.653825859930386	1.8834708	1.372396
25.671801498764548	1.9370725	1.3917875
25.68977778011949	1.9058146	1.3805125
25.707754704506524	1.8717844	1.3681318
25.725732272437153	1.8255507	1.3511294
25.743710484423012	1.8651217	1.3656946
25.761689340975888	1.8763235	1.3697896
25.77966884260774	1.8285714	1.3522468
25.797648989830662	1.7910358	1.3382958
25.815629783156922	1.764995	1.3285311
25.83361122309895	1.7996892	1.341525
25.85159331016929	1.8562601	1.3624463
25.869576044880695	1.8832843	1.372328
25.887559427746034	1.8529141	1.3612179
25.90554345927836	1.8387572	1.3560078
25.92352813999086	1.8218443	1.3497572
25.94151347039689	1.8781537	1.3704575
25.959499451009965	1.9048914	1.380178
25.97748608234374	1.8815843	1.3717085
25.995473364912062	1.8148665	1.3471699
26.013461299228904	1.7959986	1.3401487
26.03144988580839	1.7703152	1.330532
26.04943912516483	1.8118739	1.3460586
26.067429017812675	1.79468	1.3396567
26.085419564266537	1.8227334	1.3500865
26.103410765041186	1.8689814	1.3671069
26.12140262065155	1.905632	1.3804463
26.139395131612723	1.8696169	1.3673394
26.157388298439948	1.8479109	1.3593788
26.17538212164861	1.8337307	1.3541532
26.193376601754295	1.8361436	1.3550438
26.211371739272714	1.8314301	1.3533034
26.229367534719746	1.8471941	1.3591151
26.247363988611433	1.825897	1.3512576
26.26536110146397	1.7752	1.3323663
26.283358873793727	1.755098	1.3248011
26.301357306117204	1.7682168	1.3297431
26.319356398951104	1.8107553	1.345643
26.33735615281224	1.8573401	1.3628427
26.35535656821762	1.8315035	1.3533305
26.373357645684404	1.835765	1.354904
26.39135938572991	1.828711	1.3522984
26.409361788871614	1.8309284	1.3531181
26.427364855627165	1.8459153	1.3586446
26.445368586514352	1.8657557	1.3659266
26.46337298205115	1.8901315	1.3748205
26.48137804275568	1.8879457	1.3740253
26.499383769146217	1.8705752	1.3676897
26.517390161741215	1.8738735	1.3688949
26.53539722105928	1.8544773	1.361792
26.553404947619182	1.8363241	1.3551104
26.571413341939856	1.82727	1.3517655
26.589422404540397	1.8041351	1.343181
26.60743213594006	1.756859	1.3254656
26.62544253665827	1.7526749	1.3238863
26.64345360721459	1.7539854	1.3243811
26.66146534812879	1.7590352	1.3262862
26.679477759920758	1.7647399	1.3284351
26.69749084311057	1.7882231	1.3372446
26.71550459821847	1.8423908	1.357347
26.733519025764842	1.8463441	1.3588024
26.751534126270258	1.8438331	1.3578782
26.769549900255434	1.8104794	1.3455405
26.787566348241267	1.7784048	1.3335685
26.80558347074881	1.774076	1.3319445
26.823601268299267	1.8007342	1.3419144
26.841619741414036	1.8427328	1.3574729
26.85963889061465	1.8244934	1.350738
26.877658716422832	1.8419143	1.3571714
26.89567921936045	1.8740866	1.3689728
26.913700399949544	1.9746319	1.405216
26.93172225871233	1.9413444	1.3933214
26.949744796171174	1.8426005	1.3574243
26.967768012848605	1.7367272	1.3178495
26.98579190926733	1.7823886	1.3350613
27.003816485950225	1.8275476	1.3518682
27.021841743420318	1.8087051	1.344881
27.039867682200814	1.7919525	1.3386383
27.057894302815072	1.7707634	1.3307004
27.07592160578664	1.7754173	1.3324479
27.0939495916392	1.7848771	1.3359929
27.111978260896635	1.7970009	1.3405226
27.13000761408296	1.8172177	1.3480421
27.148037651722397	1.8114403	1.3458976
27.166068374339304	1.7875539	1.3369944
27.184099782458215	1.8126038	1.3463298
27.20213187660384	1.8549215	1.361955
27.22016465730105	1.8387593	1.3560086
27.23819812507487	1.8098922	1.3453224
27.256232280450533	1.8050643	1.3435268
27.274267123953383	1.7809823	1.3345345
27.292302656108987	1.8075714	1.3444595
27.31033887744306	1.8712298	1.367929
27.32837578848146	1.9093499	1.3817923
27.34641338975026	1.8464285	1.3588336
27.364451681775673	1.8661366	1.3660661
27.382490665084074	1.8674482	1.366546
27.400530340202046	1.8376718	1.3556075
27.41857070765629	1.757486	1.3257021
27.436611767973726	1.752461	1.3238055
27.454653521681404	1.7363024	1.3176882
27.472695969306564	1.7913905	1.3384284
27.490739111376627	1.8270636	1.3516891
27.508782948419153	1.8783746	1.3705381
27.526827480961902	1.92004	1.385655
27.54487270953279	1.9155194	1.3840228
27.562918634659898	1.8537394	1.361521
27.580965256871508	1.8336438	1.3541211
27.599012576696026	1.8607236	1.3640834
27.617060594662068	1.8045797	1.3433465
27.63510931129842	1.7472749	1.3218453
27.65315872713401	1.7602222	1.3267337
27.67120884269797	1.7732294	1.3316265
27.68925965851958	1.8130211	1.3464847
27.707311175128307	1.7805505	1.3343726
27.725363393053787	1.7547405	1.3246661
27.74341631282583	1.8188449	1.3486456
27.7614699349744	1.9006381	1.3786364
27.77952426002968	2.1009681	1.4494717
27.797579288521973	2.160044	1.4697088
27.815635020981784	2.5471914	1.5959923
27.83369145793979	2.5685773	1.6026782
27.85174859992682	2.403304	1.5502594
27.869806447473923	2.274791	1.508241
27.887865001112267	2.052464	1.4326423
27.905924261373233	1.9991766	1.4139224
27.92398422878836	1.9591326	1.3996902
27.94204490388936	1.9310173	1.3896105
27.96010628720813	1.9059383	1.3805572
27.978168379276728	1.8955336	1.3767837
27.9962311806274	1.8829746	1.3722153
28.014294691792568	1.8677108	1.3666421
28.0323589133048	1.8397264	1.3563652
28.050423845696887	1.7998888	1.3415993
28.068489489501758	1.7689292	1.330011
28.086555845252523	1.8024998	1.3425721
28.104622913482487	1.8702773	1.3675808
28.122690694725115	1.9008721	1.3787212
28.14075918951405	1.8788462	1.3707101
28.15882839838312	1.8815908	1.3717109
28.176898321866304	1.9358563	1.3913505
28.1949689604978	1.9925328	1.411571
28.213040314811945	1.9730378	1.4046487
28.23111238534327	1.9444075	1.3944201
28.249185172626493	1.9282758	1.3886237
28.267258677196473	1.9288658	1.3888361
28.285332899588294	1.9847119	1.408798
28.303407840337172	1.9812601	1.4075724
28.321483499978545	1.9103001	1.3821361
28.33955987904799	1.8852284	1.3730361
28.357636978081285	1.8797826	1.3710517
28.37571479761439	1.9347264	1.3909444
28.393793338183425	1.9794545	1.4069309
28.41187260032469	1.9626293	1.4009387
28.429952584574686	1.970655	1.4038001
28.448033291470065	2.0032167	1.4153504
28.46611472154769	1.9943069	1.4121994
28.484196875344566	1.9524376	1.3972965
28.502279753397914	1.9757835	1.4056257
28.52036335624511	2.0192368	1.4209986
28.538447684423716	2.014731	1.4194121
28.556532738471482	2.034522	1.4263667
28.574618518926325	2.0123887	1.4185869
28.59270502632635	2.0067058	1.4165825
28.61079226120985	1.9613389	1.4004781
28.628880224115274	1.9829919	1.4081875
28.646968915581287	1.9632757	1.4011694
28.66505833614671	1.9848	1.4088293
28.68314848635055	2.0022025	1.4149921
28.701239366732004	2.0604873	1.4354397
28.71933097783044	2.0833843	1.4433933
28.737423320185403	2.1138113	1.4538952
28.75551639433665	2.1187208	1.4555826
28.773610200824074	2.1604302	1.4698402
28.791704740187793	2.1635635	1.4709057
28.80980001296809	2.1781578	1.4758583
28.827896019705413	2.231534	1.493832
28.845992760940433	2.2185073	1.4894655
28.86409023721397	2.1615074	1.4702066
28.88218844906704	2.1753654	1.474912
28.900287397040845	2.2206209	1.4901748
28.918387081676755	2.250117	1.500039
28.936487503516343	2.2702382	1.5067309
28.954588663101365	2.270818	1.5069233
28.97269056097374	2.265251	1.5050751
28.990793197675597	2.2730906	1.5076772
29.00889657374923	2.3216605	1.5236996
29.027000689737125	2.343315	1.530789
29.04510554618196	2.3727133	1.5403614
29.06321114362659	2.4431758	1.5630661
29.08131748261405	2.4732985	1.5726724
29.099424563687567	2.3715868	1.5399957
29.11753238739057	2.369189	1.539217
29.13564095426663	2.4716744	1.572156
29.15375026485954	2.5624104	1.6007531
29.171860319713275	2.5960352	1.6112217
29.18997111937199	2.62324	1.6196419
29.20808266438002	2.7009025	1.6434423
29.226194955281898	2.7461119	1.6571397
29.244307992622335	2.8269973	1.6813676
29.26242177694624	2.865523	1.6927856
29.2805363087987	2.874769	1.6955143
29.29865158872498	2.937821	1.7140073
29.316767617270557	2.9258199	1.7105029
29.334884394981064	2.8889472	1.6996903
29.353001922402367	2.8975039	1.7022055
29.37112020008047	2.9613097	1.7208456
29.389239228561596	3.1073303	1.7627621
29.407359008392152	3.316055	1.8210039
29.42547954011872	3.6387408	1.9075484
29.44360082428809	4.2889166	2.07097
29.46172286144722	5.317293	2.3059256
29.479845652143283	6.912105	2.6290882
29.497969196923606	9.055772	3.009281
29.516093496335728	11.752876	3.4282467
29.5342185509274	14.712069	3.8356314
29.55234436124651	17.14274	4.1403794
29.570470927841175	18.590813	4.3117065
29.588598251259686	18.139107	4.259003
29.60672633205055	16.654701	4.081017
29.624855170762405	14.583824	3.8188775
29.642984767944146	12.026361	3.4679046
29.66111512414481	9.206393	3.034204
29.67924623991366	6.756085	2.599247
29.697378115800138	5.1360607	2.2662878
29.71551075235387	4.140291	2.0347705
29.733644150124675	3.7287943	1.9310086
29.751778309662576	3.5286865	1.8784798
29.769913231517766	3.4175084	1.8486505
29.78804891624066	3.3249424	1.8234425
29.806185364381818	3.3540154	1.831397
29.82432257649206	3.4330719	1.8528551
29.842460553122333	3.3931718	1.8420564
29.86059929482382	3.3938277	1.8422344
29.878738802147872	3.4067876	1.8457485
29.896879075646048	3.3687365	1.8354118
29.915020115870114	3.2779174	1.8105019
29.933161923371976	3.225351	1.7959262
29.951304498703777	3.2439947	1.8011093
29.969447842417857	3.212113	1.7922368
29.987591955066733	3.1900742	1.7860779
30.005736837203123	3.2071226	1.7908441
30.023882489379943	3.2056568	1.7904348
30.04202891215028	3.1863894	1.7850461
30.060176106067455	3.1842391	1.7844436
30.078324071684946	3.22345	1.7953969
30.09647280955646	3.2447608	1.801322
30.114622320235863	3.1823795	1.7839226
30.132772604277257	3.1069286	1.7626482
30.1509236622349	3.074361	1.7533857
30.16907549466328	3.0726411	1.7528951
30.18722810211705	3.078828	1.7546589
30.205381485151097	3.0314574	1.7411081
30.22353564432045	2.990358	1.7292652
30.241690580180403	3.037677	1.7428933
30.25984629328638	3.0289633	1.7403917
30.278002784194037	3.0213773	1.7382109
30.296160053459246	3.003488	1.7330574
30.314318101638033	2.9599261	1.7204436
30.332476929286646	3.0178137	1.7371856
30.35063653696153	3.0285687	1.7402784
30.368796925219307	2.9489975	1.7172645
30.386958094616844	2.8979955	1.70235
30.40512004571115	2.941462	1.715069
30.423282779059463	3.010349	1.7350358
30.441446295219233	3.0173495	1.737052
30.459610594748067	2.9537685	1.7186531
30.47777567820382	2.8745852	1.6954602
30.495941546144504	2.8705707	1.6942759
30.51410819912835	2.8450203	1.6867188
30.532275637713795	2.7958474	1.6720787
30.55044386245946	2.8063178	1.6752068
30.56861287392416	2.8376627	1.6845363
30.586782672666956	2.7985234	1.6728787
30.604953259247047	2.8187456	1.678912
30.623124634223885	2.8702116	1.6941699
30.641296798157075	2.8602598	1.6912303
30.659469751606462	2.8221185	1.6799163
30.677643495132074	2.839231	1.6850017
30.695818029294152	2.7923079	1.67102
30.713993354653116	2.7256417	1.6509517
30.73216947176962	2.6973598	1.6423641
30.75034638120448	2.7316842	1.6527808
30.768524083518756	2.7555544	1.6599863
30.786702579273673	2.762486	1.6620728
30.80488186903069	2.823701	1.6803871
30.82306195335144	2.8985686	1.7025183
30.841242832797782	3.0907319	1.7580477
30.85942450793176	3.4243808	1.8505082
30.877606979315637	3.8188784	1.954195
30.895790247511883	4.1836767	2.0454037
30.913974313083134	4.5794067	2.1399548
30.932159176592283	4.8800163	2.209076
30.95034483860237	4.9773803	2.2310042
30.968531299676698	4.8006988	2.1910496
30.98671856037873	4.4447713	2.1082625
31.00490662127215	4.0078425	2.0019596
31.023095482920848	3.54495	1.8828038
31.04128514588892	3.1136246	1.7645465
31.059475610740662	2.812042	1.6769145
31.07766687804056	2.6872797	1.6392925
31.09585894835335	2.620606	1.6188285
31.11405182224393	2.5526674	1.5977069
31.132245500277417	2.5072439	1.5834279
31.15043998301914	2.4861407	1.57675
31.168635271034628	2.461897	1.5690433
31.18683136488964	2.4380643	1.5614302
31.20502826515008	2.4370701	1.5611118
31.223225972382135	2.4268801	1.5578448
31.241424487152155	2.382882	1.5436587
31.259623810026692	2.3514142	1.5334321
31.27782394157253	2.386628	1.5448714
31.296024882356644	2.3988295	1.5488155
31.314226632946237	2.332923	1.5273908
31.332429193908684	2.2780068	1.5093067
31.350632565811598	2.3857853	1.5445988
31.368836749222787	2.4796906	1.5747033
31.387041744710295	2.486428	1.5768411
31.40524755284232	2.4061258	1.5511692
31.423454174187317	2.4307158	1.5590754
31.441661609313922	2.4493341	1.5650349
31.459869858791002	2.4199598	1.555622
31.478078923187628	2.3563032	1.5350255
31.496288803073064	2.328303	1.5258778
31.514499499016807	2.3420048	1.5303609
31.532711011588546	2.4237516	1.5568403
31.550923341358178	2.4057477	1.5510473
31.56913648889584	2.2786617	1.5095236
31.587350454771844	2.1930501	1.480895
31.605565239556732	2.2144976	1.4881188
31.62378084382127	2.2524292	1.5008096
31.641997268136382	2.2071347	1.4856429
31.660214513073274	2.1698573	1.4730436
31.67843257920331	2.2505841	1.5001947
31.6966514670981	2.3995926	1.5490619
31.71487117732944	2.4173717	1.5547899
31.733091710469346	2.336726	1.5286353
31.751313067090052	2.2750793	1.5083365
31.769535247764008	2.27843	1.5094469
31.787758253063878	2.2896776	1.5131681
31.805982083562526	2.3351424	1.5281173
31.824206739833024	2.416401	1.5544777
31.84243222244869	2.3784761	1.5422308
31.860658531983013	2.2176933	1.4891921
31.878885669009737	2.1802635	1.4765716
31.897113634102784	2.2378194	1.4959342
31.91534242783632	2.2607336	1.5035737
31.933572050784694	2.2637675	1.5045822
31.951802503522508	2.3873827	1.5451158
31.970033786624548	2.415542	1.5542014
31.988265900665834	2.2774825	1.509133
32.006498846221575	2.175331	1.4749004
32.02473262386724	2.1926363	1.4807553
32.04296723417845	2.2494676	1.4998225
32.0612026777311	2.2245717	1.4914998
32.07943895510129	2.1649237	1.471368
32.097676066865304	2.1904297	1.48001
32.115914013599685	2.1980426	1.4825797
32.13415279588115	2.10329	1.4502724
32.152392414286666	2.1258087	1.4580153
32.1706328693934	2.1717916	1.4736999
32.18887416177875	2.0686738	1.4382886
32.20711629202032	2.117342	1.4551089
32.225359260695924	2.1570656	1.4686952
32.243603068383614	2.1243064	1.4575001
32.26184771566166	2.125072	1.4577627
32.28009320310852	2.1282594	1.4588555
32.2983395313029	2.0977325	1.4483551
32.31658670082372	2.1166387	1.4548672
32.33483471225012	2.1100132	1.4525884
32.35308356616143	2.1659734	1.4717246
32.371333263137245	2.1748583	1.4747401
32.38958380375734	2.2352378	1.4950712
32.407835188601744	2.2773256	1.509081
32.42608741825067	2.2386441	1.49621
32.444340493284585	2.1357288	1.4614133
32.46259441428416	2.078377	1.4416578
32.48084918183028	2.0285935	1.4242871
32.49910479650405	1.983245	1.4082773
32.51736125888683	2.0168655	1.4201639
32.53561856956014	2.0361195	1.4269266
32.5538767291058	2.044618	1.4299014
32.572135738105764	2.087495	1.4448166
32.59039559714228	2.0852993	1.4440565
32.608656306797776	1.9826667	1.408072
32.62691786765491	1.9282981	1.3886317
32.645180280296586	1.9897721	1.4105928
32.663443545305896	2.055565	1.4337242
32.68170766326619	2.0623567	1.4360908
32.69997263476099	2.0265512	1.4235699
32.7182384603741	1.992511	1.4115633
32.7365051406895	2.0162404	1.4199438
32.75477267629144	1.9770104	1.406062
32.77304106776434	1.9901496	1.4107267
32.79131031569289	2.0103955	1.4178842
32.809580420661966	2.0211818	1.4216827
32.827851383256714	2.0395422	1.4281254
32.84612320406245	1.9968542	1.413101
32.86439588366476	1.9680452	1.4028703
32.88266942264945	1.9359592	1.3913875
32.9009438216025	2.0318	1.4254122
32.9192190811102	2.111582	1.4531283
32.937495201758985	2.091366	1.4461557
32.95577218413556	2.050008	1.4317849
32.974050028826866	2.0461614	1.430441
32.992328736420035	1.9768323	1.4059987
33.010608307502444	1.9917874	1.411307
33.02888874266169	2.0185935	1.4207722
33.047170042485604	1.9425601	1.3937576
33.06545220756225	1.9119776	1.3827428
33.083735238479896	1.9341829	1.390749
33.10201913582707	1.910292	1.3821331
33.12030390019248	1.9388498	1.3924259
33.138589532165135	1.9790132	1.406774
33.15687603233419	1.9958694	1.4127524
33.17516340128909	2.0220761	1.4219972
33.19345163961947	1.9731631	1.4046932
33.211740747915215	1.9242636	1.3871783
33.23003072676643	1.9126108	1.3829718
33.248321576763466	1.9582813	1.399386
33.266613298496885	2.03694	1.4272141
33.28490589255747	2.045764	1.430302
33.30319935953626	1.9873922	1.409749
33.32149370002451	1.967995	1.4028524
33.339788914613706	1.9198114	1.3855726
33.358085003895575	1.8948649	1.3765409
33.376381968462034	1.901126	1.3788133
33.39467980890529	1.9036157	1.3797158
33.41297852581774	1.9060171	1.3805858
33.43127811979204	1.914448	1.3836358
33.44957859142105	1.8816037	1.3717157
33.467879941297866	1.890435	1.3749309
33.486182170015844	1.9468657	1.3953013
33.50448527816853	1.965293	1.4018891
33.522789266349754	1.9569659	1.398916
33.541094135153514	1.8838769	1.3725439
33.55939988517411	1.7908082	1.3382108
33.57770651700602	1.7469475	1.3217214
33.59601403124398	1.823445	1.3503499
33.61432242848296	1.9579881	1.3992813
33.632631709318154	2.016415	1.4200053
33.650941874344994	2.0039406	1.4156061
33.66925292415916	1.9629142	1.4010404
33.68756485935654	1.9666967	1.4023896
33.70587768053328	1.8988782	1.3779979
33.724191388285746	1.8512906	1.3606215
33.74250598321054	2.030664	1.4250137
33.760821465904506	2.1500497	1.4663048
33.77913783696474	1.9613819	1.4004935
33.79745509698852	1.8869196	1.373652
33.815773246573414	2.0190067	1.4209175
33.8340922863172	2.1487598	1.4658649
33.852412216817896	2.0753303	1.4406006
33.87073303867377	1.9511051	1.3968196
33.889054752483304	1.8169105	1.3479283
33.907377358845245	1.8427037	1.3574623
33.92570085835853	1.9168929	1.384519
33.94402525162239	1.9094695	1.3818356
33.96235053923627	1.8877608	1.3739581
33.980676721799824	1.8762562	1.369765
33.999003799912984	1.8777179	1.3702985
34.01733177417592	1.8121762	1.3461709
34.03566064518901	1.8345373	1.354451
34.0539904135529	1.8368311	1.3552974
34.07232107986846	1.8888868	1.3743678
34.090652644736785	1.9419748	1.3935475
34.108985108759235	1.8456308	1.3585399
34.12731847253742	1.8300188	1.3527819
34.14565273667313	1.9460164	1.3949969
34.16398790176847	1.9015442	1.3789649
34.18232396842574	1.8410114	1.3568387
34.20066093724749	1.8475777	1.3592563
34.21899880883651	1.9332528	1.3904146
34.23733758379583	2.0678046	1.4379863
34.25567726272874	2.0879555	1.444976
34.27401784623872	1.9511503	1.3968358
34.29235933492957	1.9408498	1.3931439
34.31070172940526	1.9567164	1.3988268
34.32904503027003	1.9980294	1.4135166
34.347389238128386	2.0246706	1.4229093
34.36573435358502	2.0320544	1.4255015
34.38408037724492	2.0355244	1.426718
34.402427309713296	2.036525	1.4270687
34.42077515159559	2.0687497	1.4383149
34.43912390349752	2.0107672	1.4180152
34.45747356602499	1.9294035	1.3890297
34.47582413978423	1.9248483	1.3873891
34.49417562538163	1.781084	1.3345726
34.51252802342388	1.8359544	1.3549739
34.53088133451789	1.9478867	1.3956671
34.54923555927084	1.9713701	1.4040549
34.567590698290104	2.1095395	1.4524254
34.58594675218336	2.176366	1.4752512
34.6043037215585	2.0458689	1.4303387
34.62266160702365	1.9954348	1.4125986
34.641020409187234	1.987402	1.4097525
34.65938012865785	1.9477395	1.3956144
34.677740766044394	2.005018	1.4159865
34.69610232195598	2.0207837	1.4215428
34.714464797002016	2.001964	1.4149078
34.73282819179208	1.8544041	1.361765
34.751192506936064	1.8620741	1.3645784
34.76955774304408	2.0428112	1.4292694
34.7879239007265	2.1888957	1.4794917
34.80629098059391	2.1799295	1.4764584
34.824658983257194	2.1345274	1.4610022
34.843027909327446	2.0594723	1.4350861
34.86139775941603	1.9656447	1.4020145
34.879768534134534	1.9619929	1.4007115
34.89814023409483	2.1304362	1.4596014
34.91651285990901	2.200185	1.4833021
34.93488641218944	2.0892577	1.4454265
34.95326089154871	1.8915035	1.3753194
34.97163629859967	1.8723514	1.368339
34.99001263395542	1.9604015	1.4001434
35.00838989822934	2.0748975	1.4404504
35.02676809203499	1.9490316	1.3960772
35.04514721598624	1.8560889	1.3623835
35.063527270697215	1.8860065	1.3733195
35.081908256782256	1.9827797	1.4081122
35.10029017485597	2.0633562	1.4364387
35.11867302553321	2.0351014	1.4265698
35.137056809429104	1.8975523	1.3775167
35.155441527159006	1.7997116	1.3415333
35.173827179338524	1.9625288	1.4009029
35.19221376658354	2.1131558	1.4536698
35.21060128951017	2.3487313	1.5325571
35.2289897487348	2.361726	1.5367908
35.24737914487405	2.026385	1.4235115
35.26576947854479	1.8215849	1.349661
35.28416075036418	1.8836488	1.3724608
35.30255296094958	1.6694112	1.2920569
35.32094611091867	1.7749552	1.3322744
35.33934020088932	2.1557002	1.4682302
35.35773523147969	2.1999936	1.4832375
35.3761312033082	2.0407453	1.4285465
35.394528116993506	2.0658667	1.4373124
35.41292597315452	2.096237	1.4478387
35.431324772410434	2.256981	1.5023252
35.449724515380666	2.5174744	1.5866551
35.46812520268491	2.7171974	1.6483923
35.486526834943106	2.4883912	1.5774635
35.504929412775454	2.4021316	1.5498811
35.52333293680242	2.528712	1.5901924
35.54173740764471	2.3207486	1.5234003
35.560142825923286	1.8485537	1.3596152
35.5785491922594	1.0960946	1.0469453
35.59695650727454	0.49885166	0.7062943
35.61536477159042	0.6149216	0.7841694
