0.008763373481513119	0.56609195	0.7523908
0.026290120649546365	0.18888974	0.43461448
0.043816868432600686	0.0908709	0.30144802
0.06134361724069026	0.0	0.0
0.07887036748382949	0.025947431	0.16108206
0.0963971195720331	0.053569306	0.23145044
0.11392387391531617	0.1252342	0.35388446
0.1314506309236943	0.13970882	0.37377644
0.1489773910071836	0.21708554	0.46592438
0.16650415457580078	0.23555414	0.4853392
0.18403092203956356	0.21487433	0.46354538
0.20155769380849	0.16139613	0.4017414
0.2190844702925996	0.1100138	0.33168328
0.2366112519019124	0.1185185	0.34426516
0.2541380390464497	0.1301254	0.36072898
0.27166483213623416	0.13526294	0.3677811
0.28919163158128947	0.121510684	0.34858382
0.3067184377916406	0.11532408	0.339594
0.324245251177314	0.08877091	0.2979445
0.34177207214833777	0.110325865	0.33215338
0.3592989011147415	0.10763733	0.32808128
0.37682573848655654	0.096446685	0.31055868
0.39435258467381573	0.13290414	0.36456022
0.41187944008655414	0.13408014	0.36616954
0.42940630513480854	0.11965251	0.34590822
0.446933180228618	0.108544625	0.32946113
0.4644600657780234	0.095554225	0.30911845
0.48198696219306775	0.14131004	0.37591228
0.49951386988379676	0.19236204	0.43859097
0.5170407892602581	0.21366331	0.4622373
0.5345677207325025	0.22286387	0.4720846
0.5520946647105822	0.20011781	0.4473453
0.5696216216045534	0.17617893	0.41973674
0.5871485918244737	0.121618845	0.34873894
0.6046755757804043	0.10351062	0.32173067
0.6222025738824094	0.11925883	0.3453387
0.6397295865405557	0.13986792	0.3739892
0.6572566141649129	0.16708586	0.40876138
0.6747836571655547	0.16402133	0.40499547
0.6923107159525568	0.1699473	0.41224664
0.7098377909359992	0.16771056	0.4095248
0.7273648825259653	0.1736929	0.4167648
0.7448919911325411	0.17894605	0.42302015
0.762419117165817	0.19094639	0.43697414
0.7799462610358868	0.2017942	0.4492151
0.7974734231528482	0.21085344	0.4591878
0.8150006039268024	0.2141728	0.46278808
0.8325278037678551	0.19929877	0.4464289
0.8500550230861152	0.18670602	0.43209493
0.8675822622916969	0.1674885	0.4092536
0.8851095217947171	0.19020957	0.43613023
0.9026368020052984	0.18976748	0.43562308
0.9201641033335665	0.1929053	0.43920988
0.9376914261896523	0.18650958	0.43186754
0.9552187709836915	0.16333674	0.4041494
0.9727461381258234	0.17813878	0.4220649
0.990273528026193	0.17673278	0.42039597
1.0078009410949496	0.21282244	0.46132684
1.0253283777422473	0.27142373	0.5209834
1.0428558383782454	0.2774956	0.5267785
1.0603833234131086	0.3195929	0.5653255
1.0779108332570058	0.36657715	0.6054562
1.0954383683201119	0.37702215	0.6140213
1.112965929012607	0.38988617	0.62440866
1.1304935157446763	0.46861812	0.6845569
1.1480211289265108	0.4928094	0.70200384
1.1655487689683062	1.3361543	1.1559215
1.1830764362802655	1.5925409	1.2619592
1.200604131272596	2.0690625	1.4384236
1.2181318543555117	2.556566	1.5989265
1.235659605939232	2.566197	1.6019354
1.253187386433982	3.934519	1.9835622
1.270715196249994	6.1033006	2.470486
1.2882430357975057	11.668739	3.4159536
1.3057709054867608	16.74239	4.0917463
1.3232988057280106	23.029564	4.798913
1.3408267369315112	27.882175	5.2803574
1.358354699507526	31.472704	5.610054
1.3758826938663256	35.009693	5.9168987
1.3934107204181858	36.97611	6.080798
1.410938779573391	37.729588	6.1424413
1.4284668717422309	38.84886	6.2328854
1.4459949973350033	38.202576	6.1808233
1.4635231567620117	38.258118	6.1853147
1.4810513504335687	37.637756	6.1349616
1.4985795787599925	37.082767	6.089562
1.5161078421516088	36.419376	6.034847
1.5336361410187505	35.422077	5.951645
1.5511644757717598	35.06537	5.921602
1.5686928468209842	35.86117	5.98842
1.58622125457678	36.113197	6.0094256
1.6037496994495108	37.26538	6.104538
1.621278181849548	37.258785	6.1039977
1.6388067021872719	38.281322	6.18719
1.6563352608730693	37.964558	6.1615386
1.673863858317336	37.134613	6.0938177
1.6913924949304753	36.36778	6.0305705
1.7089211711228998	35.231766	5.935635
1.7264498873050296	34.101208	5.839624
1.7439786438872935	33.052296	5.7491126
1.7615074412801288	32.079308	5.66386
1.779036279893981	31.923038	5.650048
1.796565160139305	30.839737	5.553354
1.814094082426564	30.280079	5.5027337
1.8316230471662298	29.044146	5.389262
1.849152054768784	28.20551	5.310886
1.8666811056447168	27.779001	5.270579
1.8842102002045273	27.215706	5.2168674
1.901739338858724	26.71882	5.169025
1.9192685220178245	25.872547	5.0865064
1.9367977500923557	25.02722	5.0027213
1.9543270234928547	24.424065	4.942071
1.971856342629867	23.874989	4.886204
1.9893857079139496	23.237343	4.820513
2.006915119755667	22.722542	4.7668166
2.0244445785655945	22.195652	4.711226
2.0419740847543175	22.039415	4.6946154
2.0595036387324317	21.834675	4.6727586
2.0770332409105414	21.305565	4.615795
2.094562891699263	21.116463	4.5952654
2.1120925915092217	20.624468	4.541417
2.129622340751053	20.39735	4.5163426
2.1471521398354043	188.53378	13.730761
2.1646819891729323	444.78726	21.089981
2.182211889174303	440.6977	20.992802
2.1997418402501974	453.01746	21.284206
2.2172718428113023	432.93347	20.807053
2.234801897268317	321.0136	17.916853
2.2523320040319548	17.435936	4.175636
2.269862163512935	17.02434	4.126056
2.287392376121992	16.727371	4.089911
2.304922642269869	16.428745	4.053239
2.322452962367322	16.188553	4.0235
2.3399833368251164	15.833196	3.9790947
2.357513766054032	15.590349	3.9484615
2.3750442504648586	15.070069	3.8820188
2.3925747904683963	14.844214	3.852819
2.410105386475459	14.6587515	3.8286748
2.4276360388968707	14.481871	3.8055053
2.445166748143469	14.1722355	3.764603
2.4626975146261025	13.768237	3.7105575
2.4802283387556323	13.651218	3.6947556
2.4977592209429305	13.425958	3.664145
2.5152901615988825	13.271414	3.642995
2.5328211611343865	13.027544	3.609369
2.5503522199603523	12.791566	3.57653
2.5678833384877024	12.60824	3.5508084
2.5854145171273712	12.347929	3.513962
2.6029457562903064	12.095649	3.47788
2.620477056387469	11.828768	3.4392977
2.6380084178298326	11.49906	3.3910263
2.655539841028383	11.338219	3.367227
2.673071326394119	11.35391	3.3695564
2.6906028743380523	11.265296	3.3563814
2.708134485271211	11.0220785	3.3199515
2.7256661596046325	10.732818	3.276098
2.743197897749369	10.47908	3.2371407
2.760729700116486	10.516067	3.2428486
2.778261567117063	10.382635	3.2222097
2.795793499162193	10.33191	3.2143288
2.8133254966629817	10.1552	3.1867225
2.830857560030551	10.001495	3.162514
2.8483896896760337	9.944438	3.1534803
2.865921886010578	9.842356	3.1372528
2.883454149445347	9.758242	3.1238184
2.9009864803915177	9.659585	3.1079874
2.91851887926028	9.531893	3.0873764
2.9360513464628384	9.357038	3.0589275
2.953583882410413	9.133162	3.0221121
2.9711164875142373	8.960335	2.9933817
2.9886491621855606	8.915269	2.9858449
3.0061819068356455	8.781376	2.9633386
3.023714721875769	8.696109	2.9489164
3.041247607717225	8.4251375	2.9026086
3.0587805647713213	8.191689	2.8621125
3.0763135934493806	8.14899	2.8546436
3.0938466941627407	7.965044	2.822241
3.1113798673227544	7.966269	2.822458
3.1289131133407904	7.8439984	2.800714
3.1464464326282315	7.7700043	2.7874727
3.1639798255964786	7.692912	2.7736099
3.1815132926569443	7.696265	2.7742143
3.1990468342210603	7.633602	2.7628975
3.216580450700272	7.5030026	2.739161
3.2341141425060416	7.3578944	2.712544
3.251647910049847	7.3302884	2.7074506
3.2691817537431813	7.257493	2.6939735
3.286715673997555	7.263705	2.695126
3.3042496712244938	7.1571913	2.6752927
3.32178374583554	7.090817	2.6628587
3.339317898242251	6.9547014	2.6371768
3.3568521288562034	6.8752627	2.6220722
3.3743864380889876	6.805576	2.6087499
3.3919208263522127	6.781562	2.6041431
3.4094552940575023	6.8078213	2.6091802
3.4269898416164972	6.763166	2.6006088
3.444524469440858	6.6926126	2.5870085
3.4620591779422587	6.650463	2.578849
3.479593967532391	6.640331	2.576884
3.4971288386229658	6.5047607	2.5504432
3.5146637916257086	6.4588704	2.5414307
3.5321988269523628	6.5313044	2.5556417
3.5497339450146903	6.5221972	2.5538592
3.5672691462244708	6.418442	2.5334644
3.5848044309934988	6.348973	2.5197167
3.60233979973359	6.3718543	2.5242531
3.619875252856575	6.475684	2.5447366
3.6374107907743034	6.4650435	2.542645
3.6549464138986427	6.3647847	2.5228524
3.6724821226414788	6.3743706	2.5247517
3.690017917414714	6.3914213	2.528126
3.7075537986302702	6.4197373	2.53372
3.7250897667000857	6.419482	2.5336697
3.7426258220361235	6.5320916	2.5557957
3.7601619650503553	6.873574	2.62175
3.777698196154779	7.514953	2.7413416
3.7952345157614067	8.567662	2.927057
3.8127709242822716	9.351875	3.0580835
3.830307422129425	11.363884	3.371036
3.847844009714936	30.129507	5.489035
3.8653806874508954	97.60004	9.879273
3.882917455749409	96.95605	9.846626
3.900454315022606	96.63773	9.830449
3.917991265682631	41.18538	6.4175835
3.9355283081416506	10.817949	3.2890651
3.9530654428118495	8.728225	2.954357
3.970602670105433	7.5386887	2.7456672
3.9881399904346244	6.614908	2.5719464
4.005677404211669	6.5462832	2.5585706
4.023214911848827	6.432106	2.5361598
4.0407525137583855	6.504055	2.550305
4.058290210352644	6.5067406	2.5508313
4.075828002043927	6.48834	2.547222
4.0933658892445814	6.4286733	2.535483
4.110903872366966	6.3682785	2.5235448
4.128441951823468	6.3073716	2.5114481
4.145980128026488	6.308525	2.5116777
4.163518401388452	6.214143	2.4928184
4.181056772321807	6.138309	2.477561
4.1985952412390155	6.0551257	2.4607165
4.216133808552567	6.124822	2.4748378
4.233672474674966	6.2044454	2.4908724
4.251211240018741	6.553215	2.5599248
4.268750104996445	6.8769374	2.6223915
4.286289070020643	7.9068785	2.8119173
4.303828135503928	9.453146	3.074597
4.3213673018589125	29.576336	5.438413
4.3389065694982305	90.63407	9.520193
4.356445938834537	165.90761	12.880513
4.3739854102805085	171.91249	13.111541
4.391524984248844	172.72035	13.142311
4.409064661152262	136.59341	11.687319
4.426604441403504	96.79246	9.838316
4.444144325415337	75.61806	8.695865
4.461684313600543	21.949686	4.685049
4.47922440637193	22.20056	4.711747
4.496764604142329	20.563232	4.53467
4.5143049073245916	18.684893	4.3226027
4.531845316331589	16.45225	4.056137
4.5493858315762195	13.677718	3.69834
4.566926453471405	11.365524	3.3712792
4.584467182430081	9.483705	3.0795624
4.602008018865218	8.370927	2.8932555
4.619548963189798	7.68707	2.7725565
4.637090015816834	7.1851277	2.6805089
4.654631177159353	6.7770457	2.603276
4.672172447630417	6.4221354	2.5341933
4.689713827643102	6.2124987	2.4924884
4.7072553176105085	6.0501637	2.459708
4.724796917945764	5.9202104	2.4331481
4.742338629062015	5.84706	2.4180696
4.759880451372434	5.7952423	2.407331
4.777422385290215	5.6862745	2.384591
4.794964431228581	5.65312	2.377629
4.812506589600768	5.646965	2.3763344
4.830048860820047	5.65521	2.3780684
4.847591245299709	5.633715	2.373545
4.8651337434530655	5.62069	2.3707993
4.882676355693457	5.5622473	2.3584416
4.900219082434242	5.591494	2.364634
4.917761924088813	5.5808687	2.3623862
4.935304881070575	5.5433507	2.354432
4.952847953792969	5.558264	2.357597
4.970391142669449	5.4692574	2.3386443
4.9879344481135055	5.538394	2.3533792
5.005477870538642	5.498141	2.3448114
5.023021410358394	5.4785237	2.3406246
5.040565067986324	5.40714	2.3253257
5.05810884383601	5.327116	2.3080547
5.075652738321066	5.3566027	2.3144336
5.09319675185512	5.3813195	2.3197672
5.110740884851836	5.4199333	2.328075
5.128285137724894	5.387968	2.3211997
5.145829510888007	5.363506	2.3159244
5.163374004754908	5.367098	2.3166997
5.1809186197393595	5.3252764	2.307656
5.198463356255145	5.2991962	2.3019984
5.216008214716077	5.3074646	2.3037934
5.233553195535998	5.3052053	2.3033032
5.251098299128764	5.3005304	2.302288
5.268643525908272	5.251219	2.2915537
5.286188876288432	5.3171926	2.305904
5.3037343506831895	5.3012633	2.3024473
5.32127994950651	5.3387246	2.310568
5.3388256731723915	5.2310295	2.2871444
5.356371522094851	5.2561173	2.2926223
5.373917496687938	5.2327847	2.287528
5.391463597365729	5.273254	2.2963567
5.40900982454232	5.3213854	2.3068128
5.426556178631843	5.332615	2.3092456
5.444102660048449	5.3823366	2.3199863
5.4616492692063225	5.337851	2.310379
5.479196006519669	5.2743	2.2965844
5.496742872402727	5.2681093	2.295236
5.514289867269756	5.311385	2.3046443
5.531836991535049	5.2534857	2.2920485
5.549384245612924	5.2512264	2.2915554
5.566931629917724	5.2479453	2.2908394
5.584479144863822	5.1858654	2.2772496
5.6020267908656205	5.188174	2.2777562
5.619574568337545	5.1801267	2.275989
5.637122477694054	5.171357	2.274062
5.654670519349629	5.251055	2.291518
5.672218693718784	5.2038975	2.2812052
5.689767001216059	5.1932406	2.2788682
5.707315442256021	5.199956	2.2803411
5.724864017253266	5.272728	2.2962422
5.7424127266224225	5.2882285	2.299615
5.75996157077814	5.286262	2.2991872
5.777510550135105	5.2321954	2.2873993
5.795059665108022	5.2530217	2.2919471
5.812608916111639	5.2758846	2.2969294
5.830158303560715	5.356205	2.3143477
5.847707827870055	5.3313756	2.3089771
5.86525748945448	5.374533	2.318304
5.8828072887288485	5.5077586	2.3468614
5.900357226108044	5.567003	2.3594496
5.917907302006979	5.7280903	2.393343
5.9354575168406	6.2142596	2.4928417
5.9530078710238765	6.833013	2.6140032
5.970558364971812	7.361514	2.713211
5.988108999099438	7.710146	2.776715
6.005659773821818	8.291286	2.8794594
6.023210689554039	7.9471407	2.8190672
6.040761746711227	8.32227	2.8848345
6.058312945708531	7.699485	2.7747946
6.075864286961132	7.172362	2.6781266
6.093415770884244	6.595613	2.5681925
6.1109673978931065	6.0816298	2.4660962
6.128519168402993	5.499264	2.3450508
6.146071082829204	5.3321166	2.3091376
6.163623141587075	5.2249103	2.2858062
6.181175345091969	5.219744	2.2846758
6.198727693759281	5.239294	2.2889504
6.216280188004435	5.2504478	2.2913857
6.233832828242885	5.1718225	2.2741642
6.251385614890126	5.112688	2.2611253
6.268938548361669	5.075174	2.2528148
6.286491629073067	5.1060715	2.259662
6.304044857439898	5.1362185	2.2663226
6.321598233877777	5.1682057	2.2733688
6.339151758802344	5.110097	2.2605524
6.356705432629277	5.078638	2.2535834
6.37425925577428	4.9875855	2.2332902
6.391813228653095	4.9615965	2.2274642
6.409367351681486	5.004314	2.2370324
6.426921625275259	5.018026	2.2400951
6.44447604985025	5.0666943	2.250932
6.46203062582232	5.0043597	2.2370427
6.47958535360737	4.958793	2.2268348
6.497140233621328	4.965266	2.2282877
6.514695266280161	5.0131116	2.238998
6.532250451999859	5.0576425	2.2489202
6.549805791196454	5.0770454	2.25323
6.567361284286002	5.071786	2.2520626
6.584916931684597	5.040818	2.2451766
6.602472733808367	5.054867	2.2483032
6.6200286910734665	5.0552273	2.2483833
6.637584803896092	5.021212	2.240806
6.655141072692462	5.028778	2.2424936
6.672697497878842	5.0350785	2.2438982
6.690254079871514	5.0342073	2.2437038
6.707810819086808	5.002248	2.2365706
6.725367715941078	5.0092616	2.238138
6.742924770850719	5.02165	2.2409039
6.760481984232151	5.1041627	2.2592394
6.778039356501836	5.1442747	2.2680993
6.795596888076266	5.140115	2.267182
6.813154579371963	5.0878434	2.2556248
6.830712430805492	5.0301003	2.2427886
6.84827044279344	5.058867	2.2491925
6.865828615752445	5.092528	2.256663
6.883386950099159	5.1376147	2.2666306
6.900945446250287	5.0834613	2.2546532
6.918504104622553	5.0062923	2.2374744
6.936062925632727	5.0465574	2.2464545
6.953621909697607	5.0957174	2.2573695
6.971181057234028	5.1531467	2.2700543
6.988740368658859	5.1759357	2.2750683
7.006299844389007	5.1937227	2.278974
7.023859484841407	5.241296	2.2893877
7.041419290433036	5.3220296	2.3069525
7.058979261580902	5.481256	2.3412082
7.0765393987020495	5.7773924	2.4036207
7.094099702213559	6.192225	2.488418
7.111660172532549	6.5152273	2.5524943
7.129220810076164	6.861869	2.6195168
7.146781615261595	7.470777	2.7332723
7.16434258850606	7.7078185	2.776296
7.181903730226821	8.142468	2.853501
7.1994650408411704	8.278914	2.8773103
7.217026520766437	8.362314	2.8917665
7.234588170419983	8.603288	2.9331362
7.252149990219215	8.484194	2.9127638
7.269711980581568	8.360522	2.8914568
7.2872741419245175	8.128847	2.8511133
7.304836474665574	7.7791586	2.7891142
7.322398979222286	7.507484	2.7399788
7.339961656012233	7.267716	2.6958702
7.357524505453039	6.8859296	2.6241055
7.375087527962357	6.572182	2.5636268
7.392650723957886	6.3566523	2.5212402
7.410214093857353	6.022703	2.4541197
7.427777638078528	5.7898417	2.406209
7.445341357039213	5.534596	2.3525722
7.4629052511572525	5.3478165	2.3125346
7.480469320850524	5.2616825	2.2938359
7.498033566536948	5.260912	2.2936678
7.5155979886344735	5.2896066	2.2999144
7.5331625875610975	5.314284	2.305273
7.550727363734844	5.2808228	2.2980042
7.568292317573788	5.245949	2.2904036
7.585857449496025	5.2375436	2.288568
7.603422759919705	5.2046494	2.2813702
7.620988249263007	5.2485595	2.2909734
7.638553917944147	5.2788305	2.2975705
7.656119766381391	5.3184967	2.3061867
7.673685794993023	5.2594056	2.2933395
7.691252004197388	5.204427	2.2813213
7.70881839441285	5.166445	2.2729814
7.726384966057826	5.149705	2.2692962
7.743951719550762	5.1389737	2.2669303
7.761518655310149	5.1928535	2.2787833
7.779085773754511	5.311709	2.3047144
7.796653075302419	5.327848	2.3082132
7.814220560372475	5.3658123	2.3164222
7.831788229383323	5.377067	2.3188503
7.8493560827536495	5.3353877	2.309846
7.866924120902174	5.366615	2.3165956
7.884492344247663	5.417485	2.3275492
7.9020607532089135	5.472874	2.3394175
7.919629348204771	5.458972	2.3364444
7.937198129654115	5.3882594	2.3212624
7.954767097975865	5.360543	2.3152845
7.972336253588986	5.4090858	2.3257442
7.989905596912472	5.438352	2.3320274
8.007475128365371	5.434304	2.3311594
8.025044848366756	5.4298267	2.3301988
8.042614757335754	5.5445065	2.3546777
8.060184855691523	5.621212	2.3709095
8.07775514385327	5.7424808	2.3963473
8.095325622240228	5.7785006	2.4038513
8.112896291271687	5.8496447	2.418604
8.130467151366968	5.9351997	2.4362266
8.148038202945436	6.0183625	2.4532351
8.165609446426497	6.029301	2.4554636
8.183180882229594	6.0773215	2.4652224
8.200752510774217	6.074885	2.464728
8.218324332479893	6.162789	2.4824965
8.235896347766193	6.1684766	2.4836419
8.253468557052724	6.121033	2.4740722
8.27104096075914	6.1020503	2.4702327
8.288613559305137	6.10999	2.4718394
8.306186353110448	6.2210827	2.4942098
8.32375934259485	6.2982078	2.509623
8.341332528178162	6.365271	2.522949
8.358905910280246	6.3578625	2.5214803
8.376479489321003	6.296519	2.5092864
8.394053265720377	6.266287	2.5032554
8.411627239898356	6.2299137	2.4959795
8.42920141227497	6.282029	2.5063977
8.44677578327029	6.339323	2.5178013
8.464350353304427	6.3486943	2.5196617
8.48192512279754	6.29831	2.5096433
8.499500092169827	6.168011	2.4835482
8.51707526184153	6.1705527	2.4840598
8.534650632232934	6.160732	2.4820821
8.552226203764365	6.2267284	2.4953413
8.569801976856192	6.2375956	2.4975178
8.587377951928834	6.264106	2.5028195
8.60495412940274	6.3335567	2.516656
8.622530509698416	6.3893514	2.5277166
8.6401070932364	6.5405674	2.5574534
8.657683880437283	6.685812	2.5856936
8.675260871721695	6.860864	2.6193252
8.692838067510303	6.9387574	2.6341522
8.710415468223834	7.0492826	2.6550486
8.727993074283043	7.1572385	2.6753016
8.745570886108737	7.1862283	2.6807141
8.763148904121765	7.2627664	2.694952
8.78072712874302	7.3063765	2.703031
8.798305560393441	7.5230327	2.7428148
8.815884199494006	7.64121	2.764274
8.833463046465745	7.856135	2.8028798
8.851042101729728	8.008752	2.829974
8.86862136570707	8.3600445	2.891374
8.886200838818924	8.449706	2.9068377
8.903780521486505	8.467257	2.9098551
8.921360414131055	8.523098	2.9194345
8.938940517173874	8.718478	2.9527068
8.956520831036297	8.835322	2.9724271
8.97410135613971	9.058313	3.0097032
8.99168209290554	9.229753	3.038051
9.009263041755265	9.467403	3.0769145
9.026844203110405	9.774911	3.1264853
9.044425577392525	9.929296	3.1510785
9.062007165023239	9.949858	3.1543396
9.079588966424197	10.157262	3.187046
9.097170982017108	10.226516	3.1978924
9.11475321222372	11.17808	3.3433635
9.132335657465825	12.017374	3.4666085
9.149918318165264	12.125054	3.4821048
9.167501194743924	12.680468	3.5609643
9.18508428762374	12.414624	3.5234392
9.202667597226693	12.405587	3.5221567
9.220251123974803	12.111018	3.4800887
9.237834868290143	11.78583	3.4330497
9.255418830594836	11.6345415	3.4109445
9.273003011311046	11.212705	3.3485377
9.290587410860985	11.091884	3.330448
9.308172029666911	10.4007845	3.2250247
9.32575686815113	10.1618805	3.1877704
9.343341926735997	8.878368	2.979659
9.360927205843916	8.626875	2.9371543
9.378512705897327	8.437439	2.904727
9.396098427318728	8.181036	2.860251
9.413684370530664	8.134166	2.8520458
9.431270535955722	8.058349	2.8387232
9.448856924016539	7.997981	2.8280702
9.466443535135806	7.8542476	2.8025432
9.484030369736251	7.827	2.7976775
9.501617428240658	7.812832	2.7951443
9.519204711071852	7.7827024	2.7897496
9.536792218652714	7.82544	2.7973988
9.55437995140617	7.870905	2.8055134
9.571967909755191	7.9881854	2.8263378
9.589556094122802	8.011808	2.8305137
9.60714450493207	8.105447	2.8470066
9.624733142606116	8.068026	2.840427
9.642322007568108	8.090754	2.844425
9.659911100241267	8.10235	2.8464627
9.677500421048851	8.06055	2.8391106
9.695089970414175	8.104183	2.8467848
9.712679748760609	8.055552	2.8382304
9.730269756511557	8.123543	2.850183
9.747859994090492	8.141773	2.8533792
9.765450461920915	8.178484	2.8598049
9.78304116042639	8.237919	2.8701775
9.800632090030527	8.239418	2.8704386
9.81822325115699	8.286062	2.8785522
9.835814644229481	8.207262	2.864832
9.853406269671762	8.204143	2.8642874
9.870998127907646	8.165982	2.8576183
9.888590219360985	8.23041	2.868869
9.906182544455698	8.23969	2.870486
9.923775103615734	8.333343	2.8867528
9.941367897265108	8.450924	2.9070473
9.958960925827878	8.501618	2.9157536
9.97655418972816	8.51793	2.9185493
9.994147689390106	8.461368	2.908843
10.011741425237934	8.403785	2.8989282
10.029335397695904	8.344342	2.8886576
10.04692960718833	8.270145	2.875786
10.06452405413958	8.2133875	2.8659008
10.082118738974064	8.152606	2.8552768
10.099713662116246	8.159204	2.856432
10.117308823990651	8.205939	2.8646011
10.134904225021844	8.182154	2.8604465
10.152499865634445	8.221793	2.867367
10.170095746253125	8.217572	2.8666308
10.18769186730261	8.181063	2.8602557
10.205288229207675	8.147747	2.854426
10.222884832393145	8.176401	2.8594408
10.2404816772839	8.158656	2.856336
10.258078764304868	8.163135	2.85712
10.275676093881035	8.154312	2.8555756
10.293273666437438	8.121241	2.8497791
10.310871482399158	8.187072	2.861306
10.32846954219134	8.21191	2.865643
10.346067846239173	8.2181225	2.8667269
10.363666394967908	8.184677	2.8608875
10.38126518880283	8.146605	2.8542256
10.398864228169298	8.185501	2.8610315
10.416463513492713	8.210179	2.865341
10.434063045198531	8.251153	2.872482
10.451662823712262	8.290887	2.87939
10.469262849459467	8.35377	2.890289
10.486863122865758	8.267864	2.8753893
10.504463644356806	8.135942	2.8523574
10.522064414358338	7.94892	2.819383
10.539665433296118	7.8404994	2.8000891
10.557266701595987	7.7839947	2.7899811
10.574868219683818	7.714176	2.7774405
10.592469987985552	7.7073207	2.7762063
10.610072006927185	7.6571703	2.7671592
10.627674276934751	7.6276317	2.7618167
10.64527679843435	7.4799485	2.7349494
10.662879571852143	7.356432	2.7122743
10.680482597614331	7.2171626	2.6864777
10.698085876147173	7.1179857	2.6679554
10.715689407876988	7.0204124	2.649606
10.733293193230146	6.9469123	2.6356995
10.750897232633072	6.8374705	2.6148558
10.76850152651225	6.7598658	2.5999742
10.786106075294207	6.6453876	2.577865
10.803710879405534	6.5605845	2.5613637
10.821315939272877	6.470508	2.5437193
10.83892125532294	6.4414873	2.5380085
10.856526827982472	6.3406887	2.5180724
10.874132657678285	6.361334	2.5221684
10.891738744837243	6.295907	2.5091646
10.909345089886271	6.2022	2.4904215
10.926951693252343	6.1276455	2.475408
10.944558555362494	6.0552387	2.4607394
10.96216567664381	5.937897	2.43678
10.979773057523436	5.8379207	2.416179
10.997380698428573	5.788959	2.4060256
11.014988599786477	5.7527666	2.3984926
11.032596762024461	5.721325	2.3919291
11.050205185569892	5.6431556	2.3755326
11.067813870850198	5.58991	2.364299
11.085422818292859	5.521462	2.3497791
11.10303202832541	5.447493	2.3339865
11.120641501375454	5.414931	2.3270004
11.138251237870636	5.431193	2.330492
11.155861238238671	5.371546	2.3176596
11.173471502907317	5.274784	2.2966897
11.191082032304402	5.202014	2.2807925
11.208692826857805	5.140156	2.2671912
11.226303886995465	5.0782285	2.2534926
11.243915213145371	5.074285	2.2526174
11.261526805735578	5.0353966	2.243969
11.279138665194196	4.946508	2.2240746
11.296750791949393	4.80382	2.191762
11.314363186429393	4.6836267	2.1641688
11.331975849062479	4.646961	2.1556811
11.34958878027699	4.605652	2.1460783
11.36720198050133	4.5964823	2.143941
11.384815450163948	4.556946	2.1347003
11.402429189693366	4.531321	2.12869
11.420043199518153	4.5140815	2.124637
11.437657480066942	63.46453	7.966463
11.455272031768422	85.19082	9.229887
11.472886855051353	107.59451	10.372778
11.490501950344528	99.23859	9.961857
11.508117318076819	84.55918	9.195606
11.52573295867715	45.882294	6.773647
11.543348872574514	4.154069	2.0381534
11.560965060197946	4.0790167	2.0196576
11.57858152197655	4.077827	2.019363
11.59619825833949	4.0548882	2.0136752
11.613815269715985	4.0370574	2.009243
11.631432556535323	38.568428	6.2103486
11.649050119226837	83.08082	9.114868
11.666667958219929	93.44634	9.666765
11.68428607394406	107.716156	10.378639
11.701904466828756	82.527725	9.084477
11.719523137303586	65.367584	8.085022
11.737142085798196	4.620971	2.1496444
11.754761312742286	3.7677886	1.9410793
11.772380818565619	3.8002675	1.9494275
11.790000603698015	3.746863	1.9356815
11.80762066856935	3.6615393	1.9135149
11.825241013609572	3.5917225	1.895184
11.842861639248683	3.5252056	1.8775531
11.860482545916748	3.5220969	1.8767251
11.878103734043883	3.4915931	1.8685805
11.895725204060282	3.4710114	1.863065
11.91334695639619	3.459227	1.8598998
11.930968991481919	3.4445713	1.8559556
11.948591309747824	3.4423227	1.8553498
11.966213911624347	3.395892	1.8427945
11.98383679754198	3.366898	1.8349109
12.001459967931268	3.3758872	1.8373587
12.019083423222835	3.3211157	1.8223928
12.036707163847352	3.2596588	1.8054525
12.05433119023556	3.204107	1.790002
12.071955502818259	3.194574	1.7873372
12.089580102026313	3.2089806	1.7913628
12.107204988290643	3.2178545	1.7938379
12.12483016204224	3.2073505	1.7909077
12.142455623712152	3.2365665	1.799046
12.16008137373149	3.2154474	1.7931669
12.177707412531431	3.166227	1.7793895
12.19533374054321	3.1194277	1.7661902
12.212960358198126	3.0958266	1.7594961
12.230587265927545	3.060925	1.74955
12.248214464162889	3.021508	1.7382486
12.265841953335649	3.023599	1.7388499
12.283469733877375	3.0071433	1.7341117
12.301097806219685	3.034853	1.742083
12.31872617079425	3.0262024	1.7395984
12.336354828032825	3.0274944	1.7399696
12.353983778367205	3.0023263	1.7327222
12.371613022229262	2.9924376	1.7298664
12.389242560050928	2.9911227	1.7294862
12.406872392264201	2.9655094	1.7220654
12.424502519301143	2.921332	1.7091904
12.442132941593874	2.8791397	1.6968027
12.459763659574586	2.8550162	1.6896794
12.477394673675532	2.860283	1.6912371
12.49502598432903	2.9015615	1.703397
12.51265759196746	2.8871589	1.6991642
12.530289497023267	2.8754027	1.6957012
12.547921699928967	2.8299172	1.6822357
12.565554201117134	2.8338363	1.6834003
12.583187001020404	2.8456967	1.6869193
12.600820100071486	2.8428943	1.6860884
12.618453498703152	2.843066	1.6861393
12.636087197348235	2.8204746	1.6794269
12.65372119643964	2.8209243	1.6795608
12.671355496410326	2.8336833	1.6833547
12.68899009769333	2.8698568	1.6940652
12.706625000721749	2.918662	1.7084092
12.724260205928752	2.9863398	1.7281029
12.741895713747551	2.9800391	1.726279
12.759531524611454	2.997432	1.7313093
12.777167638953818	3.0101225	1.7349705
12.794804057208072	3.0014625	1.7324729
12.812440779807702	3.0439272	1.7446854
12.830077807186271	3.1721373	1.7810495
12.847715139777405	3.2741244	1.8094542
12.865352778014795	3.4751935	1.8641871
12.882990722332197	3.5543118	1.8852882
12.90062897316344	3.5873287	1.8940245
12.918267530942412	3.6706614	1.915897
12.935906396103071	3.5956485	1.8962195
12.953545569079449	3.7649355	1.9403442
12.971185050305628	3.638331	1.9074409
12.988824840215775	3.6264472	1.9043233
13.006464939244115	3.6683712	1.9152993
13.024105347824943	3.4973137	1.8701106
13.041746066392617	3.6110868	1.900286
13.05938709538157	3.4138463	1.8476597
13.077028435226296	3.4196858	1.8492392
13.094670086361363	3.2848508	1.8124157
13.112312049221401	3.1554377	1.7763551
13.129954324241112	3.0814857	1.7554162
13.147596911855258	2.8956797	1.7016697
13.165239812498685	2.9109838	1.7061605
13.182883026606293	2.8696332	1.6939992
13.200526554613058	2.8235793	1.6803509
13.218170396954017	2.7640316	1.6625377
13.235814554064284	2.6979122	1.6425322
13.253459026379034	2.718481	1.6487817
13.271103814333523	2.7056165	1.6448758
13.288748918363058	2.7330883	1.6532054
13.306394338903031	2.7374082	1.6545115
13.32404007638889	2.7725868	1.6651087
13.341686131256164	2.7720733	1.6649544
13.359332503940449	2.756016	1.6601253
13.376979194877402	2.711809	1.6467571
13.394626204502751	2.7320335	1.6528864
13.412273533252307	2.7338784	1.6534444
13.429921181561937	2.752941	1.6591989
13.447569149867581	2.7454205	1.656931
13.465217438605247	2.756628	1.6603097
13.482866048211022	2.6888828	1.6397814
13.500514979121052	2.6923907	1.6408505
13.518164231771568	2.6522205	1.6285639
13.535813806598844	2.6710904	1.6343471
13.553463704039254	2.7065454	1.6451582
13.571113924529229	2.7551057	1.6598511
13.588764468505275	2.7860909	1.6691587
13.606415336403956	2.8167188	1.6783084
13.624066528661917	2.854489	1.6895233
13.641718045715882	2.8935685	1.7010492
13.659369888002635	2.9113464	1.7062668
13.67702205595903	2.9571967	1.7196501
13.694674550021993	3.030037	1.7407001
13.712327370628532	3.057853	1.7486718
13.729980518215713	3.0845425	1.7562866
13.747633993220681	3.1506855	1.775017
13.765287796080647	3.2198858	1.794404
13.7829419272329	3.2666175	1.8073786
13.800596387114801	3.2912521	1.8141809
13.818251176163775	3.3615859	1.8334628
13.835906294817324	3.4614873	1.8605072
13.853561743513023	3.509025	1.8732392
13.871217522688525	3.5172522	1.8754339
13.888873632781538	3.5382702	1.881029
13.906530074229858	3.5960488	1.8963251
13.92418684747135	3.5788167	1.8917761
13.941843952943948	3.5637257	1.8877833
13.959501391085665	3.4969487	1.870013
13.977159162334578	3.410563	1.846771
13.994817267128846	3.3819513	1.8390082
14.012475705906693	3.301681	1.8170528
14.030134479106424	3.209886	1.7916155
14.047793587166414	3.1107864	1.7637422
14.065453030525108	3.0918365	1.7583618
14.083112809621026	3.0695179	1.7520039
14.100772924892766	3.0344207	1.7419589
14.118433376778997	2.943696	1.7157203
14.136094165718458	2.8573685	1.6903752
14.153755292149969	2.7671382	1.6634717
14.171416756512416	2.7363858	1.6542025
14.189078559244768	2.678811	1.6367074
14.20674070078606	2.619117	1.6183686
14.224403181575408	2.5714152	1.6035633
14.242066002051999	2.541651	1.5942557
14.259729162655093	2.5148704	1.5858343
14.277392663824022	2.4893003	1.5777516
14.295056505998208	2.484461	1.5762173
14.312720689617128	2.4876325	1.5772231
14.330385215120348	2.480584	1.5749869
14.348050082947497	2.4236681	1.5568135
14.3657152935383	2.3707983	1.5397397
14.383380847332528	2.3631268	1.5372465
14.401046744770051	2.3825219	1.543542
14.418712986290798	2.4060533	1.5511458
14.436379572334793	2.391037	1.5462978
14.454046503342123	2.405518	1.5509733
14.471713779752946	2.4088535	1.5520482
14.489381402007504	2.3977134	1.5484551
14.507049370546113	2.3806832	1.5429462
14.524717685809168	2.3892953	1.5457345
14.542386348237134	2.3970196	1.5482311
14.560055358270553	2.4344568	1.5602746
14.577724716350051	2.478738	1.5744009
14.595394422916325	2.5070252	1.5833589
14.61306447841015	2.4859643	1.5766941
14.63073488327237	2.4554088	1.5669744
14.648405637943917	2.4738045	1.5728333
14.6660767428658	2.4772277	1.5739211
14.683748198479094	2.5091598	1.5840328
14.701420005224954	2.5224454	1.5882208
14.719092163544628	2.6088636	1.6151977
14.73676467387942	2.6421847	1.6254798
14.754437536670727	2.6889193	1.6397924
14.772110752360014	2.721514	1.6497012
14.78978432138882	2.7153063	1.6478187
14.807458244198777	2.720117	1.6492778
14.82513252123159	2.7051365	1.64473
14.842807152929028	2.7432296	1.6562698
14.860482139732962	2.6960278	1.6419585
14.87815748208531	2.6801903	1.6371287
14.8958331804281	2.670237	1.634086
14.91350923520342	2.6522627	1.6285769
14.931185646853438	2.6620126	1.6315675
14.948862415820408	2.6517687	1.6284252
14.966539542546656	2.677126	1.6361926
14.98421702747459	2.6391387	1.6245426
15.001894871046696	2.660678	1.6311585
15.019573073705542	2.691303	1.6405191
15.037251635893766	2.690063	1.6401411
15.054930558054092	2.7116113	1.646697
15.072609840629323	2.769115	1.6640658
15.090289484062351	2.890692	1.7002035
15.107969488796124	3.1527817	1.7756075
15.125649855273691	3.5523968	1.8847803
15.14333058393817	4.0673137	2.0167582
15.161011675232768	5.1303077	2.2650182
15.17869312960076	6.6107063	2.5711293
15.196374947485506	8.521111	2.919094
15.214057129330447	11.740911	3.4265013
15.231739675579114	16.48407	4.0600576
15.249422586675102	21.367832	4.622535
15.267105863062092	24.203451	4.9197
15.284789505183847	24.078436	4.906978
15.302473513484218	21.807198	4.669818
15.320157888407127	18.220785	4.2685814
15.337842630396578	14.1659355	3.763766
15.355527739896656	11.035494	3.3219714
15.37321321735153	8.578489	2.9289057
15.39089906320545	6.286987	2.5073864
15.408585277902748	4.754366	2.180451
15.42627186188783	3.72069	1.9289091
15.443958815605198	3.2557921	1.8043814
15.461646139499424	2.993768	1.7302508
15.479333834015168	2.828977	1.6819563
15.497021899597165	2.7403436	1.6553984
15.514710336690234	2.6695805	1.633885
15.53239914573928	2.60745	1.61476
15.550088327189297	2.5827994	1.6071091
15.567777881485336	2.578195	1.6056759
15.58546780907256	2.5251467	1.589071
15.6031581103962	2.480502	1.574961
15.620848785901568	2.449495	1.5650862
15.638539836034063	2.4524682	1.5660359
15.656231261239173	2.4758403	1.5734804
15.673923061962451	2.4719627	1.5722476
15.691615238649552	2.4490912	1.5649573
15.709307791746202	2.413594	1.5535746
15.727000721698221	2.38067	1.542942
15.744694028951498	2.3698292	1.5394249
15.76238771395202	2.3647153	1.5377631
15.780081777145844	2.3619373	1.5368595
15.797776218979125	2.3273935	1.5255797
15.815471039898094	2.3352773	1.5281614
15.833166240349064	2.333116	1.5274541
15.850861820778437	2.371302	1.5399032
15.868557781632699	2.376366	1.5415466
15.886254123358412	2.3576858	1.5354757
15.903950846402232	2.337669	1.5289438
15.921647951210897	2.357217	1.5353231
15.939345438231225	2.389205	1.5457053
15.957043307910133	2.414578	1.5538912
15.974741560694602	2.3783205	1.5421804
15.992440197031714	2.3968284	1.5481694
16.01013921736862	2.4242256	1.5569925
16.02783862215259	2.4436352	1.5632131
16.045538411830933	2.431912	1.5594589
16.06323858685107	2.406631	1.551332
16.080939147660512	2.3812487	1.5431296
16.09864009470684	2.3795352	1.5425742
16.11634142843774	2.389911	1.5459337
16.134043149300954	2.3685644	1.5390141
16.15174525774433	2.3558872	1.5348899
16.169447754215817	2.3967555	1.5481458
16.18715063916342	2.4521778	1.5659431
16.204853913035244	2.4747882	1.573146
16.222557576279478	2.4799292	1.5747792
16.240261629344403	22.443863	4.7374954
16.257966072678386	42.99654	6.5571747
16.275670906729868	38.11425	6.173674
16.293376131947387	2.5490878	1.5965862
16.31108174877957	2.5625725	1.6008037
16.328787757675133	2.5705755	1.6033014
16.34649415908287	2.590832	1.6096061
16.364200953451657	2.625469	1.6203299
16.38190814123048	2.675688	1.635753
16.39961572286839	2.7568183	1.6603669
16.41732369881455	2.813124	1.677237
16.43503206951817	2.8144727	1.677639
16.45274083542859	2.800438	1.673451
16.47044999699522	2.7798584	1.6672907
16.488159554667558	2.822409	1.6800027
16.505869508895184	2.8848605	1.6984878
16.523579860127786	2.9373307	1.7138642
16.541290608815117	2.9364583	1.7136097
16.559001755407035	2.963504	1.7214831
16.57671330035348	3.0475433	1.7457215
16.59442524410448	3.1530323	1.775678
16.61213758711015	3.2276752	1.7965732
16.629850329820705	3.2778194	1.8104749
16.647563472686436	3.329288	1.8246337
16.665277016157724	3.3851168	1.8398687
16.682990960685053	3.3991117	1.843668
16.70070530671898	3.3984158	1.8434793
16.718420054710155	3.3922951	1.8418185
16.736135205109335	3.4502234	1.8574777
16.753850758367335	3.5230017	1.8769661
16.771566714935087	3.608833	1.8996929
16.789283075263597	3.6779795	1.9178059
16.80699983980398	3.7375326	1.93327
16.82471700900741	3.8197734	1.954424
16.84243458332518	3.9489355	1.9871929
16.860152563208665	4.0029874	2.0007467
16.87787094910932	4.0457416	2.0114028
16.89558974147871	4.1089063	2.0270438
16.913308940768466	4.2238626	2.055204
16.931028547430333	4.297082	2.0729403
16.94874856191613	4.346326	2.0847843
16.966468984677785	4.372479	2.0910473
16.98418981616729	4.396855	2.0968678
17.00191105683676	4.4575787	2.1112978
17.019632707138374	4.515306	2.124925
17.03735476752442	4.5552707	2.134308
17.05507723844728	4.5755143	2.1390452
17.072800120359403	4.600445	2.1448648
17.090523413713353	4.5736523	2.13861
17.108247118961785	4.6221695	2.149923
17.125971236557437	4.68488	2.1644583
17.143695766953133	4.734066	2.1757908
17.161420710601806	4.7143674	2.1712594
17.179146067956477	4.6818123	2.1637497
17.19687183947025	4.6990566	2.1677308
17.21459802559634	4.7155304	2.1715271
17.232324626788028	4.665758	2.1600366
17.25005164349871	4.661744	2.1591072
17.267779076181863	4.656724	2.1579444
17.285506925291074	4.6947894	2.1667464
17.30323519127999	4.652789	2.1570325
17.320963874602384	4.6109467	2.1473114
17.33869297571211	4.5223804	2.1265888
17.356422495063114	4.5000687	2.1213365
17.37415243310944	4.4821815	2.1171162
17.391882790305218	4.542267	2.1312594
17.40961356710468	4.55959	2.1353197
17.42734476396215	4.574087	2.1387115
17.445076381332044	4.5383534	2.130341
17.462808419668868	4.6019864	2.145224
17.48054087942723	4.7204328	2.1726556
17.498273761061835	5.0575457	2.2488987
17.51600706502747	5.5765533	2.3614726
17.533740791779024	6.3232226	2.514602
17.551474941771485	7.825592	2.797426
17.56920951545993	8.940291	2.990032
17.586944513299528	11.026043	3.3205485
17.60467993574556	12.536598	3.540706
17.622415783253373	14.013119	3.74341
17.64015205627843	15.257055	3.906028
17.657888755276293	16.234667	4.029227
17.675625880702604	16.730883	4.09034
17.69336343301311	16.591505	4.073267
17.71110141266366	16.12026	4.015004
17.728839820110178	15.430433	3.928159
17.746578655808705	14.736568	3.8388238
17.764317920215372	13.216202	3.6354094
17.7820576137864	11.622213	3.4091368
17.79979773697811	9.425906	3.070164
17.81753829024692	7.5015445	2.7388947
17.835279274049356	5.800482	2.408419
17.85302068884201	4.830831	2.197915
17.870762535081607	4.2085547	2.0514762
17.888504813224934	3.891044	1.9725729
17.90624752372891	3.6846068	1.919533
17.923990667050536	3.6329823	1.9060384
17.941734243646895	3.561685	1.8872427
17.959478253975185	3.491274	1.8684951
17.9772226984927	3.4504635	1.8575424
17.994967577656833	3.4308183	1.8522469
18.01271289192506	3.4104004	1.8467269
18.030458641754965	3.3670926	1.8349639
18.04820482760425	3.3562725	1.8320132
18.06595144993067	3.33703	1.826754
18.083698509192125	3.3377016	1.8269378
18.101446005846576	3.283551	1.8120571
18.119193940352105	3.2434943	1.8009703
18.136942313166887	3.2114086	1.7920403
18.1546911247492	3.192996	1.7868956
18.1724403755574	3.1712918	1.7808121
18.19019006604997	3.174125	1.7816074
18.207940196685467	3.1601813	1.7776898
18.225690767922575	3.1073837	1.7627773
18.243441780220046	3.0506513	1.7466114
18.261193234036764	3.0599456	1.74927
18.278945129831676	3.0688934	1.7518257
18.29669746806386	3.0583131	1.7488034
18.314450249192483	3.0210907	1.7381285
18.3322034736768	3.0602744	1.749364
18.349957141976184	3.098209	1.760173
18.3677112545501	3.0987103	1.7603154
18.385465811858108	3.0639896	1.7504256
18.403220814359884	3.0675948	1.7514551
18.420976262515172	3.130188	1.7692337
18.43873215678387	3.1902347	1.7861228
18.456488497625923	3.1945636	1.7873342
18.474245285501407	3.2307217	1.7974209
18.492002520870486	3.2902358	1.8139007
18.50976020419343	3.3977091	1.8432876
18.527518335930615	3.7090163	1.9258807
18.545276916542516	4.2867393	2.0704443
18.563035946489688	4.485546	2.1179109
18.580795426232832	4.9732537	2.2300794
18.598555356232698	4.867727	2.2062926
18.616315736950185	5.216087	2.2838755
18.63407656884626	4.8825626	2.2096522
18.65183785238201	5.1029487	2.2589707
18.669599588018617	4.8149056	2.1942892
18.68736177621737	4.787989	2.1881473
18.705124417439652	4.71276	2.1708891
18.72288751214696	4.5374007	2.1301177
18.740651060800886	4.7202835	2.1726213
18.758415063863115	4.414225	2.1010058
18.77617952179546	4.5829377	2.1407797
18.793944435059814	4.2604165	2.0640776
18.811709804118184	4.3015585	2.07402
18.829475629432675	4.2463994	2.0606794
18.8472419114655	4.0170617	2.0042608
18.86500865067897	4.087375	2.021726
18.88277584753551	3.7325583	1.931983
18.90054350249763	3.7870815	1.9460425
18.918311616027957	3.4893491	1.86798
18.936080188589226	3.3551085	1.8316956
18.953849220644265	3.031269	1.741054
18.971618712656007	2.8572977	1.6903543
18.9893886650875	2.7802694	1.667414
19.007159078401887	7.9653635	2.8222976
19.024929953062408	32.86016	5.7323785
19.042701289532435	32.853363	5.7317853
19.060473088275405	25.400204	5.0398617
19.07824534975489	2.660454	1.6310898
19.096018074434568	2.6243374	1.6199807
19.113791262778197	2.6453524	1.6264539
19.13156491524966	2.6408377	1.6250654
19.149339032312945	2.5979056	1.611802
19.167113614432136	2.5546339	1.5983222
19.184888662071433	2.5212774	1.5878531
19.202664175695123	2.505046	1.5827336
19.220440155767623	2.5215364	1.5879346
19.238216602753447	2.5205553	1.5876256
19.2559935171172	2.5037186	1.5823144
19.27377089932361	2.4777632	1.5740912
19.291548749837514	2.467567	1.5708492
19.309327069123835	2.4984882	1.5806607
19.32710585764763	2.4899008	1.577942
19.344885115874032	2.5036354	1.582288
19.362664844268313	2.492267	1.5786915
19.380445043295822	2.5211732	1.5878203
19.39822571342203	2.525259	1.5891063
19.41600685511252	2.560575	1.6001797
19.43378846883297	2.5515683	1.5973629
19.451570555049173	2.559639	1.5998871
19.469353114227037	2.558036	1.5993862
19.48713614683254	2.5222044	1.5881449
19.50491965333182	2.5234606	1.5885404
19.52270363419109	2.5364835	1.5926342
19.540488089876686	2.5541162	1.5981603
19.55827302085503	2.5559645	1.5987384
19.576058427592674	2.540137	1.5937808
19.593844310556282	2.5561304	1.5987903
19.611630670212598	2.5434055	1.5948058
19.629417507028506	2.505318	1.5828196
19.64720482147098	2.4997587	1.5810626
19.6649926140071	2.5105839	1.5844822
19.682780885104084	2.5082655	1.5837505
19.70056963522921	2.483961	1.5760587
19.718358864849908	2.4697225	1.5715351
19.7361485744337	2.467141	1.5707135
19.753938764448215	2.4985573	1.5806825
19.771729435361202	2.519891	1.5874164
19.789520587640506	2.5534785	1.5979607
19.807312221754092	2.5647395	1.6014804
19.825104338170043	2.5253372	1.589131
19.842896937356517	2.501831	1.5817177
19.860690019781824	2.5209956	1.5877644
19.87848358591436	2.551673	1.5973957
19.896277636222635	2.5436025	1.5948676
19.914072171175278	2.5078456	1.5836179
19.931867191241015	2.494761	1.5794812
19.94966269688869	2.4987273	1.5807363
19.967458688587264	2.5273933	1.5897777
19.985255166805807	2.5143611	1.5856737
20.00305213201348	2.5094216	1.5841154
20.020849584679578	2.4926245	1.5788047
20.038647525273507	2.44885	1.5648801
20.05644595426477	2.399479	1.5490252
20.07424487212299	2.4189813	1.5553075
20.092044279317903	2.4629805	1.5693886
20.109844176319353	2.4455266	1.563818
20.127644563597304	2.4065092	1.5512928
20.145445441621817	2.3886468	1.5455248
20.16324681086307	2.4315922	1.5593563
20.181048671791373	2.435082	1.5604749
20.198851024877122	2.4407408	1.5622871
20.216653870590836	2.3879724	1.5453066
20.234457209403146	2.3434036	1.530818
20.252261041784802	2.3141382	1.5212291
20.270065368206662	2.3552816	1.5346926
20.287870189139685	2.3744953	1.5409397
20.305675505054968	2.3473241	1.5320979
20.323481316423702	2.31926	1.5229117
20.341287623717207	2.3266432	1.5253338
20.359094427406884	2.3436007	1.5308824
20.376901727964288	2.3442457	1.531093
20.39470952586107	2.32899	1.5261029
20.41251782156899	2.330057	1.5264524
20.430326615559935	2.334429	1.5278839
20.448135908305886	2.3469365	1.5319715
20.465945700278965	2.3525941	1.5338168
20.483755991951384	2.3415635	1.5302168
20.50156678379548	2.3444602	1.5311631
20.519378076283708	2.3571465	1.5353001
20.537189869888635	2.372922	1.5404291
20.55500216508294	2.3560817	1.5349534
20.572814962339415	2.3356187	1.5282731
20.59062826213098	2.3291612	1.5261589
20.60844206493066	2.3233635	1.5242584
20.626256371211593	2.3010268	1.5169135
20.644071181447032	2.3089662	1.5195283
20.66188649611036	2.3095353	1.5197155
20.67970231567506	2.3365355	1.528573
20.697518640614742	2.3152473	1.5215937
20.715335471403122	2.3305125	1.5266017
20.73315280851404	2.30111	1.516941
20.750970652421447	2.3187778	1.5227534
20.768789003599412	2.2785482	1.5094861
20.786607862522136	2.2993135	1.5163487
20.8044272296639	2.276743	1.508888
20.82224710549913	2.2720037	1.5073167
20.84006749050237	2.2811172	1.5103368
20.857888385148268	3.8331704	1.9578484
20.8757097899116	45.940372	6.7779326
20.893531705267254	64.781006	8.048665
20.911354131690224	83.80661	9.154595
20.92917706965566	69.06732	8.310676
20.94700051963877	50.12036	7.0795736
20.96482448211493	29.385	5.4207935
20.982648957559622	4.1342874	2.0332947
21.00047394644843	2.2478647	1.4992881
21.01829944925707	2.233313	1.4944273
21.036125466461375	2.2360027	1.495327
21.053951998537297	2.23517	1.4950484
21.071779045960906	2.2386239	1.4962032
21.089606609208378	2.218237	1.4893746
21.10743468875603	2.2153113	1.4883922
21.12526328508028	2.1920514	1.4805578
21.143092398657675	2.1947145	1.4814569
21.16092202996488	2.2029662	1.4842392
21.17875217947867	2.1991313	1.4829468
21.19658284767596	2.1938622	1.4811692
21.21441403503377	2.2033234	1.4843596
21.232245742029225	2.2122147	1.4873515
21.2500779691396	2.2044039	1.4847234
21.26791071684227	2.1775272	1.4756447
21.28574398561475	2.163461	1.4708709
21.30357777593465	2.1854086	1.4783127
21.321412088279704	2.174333	1.474562
21.339246923127792	2.1598573	1.4696453
21.357082280956888	2.1256225	1.4579514
21.3749181622451	2.102706	1.450071
21.392754567470647	2.0881402	1.4450399
21.41059149711187	2.0908554	1.445979
21.42842895164726	2.1023314	1.4499419
21.446266931555378	2.1197908	1.4559501
21.464105437314945	2.1040418	1.4505316
21.481944469404798	2.088009	1.4449944
21.49978402830388	2.0668557	1.4376563
21.51762411449127	2.048518	1.4312644
21.53546472844617	2.0610716	1.4356433
21.553305870647876	2.0738504	1.440087
21.571147541575865	2.0967202	1.4480056
21.58898974170967	2.0765388	1.44102
21.60683247152899	2.0628023	1.4362459
21.62467573151363	2.0631664	1.4363726
21.642519522143523	2.1023018	1.4499316
21.660363843898722	2.098452	1.4486035
21.6782086972594	2.0815923	1.4427724
21.696054082705864	2.084692	1.4438462
21.713900000718535	2.0495865	1.4316378
21.73174645177795	2.0330815	1.4258617
21.749593436364794	2.049731	1.4316882
21.767440954959845	2.0425887	1.4291916
21.785289008044032	2.0203001	1.4213727
21.803137596098388	1.9692438	1.4032974
21.820986719604086	1.9847003	1.4087939
21.838836379042412	1.9998896	1.4141746
21.85668657489478	2.0323005	1.4255878
21.87453730764273	2.053266	1.4329222
21.892388577767914	2.0555103	1.4337051
21.91024038575213	2.0453134	1.4301445
21.928092732077285	2.022975	1.4223132
21.945945617225426	2.0195975	1.4211254
21.963799041678694	2.0416026	1.4288466
21.981653005919398	31.355642	5.599611
21.999507510429943	78.14545	8.839992
22.01736255569286	73.11416	8.550682
22.035218142190818	4.228949	2.0564408
22.05307427040661	2.0474849	1.4309036
22.07093094082315	2.004693	1.4158719
22.088788153923474	2.0048785	1.4159373
22.106645910190746	2.0015936	1.4147769
22.12450421010827	2.0012496	1.4146553
22.142363054159464	1.9859385	1.4092333
22.16022244282787	1.9891493	1.410372
22.178082376597164	1.9908296	1.4109676
22.195942855951145	1.9718984	1.404243
22.213803881373742	1.990545	1.4108667
22.231665453349002	1.9808247	1.4074178
22.24952757236111	1.9708667	1.4038756
22.26739023889438	1.9528222	1.3974341
22.28525345343323	1.9688464	1.4031559
22.30311721646225	1.999509	1.41404
22.320981528466113	1.9906491	1.4109037
22.33884638992964	1.9744616	1.4051553
22.356711801337788	1.9680109	1.4028581
22.37457776317561	1.954553	1.3980533
22.392444275928337	1.9111769	1.3824532
22.410311340081282	1.907032	1.3809533
22.428178956119904	1.9242964	1.3871901
22.446047124529805	1.9468112	1.3952818
22.46391584579669	1.9427123	1.3938122
22.481785120406414	1.9354236	1.391195
22.49965494884496	1.9370528	1.3917805
22.51752533159841	1.9591798	1.3997071
22.53539626915302	2.004536	1.4158163
22.553267761995137	1.9953917	1.4125834
22.571139810611264	1.9907191	1.4109285
22.589012415488025	1.9577512	1.3991966
22.60688557711216	1.9597961	1.3999271
22.624759295970566	1.9515175	1.3969673
22.642633572550263	1.9372722	1.3918593
22.660508407338362	1.9213237	1.3861182
22.67838380082217	1.9159204	1.3841678
22.696259753489077	1.9528764	1.3974535
22.714136265826614	1.955151	1.3982671
22.73201333832246	1.9483771	1.3958428
22.74989097146439	1.9416295	1.3934237
22.76776916574035	1.9426476	1.3937889
22.785647921638393	1.929052	1.3889031
22.803527239646712	1.9121034	1.3827883
22.82140712025363	1.9169129	1.3845263
22.839287563947593	1.9198277	1.3855785
22.85716857121719	1.9104067	1.3821746
22.875050142551135	1.8863496	1.3734444
22.892932278438277	1.873918	1.3689113
22.910814979367604	1.8893207	1.3745257
22.928698245828222	1.8684906	1.3669274
22.946582078309387	1.9048886	1.380177
22.96446647730047	1.887693	1.3739334
22.98235144329098	1.8887457	1.3743165
23.000236976770562	1.8803235	1.3712488
23.018123078229	1.9257082	1.3876989
23.03600974815619	1.9360665	1.3914261
23.053896987042194	1.9393537	1.3926069
23.071784795377173	1.9569198	1.3988994
23.08967317365145	2.0014873	1.4147393
23.10756212235546	1.9767098	1.4059551
23.125451641979787	1.9264585	1.3879691
23.143341733015134	1.9197989	1.385568
23.161232395952357	1.9078544	1.3812511
23.179123631282426	1.8823862	1.3720008
23.197015439496468	1.9019325	1.3791057
23.214907821085717	1.9454976	1.3948109
23.23280077654157	1.9376462	1.3919936
23.250694306355538	1.9161483	1.38425
23.268588411019277	1.9148996	1.383799
23.28648309102458	1.9614516	1.4005183
23.304378346863356	1.9286926	1.3887738
23.322274179027676	1.9235845	1.3869334
23.340170588009723	1.914033	1.3834858
23.358067574301852	1.9416906	1.3934456
23.37596513839651	1.9199678	1.385629
23.39386328078629	1.9257439	1.3877118
23.411762001963947	1.8986897	1.3779296
23.429661302422353	1.900519	1.3785931
23.4475611826545	1.8908609	1.3750858
23.46546164315356	1.9019369	1.3791072
23.48336268441279	1.9049513	1.3801998
23.501264306925638	1.9090757	1.3816931
23.51916651118564	1.9137979	1.3834008
23.537069297686497	1.9300783	1.3892726
23.554972666922037	1.9245144	1.3872687
23.57287661938623	1.9327384	1.3902296
23.59078115557318	1.9459566	1.3949754
23.608686275977128	1.9761145	1.4057434
23.62659198109246	1.9281384	1.3885742
23.6444982714137	1.8884389	1.3742049
23.66240514743549	1.848181	1.3594782
23.68031260965263	1.8790292	1.3707769
23.698220658560068	1.9199117	1.3856088
23.716129294652845	1.9512081	1.3968565
23.7340385184262	1.9255776	1.3876518
23.75194833037546	1.9258009	1.3877323
23.769858730996123	1.9288595	1.3888339
23.78776972078382	1.936122	1.391446
23.80568130023431	1.9625449	1.4009086
23.823593469843495	1.927037	1.3881776
23.841506230107424	1.9019718	1.37912
23.859419581522275	1.8843517	1.3727169
23.87733352458438	1.8780447	1.3704177
23.89524805979019	1.8725678	1.368418
23.913163187636318	1.8575382	1.3629154
23.931078908619508	1.9218122	1.3862944
23.948995223236633	1.9618067	1.4006451
23.966912131984735	1.9646337	1.4016539
23.98482963536096	1.9902064	1.4107467
24.002747733862616	1.9986465	1.4137349
24.020666427987155	2.0378962	1.427549
24.038585718232156	2.023529	1.422508
24.056505605095353	2.0273285	1.4238429
24.074426089074617	2.0402079	1.4283584
24.092347170667946	2.076012	1.4408373
24.110268850373515	2.077471	1.4413434
24.128191128689586	2.076537	1.4410194
24.146114006114626	2.0504441	1.4319372
24.164037483147187	2.039873	1.4282411
24.181961560286005	2.0355954	1.4267429
24.199886238029926	2.049542	1.4316221
24.21781151687797	2.1070902	1.451582
24.235737397329274	2.078424	1.441674
24.253663879883135	2.0226085	1.4221845
24.271590965038975	1.9853727	1.4090326
24.289518653296376	2.0135756	1.4190052
24.30744694515505	2.0259902	1.4233729
24.32537584111486	2.0191662	1.4209737
24.34330534167581	2.0205655	1.421466
24.361235447338046	1.9799725	1.407115
24.379166158601876	1.9903111	1.4107839
24.39709747596772	1.9985589	1.4137039
24.41502939993615	2.0052898	1.4160825
24.432961931007917	1.9957088	1.4126956
24.450895069683856	1.9886861	1.4102079
24.468828816465	1.9980632	1.4135287
24.4867631718525	2.028695	1.4243227
24.504698136347656	2.0113306	1.4182138
24.52263371045192	1.9656892	1.4020303
24.540569894666874	1.9842017	1.4086169
24.558506689494266	1.965471	1.4019526
24.57644409543597	1.9315737	1.3898107
24.594382112994012	1.9154241	1.3839885
24.61232074267057	1.9650908	1.401817
24.630259984967953	1.9488324	1.3960059
24.64819984038863	1.9577715	1.3992039
24.66614030943522	1.9539245	1.3978285
24.684081392610462	1.9555107	1.3983958
24.702023090417274	1.978608	1.40663
24.7199654033587	1.9842064	1.4086186
24.737908331937927	1.9999206	1.4141855
24.755851876658305	2.0142004	1.4192253
24.773796038023324	2.0128894	1.4187633
24.79174081653661	2.0090714	1.4174172
24.809686212701962	2.0386016	1.4277961
24.827632227023294	2.0931823	1.4467834
24.8455788600047	2.106926	1.4515254
24.8635261121504	2.0889401	1.4453167
24.88147398396475	2.0832448	1.443345
24.899422475952303	2.0794785	1.4420397
24.917371588617698	2.0755718	1.4406844
24.935321322465768	2.109106	1.4522761
24.953271678001478	2.2934089	1.5144005
24.97122265572994	2.5680315	1.602508
24.989174256156414	2.8734312	1.6951199
25.00712647978632	3.2707798	1.8085297
25.02507932712521	3.807909	1.9513865
25.043032798678798	4.369272	2.0902805
25.060986894952933	4.952311	2.2253788
25.078941616453637	5.639196	2.374699
25.096896963687055	6.5063596	2.5507567
25.114852937159508	7.704139	2.775633
25.132809537377444	8.135757	2.852325
25.150766764847468	8.126944	2.8507795
25.168724620076347	7.3441434	2.710008
25.186683103570985	6.2949424	2.5089724
25.204642215838426	5.223626	2.2855253
25.222601957385894	4.027675	2.0069067
25.24056232872074	3.075873	1.7538167
25.25852333035048	2.5182464	1.5868983
25.276484962782778	2.1918778	1.4804991
25.294447226525435	2.048627	1.4313025
25.312410122086423	2.0294163	1.4245758
25.330373649973843	1.9585123	1.3994685
25.348337810695988	1.9403985	1.3929819
25.366302604761245	1.9364241	1.3915546
25.384268032678207	1.9152379	1.3839211
25.40223409495558	1.9342604	1.3907769
25.420200792102257	1.9241455	1.3871357
25.438168124627246	1.9277079	1.3884193
25.45613609303974	1.8627887	1.3648401
25.474104697849057	1.85355	1.3614514
25.492073939564698	1.799848	1.3415841
25.510043818696285	1.8280873	1.3520678
25.528014335753614	1.8256589	1.3511695
25.54598549124664	1.8444194	1.358094
25.56395728568544	1.8519894	1.3608781
25.58192971958028	1.8859906	1.3733138
25.59990279344156	1.8800161	1.3711368
25.617876507779833	1.841046	1.3568515
25.635850863105826	1.8292019	1.3524799
25.653825859930386	1.8273047	1.3517784
25.671801498764548	1.8300958	1.3528103
25.68977778011949	1.8268495	1.35161
25.707754704506524	1.8579307	1.3630593
25.725732272437153	1.8873487	1.373808
25.743710484423012	1.8655927	1.365867
25.761689340975888	1.821648	1.3496844
25.77966884260774	1.8298583	1.3527225
25.797648989830662	1.814248	1.3469403
25.815629783156922	1.8283323	1.3521584
25.83361122309895	1.8072665	1.3443462
25.85159331016929	1.8241068	1.350595
25.869576044880695	1.8286586	1.3522791
25.887559427746034	1.8484004	1.3595589
25.90554345927836	1.8143606	1.346982
25.92352813999086	1.789597	1.3377582
25.94151347039689	1.8150737	1.3472468
25.959499451009965	1.7882812	1.3372663
25.97748608234374	1.8017278	1.3422846
25.995473364912062	1.8619612	1.364537
26.013461299228904	1.927922	1.3884963
26.03144988580839	1.8851715	1.3730155
26.04943912516483	1.8865154	1.3735048
26.067429017812675	1.8496884	1.3600326
26.085419564266537	1.8271455	1.3517195
26.103410765041186	1.8470786	1.3590727
26.12140262065155	1.9113525	1.3825167
26.139395131612723	1.9351728	1.3911049
26.157388298439948	1.8810055	1.3714975
26.17538212164861	1.8216913	1.3497005
26.193376601754295	1.820642	1.3493117
26.211371739272714	1.8433148	1.3576872
26.229367534719746	1.8115299	1.3459308
26.247363988611433	1.76896	1.3300226
26.26536110146397	1.7768937	1.3330017
26.283358873793727	1.7837994	1.3355895
26.301357306117204	1.7894332	1.337697
26.319356398951104	1.8285043	1.352222
26.33735615281224	1.8674338	1.3665408
26.35535656821762	1.8680038	1.3667494
26.373357645684404	1.8561707	1.3624135
26.39135938572991	1.8649812	1.3656431
26.409361788871614	1.8472418	1.3591328
26.427364855627165	1.811308	1.3458484
26.445368586514352	1.7859056	1.3363777
26.46337298205115	1.8304082	1.3529258
26.48137804275568	1.8541713	1.3616796
26.499383769146217	1.8549676	1.361972
26.517390161741215	1.8071377	1.3442982
26.53539722105928	1.7592417	1.326364
26.553404947619182	1.7814524	1.3347106
26.571413341939856	1.8376288	1.3555917
26.589422404540397	1.8541651	1.3616773
26.60743213594006	1.8277097	1.3519281
26.62544253665827	1.7637949	1.3280793
26.64345360721459	1.769104	1.3300767
26.66146534812879	1.7984986	1.3410811
26.679477759920758	1.7688279	1.3299729
26.69749084311057	1.7584547	1.3260673
26.71550459821847	1.7758738	1.3326192
26.733519025764842	1.8044158	1.3432854
26.751534126270258	1.8079057	1.3445839
26.769549900255434	1.8599626	1.3638045
26.787566348241267	1.8523804	1.3610219
26.80558347074881	1.7912909	1.3383912
26.823601268299267	1.7644008	1.3283075
26.841619741414036	1.7985705	1.341108
26.85963889061465	1.8018752	1.3423395
26.877658716422832	1.8355564	1.354827
26.89567921936045	1.8403556	1.3565971
26.913700399949544	1.8468722	1.3589967
26.93172225871233	1.8601334	1.363867
26.949744796171174	1.8131763	1.3465424
26.967768012848605	1.7842199	1.3357469
26.98579190926733	1.778048	1.3334347
27.003816485950225	1.7956103	1.3400038
27.021841743420318	1.8012645	1.342112
27.039867682200814	1.8377448	1.3556345
27.057894302815072	1.8270539	1.3516855
27.07592160578664	1.7636735	1.3280337
27.0939495916392	1.8095453	1.3451934
27.111978260896635	1.8318279	1.3534504
27.13000761408296	1.8101358	1.3454129
27.148037651722397	1.7840575	1.3356862
27.166068374339304	1.8003473	1.3417702
27.184099782458215	1.817737	1.3482348
27.20213187660384	1.8306614	1.3530194
27.22016465730105	1.8635716	1.365127
27.23819812507487	1.8818212	1.3717948
27.256232280450533	1.8891315	1.3744568
27.274267123953383	1.8905307	1.3749657
27.292302656108987	1.8253653	1.3510607
27.31033887744306	1.8134909	1.3466592
27.32837578848146	1.787644	1.337028
27.34641338975026	1.7780915	1.333451
27.364451681775673	1.7471818	1.32181
27.382490665084074	1.7587057	1.326162
27.400530340202046	1.7797529	1.3340738
27.41857070765629	1.7748815	1.3322468
27.436611767973726	1.7480981	1.3221567
27.454653521681404	1.8117715	1.3460206
27.472695969306564	1.8203076	1.3491877
27.490739111376627	1.8065442	1.3440775
27.508782948419153	1.7840657	1.3356892
27.526827480961902	1.8004568	1.341811
27.54487270953279	1.8339309	1.3542271
27.562918634659898	1.8505207	1.3603384
27.580965256871508	1.831585	1.3533607
27.599012576696026	1.8145535	1.3470536
27.617060594662068	1.8065915	1.3440951
27.63510931129842	1.8349524	1.3546041
27.65315872713401	1.833438	1.354045
27.67120884269797	1.8074229	1.3444043
27.68925965851958	1.8137074	1.3467395
27.707311175128307	1.8205441	1.3492754
27.725363393053787	1.8202962	1.3491836
27.74341631282583	1.8151671	1.3472813
27.7614699349744	1.8415422	1.3570343
27.77952426002968	2.0690873	1.4384322
27.797579288521973	2.1603532	1.469814
27.815635020981784	2.6612172	1.6313238
27.83369145793979	2.7515686	1.6587852
27.85174859992682	2.5444086	1.5951202
27.869806447473923	2.3299248	1.5264091
27.887865001112267	2.0132504	1.4188905
27.905924261373233	1.9307967	1.3895311
27.92398422878836	1.9076177	1.3811654
27.94204490388936	1.8878274	1.3739823
27.96010628720813	1.855562	1.3621901
27.978168379276728	1.8791555	1.3708229
27.9962311806274	1.9106808	1.3822738
28.014294691792568	1.924853	1.3873907
28.0323589133048	1.8969096	1.3772835
28.050423845696887	1.8636498	1.3651556
28.068489489501758	1.8590537	1.3634712
28.086555845252523	1.87139	1.3679875
28.104622913482487	1.867658	1.3666228
28.122690694725115	1.8644184	1.365437
28.14075918951405	1.8687717	1.3670303
28.15882839838312	1.8891529	1.3744646
28.176898321866304	1.910428	1.3821824
28.1949689604978	1.9149389	1.3838131
28.213040314811945	1.9569925	1.3989254
28.23111238534327	1.9783347	1.4065329
28.249185172626493	1.9743046	1.4050995
28.267258677196473	1.9325365	1.390157
28.285332899588294	1.9234861	1.386898
28.303407840337172	1.9531876	1.3975649
28.321483499978545	1.9787413	1.4066774
28.33955987904799	1.9369622	1.391748
28.357636978081285	1.8806487	1.3713675
28.37571479761439	1.8945796	1.3764373
28.393793338183425	1.9641279	1.4014735
28.41187260032469	1.9546118	1.3980743
28.429952584574686	1.9592215	1.399722
28.448033291470065	2.0140076	1.4191574
28.46611472154769	2.0281744	1.4241399
28.484196875344566	2.0164165	1.4200058
28.502279753397914	2.031191	1.4251987
28.52036335624511	2.0526824	1.4327185
28.538447684423716	2.0318158	1.4254178
28.556532738471482	2.0472207	1.4308112
28.574618518926325	2.0136771	1.4190409
28.59270502632635	1.9797378	1.4070315
28.61079226120985	1.9343823	1.3908207
28.628880224115274	1.9218273	1.3862998
28.646968915581287	1.9560012	1.3985711
28.66505833614671	2.0124745	1.4186171
28.68314848635055	2.0647032	1.4369075
28.701239366732004	2.0661948	1.4374264
28.71933097783044	2.0440347	1.4296974
28.737423320185403	2.0537095	1.433077
28.75551639433665	2.1177948	1.4552644
28.773610200824074	2.144139	1.4642879
28.791704740187793	2.1859457	1.4784944
28.80980001296809	2.1601758	1.4697536
28.827896019705413	2.1539752	1.4676428
28.845992760940433	2.1617405	1.4702859
28.86409023721397	2.2121758	1.4873385
28.88218844906704	2.190587	1.4800632
28.900287397040845	2.2065449	1.4854443
28.918387081676755	2.260887	1.5036246
28.936487503516343	2.3080657	1.5192319
28.954588663101365	2.3001943	1.5166391
28.97269056097374	2.3495593	1.5328273
28.990793197675597	2.3672662	1.5385922
29.00889657374923	2.3859847	1.5446633
29.027000689737125	2.3730721	1.5404779
29.04510554618196	2.334303	1.5278425
29.06321114362659	2.4002101	1.5492612
29.08131748261405	2.484107	1.576105
29.099424563687567	2.4961262	1.5799134
29.11753238739057	2.4751298	1.5732546
29.13564095426663	2.5441484	1.5950387
29.15375026485954	2.6091998	1.6153017
29.171860319713275	2.6768203	1.6360991
29.18997111937199	2.694685	1.6415496
29.20808266438002	2.699293	1.6429524
29.226194955281898	2.783853	1.6684883
29.244307992622335	2.8184795	1.6788328
29.26242177694624	2.82439	1.6805922
29.2805363087987	2.821757	1.6798086
29.29865158872498	2.8944116	1.701297
29.316767617270557	2.9565187	1.719453
29.334884394981064	2.9276586	1.7110401
29.353001922402367	2.931444	1.712146
29.37112020008047	3.0266097	1.7397153
29.389239228561596	3.2069514	1.7907963
29.407359008392152	3.4432907	1.8556106
29.42547954011872	3.7574599	1.9384168
29.44360082428809	4.464162	2.1128564
29.46172286144722	5.592179	2.3647788
29.479845652143283	7.1795225	2.6794631
29.497969196923606	9.181302	3.0300663
29.516093496335728	11.611693	3.4075935
29.5342185509274	14.143797	3.760824
29.55234436124651	16.188807	4.0235314
29.570470927841175	17.378527	4.168756
29.588598251259686	16.984211	4.1211905
29.60672633205055	15.452969	3.9310265
29.624855170762405	13.216254	3.6354167
29.642984767944146	10.650278	3.2634764
29.66111512414481	8.213002	2.8658335
29.67924623991366	6.226995	2.4953947
29.697378115800138	4.825219	2.196638
29.71551075235387	3.9841716	1.996039
29.733644150124675	3.66851	1.9153354
29.751778309662576	3.5627873	1.8875347
29.769913231517766	3.4597125	1.8600303
29.78804891624066	3.3817513	1.8389539
29.806185364381818	3.4044862	1.845125
29.82432257649206	3.4055362	1.8454095
29.842460553122333	3.3625865	1.8337357
29.86059929482382	3.3719306	1.8362818
29.878738802147872	3.3635938	1.8340104
29.896879075646048	3.2726288	1.8090409
29.915020115870114	3.290189	1.8138878
29.933161923371976	3.4008584	1.8441416
29.951304498703777	3.401747	1.8443825
29.969447842417857	3.2593937	1.8053792
29.987591955066733	3.1657104	1.7792443
30.005736837203123	3.1590538	1.7773727
30.023882489379943	3.1958292	1.7876883
30.04202891215028	3.1648679	1.7790076
30.060176106067455	3.0941727	1.759026
30.078324071684946	3.1569896	1.7767919
30.09647280955646	3.1964068	1.7878498
30.114622320235863	3.2053757	1.7903563
30.132772604277257	3.063545	1.7502985
30.1509236622349	2.988931	1.7288525
30.16907549466328	2.9911213	1.7294859
30.18722810211705	3.0263345	1.7396363
30.205381485151097	3.0514035	1.7468266
30.22353564432045	3.0100105	1.7349381
30.241690580180403	2.9978685	1.7314354
30.25984629328638	3.053804	1.7475137
30.278002784194037	3.0239234	1.7389432
30.296160053459246	3.0332057	1.74161
30.314318101638033	3.067254	1.7513578
30.332476929286646	3.0231254	1.7387137
30.35063653696153	2.9176228	1.7081051
30.368796925219307	2.8870094	1.6991202
30.386958094616844	2.8699856	1.6941031
30.40512004571115	2.87167	1.6946002
30.423282779059463	2.8555987	1.6898516
30.441446295219233	2.8837306	1.698155
30.459610594748067	2.8833065	1.6980302
30.47777567820382	2.8497038	1.6881065
30.495941546144504	2.7963533	1.67223
30.51410819912835	2.7698722	1.6642933
30.532275637713795	2.781641	1.6678252
30.55044386245946	2.8155	1.6779451
30.56861287392416	2.8083327	1.6758081
30.586782672666956	2.76348	1.6623718
30.604953259247047	2.7498934	1.6582803
30.623124634223885	2.8136728	1.6774006
30.641296798157075	2.8503983	1.6883123
30.659469751606462	2.821013	1.6795871
30.677643495132074	2.8301356	1.6823007
30.695818029294152	2.8033617	1.6743243
30.713993354653116	2.727561	1.6515329
30.73216947176962	2.7224042	1.649971
30.75034638120448	2.746537	1.6572679
30.768524083518756	2.6835673	1.6381598
30.786702579273673	2.6666133	1.6329769
30.80488186903069	2.7926118	1.671111
30.82306195335144	2.9490516	1.7172803
30.841242832797782	3.1943295	1.7872688
30.85942450793176	3.5354323	1.8802745
30.877606979315637	3.853565	1.9630499
30.895790247511883	4.2041388	2.0503995
30.913974313083134	4.581625	2.1404731
30.932159176592283	4.8195424	2.1953456
30.95034483860237	4.760514	2.1818602
30.968531299676698	4.5170507	2.1253355
30.98671856037873	4.22276	2.0549355
31.00490662127215	3.888459	1.9719176
31.023095482920848	3.4928045	1.8689046
31.04128514588892	3.0693161	1.7519463
31.059475610740662	2.7885683	1.6699007
31.07766687804056	2.6656885	1.6326936
31.09585894835335	2.5712345	1.6035069
31.11405182224393	2.5094569	1.5841266
31.132245500277417	2.493781	1.5791711
31.15043998301914	2.47143	1.5720782
31.168635271034628	2.4855487	1.5765623
31.18683136488964	2.486085	1.5767324
31.20502826515008	2.4458787	1.5639305
31.223225972382135	2.4123182	1.5531639
31.241424487152155	2.403687	1.5503829
31.259623810026692	2.4591062	1.5681537
31.27782394157253	2.4508739	1.5655267
31.296024882356644	2.4335487	1.5599836
31.314226632946237	2.3953378	1.5476879
31.332429193908684	2.459485	1.5682745
31.350632565811598	2.4614894	1.5689135
31.368836749222787	2.5290766	1.5903071
31.387041744710295	2.5855777	1.6079732
31.40524755284232	2.601325	1.6128623
31.423454174187317	2.589608	1.6092259
31.441661609313922	2.5278726	1.5899285
31.459869858791002	2.5262036	1.5894035
31.478078923187628	2.4761007	1.5735631
31.496288803073064	2.3329675	1.5274055
31.514499499016807	2.2158902	1.4885867
31.532711011588546	2.2325072	1.4941577
31.550923341358178	2.2838647	1.5112461
31.56913648889584	2.3778765	1.5420365
31.587350454771844	2.3904567	1.5461102
31.605565239556732	2.3910716	1.546309
31.62378084382127	2.4011784	1.5495737
31.641997268136382	2.41002	1.552424
31.660214513073274	2.3921845	1.5466689
31.67843257920331	2.3112528	1.5202805
31.6966514670981	2.2774973	1.509138
31.71487117732944	2.2750158	1.5083156
31.733091710469346	2.2576184	1.5025374
31.751313067090052	2.2677457	1.5059036
31.769535247764008	2.3100293	1.519878
31.787758253063878	2.3495142	1.5328125
31.805982083562526	2.3238182	1.5244075
31.824206739833024	2.2455914	1.4985298
31.84243222244869	2.2521608	1.5007201
31.860658531983013	2.2704237	1.5067925
31.878885669009737	2.3205695	1.5233415
31.897113634102784	2.2660763	1.5053493
31.91534242783632	2.195913	1.4818614
31.933572050784694	2.1586552	1.4692363
31.951802503522508	2.1764882	1.4752926
31.970033786624548	2.194326	1.4813257
31.988265900665834	2.2340832	1.4946849
32.006498846221575	2.261231	1.503739
32.02473262386724	2.219254	1.489716
32.04296723417845	2.129862	1.4594047
32.0612026777311	2.1226802	1.4569421
32.07943895510129	2.1907039	1.4801027
32.097676066865304	2.1973445	1.4823443
32.115914013599685	2.1646295	1.4712679
32.13415279588115	2.1396194	1.4627438
32.152392414286666	2.1396222	1.4627447
32.1706328693934	2.1575158	1.4688485
32.18887416177875	2.2204642	1.4901222
32.20711629202032	2.1860158	1.4785181
32.225359260695924	2.1120234	1.4532802
32.243603068383614	2.0796955	1.442115
32.26184771566166	2.1071284	1.4515951
32.28009320310852	2.0777698	1.4414471
32.2983395313029	2.0917113	1.446275
32.31658670082372	2.1705205	1.4732686
32.33483471225012	2.2639842	1.5046542
32.35308356616143	2.1557357	1.4682424
32.371333263137245	2.0026436	1.4151479
32.38958380375734	2.0184295	1.4207145
32.407835188601744	2.1170964	1.4550246
32.42608741825067	2.1926658	1.4807652
32.444340493284585	2.158699	1.4692512
32.46259441428416	2.0967903	1.4480298
32.48084918183028	2.0490186	1.4314394
32.49910479650405	1.9758556	1.4056513
32.51736125888683	1.9821317	1.407882
32.53561856956014	2.0788105	1.4418081
32.5538767291058	2.1152449	1.4543881
32.572135738105764	2.0305133	1.4249609
32.59039559714228	2.0292876	1.4245306
32.608656306797776	2.0282984	1.4241834
32.62691786765491	2.058549	1.4347644
32.645180280296586	2.0844676	1.4437685
32.663443545305896	2.0511384	1.4321796
32.68170766326619	1.9514079	1.3969281
32.69997263476099	1.9938459	1.4120361
32.7182384603741	2.0333643	1.4259608
32.7365051406895	1.9740007	1.4049914
32.75477267629144	1.9756103	1.4055641
32.77304106776434	2.021625	1.4218386
32.79131031569289	2.0546885	1.4334184
32.809580420661966	2.0533383	1.4329474
32.827851383256714	2.1142845	1.4540579
32.84612320406245	2.078071	1.4415517
32.86439588366476	1.9691415	1.4032611
32.88266942264945	2.010172	1.4178053
32.9009438216025	2.0365837	1.4270892
32.9192190811102	2.027001	1.4237279
32.937495201758985	2.023172	1.4223825
32.95577218413556	2.0209043	1.4215851
32.974050028826866	1.8800658	1.3711549
32.992328736420035	1.7891127	1.3375772
33.010608307502444	1.8515803	1.3607278
33.02888874266169	1.9147955	1.3837614
33.047170042485604	1.8750874	1.3693383
33.06545220756225	1.8606904	1.3640712
33.083735238479896	1.9026161	1.3793535
33.10201913582707	1.9563284	1.3986881
33.12030390019248	1.899521	1.3782312
33.138589532165135	1.8843447	1.3727144
33.15687603233419	1.8990616	1.3780644
33.17516340128909	2.0009427	1.4145468
33.19345163961947	2.011115	1.4181379
33.211740747915215	1.9818125	1.4077686
33.23003072676643	1.9048179	1.3801514
33.248321576763466	1.9418452	1.393501
33.266613298496885	1.9171339	1.384606
33.28490589255747	1.8996974	1.3782951
33.30319935953626	1.9858205	1.4091915
33.32149370002451	2.078415	1.4416709
33.339788914613706	2.0825639	1.4431092
33.358085003895575	1.994553	1.4122864
33.376381968462034	1.9010963	1.3788025
33.39467980890529	1.9287546	1.3887961
33.41297852581774	1.9603704	1.4001323
33.43127811979204	1.9870703	1.4096348
33.44957859142105	1.9328133	1.3902565
33.467879941297866	1.8980454	1.3776957
33.486182170015844	1.9214803	1.3861747
33.50448527816853	2.0248804	1.4229829
33.522789266349754	2.0026007	1.4151328
33.541094135153514	1.9742746	1.4050888
33.55939988517411	2.0144992	1.4193306
33.57770651700602	2.0079994	1.4170389
33.59601403124398	1.9424548	1.3937198
33.61432242848296	1.9020125	1.3791347
33.632631709318154	1.9166702	1.3844386
33.650941874344994	1.9176342	1.3847867
33.66925292415916	1.9369256	1.3917347
33.68756485935654	1.9548873	1.3981729
33.70587768053328	1.9383227	1.3922366
33.724191388285746	1.9910274	1.4110377
33.74250598321054	2.0521858	1.4325452
33.760821465904506	1.9590325	1.3996544
33.77913783696474	1.9470508	1.3953676
33.79745509698852	2.0880797	1.4450189
33.815773246573414	2.0514824	1.4322997
33.8340922863172	1.9910802	1.4110564
33.852412216817896	1.9695369	1.4034019
33.87073303867377	2.001447	1.4147251
33.889054752483304	1.9033035	1.3796027
33.907377358845245	1.9282775	1.3886243
33.92570085835853	1.9320205	1.3899714
33.94402525162239	1.9196779	1.3855244
33.96235053923627	1.9286314	1.3887517
33.980676721799824	1.886737	1.3735855
33.999003799912984	1.8230969	1.350221
34.01733177417592	1.8744088	1.3690906
34.03566064518901	1.8576249	1.3629471
34.0539904135529	1.8107868	1.3456548
34.07232107986846	1.8083183	1.3447373
34.090652644736785	1.8505796	1.3603601
34.108985108759235	1.9411268	1.3932433
34.12731847253742	2.0849187	1.4439248
34.14565273667313	1.9656253	1.4020076
34.16398790176847	1.8465976	1.3588957
34.18232396842574	1.8926544	1.3757378
34.20066093724749	1.9533858	1.3976358
34.21899880883651	1.9636464	1.4013017
34.23733758379583	1.9294198	1.3890356
34.25567726272874	1.8740852	1.3689723
34.27401784623872	1.870607	1.3677014
34.29235933492957	1.8487846	1.3597002
34.31070172940526	1.8652416	1.3657385
34.32904503027003	1.9596776	1.3998848
34.347389238128386	1.8655238	1.3658417
34.36573435358502	1.9474711	1.3955182
34.38408037724492	2.1375906	1.4620502
34.402427309713296	2.1009536	1.4494667
34.42077515159559	1.8962722	1.377052
34.43912390349752	1.8515407	1.3607132
34.45747356602499	1.8646833	1.3655341
34.47582413978423	1.8620422	1.3645667
34.49417562538163	2.0142457	1.4192413
34.51252802342388	2.194072	1.48124
34.53088133451789	2.079931	1.4421966
34.54923555927084	1.945368	1.3947645
34.567590698290104	1.9257852	1.3877267
34.58594675218336	2.0307438	1.4250417
34.6043037215585	1.9882793	1.4100636
34.62266160702365	1.8595022	1.3636357
34.641020409187234	1.7975293	1.3407197
34.65938012865785	1.8954732	1.3767619
34.677740766044394	1.8266255	1.3515271
34.69610232195598	1.6680866	1.2915443
34.714464797002016	1.708119	1.3069503
34.73282819179208	1.8847554	1.3728639
34.751192506936064	1.9316145	1.3898253
34.76955774304408	1.9103012	1.3821365
34.7879239007265	2.065253	1.4370989
34.80629098059391	2.107061	1.4515718
34.824658983257194	2.061567	1.4358158
34.843027909327446	1.8889773	1.3744007
34.86139775941603	1.8294963	1.3525888
34.879768534134534	1.8559688	1.3623395
34.89814023409483	1.9738876	1.4049511
34.91651285990901	2.0903783	1.445814
34.93488641218944	2.0130844	1.4188321
34.95326089154871	1.9211079	1.3860403
34.97163629859967	1.9100374	1.382041
34.99001263395542	1.8388659	1.3560479
35.00838989822934	1.8179873	1.3483276
35.02676809203499	1.8176125	1.3481886
35.04514721598624	1.9325471	1.3901608
35.063527270697215	2.1334224	1.460624
35.081908256782256	2.1058075	1.45114
35.10029017485597	1.783599	1.3355145
35.11867302553321	1.8452636	1.3584048
35.137056809429104	2.1777408	1.4757171
35.155441527159006	2.0109015	1.4180626
35.173827179338524	1.8199314	1.3490484
35.19221376658354	2.0587404	1.4348311
35.21060128951017	2.1876686	1.479077
35.2289897487348	1.8414445	1.3569983
35.24737914487405	1.8065094	1.3440645
35.26576947854479	1.9169571	1.3845422
35.28416075036418	1.9917432	1.4112914
35.30255296094958	1.8304722	1.3529495
35.32094611091867	1.7589697	1.3262615
35.33934020088932	2.0185115	1.4207433
35.35773523147969	2.0615146	1.4357976
35.3761312033082	1.8117474	1.3460116
35.394528116993506	1.6696255	1.2921399
35.41292597315452	1.6311682	1.277172
35.431324772410434	1.858431	1.3632429
35.449724515380666	2.0609622	1.4356052
35.46812520268491	2.3138142	1.5211227
35.486526834943106	2.3900926	1.5459925
35.504929412775454	1.8980179	1.3776857
35.52333293680242	1.5195849	1.2327144
35.54173740764471	1.5393012	1.2406857
35.560142825923286	1.7618862	1.3273606
35.5785491922594	1.9260725	1.3878301
35.59695650727454	1.4923522	1.2216187
35.61536477159042	0.1497729	0.38700503
