0.008763373481513119	0.051685803	0.22734512
0.026290120649546365	0.18429624	0.4292974
0.043816868432600686	0.12367553	0.35167533
0.06134361724069026	0.22794901	0.47744006
0.07887036748382949	0.17371057	0.416786
0.0963971195720331	0.17437425	0.41758144
0.11392387391531617	0.11628463	0.34100533
0.1314506309236943	0.03085885	0.17566687
0.1489773910071836	0.08253646	0.2872916
0.16650415457580078	0.15552038	0.39436072
0.18403092203956356	0.18362822	0.42851862
0.20155769380849	0.14379293	0.37920037
0.2190844702925996	0.09563839	0.30925456
0.2366112519019124	0.063494846	0.25198182
0.2541380390464497	0.077326484	0.2780764
0.27166483213623416	0.11995047	0.34633866
0.28919163158128947	0.1513293	0.38901067
0.3067184377916406	0.14350884	0.3788256
0.324245251177314	0.13755994	0.37089074
0.34177207214833777	0.15625787	0.39529467
0.3592989011147415	0.20083462	0.44814575
0.37682573848655654	0.19932069	0.44645345
0.39435258467381573	0.1767368	0.42040077
0.41187944008655414	0.13544582	0.36802965
0.42940630513480854	0.13482755	0.36718872
0.446933180228618	0.14966166	0.3868613
0.4644600657780234	0.13786326	0.37129942
0.48198696219306775	0.12494959	0.3534821
0.49951386988379676	0.15050013	0.38794348
0.5170407892602581	0.15136816	0.38906062
0.5345677207325025	0.1396899	0.37375113
0.5520946647105822	0.11089074	0.3330026
0.5696216216045534	0.09404136	0.30666164
0.5871485918244737	0.11866486	0.34447765
0.6046755757804043	0.14475754	0.38047016
0.6222025738824094	0.1642389	0.405264
0.6397295865405557	0.17517015	0.41853333
0.6572566141649129	0.17171799	0.4143887
0.6747836571655547	0.1807911	0.42519537
0.6923107159525568	0.15767227	0.39707968
0.7098377909359992	0.17848131	0.42247048
0.7273648825259653	0.13369477	0.36564296
0.7448919911325411	0.13533895	0.36788443
0.762419117165817	0.12207884	0.34939784
0.7799462610358868	0.16666484	0.40824604
0.7974734231528482	0.21053703	0.45884314
0.8150006039268024	0.2136804	0.46225578
0.8325278037678551	0.21643735	0.4652283
0.8500550230861152	0.1858045	0.43105045
0.8675822622916969	0.2011443	0.44849113
0.8851095217947171	0.21197873	0.4604115
0.9026368020052984	0.20305006	0.45061076
0.9201641033335665	0.1776876	0.42153007
0.9376914261896523	0.20498545	0.4527532
0.9552187709836915	0.21954466	0.46855593
0.9727461381258234	0.26302546	0.51286006
0.990273528026193	0.25020978	0.50020975
1.0078009410949496	0.21595219	0.46470657
1.0253283777422473	0.21142825	0.4598133
1.0428558383782454	0.22847699	0.47799265
1.0603833234131086	0.28769538	0.5363724
1.0779108332570058	0.31763324	0.56358963
1.0954383683201119	0.32945174	0.57397884
1.112965929012607	0.3767784	0.61382276
1.1304935157446763	0.496829	0.704861
1.1480211289265108	0.494348	0.70309883
1.1655487689683062	1.2859119	1.1339805
1.1830764362802655	1.5482415	1.2442836
1.200604131272596	1.9973093	1.4132619
1.2181318543555117	2.3269434	1.5254322
1.235659605939232	2.415588	1.5542161
1.253187386433982	3.9304833	1.9825447
1.270715196249994	6.2453823	2.4990764
1.2882430357975057	11.571629	3.4017096
1.3057709054867608	16.381763	4.047439
1.3232988057280106	22.267513	4.718847
1.3408267369315112	27.304253	5.225347
1.358354699507526	30.963238	5.564462
1.3758826938663256	35.157646	5.9293885
1.3934107204181858	37.189663	6.098333
1.410938779573391	37.379887	6.1139092
1.4284668717422309	37.75882	6.1448207
1.4459949973350033	37.387302	6.114516
1.4635231567620117	37.61343	6.132979
1.4810513504335687	37.327267	6.1096044
1.4985795787599925	36.594666	6.0493526
1.5161078421516088	35.741592	5.9784274
1.5336361410187505	34.825974	5.9013534
1.5511644757717598	34.916557	5.9090233
1.5686928468209842	35.60342	5.9668603
1.58622125457678	36.21532	6.0179167
1.6037496994495108	37.233982	6.1019654
1.621278181849548	37.07983	6.089321
1.6388067021872719	38.223866	6.182545
1.6563352608730693	37.907196	6.156882
1.673863858317336	36.926018	6.0766783
1.6913924949304753	35.77312	5.9810634
1.7089211711228998	34.503345	5.873955
1.7264498873050296	33.79479	5.8133287
1.7439786438872935	32.987747	5.743496
1.7615074412801288	32.16619	5.6715245
1.779036279893981	31.806507	5.6397257
1.796565160139305	31.036154	5.57101
1.814094082426564	30.378675	5.5116854
1.8316230471662298	29.090912	5.393599
1.849152054768784	28.075665	5.2986474
1.8666811056447168	27.614748	5.2549734
1.8842102002045273	26.815693	5.178387
1.901739338858724	26.466547	5.1445646
1.9192685220178245	25.791603	5.078543
1.9367977500923557	25.059294	5.0059257
1.9543270234928547	24.015417	4.9005527
1.971856342629867	23.254517	4.8222938
1.9893857079139496	23.049435	4.8009825
2.006915119755667	23.027554	4.798703
2.0244445785655945	22.774633	4.7722774
2.0419740847543175	22.354216	4.7280245
2.0595036387324317	21.779026	4.6668005
2.0770332409105414	21.32891	4.6183233
2.094562891699263	20.66117	4.545456
2.1120925915092217	20.072327	4.480215
2.129622340751053	19.953878	4.4669766
2.1471521398354043	187.90149	13.707716
2.1646819891729323	444.25275	21.077305
2.182211889174303	440.25293	20.982204
2.1997418402501974	452.67694	21.276205
2.2172718428113023	432.69986	20.80144
2.234801897268317	320.68787	17.90776
2.2523320040319548	17.355402	4.1659813
2.269862163512935	17.349646	4.1652904
2.287392376121992	17.123144	4.138012
2.304922642269869	16.681616	4.0843134
2.322452962367322	15.9454775	3.9931788
2.3399833368251164	15.289471	3.9101753
2.357513766054032	15.033112	3.8772557
2.3750442504648586	14.942472	3.8655493
2.3925747904683963	14.931936	3.8641863
2.410105386475459	14.780987	3.844605
2.4276360388968707	14.444857	3.800639
2.445166748143469	14.12339	3.7581098
2.4626975146261025	13.674698	3.6979315
2.4802283387556323	13.430619	3.6647809
2.4977592209429305	13.195135	3.632511
2.5152901615988825	13.050965	3.612612
2.5328211611343865	13.009765	3.6069052
2.5503522199603523	12.976215	3.6022515
2.5678833384877024	12.825244	3.581235
2.5854145171273712	12.584517	3.5474663
2.6029457562903064	12.328251	3.5111609
2.620477056387469	11.947866	3.4565685
2.6380084178298326	11.612434	3.4077022
2.655539841028383	11.357903	3.3701487
2.673071326394119	11.216526	3.3491082
2.6906028743380523	11.143798	3.3382328
2.708134485271211	11.036925	3.3221867
2.7256661596046325	10.982446	3.3139772
2.743197897749369	10.852302	3.2942832
2.760729700116486	10.65668	3.264457
2.778261567117063	10.464996	3.2349646
2.795793499162193	10.302716	3.2097845
2.8133254966629817	10.202233	3.1940935
2.830857560030551	10.013903	3.1644752
2.8483896896760337	9.889007	3.144679
2.865921886010578	9.676814	3.1107578
2.883454149445347	9.561314	3.0921373
2.9009864803915177	9.425446	3.0700889
2.91851887926028	9.303641	3.050187
2.9360513464628384	9.228391	3.0378265
2.953583882410413	9.096819	3.0160933
2.9711164875142373	8.887453	2.981183
2.9886491621855606	8.655288	2.941987
3.0061819068356455	8.5511675	2.924238
3.023714721875769	8.536155	2.92167
3.041247607717225	8.373025	2.8936179
3.0587805647713213	8.241897	2.8708704
3.0763135934493806	8.192631	2.8622773
3.0938466941627407	8.287588	2.878817
3.1113798673227544	8.275977	2.8767998
3.1289131133407904	8.149252	2.8546894
3.1464464326282315	7.988623	2.8264153
3.1639798255964786	7.902123	2.8110714
3.1815132926569443	7.847012	2.801252
3.1990468342210603	7.824762	2.7972777
3.216580450700272	7.6768074	2.7707052
3.2341141425060416	7.5270624	2.7435493
3.251647910049847	7.5154824	2.741438
3.2691817537431813	7.370947	2.714949
3.286715673997555	7.2995625	2.7017703
3.3042496712244938	7.197306	2.6827796
3.32178374583554	7.1246305	2.6692004
3.339317898242251	7.0462046	2.6544688
3.3568521288562034	6.8982816	2.626458
3.3743864380889876	6.751825	2.5984273
3.3919208263522127	6.6492066	2.5786057
3.4094552940575023	6.580354	2.56522
3.4269898416164972	6.5743456	2.5640488
3.444524469440858	6.51644	2.5527318
3.4620591779422587	6.4464755	2.538991
3.479593967532391	6.3746824	2.5248134
3.4971288386229658	6.3122506	2.5124192
3.5146637916257086	6.359758	2.521856
3.5321988269523628	6.4042897	2.53067
3.5497339450146903	6.387918	2.5274332
3.5672691462244708	6.485532	2.5466707
3.5848044309934988	6.4626956	2.5421832
3.60233979973359	6.373143	2.5245085
3.619875252856575	6.2449636	2.4989924
3.6374107907743034	6.206176	2.4912198
3.6549464138986427	6.1981697	2.4896123
3.6724821226414788	6.2204704	2.494087
3.690017917414714	6.156158	2.4811606
3.7075537986302702	6.1552825	2.4809842
3.7250897667000857	6.3018427	2.5103471
3.7426258220361235	6.390419	2.5279279
3.7601619650503553	6.7382627	2.5958164
3.777698196154779	7.310745	2.7038388
3.7952345157614067	8.417357	2.9012682
3.8127709242822716	9.2715845	3.0449276
3.830307422129425	11.5206785	3.3942125
3.847844009714936	30.212252	5.4965672
3.8653806874508954	97.6472	9.8816595
3.882917455749409	96.908844	9.844229
3.900454315022606	96.74633	9.835971
3.917991265682631	41.435635	6.437052
3.9355283081416506	10.981508	3.3138359
3.9530654428118495	8.714287	2.951997
3.970602670105433	7.4283204	2.7254946
3.9881399904346244	6.52353	2.5541203
4.005677404211669	6.498148	2.5491464
4.023214911848827	6.4312053	2.5359821
4.0407525137583855	6.377827	2.525436
4.058290210352644	6.43505	2.53674
4.075828002043927	6.3899655	2.5278382
4.0933658892445814	6.329005	2.5157514
4.110903872366966	6.225955	2.4951863
4.128441951823468	6.2070947	2.491404
4.145980128026488	6.1986895	2.4897168
4.163518401388452	6.184059	2.4867768
4.181056772321807	6.151534	2.4802287
4.1985952412390155	6.1723537	2.4844222
4.216133808552567	6.215215	2.4930334
4.233672474674966	6.210318	2.492051
4.251211240018741	6.357517	2.5214117
4.268750104996445	6.5874963	2.5666118
4.286289070020643	7.646192	2.7651749
4.303828135503928	9.276444	3.0457256
4.3213673018589125	29.58707	5.4393997
4.3389065694982305	90.67382	9.52228
4.356445938834537	165.98885	12.883666
4.3739854102805085	171.68327	13.102797
4.391524984248844	172.56508	13.136403
4.409064661152262	136.5936	11.687326
4.426604441403504	96.748024	9.836058
4.444144325415337	75.50608	8.689424
4.461684313600543	21.493402	4.636098
4.47922440637193	21.775932	4.666469
4.496764604142329	20.285402	4.503932
4.5143049073245916	18.549553	4.306919
4.531845316331589	16.526966	4.065337
4.5493858315762195	13.758561	3.7092535
4.566926453471405	11.438318	3.3820584
4.584467182430081	9.488523	3.0803444
4.602008018865218	8.426719	2.9028811
4.619548963189798	7.7604933	2.7857661
4.637090015816834	7.195697	2.6824796
4.654631177159353	6.8551297	2.6182303
4.672172447630417	6.4665995	2.5429509
4.689713827643102	6.350922	2.5201037
4.7072553176105085	6.165945	2.4831321
4.724796917945764	5.9748607	2.4443529
4.742338629062015	5.866342	2.4220533
4.759880451372434	5.704061	2.3883176
4.777422385290215	5.652949	2.377593
4.794964431228581	5.688773	2.385115
4.812506589600768	5.6125493	2.369082
4.830048860820047	5.6162105	2.3698545
4.847591245299709	5.5476794	2.3553512
4.8651337434530655	5.5673146	2.3595157
4.882676355693457	5.5460896	2.3550136
4.900219082434242	5.5421505	2.3541772
4.917761924088813	5.520282	2.349528
4.935304881070575	5.498579	2.344905
4.952847953792969	5.418981	2.3278706
4.970391142669449	5.3999615	2.3237817
4.9879344481135055	5.4001737	2.3238273
5.005477870538642	5.4319754	2.3306599
5.023021410358394	5.479113	2.3407505
5.040565067986324	5.469682	2.338735
5.05810884383601	5.4526215	2.335085
5.075652738321066	5.43711	2.3317611
5.09319675185512	5.412516	2.3264816
5.110740884851836	5.376259	2.318676
5.128285137724894	5.403883	2.3246253
5.145829510888007	5.39141	2.321941
5.163374004754908	5.347527	2.312472
5.1809186197393595	5.2928333	2.3006158
5.198463356255145	5.277683	2.2973208
5.216008214716077	5.28405	2.298706
5.233553195535998	5.2790174	2.2976112
5.251098299128764	5.2873263	2.2994187
5.268643525908272	5.30925	2.3041809
5.286188876288432	5.3334274	2.3094215
5.3037343506831895	5.307085	2.3037112
5.32127994950651	5.209723	2.2824817
5.3388256731723915	5.157099	2.2709246
5.356371522094851	5.1223254	2.2632556
5.373917496687938	5.152665	2.2699482
5.391463597365729	5.165988	2.272881
5.40900982454232	5.1466074	2.2686136
5.426556178631843	5.169428	2.2736375
5.444102660048449	5.244362	2.2900572
5.4616492692063225	5.2557673	2.292546
5.479196006519669	5.208271	2.2821636
5.496742872402727	5.1219816	2.2631795
5.514289867269756	5.092285	2.2566092
5.531836991535049	5.0976744	2.257803
5.549384245612924	5.129283	2.264792
5.566931629917724	5.1509333	2.2695668
5.584479144863822	5.1224523	2.2632835
5.6020267908656205	5.1377144	2.2666526
5.619574568337545	5.13075	2.265116
5.637122477694054	5.1692567	2.2735999
5.654670519349629	5.2129636	2.2831914
5.672218693718784	5.161976	2.2719982
5.689767001216059	5.1934156	2.2789066
5.707315442256021	5.184146	2.276872
5.724864017253266	5.2305903	2.2870483
5.7424127266224225	5.236769	2.2883987
5.75996157077814	5.2414527	2.2894218
5.777510550135105	5.2008147	2.2805295
5.795059665108022	5.196818	2.279653
5.812608916111639	5.146112	2.2685044
5.830158303560715	5.2919474	2.3004234
5.847707827870055	5.300177	2.3022113
5.86525748945448	5.343187	2.3115335
5.8828072887288485	5.493541	2.3438303
5.900357226108044	5.5322967	2.3520834
5.917907302006979	5.698476	2.3871481
5.9354575168406	6.2200637	2.4940054
5.9530078710238765	6.79159	2.606068
5.970558364971812	7.2630777	2.6950097
5.988108999099438	7.602564	2.7572746
6.005659773821818	8.0854	2.8434837
6.023210689554039	7.9166713	2.813658
6.040761746711227	8.283559	2.8781173
6.058312945708531	7.7215095	2.7787604
6.075864286961132	7.264156	2.6952097
6.093415770884244	6.579795	2.5651112
6.1109673978931065	6.0920897	2.468216
6.128519168402993	5.5288644	2.3513536
6.146071082829204	5.3566775	2.3144498
6.163623141587075	5.268227	2.2952619
6.181175345091969	5.2454205	2.2902882
6.198727693759281	5.265212	2.294605
6.216280188004435	5.2866235	2.2992659
6.233832828242885	5.244752	2.2901423
6.251385614890126	5.2239866	2.2856042
6.268938548361669	5.1294665	2.2648325
6.286491629073067	5.0056024	2.2373204
6.304044857439898	5.0760036	2.2529988
6.321598233877777	5.112707	2.2611296
6.339151758802344	5.1041937	2.2592463
6.356705432629277	5.0463233	2.2464023
6.37425925577428	4.9727106	2.2299576
6.391813228653095	4.945308	2.223805
6.409367351681486	4.9670997	2.2286992
6.426921625275259	4.9603825	2.2271917
6.44447604985025	4.9835105	2.2323778
6.46203062582232	5.0302315	2.2428176
6.47958535360737	5.0335693	2.2435617
6.497140233621328	4.97081	2.2295313
6.514695266280161	4.994071	2.234742
6.532250451999859	4.993327	2.2345753
6.549805791196454	5.0488324	2.2469606
6.567361284286002	5.074056	2.2525666
6.584916931684597	5.0312624	2.2430475
6.602472733808367	5.004064	2.2369766
6.6200286910734665	4.913603	2.2166648
6.637584803896092	4.931991	2.2208087
6.655141072692462	4.9924383	2.2343764
6.672697497878842	4.997229	2.2354484
6.690254079871514	5.0252366	2.241704
6.707810819086808	5.0215316	2.2408774
6.725367715941078	5.0144606	2.239299
6.742924770850719	4.9602084	2.2271526
6.760481984232151	4.9783325	2.2312176
6.778039356501836	4.9827332	2.2322037
6.795596888076266	5.033963	2.2436495
6.813154579371963	5.052931	2.2478726
6.830712430805492	5.0292144	2.242591
6.84827044279344	5.000948	2.23628
6.865828615752445	4.979785	2.231543
6.883386950099159	4.980273	2.2316525
6.900945446250287	4.9809756	2.2318099
6.918504104622553	4.9700065	2.229351
6.936062925632727	5.0425544	2.2455633
6.953621909697607	5.095333	2.2572844
6.971181057234028	5.12636	2.2641466
6.988740368658859	5.1461616	2.2685153
7.006299844389007	5.184784	2.277012
7.023859484841407	5.258436	2.293128
7.041419290433036	5.442973	2.333018
7.058979261580902	5.539715	2.3536599
7.0765393987020495	5.761755	2.4003656
7.094099702213559	6.101061	2.4700325
7.111660172532549	6.395767	2.5289855
7.129220810076164	6.763349	2.6006439
7.146781615261595	7.42086	2.7241256
7.16434258850606	7.591504	2.7552683
7.181903730226821	8.091181	2.8445
7.1994650408411704	8.158784	2.8563585
7.217026520766437	8.338069	2.8875716
7.234588170419983	8.575974	2.9284766
7.252149990219215	8.524335	2.9196463
7.269711980581568	8.43575	2.9044363
7.2872741419245175	8.234721	2.8696203
7.304836474665574	7.782991	2.7898011
7.322398979222286	7.4880013	2.7364213
7.339961656012233	7.2045617	2.6841314
7.357524505453039	6.91477	2.629595
7.375087527962357	6.653341	2.579407
7.392650723957886	6.291321	2.5082505
7.410214093857353	5.9479933	2.4388509
7.427777638078528	5.7123938	2.3900614
7.445341357039213	5.554872	2.3568776
7.4629052511572525	5.4403706	2.3324602
7.480469320850524	5.319579	2.3064213
7.498033566536948	5.2862797	2.299191
7.5155979886344735	5.1833425	2.2766955
7.5331625875610975	5.2001286	2.280379
7.550727363734844	5.159864	2.2715335
7.568292317573788	5.175148	2.2748952
7.585857449496025	5.187885	2.2776928
7.603422759919705	5.1792994	2.2758074
7.620988249263007	5.1849155	2.277041
7.638553917944147	5.1797276	2.2759016
7.656119766381391	5.2145143	2.2835312
7.673685794993023	5.232042	2.2873657
7.691252004197388	5.2183337	2.2843673
7.70881839441285	5.2516656	2.2916512
7.726384966057826	5.2289176	2.2866826
7.743951719550762	5.2210884	2.28497
7.761518655310149	5.2109585	2.2827523
7.779085773754511	5.199404	2.28022
7.796653075302419	5.218838	2.2844777
7.814220560372475	5.2259164	2.2860262
7.831788229383323	5.235524	2.2881267
7.8493560827536495	5.2836113	2.2986107
7.866924120902174	5.3393965	2.3107135
7.884492344247663	5.3402686	2.310902
7.9020607532089135	5.3632765	2.3158748
7.919629348204771	5.3691316	2.3171387
7.937198129654115	5.4034333	2.3245287
7.954767097975865	5.3545785	2.3139963
7.972336253588986	5.3018956	2.3025846
7.989905596912472	5.327026	2.3080351
8.007475128365371	5.434028	2.3311002
8.025044848366756	5.4834104	2.3416684
8.042614757335754	5.6166606	2.3699496
8.060184855691523	5.6462703	2.3761883
8.07775514385327	5.834027	2.415373
8.095325622240228	5.866135	2.4220107
8.112896291271687	5.9261355	2.4343655
8.130467151366968	5.889623	2.4268546
8.148038202945436	5.89186	2.4273155
8.165609446426497	5.871808	2.4231813
8.183180882229594	5.946157	2.4384744
8.200752510774217	5.9554677	2.4403827
8.218324332479893	5.9697995	2.4433174
8.235896347766193	5.940188	2.4372501
8.253468557052724	6.01827	2.4532163
8.27104096075914	6.0887995	2.4675493
8.288613559305137	6.1007147	2.4699626
8.306186353110448	6.152301	2.4803832
8.32375934259485	6.1844387	2.4868531
8.341332528178162	6.2848268	2.5069556
8.358905910280246	6.30793	2.5115592
8.376479489321003	6.2721915	2.5044343
8.394053265720377	6.314462	2.5128593
8.411627239898356	6.3435073	2.518632
8.42920141227497	6.2964077	2.5092645
8.44677578327029	6.2036324	2.4907093
8.464350353304427	6.1450667	2.4789245
8.48192512279754	6.097551	2.469322
8.499500092169827	6.1155	2.4729538
8.51707526184153	6.1471777	2.4793503
8.534650632232934	6.1813555	2.4862332
8.552226203764365	6.227486	2.4954932
8.569801976856192	6.2414484	2.498289
8.587377951928834	6.2104154	2.4920704
8.60495412940274	6.2824516	2.506482
8.622530509698416	6.2983403	2.5096495
8.6401070932364	6.4126625	2.5323236
8.657683880437283	6.527842	2.5549643
8.675260871721695	6.6563306	2.5799866
8.692838067510303	6.876955	2.6223948
8.710415468223834	7.095338	2.6637075
8.727993074283043	7.2137723	2.6858466
8.745570886108737	7.173675	2.6783717
8.763148904121765	7.1365485	2.671432
8.78072712874302	7.1994123	2.683172
8.798305560393441	7.4992504	2.738476
8.815884199494006	7.6796336	2.7712152
8.833463046465745	7.822124	2.796806
8.851042101729728	7.921718	2.8145547
8.86862136570707	8.174763	2.8591542
8.886200838818924	8.305178	2.8818705
8.903780521486505	8.338476	2.887642
8.921360414131055	8.497308	2.9150143
8.938940517173874	8.6572	2.942312
8.956520831036297	8.793863	2.9654448
8.97410135613971	8.982641	2.9971054
8.99168209290554	9.111052	3.018452
9.009263041755265	9.431934	3.0711455
9.026844203110405	9.68336	3.1118097
9.044425577392525	9.910883	3.1481555
9.062007165023239	9.969687	3.1574812
9.079588966424197	10.175383	3.1898875
9.097170982017108	10.259177	3.202995
9.11475321222372	11.133217	3.3366475
9.132335657465825	11.932434	3.4543355
9.149918318165264	12.046671	3.4708314
9.167501194743924	12.774923	3.5742025
9.18508428762374	12.597234	3.5492582
9.202667597226693	12.604398	3.5502672
9.220251123974803	12.198004	3.492564
9.237834868290143	11.8483925	3.4421494
9.255418830594836	11.532797	3.3959973
9.273003011311046	10.97612	3.3130229
9.290587410860985	10.755795	3.2796028
9.308172029666911	10.139681	3.1842866
9.32575686815113	9.9251175	3.1504154
9.343341926735997	8.82322	2.9703906
9.360927205843916	8.608009	2.933941
9.378512705897327	8.403605	2.8988972
9.396098427318728	8.249697	2.8722286
9.413684370530664	8.162135	2.856945
9.431270535955722	7.9788146	2.8246796
9.448856924016539	7.917281	2.8137665
9.466443535135806	7.805702	2.7938688
9.484030369736251	7.8337765	2.7988884
9.501617428240658	7.8508	2.8019278
9.519204711071852	7.8537855	2.8024607
9.536792218652714	7.890632	2.809027
9.55437995140617	7.804643	2.7936792
9.571967909755191	7.8130383	2.7951813
9.589556094122802	7.820109	2.7964458
9.60714450493207	7.8545847	2.8026032
9.624733142606116	7.8902893	2.808966
9.642322007568108	7.922161	2.8146334
9.659911100241267	7.9919863	2.8270102
9.677500421048851	8.03249	2.8341649
9.695089970414175	8.05782	2.83863
9.712679748760609	8.013114	2.8307445
9.730269756511557	7.968289	2.8228157
9.747859994090492	8.026523	2.8331118
9.765450461920915	8.105907	2.8470876
9.78304116042639	8.178827	2.859865
9.800632090030527	8.219868	2.867031
9.81822325115699	8.289728	2.8791888
9.835814644229481	8.312538	2.8831472
9.853406269671762	8.346665	2.8890595
9.870998127907646	8.362979	2.8918815
9.888590219360985	8.340201	2.8879406
9.906182544455698	8.334078	2.8868804
9.923775103615734	8.298259	2.8806698
9.941367897265108	8.317323	2.883977
9.958960925827878	8.361296	2.8915906
9.97655418972816	8.372061	2.8934515
9.994147689390106	8.34662	2.8890517
10.011741425237934	8.304211	2.8817027
10.029335397695904	8.267201	2.8752742
10.04692960718833	8.257024	2.8735037
10.06452405413958	8.285206	2.8784034
10.082118738974064	8.285376	2.8784328
10.099713662116246	8.269258	2.8756316
10.117308823990651	8.293521	2.8798473
10.134904225021844	8.305753	2.8819704
10.152499865634445	8.315906	2.8837311
10.170095746253125	8.277961	2.8771446
10.18769186730261	8.206385	2.8646789
10.205288229207675	8.177322	2.8596017
10.222884832393145	8.150926	2.8549826
10.2404816772839	8.18382	2.8607376
10.258078764304868	8.2256565	2.8680406
10.275676093881035	8.151699	2.855118
10.293273666437438	8.000975	2.8285995
10.310871482399158	7.976125	2.8242035
10.32846954219134	8.043302	2.8360715
10.346067846239173	8.151571	2.8550956
10.363666394967908	8.121555	2.8498342
10.38126518880283	8.129288	2.8511906
10.398864228169298	8.1528	2.8553107
10.416463513492713	8.209087	2.8651505
10.434063045198531	8.251713	2.8725796
10.451662823712262	8.206367	2.8646758
10.469262849459467	8.202269	2.8639603
10.486863122865758	8.115549	2.8487804
10.504463644356806	8.142699	2.8535416
10.522064414358338	8.120082	2.8495758
10.539665433296118	8.039921	2.8354754
10.557266701595987	7.964201	2.8220916
10.574868219683818	7.8717813	2.8056695
10.592469987985552	7.811431	2.7948937
10.610072006927185	7.754167	2.7846305
10.627674276934751	7.7041554	2.775636
10.64527679843435	7.5704513	2.7514453
10.662879571852143	7.4109874	2.722313
10.680482597614331	7.17902	2.6793692
10.698085876147173	7.00129	2.6459951
10.715689407876988	6.8715715	2.6213682
10.733293193230146	6.8050103	2.6086414
10.750897232633072	6.750132	2.5981016
10.76850152651225	6.699282	2.5882971
10.786106075294207	6.708293	2.5900373
10.803710879405534	6.641065	2.5770264
10.821315939272877	6.5386224	2.557073
10.83892125532294	6.3935633	2.5285497
10.856526827982472	6.2816234	2.5063167
10.874132657678285	6.209664	2.4919198
10.891738744837243	6.2772846	2.505451
10.909345089886271	6.24193	2.4983854
10.926951693252343	6.148268	2.4795702
10.944558555362494	6.0396004	2.4575598
10.96216567664381	5.946785	2.4386032
10.979773057523436	5.9280877	2.4347665
10.997380698428573	5.921175	2.4333465
11.014988599786477	5.8462152	2.4178948
11.032596762024461	5.7980256	2.407909
11.050205185569892	5.611828	2.3689296
11.067813870850198	5.5965176	2.365696
11.085422818292859	5.5461125	2.3550186
11.10303202832541	5.48431	2.3418603
11.120641501375454	5.395443	2.3228092
11.138251237870636	5.3412538	2.3111153
11.155861238238671	5.3420825	2.3112946
11.173471502907317	5.2982497	2.3017926
11.191082032304402	5.1644645	2.2725458
11.208692826857805	5.0703535	2.2517445
11.226303886995465	5.0311837	2.24303
11.243915213145371	5.0448127	2.246066
11.261526805735578	4.9846196	2.2326262
11.279138665194196	4.9219213	2.2185404
11.296750791949393	4.8711205	2.2070615
11.314363186429393	4.8591113	2.2043393
11.331975849062479	4.8218017	2.1958601
11.34958878027699	4.7247777	2.1736553
11.36720198050133	4.6071477	2.1464267
11.384815450163948	4.5328207	2.1290421
11.402429189693366	4.5227375	2.126673
11.420043199518153	4.5056586	2.1226537
11.437657480066942	63.458157	7.966063
11.455272031768422	85.162575	9.228357
11.472886855051353	107.573524	10.371766
11.490501950344528	99.12676	9.956243
11.508117318076819	84.4836	9.191496
11.52573295867715	45.847507	6.7710786
11.543348872574514	4.178534	2.0441463
11.560965060197946	4.109838	2.0272737
11.57858152197655	4.0810676	2.0201652
11.59619825833949	3.9702845	1.9925573
11.613815269715985	3.9332023	1.9832302
11.631432556535323	38.48125	6.2033257
11.649050119226837	83.052124	9.113294
11.666667958219929	93.4716	9.668072
11.68428607394406	107.690346	10.377396
11.701904466828756	82.51213	9.083619
11.719523137303586	65.35617	8.084316
11.737142085798196	4.589796	2.142381
11.754761312742286	3.7096255	1.9260389
11.772380818565619	3.667738	1.915134
11.790000603698015	3.6585648	1.9127375
11.80762066856935	3.60421	1.8984756
11.825241013609572	3.5329328	1.8796097
11.842861639248683	3.494115	1.8692552
11.860482545916748	3.4796178	1.8653734
11.878103734043883	3.4369347	1.8538972
11.895725204060282	3.3953743	1.8426541
11.91334695639619	3.362733	1.8337756
11.930968991481919	3.3743885	1.8369509
11.948591309747824	3.3736293	1.8367442
11.966213911624347	3.378573	1.8380895
11.98383679754198	3.3390002	1.8272932
12.001459967931268	3.3062732	1.818316
12.019083423222835	3.2713966	1.8087002
12.036707163847352	3.261983	1.8060961
12.05433119023556	3.2066169	1.7907029
12.071955502818259	3.1338503	1.7702684
12.089580102026313	3.1219783	1.7669121
12.107204988290643	3.110578	1.7636831
12.12483016204224	3.0753255	1.7536606
12.142455623712152	3.0620193	1.7498627
12.16008137373149	3.0558088	1.7480872
12.177707412531431	3.0955462	1.7594165
12.19533374054321	3.0948057	1.7592059
12.212960358198126	3.0818236	1.7555124
12.230587265927545	3.0440054	1.7447078
12.248214464162889	2.9887214	1.7287918
12.265841953335649	2.959396	1.7202895
12.283469733877375	2.9248228	1.7102113
12.301097806219685	2.9153018	1.7074255
12.31872617079425	2.957288	1.7196767
12.336354828032825	2.9793127	1.7260685
12.353983778367205	3.002945	1.7329007
12.371613022229262	2.996418	1.7310165
12.389242560050928	2.9576125	1.719771
12.406872392264201	2.9422865	1.7153095
12.424502519301143	2.8891943	1.699763
12.442132941593874	2.854422	1.6895036
12.459763659574586	2.8483543	1.6877068
12.477394673675532	2.8515775	1.6886615
12.49502598432903	2.8485696	1.6877706
12.51265759196746	2.8245683	1.6806452
12.530289497023267	2.813219	1.6772654
12.547921699928967	2.811633	1.6767925
12.565554201117134	2.8318453	1.6828088
12.583187001020404	2.8791006	1.6967913
12.600820100071486	2.8289084	1.6819359
12.618453498703152	2.8119166	1.676877
12.636087197348235	2.7890525	1.6700456
12.65372119643964	2.82263	1.6800684
12.671355496410326	2.8564804	1.6901125
12.68899009769333	2.8897023	1.6999124
12.706625000721749	2.8941185	1.7012109
12.724260205928752	2.929202	1.7114912
12.741895713747551	2.9533672	1.7185364
12.759531524611454	2.9963024	1.730983
12.777167638953818	2.9888022	1.7288152
12.794804057208072	2.9615443	1.7209138
12.812440779807702	2.9958334	1.7308476
12.830077807186271	3.187475	1.7853501
12.847715139777405	3.2709532	1.8085777
12.865352778014795	3.5016024	1.871257
12.882990722332197	3.572414	1.8900831
12.90062897316344	3.6232672	1.9034882
12.918267530942412	3.7391548	1.9336895
12.935906396103071	3.6432583	1.9087322
12.953545569079449	3.8385255	1.9592155
12.971185050305628	3.6036124	1.8983183
12.988824840215775	3.58534	1.8934994
13.006464939244115	3.57343	1.8903519
13.024105347824943	3.4432669	1.8556042
13.041746066392617	3.5338879	1.8798637
13.05938709538157	3.3479884	1.8297509
13.077028435226296	3.3549278	1.8316462
13.094670086361363	3.2652066	1.8069882
13.112312049221401	3.1518075	1.775333
13.129954324241112	3.0239747	1.7389579
13.147596911855258	2.854907	1.689647
13.165239812498685	2.8590925	1.6908851
13.182883026606293	2.773674	1.6654351
13.200526554613058	2.7223012	1.6499398
13.218170396954017	2.684804	1.6385372
13.235814554064284	2.7097046	1.646118
13.253459026379034	2.7685614	1.6638994
13.271103814333523	2.7420344	1.655909
13.288748918363058	2.71608	1.6480534
13.306394338903031	2.701474	1.6436161
13.32404007638889	2.7036602	1.644281
13.341686131256164	2.731174	1.6526264
13.359332503940449	2.6783187	1.636557
13.376979194877402	2.6465523	1.6268228
13.394626204502751	2.6780736	1.6364821
13.412273533252307	2.7291932	1.652027
13.429921181561937	2.733259	1.6532571
13.447569149867581	2.7569473	1.6604058
13.465217438605247	2.7614038	1.6617472
13.482866048211022	2.7640324	1.6625379
13.500514979121052	2.7701566	1.6643788
13.518164231771568	2.7517593	1.6588428
13.535813806598844	2.7133555	1.6472266
13.553463704039254	2.6881387	1.6395544
13.571113924529229	2.6254478	1.6203233
13.588764468505275	2.6702657	1.6340947
13.606415336403956	2.7065434	1.6451576
13.624066528661917	2.7505658	1.658483
13.641718045715882	2.832791	1.6830897
13.659369888002635	2.8795142	1.6969131
13.67702205595903	2.9259818	1.7105502
13.694674550021993	2.9840336	1.7274356
13.712327370628532	3.028228	1.7401805
13.729980518215713	3.115153	1.7649796
13.747633993220681	3.207998	1.7910885
13.765287796080647	3.266967	1.8074753
13.7829419272329	3.2489154	1.8024749
13.800596387114801	3.2450697	1.8014077
13.818251176163775	3.2699647	1.8083044
13.835906294817324	3.3595755	1.8329145
13.853561743513023	3.4198174	1.8492749
13.871217522688525	3.499868	1.8707933
13.888873632781538	3.5368292	1.880646
13.906530074229858	3.5572522	1.8860679
13.92418684747135	3.5644343	1.8879709
13.941843952943948	3.5232754	1.877039
13.959501391085665	3.4973931	1.8701319
13.977159162334578	3.4226408	1.850038
13.994817267128846	3.413735	1.8476295
14.012475705906693	3.3616285	1.8334744
14.030134479106424	3.3078094	1.8187383
14.047793587166414	3.1955748	1.7876171
14.065453030525108	3.1404407	1.7721288
14.083112809621026	3.0344954	1.7419803
14.100772924892766	2.9643316	1.7217234
14.118433376778997	2.915493	1.7074815
14.136094165718458	2.8376856	1.6845431
14.153755292149969	2.7705736	1.664504
14.171416756512416	2.7112358	1.6465831
14.189078559244768	2.6938462	1.6412941
14.20674070078606	2.6234581	1.6197093
14.224403181575408	2.5647132	1.6014723
14.242066002051999	2.5181265	1.5868605
14.259729162655093	2.4944162	1.579372
14.277392663824022	2.457484	1.5676365
14.295056505998208	2.4207697	1.5558823
14.312720689617128	2.3935509	1.5471104
14.330385215120348	2.3906562	1.5461748
14.348050082947497	2.3981757	1.5486045
14.3657152935383	2.4117954	1.5529956
14.383380847332528	2.4088144	1.5520356
14.401046744770051	2.3699925	1.539478
14.418712986290798	2.3324063	1.5272218
14.436379572334793	2.322156	1.5238621
14.454046503342123	2.3543766	1.5343978
14.471713779752946	2.381219	1.5431199
14.489381402007504	2.414245	1.553784
14.507049370546113	2.4258025	1.5574988
14.524717685809168	2.430755	1.5590879
14.542386348237134	2.430246	1.5589247
14.560055358270553	2.4548151	1.566785
14.577724716350051	2.4718828	1.5722222
14.595394422916325	2.494	1.5792403
14.61306447841015	2.4896579	1.577865
14.63073488327237	2.4792297	1.574557
14.648405637943917	2.4960704	1.5798957
14.6660767428658	2.49474	1.5794746
14.683748198479094	2.5433269	1.5947812
14.701420005224954	2.5952127	1.6109664
14.719092163544628	2.6854198	1.638725
14.73676467387942	2.6947246	1.6415616
14.754437536670727	2.6613357	1.63136
14.772110752360014	2.6448643	1.6263039
14.78978432138882	2.6609235	1.6312337
14.807458244198777	2.70791	1.6455729
14.82513252123159	2.7209463	1.6495291
14.842807152929028	2.7067318	1.6452148
14.860482139732962	2.6848638	1.6385554
14.87815748208531	2.6316426	1.6222339
14.8958331804281	2.652105	1.6285285
14.91350923520342	2.6390026	1.6245008
14.931185646853438	2.6310952	1.6220651
14.948862415820408	2.6288395	1.6213696
14.966539542546656	2.6445575	1.6262095
14.98421702747459	2.6583178	1.6304349
15.001894871046696	2.685571	1.6387712
15.019573073705542	2.671413	1.6344458
15.037251635893766	2.6648893	1.6324489
15.054930558054092	2.6893387	1.6399204
15.072609840629323	2.7540932	1.659546
15.090289484062351	2.9172876	1.7080069
15.107969488796124	3.257921	1.8049712
15.125649855273691	3.6663218	1.9147642
15.14333058393817	4.149005	2.0369105
15.161011675232768	5.099859	2.2582867
15.17869312960076	6.466362	2.5429041
15.196374947485506	8.288734	2.8790162
15.214057129330447	11.352727	3.3693807
15.231739675579114	16.04751	4.0059342
15.249422586675102	20.990501	4.581539
15.267105863062092	24.058683	4.9049654
15.284789505183847	24.156458	4.9149218
15.302473513484218	22.008509	4.691323
15.320157888407127	18.396461	4.2891097
15.337842630396578	14.324498	3.784772
15.355527739896656	11.165532	3.3414865
15.37321321735153	8.757589	2.9593225
15.39089906320545	6.474459	2.5444958
15.408585277902748	4.918819	2.2178411
15.42627186188783	3.8020537	1.9498856
15.443958815605198	3.2585402	1.8051426
15.461646139499424	2.9516528	1.7180375
15.479333834015168	2.7896175	1.6702148
15.497021899597165	2.7246637	1.6506555
15.514710336690234	2.6673481	1.6332018
15.53239914573928	2.6104965	1.6157031
15.550088327189297	2.5600047	1.6000015
15.567777881485336	2.5117373	1.5848461
15.58546780907256	2.5109732	1.5846051
15.6031581103962	2.4875624	1.5772008
15.620848785901568	2.4977834	1.5804378
15.638539836034063	2.4774916	1.574005
15.656231261239173	2.4336193	1.5600061
15.673923061962451	2.40275	1.5500807
15.691615238649552	2.4163926	1.5544751
15.709307791746202	2.4145586	1.553885
15.727000721698221	2.407977	1.5517658
15.744694028951498	2.3725712	1.5403153
15.76238771395202	2.3742194	1.5408503
15.780081777145844	2.3768313	1.5416975
15.797776218979125	2.3910098	1.5462891
15.815471039898094	2.3735952	1.5406476
15.833166240349064	2.3554027	1.5347321
15.850861820778437	2.3435793	1.5308753
15.868557781632699	2.3397167	1.5296133
15.886254123358412	2.383969	1.5440108
15.903950846402232	2.3828058	1.5436339
15.921647951210897	2.3676918	1.5387306
15.939345438231225	2.3751328	1.5411466
15.957043307910133	2.38395	1.5440046
15.974741560694602	2.3825045	1.5435363
15.992440197031714	2.3565779	1.5351149
16.01013921736862	2.3535104	1.5341156
16.02783862215259	2.3717327	1.5400431
16.045538411830933	2.3544729	1.5344292
16.06323858685107	2.3692966	1.5392519
16.080939147660512	2.378859	1.5423551
16.09864009470684	2.3756595	1.5413175
16.11634142843774	2.3363926	1.5285263
16.134043149300954	2.3776202	1.5419533
16.15174525774433	2.406117	1.5511663
16.169447754215817	2.4513278	1.5656717
16.18715063916342	2.461519	1.5689229
16.204853913035244	2.482944	1.575736
16.222557576279478	2.4664934	1.5705074
16.240261629344403	22.423203	4.7353144
16.257966072678386	42.9673	6.5549445
16.275670906729868	38.087837	6.1715345
16.293376131947387	2.5206237	1.5876472
16.31108174877957	2.5397105	1.5936469
16.328787757675133	2.5582213	1.599444
16.34649415908287	2.5605066	1.6001583
16.364200953451657	2.5513618	1.5972983
16.38190814123048	2.552968	1.597801
16.39961572286839	2.5589714	1.5996785
16.41732369881455	2.6438735	1.6259992
16.43503206951817	2.7191613	1.648988
16.45274083542859	2.7512064	1.6586761
16.47044999699522	2.7736888	1.6654395
16.488159554667558	2.8051753	1.6748657
16.505869508895184	2.866651	1.6931187
16.523579860127786	2.8882644	1.6994895
16.541290608815117	2.9199607	1.7087892
16.559001755407035	2.9724565	1.7240813
16.57671330035348	3.0431595	1.7444654
16.59442524410448	3.0908108	1.7580702
16.61213758711015	3.1707475	1.7806593
16.629850329820705	3.2998028	1.816536
16.647563472686436	3.3428633	1.82835
16.665277016157724	3.3558054	1.8318857
16.682990960685053	3.3606453	1.8332063
16.70070530671898	3.4203649	1.8494228
16.718420054710155	3.4620397	1.8606557
16.736135205109335	3.5087068	1.8731543
16.753850758367335	3.5348313	1.8801147
16.771566714935087	3.5993524	1.8971959
16.789283075263597	3.6858814	1.9198649
16.80699983980398	3.7967658	1.9485291
16.82471700900741	3.84863	1.9617926
16.84243458332518	3.9107656	1.9775655
16.860152563208665	3.982723	1.995676
16.87787094910932	4.0616384	2.0153506
16.89558974147871	4.121051	2.0300372
16.913308940768466	4.180171	2.0445466
16.931028547430333	4.247547	2.060958
16.94874856191613	4.2914815	2.0715892
16.966468984677785	4.3539834	2.08662
16.98418981616729	4.394977	2.09642
17.00191105683676	4.4251895	2.1036134
17.019632707138374	4.4612746	2.112173
17.03735476752442	4.4979033	2.120826
17.05507723844728	4.4976907	2.120776
17.072800120359403	4.5594873	2.1352956
17.090523413713353	4.643565	2.1548934
17.108247118961785	4.7361407	2.1762676
17.125971236557437	4.7446504	2.178222
17.143695766953133	4.7534556	2.180242
17.161420710601806	4.7538605	2.180335
17.179146067956477	4.722756	2.1731904
17.19687183947025	4.650357	2.1564686
17.21459802559634	4.6304393	2.1518455
17.232324626788028	4.6288033	2.1514654
17.25005164349871	4.6092877	2.1469252
17.267779076181863	4.569438	2.1376243
17.285506925291074	4.5608683	2.135619
17.30323519127999	4.568919	2.137503
17.320963874602384	4.5837955	2.14098
17.33869297571211	4.545268	2.1319635
17.356422495063114	4.475362	2.115505
17.37415243310944	4.4995313	2.1212099
17.391882790305218	4.513204	2.1244304
17.40961356710468	4.4829626	2.1173007
17.42734476396215	4.4924426	2.1195383
17.445076381332044	4.536788	2.1299736
17.462808419668868	4.621251	2.1497095
17.48054087942723	4.7141886	2.1712182
17.498273761061835	4.9771028	2.230942
17.51600706502747	5.461123	2.3369045
17.533740791779024	6.1827445	2.4865124
17.551474941771485	7.641204	2.7642727
17.56920951545993	8.785977	2.964115
17.586944513299528	10.97066	3.3121986
17.60467993574556	12.573263	3.5458798
17.622415783253373	14.195312	3.7676666
17.64015205627843	15.4736595	3.9336572
17.657888755276293	16.39063	4.0485344
17.675625880702604	16.818789	4.101072
17.69336343301311	16.58355	4.0722904
17.71110141266366	15.90333	3.9878979
17.728839820110178	15.087962	3.8843226
17.746578655808705	14.243466	3.7740517
17.764317920215372	12.8150015	3.5798047
17.7820576137864	11.344309	3.3681314
17.79979773697811	9.386909	3.0638063
17.81753829024692	7.5732894	2.751961
17.835279274049356	5.9278636	2.4347205
17.85302068884201	4.921304	2.2184012
17.870762535081607	4.2265186	2.0558498
17.888504813224934	3.8955748	1.973721
17.90624752372891	3.6774004	1.9176549
17.923990667050536	3.583014	1.8928851
17.941734243646895	3.4951568	1.8695338
17.959478253975185	3.4393106	1.8545378
17.9772226984927	3.4014518	1.8443025
17.994967577656833	3.3596063	1.8329228
18.01271289192506	3.3652413	1.8344594
18.030458641754965	3.3225968	1.8227992
18.04820482760425	3.2915854	1.8142728
18.06595144993067	3.2701933	1.8083676
18.083698509192125	3.2712786	1.8086677
18.101446005846576	3.2336318	1.7982302
18.119193940352105	3.193137	1.7869351
18.136942313166887	3.1296833	1.7690911
18.1546911247492	3.1507053	1.7750226
18.1724403755574	3.1660225	1.779332
18.19019006604997	3.1631174	1.7785155
18.207940196685467	3.1498973	1.774795
18.225690767922575	3.118204	1.7658437
18.243441780220046	3.0731385	1.753037
18.261193234036764	3.030761	1.7409081
18.278945129831676	3.053722	1.7474902
18.29669746806386	3.060429	1.7494082
18.314450249192483	3.040571	1.7437233
18.3322034736768	3.0353055	1.7422128
18.349957141976184	3.0165517	1.7368224
18.3677112545501	3.039283	1.743354
18.385465811858108	3.0348415	1.7420796
18.403220814359884	3.0529773	1.7472771
18.420976262515172	3.0718737	1.7526761
18.43873215678387	3.0967925	1.7597705
18.456488497625923	3.1426928	1.7727642
18.474245285501407	3.2499473	1.8027611
18.492002520870486	3.306448	1.8183641
18.50976020419343	3.3719876	1.8362973
18.527518335930615	3.6342223	1.9063636
18.545276916542516	4.1823664	2.0450835
18.563035946489688	4.361364	2.088388
18.580795426232832	4.8526187	2.202866
18.598555356232698	4.8134975	2.1939685
18.616315736950185	5.1134577	2.2612956
18.63407656884626	4.757483	2.1811655
18.65183785238201	4.9085584	2.2155266
18.669599588018617	4.6746693	2.1620984
18.68736177621737	4.653325	2.1571567
18.705124417439652	4.649972	2.1563795
18.72288751214696	4.4578347	2.1113584
18.740651060800886	4.608937	2.1468434
18.758415063863115	4.290693	2.0713987
18.77617952179546	4.502458	2.1218996
18.793944435059814	4.260974	2.0642126
18.811709804118184	4.263971	2.0649385
18.829475629432675	4.1807337	2.0446842
18.8472419114655	3.962857	1.9906926
18.86500865067897	4.0128484	2.0032096
18.88277584753551	3.7264524	1.9304022
18.90054350249763	3.8297563	1.9569763
18.918311616027957	3.5467346	1.8832777
18.936080188589226	3.3945982	1.8424436
18.953849220644265	3.0665147	1.7511467
18.971618712656007	2.8533823	1.6891958
18.9893886650875	2.7614465	1.6617601
19.007159078401887	7.9514227	2.8198266
19.024929953062408	32.84796	5.731314
19.042701289532435	32.826664	5.729456
19.060473088275405	25.392048	5.0390525
19.07824534975489	2.6590183	1.6306497
19.096018074434568	2.6319342	1.6223238
19.113791262778197	2.5909338	1.6096377
19.13156491524966	2.5813348	1.6066533
19.149339032312945	2.5506396	1.5970722
19.167113614432136	2.5336845	1.5917552
19.184888662071433	2.521579	1.5879481
19.202664175695123	2.4989517	1.5808073
19.220440155767623	2.4821146	1.5754728
19.238216602753447	2.5221589	1.5881306
19.2559935171172	2.5516522	1.5973892
19.27377089932361	2.5098867	1.5842623
19.291548749837514	2.4932852	1.579014
19.309327069123835	2.4871006	1.5770544
19.32710585764763	2.530975	1.5909039
19.344885115874032	2.5234315	1.5885313
19.362664844268313	2.506841	1.5833006
19.380445043295822	2.4784591	1.5743122
19.39822571342203	2.5121472	1.5849755
19.41600685511252	2.501017	1.5814605
19.43378846883297	2.4637663	1.569639
19.451570555049173	2.3994794	1.5490253
19.469353114227037	2.3932838	1.5470241
19.48713614683254	2.421903	1.5562464
19.50491965333182	2.4432993	1.5631057
19.52270363419109	2.4787574	1.574407
19.540488089876686	2.51033	1.5844021
19.55827302085503	2.501211	1.5815217
19.576058427592674	2.479707	1.5747086
19.593844310556282	2.461835	1.5690236
19.611630670212598	2.454474	1.5666761
19.629417507028506	2.4643037	1.5698102
19.64720482147098	2.488535	1.577509
19.6649926140071	2.4903018	1.578069
19.682780885104084	2.4875467	1.5771959
19.70056963522921	2.4980705	1.5805285
19.718358864849908	2.5078998	1.583635
19.7361485744337	2.500485	1.5812922
19.753938764448215	2.4915104	1.5784519
19.771729435361202	2.4918785	1.5785685
19.789520587640506	2.4967492	1.5801105
19.807312221754092	2.4865324	1.5768743
19.825104338170043	2.4806676	1.5750135
19.842896937356517	2.489952	1.5779582
19.860690019781824	2.4804509	1.5749447
19.87848358591436	2.4802976	1.5748961
19.896277636222635	2.4611056	1.5687912
19.914072171175278	2.4708788	1.571903
19.931867191241015	2.4671206	1.5707071
19.94966269688869	2.4842508	1.5761507
19.967458688587264	2.4756317	1.5734141
19.985255166805807	2.473612	1.5727721
20.00305213201348	2.4850411	1.5764014
20.020849584679578	2.4936724	1.5791366
20.038647525273507	2.4945595	1.5794175
20.05644595426477	2.4647694	1.5699584
20.07424487212299	2.4521596	1.5659373
20.092044279317903	2.425501	1.557402
20.109844176319353	2.387937	1.5452951
20.127644563597304	2.3841276	1.544062
20.145445441621817	2.4158325	1.5542948
20.16324681086307	2.4230394	1.5566115
20.181048671791373	2.3994973	1.549031
20.198851024877122	2.3913321	1.5463933
20.216653870590836	2.387724	1.5452262
20.234457209403146	2.4121566	1.5531119
20.252261041784802	2.3812902	1.5431429
20.270065368206662	2.375033	1.5411142
20.287870189139685	2.3398278	1.5296496
20.305675505054968	2.311429	1.5203384
20.323481316423702	2.2921576	1.5139873
20.341287623717207	2.3362236	1.528471
20.359094427406884	2.3370185	1.528731
20.376901727964288	2.3225048	1.5239767
20.39470952586107	2.340687	1.5299304
20.41251782156899	2.3808792	1.5430098
20.430326615559935	2.4058392	1.5510768
20.448135908305886	2.3798792	1.5426857
20.465945700278965	2.3517022	1.5335261
20.483755991951384	2.3298044	1.5263697
20.50156678379548	2.3166611	1.5220581
20.519378076283708	2.340955	1.530018
20.537189869888635	2.3419716	1.5303502
20.55500216508294	2.3394341	1.5295209
20.572814962339415	2.3185806	1.5226886
20.59062826213098	2.3246994	1.5246965
20.60844206493066	2.3323019	1.5271876
20.626256371211593	2.3342364	1.5278208
20.644071181447032	2.346215	1.5317359
20.66188649611036	2.3485734	1.5325056
20.67970231567506	2.3558054	1.5348634
20.697518640614742	2.3500733	1.5329949
20.715335471403122	2.3374093	1.5288588
20.73315280851404	2.3169763	1.5221617
20.750970652421447	2.28996	1.5132613
20.768789003599412	2.2801867	1.5100287
20.786607862522136	2.2814362	1.5104424
20.8044272296639	2.2888856	1.5129063
20.82224710549913	2.2953358	1.5150366
20.84006749050237	2.2848458	1.5115707
20.857888385148268	3.8770134	1.9690133
20.8757097899116	45.95791	6.7792263
20.893531705267254	64.79093	8.049281
20.911354131690224	83.77922	9.153099
20.92917706965566	69.062996	8.310415
20.94700051963877	50.16952	7.0830445
20.96482448211493	29.436823	5.4255714
20.982648957559622	4.1518645	2.0376124
21.00047394644843	2.2611423	1.5037096
21.01829944925707	2.2337763	1.4945823
21.036125466461375	2.231742	1.4939016
21.053951998537297	2.2227685	1.4908953
21.071779045960906	2.2245393	1.4914889
21.089606609208378	2.228054	1.4926667
21.10743468875603	2.2579088	1.5026339
21.12526328508028	2.255284	1.5017604
21.143092398657675	2.2078774	1.4858928
21.16092202996488	2.2103095	1.486711
21.17875217947867	2.2097096	1.4865092
21.19658284767596	2.1876833	1.4790819
21.21441403503377	2.16376	1.4709724
21.232245742029225	2.1570988	1.4687065
21.2500779691396	2.153468	1.4674699
21.26791071684227	2.1309493	1.4597771
21.28574398561475	2.135142	1.4612125
21.30357777593465	2.1644697	1.4712137
21.321412088279704	2.1414027	1.4633533
21.339246923127792	2.1376126	1.4620577
21.357082280956888	2.1750247	1.4747965
21.3749181622451	2.1683125	1.4725192
21.392754567470647	2.1161406	1.454696
21.41059149711187	2.077324	1.4412924
21.42842895164726	2.0758064	1.4407659
21.446266931555378	2.1198587	1.4559735
21.464105437314945	2.1572042	1.4687424
21.481944469404798	2.1594622	1.4695109
21.49978402830388	2.1191387	1.4557261
21.51762411449127	2.041915	1.4289559
21.53546472844617	2.034517	1.426365
21.553305870647876	2.0542102	1.4332516
21.571147541575865	2.0606844	1.4355084
21.58898974170967	2.0543473	1.4332994
21.60683247152899	2.0557957	1.4338046
21.62467573151363	2.059563	1.4351177
21.642519522143523	2.0581563	1.4346275
21.660363843898722	2.0426395	1.4292094
21.6782086972594	2.0799644	1.4422082
21.696054082705864	2.1022773	1.4499232
21.713900000718535	2.100781	1.4494071
21.73174645177795	2.076571	1.4410312
21.749593436364794	2.0702507	1.4388366
21.767440954959845	2.084129	1.4436513
21.785289008044032	2.066134	1.4374053
21.803137596098388	2.0589664	1.4349099
21.820986719604086	2.0535338	1.4330156
21.838836379042412	2.0458496	1.430332
21.85668657489478	2.0102432	1.4178305
21.87453730764273	1.9825245	1.4080215
21.892388577767914	1.9291811	1.3889496
21.91024038575213	1.9222075	1.3864369
21.928092732077285	1.9296608	1.3891224
21.945945617225426	1.9672163	1.4025749
21.963799041678694	2.0056498	1.4162097
21.981653005919398	31.33364	5.5976458
21.999507510429943	78.15551	8.840561
22.01736255569286	73.09587	8.549612
22.035218142190818	4.169928	2.04204
22.05307427040661	1.9580138	1.3992904
22.07093094082315	1.9719449	1.4042596
22.088788153923474	2.009966	1.4177327
22.106645910190746	2.010289	1.4178466
22.12450421010827	2.0091288	1.4174374
22.142363054159464	2.0011468	1.414619
22.16022244282787	1.9818447	1.40778
22.178082376597164	1.9218905	1.3863226
22.195942855951145	1.9137243	1.3833742
22.213803881373742	1.9216373	1.3862313
22.231665453349002	1.9677373	1.4027606
22.24952757236111	1.9872022	1.4096816
22.26739023889438	1.9863544	1.4093808
22.28525345343323	1.9854826	1.4090716
22.30311721646225	1.9996638	1.4140947
22.320981528466113	2.0073829	1.4168214
22.33884638992964	1.9657923	1.4020672
22.356711801337788	1.9560609	1.3985925
22.37457776317561	1.9304458	1.3894048
22.392444275928337	1.9407952	1.3931242
22.410311340081282	1.9626753	1.4009552
22.428178956119904	1.9712588	1.4040152
22.446047124529805	1.9693197	1.4033245
22.46391584579669	1.9563183	1.3986845
22.481785120406414	1.9135177	1.3832996
22.49965494884496	1.9039813	1.3798482
22.51752533159841	1.9292904	1.388989
22.53539626915302	1.9278433	1.388468
22.553267761995137	1.9005544	1.378606
22.571139810611264	1.8917718	1.375417
22.589012415488025	1.9374604	1.3919269
22.60688557711216	1.9391611	1.3925376
22.624759295970566	1.9400584	1.3928598
22.642633572550263	1.9200758	1.385668
22.660508407338362	1.9371419	1.3918124
22.67838380082217	1.9322509	1.3900542
22.696259753489077	1.9106733	1.382271
22.714136265826614	1.8854038	1.3731
22.73201333832246	1.8851643	1.3730129
22.74989097146439	1.9364548	1.3915656
22.76776916574035	1.9461112	1.3950309
22.785647921638393	1.9203329	1.3857608
22.803527239646712	1.901099	1.3788035
22.82140712025363	1.908269	1.3814011
22.839287563947593	1.9089245	1.3816383
22.85716857121719	1.8820206	1.3718675
22.875050142551135	1.8519343	1.360858
22.892932278438277	1.8731699	1.3686379
22.910814979367604	1.8985527	1.3778797
22.928698245828222	1.9148653	1.3837866
22.946582078309387	1.8983226	1.3777963
22.96446647730047	1.910896	1.3823516
22.98235144329098	1.8800026	1.3711319
23.000236976770562	1.8699474	1.3674603
23.018123078229	1.8734561	1.3687426
23.03600974815619	1.8829987	1.372224
23.053896987042194	1.8966558	1.3771913
23.071784795377173	1.9296668	1.3891245
23.08967317365145	1.9438983	1.3942375
23.10756212235546	1.9182128	1.3849956
23.125451641979787	1.8979447	1.3776591
23.143341733015134	1.9214845	1.3861762
23.161232395952357	1.9474164	1.3954986
23.179123631282426	1.9530432	1.3975133
23.197015439496468	1.9587822	1.399565
23.214907821085717	1.9521673	1.3971997
23.23280077654157	1.9082754	1.3814034
23.250694306355538	1.9120204	1.3827583
23.268588411019277	1.9272841	1.3882666
23.28648309102458	1.9513562	1.3969095
23.304378346863356	1.9395171	1.3926655
23.322274179027676	1.947962	1.3956941
23.340170588009723	1.9596672	1.3998811
23.358067574301852	1.9926509	1.4116129
23.37596513839651	1.9768227	1.4059952
23.39386328078629	1.9446338	1.3945013
23.411762001963947	1.9208908	1.385962
23.429661302422353	1.9372052	1.3918352
23.4475611826545	1.899688	1.3782917
23.46546164315356	1.888771	1.3743256
23.48336268441279	1.8645036	1.3654683
23.501264306925638	1.8675686	1.3665901
23.51916651118564	1.8512576	1.3606093
23.537069297686497	1.8876677	1.3739241
23.554972666922037	1.9118226	1.3826867
23.57287661938623	1.9038115	1.3797867
23.59078115557318	1.8974326	1.3774732
23.608686275977128	1.9255096	1.3876274
23.62659198109246	1.943028	1.3939254
23.6444982714137	1.9449263	1.3946061
23.66240514743549	1.9464127	1.395139
23.68031260965263	1.9516186	1.3970034
23.698220658560068	1.9570525	1.3989469
23.716129294652845	1.9935988	1.4119486
23.7340385184262	1.9796814	1.4070115
23.75194833037546	1.9411414	1.3932484
23.769858730996123	1.9204177	1.3857913
23.78776972078382	1.9305025	1.3894253
23.80568130023431	1.9058726	1.3805335
23.823593469843495	1.9069499	1.3809235
23.841506230107424	1.8861123	1.373358
23.859419581522275	1.8933507	1.3759909
23.87733352458438	1.8807021	1.3713869
23.89524805979019	1.8969768	1.3773078
23.913163187636318	1.9090072	1.3816682
23.931078908619508	1.945111	1.3946724
23.948995223236633	1.9726787	1.4045208
23.966912131984735	2.0171382	1.42026
23.98482963536096	2.046594	1.4305922
24.002747733862616	2.0489383	1.4314113
24.020666427987155	2.0409322	1.428612
24.038585718232156	2.0446916	1.4299271
24.056505605095353	2.026388	1.4235126
24.074426089074617	2.0791965	1.4419419
24.092347170667946	2.1087828	1.4521649
24.110268850373515	2.108116	1.4519352
24.128191128689586	2.0761895	1.4408989
24.146114006114626	2.0588088	1.434855
24.164037483147187	2.0599005	1.4352354
24.181961560286005	2.047489	1.430905
24.199886238029926	2.0388322	1.4278768
24.21781151687797	2.0236359	1.4225456
24.235737397329274	2.0411105	1.4286743
24.253663879883135	2.0745416	1.4403269
24.271590965038975	2.0488176	1.4313692
24.289518653296376	2.036471	1.4270498
24.30744694515505	2.0656402	1.4372336
24.32537584111486	2.0882604	1.4450815
24.34330534167581	2.0416129	1.4288502
24.361235447338046	2.0124824	1.4186199
24.379166158601876	1.9898014	1.4106032
24.39709747596772	1.9862562	1.409346
24.41502939993615	1.9942893	1.4121931
24.432961931007917	1.99433	1.4122075
24.450895069683856	1.9883943	1.4101044
24.468828816465	1.964122	1.4014714
24.4867631718525	1.9443015	1.3943821
24.504698136347656	1.9750452	1.405363
24.52263371045192	2.0010617	1.4145889
24.540569894666874	1.9858387	1.4091979
24.558506689494266	1.9235859	1.386934
24.57644409543597	1.927767	1.3884405
24.594382112994012	1.9336421	1.3905547
24.61232074267057	1.9357886	1.3913262
24.630259984967953	1.9237291	1.3869857
24.64819984038863	1.9371417	1.3918123
24.66614030943522	1.9842148	1.4086215
24.684081392610462	1.9584287	1.3994387
24.702023090417274	1.9570105	1.3989319
24.7199654033587	1.9579403	1.3992642
24.737908331937927	2.0194073	1.4210585
24.755851876658305	2.0365071	1.4270624
24.773796038023324	2.0646403	1.4368856
24.79174081653661	2.0721447	1.4394946
24.809686212701962	2.1414244	1.4633607
24.827632227023294	2.1395726	1.4627278
24.8455788600047	2.0961008	1.4477917
24.8635261121504	2.039637	1.4281586
24.88147398396475	2.047239	1.4308176
24.899422475952303	2.136627	1.4617206
24.917371588617698	2.1502914	1.4663872
24.935321322465768	2.2096698	1.4864959
24.953271678001478	2.3037746	1.517819
24.97122265572994	2.4913282	1.5783942
24.989174256156414	2.833035	1.6831622
25.00712647978632	3.2312703	1.7975734
25.02507932712521	3.7363358	1.9329604
25.043032798678798	4.2112365	2.0521297
25.060986894952933	4.8488193	2.2020035
25.078941616453637	5.566166	2.3592722
25.096896963687055	6.475995	2.5447977
25.114852937159508	7.639927	2.7640417
25.132809537377444	8.149331	2.8547034
25.150766764847468	8.16389	2.8572521
25.168724620076347	7.643442	2.7646775
25.186683103570985	6.6347275	2.5757964
25.204642215838426	5.497157	2.3446016
25.222601957385894	4.1911774	2.0472364
25.24056232872074	3.219634	1.7943339
25.25852333035048	2.6304967	1.6218807
25.276484962782778	2.2864087	1.5120875
25.294447226525435	2.1075146	1.4517281
25.312410122086423	1.9977756	1.4134269
25.330373649973843	1.9686804	1.4030967
25.348337810695988	1.9769272	1.4060324
25.366302604761245	1.9887866	1.4102434
25.384268032678207	1.9943805	1.4122254
25.40223409495558	1.9675198	1.402683
25.420200792102257	1.9192388	1.385366
25.438168124627246	1.8895122	1.3745953
25.45613609303974	1.8581797	1.3631506
25.474104697849057	1.8170239	1.3479702
25.492073939564698	1.837648	1.3555988
25.510043818696285	1.8506377	1.3603815
25.528014335753614	1.875885	1.3696295
25.54598549124664	1.8905984	1.3749903
25.56395728568544	1.8818012	1.3717877
25.58192971958028	1.8969539	1.3772995
25.59990279344156	1.8727859	1.3684977
25.617876507779833	1.8629625	1.3649038
25.635850863105826	1.8590164	1.3634576
25.653825859930386	1.8646963	1.3655388
25.671801498764548	1.8483264	1.3595316
25.68977778011949	1.8350041	1.3546232
25.707754704506524	1.8403473	1.356594
25.725732272437153	1.8605901	1.3640345
25.743710484423012	1.8646705	1.3655294
25.761689340975888	1.8448929	1.3582684
25.77966884260774	1.8171976	1.3480347
25.797648989830662	1.8517042	1.3607734
25.815629783156922	1.8697383	1.3673837
25.83361122309895	1.8394324	1.3562567
25.85159331016929	1.7769295	1.3330152
25.869576044880695	1.744846	1.3209262
25.887559427746034	1.7429221	1.3201977
25.90554345927836	1.7747995	1.332216
25.92352813999086	1.7969621	1.3405082
25.94151347039689	1.8015822	1.3422303
25.959499451009965	1.8033891	1.3429033
25.97748608234374	1.8050544	1.3435231
25.995473364912062	1.841894	1.357164
26.013461299228904	1.8683418	1.366873
26.03144988580839	1.886643	1.3735512
26.04943912516483	1.863636	1.3651506
26.067429017812675	1.8302487	1.3528669
26.085419564266537	1.7961682	1.340212
26.103410765041186	1.7904992	1.3380953
26.12140262065155	1.7866	1.3366376
26.139395131612723	1.7974758	1.3406998
26.157388298439948	1.8120852	1.3461372
26.17538212164861	1.8097658	1.3452754
26.193376601754295	1.7907277	1.3381808
26.211371739272714	1.752753	1.3239158
26.229367534719746	1.7145932	1.3094248
26.247363988611433	1.7247969	1.3133153
26.26536110146397	1.7851121	1.3360809
26.283358873793727	1.8610661	1.3642089
26.301357306117204	1.9131958	1.3831832
26.319356398951104	1.8697845	1.3674006
26.33735615281224	1.854094	1.3616512
26.35535656821762	1.8292117	1.3524835
26.373357645684404	1.8062418	1.3439649
26.39135938572991	1.7806393	1.334406
26.409361788871614	1.7893182	1.337654
26.427364855627165	1.7863436	1.3365417
26.445368586514352	1.8244362	1.350717
26.46337298205115	1.8553184	1.3621007
26.48137804275568	1.8482746	1.3595127
26.499383769146217	1.8317285	1.3534136
26.517390161741215	1.8120302	1.3461167
26.53539722105928	1.7889924	1.3375322
26.553404947619182	1.7865738	1.3366277
26.571413341939856	1.7766039	1.332893
26.589422404540397	1.7843273	1.3357872
26.60743213594006	1.8139583	1.3468326
26.62544253665827	1.8725814	1.368423
26.64345360721459	1.8836035	1.3724444
26.66146534812879	1.8798103	1.3710618
26.679477759920758	1.8456339	1.3585411
26.69749084311057	1.8449125	1.3582755
26.71550459821847	1.8524946	1.3610637
26.733519025764842	1.816611	1.3478172
26.751534126270258	1.8397733	1.3563825
26.769549900255434	1.8629378	1.3648947
26.787566348241267	1.8618293	1.3644886
26.80558347074881	1.86659	1.366232
26.823601268299267	1.8764504	1.3698359
26.841619741414036	1.8337094	1.3541453
26.85963889061465	1.7752334	1.3323789
26.877658716422832	1.8228498	1.3501295
26.89567921936045	1.8370821	1.3553901
26.913700399949544	1.8542086	1.3616933
26.93172225871233	1.8751432	1.3693587
26.949744796171174	1.8551953	1.3620555
26.967768012848605	1.7973512	1.3406533
26.98579190926733	1.7799472	1.3341466
27.003816485950225	1.8023356	1.3425109
27.021841743420318	1.8162286	1.3476753
27.039867682200814	1.8231467	1.3502395
27.057894302815072	1.8259528	1.3512782
27.07592160578664	1.817359	1.3480946
27.0939495916392	1.8277347	1.3519374
27.111978260896635	1.7976276	1.3407563
27.13000761408296	1.7959557	1.3401327
27.148037651722397	1.8174144	1.3481151
27.166068374339304	1.8061881	1.343945
27.184099782458215	1.8287381	1.3523084
27.20213187660384	1.8130181	1.3464836
27.22016465730105	1.7892327	1.337622
27.23819812507487	1.8124452	1.3462708
27.256232280450533	1.8579285	1.3630586
27.274267123953383	1.8739805	1.368934
27.292302656108987	1.8891445	1.3744615
27.31033887744306	1.8615628	1.364391
27.32837578848146	1.8074912	1.3444297
27.34641338975026	1.8053689	1.3436402
27.364451681775673	1.7941813	1.3394705
27.382490665084074	1.8070464	1.3442643
27.400530340202046	1.8142424	1.3469381
27.41857070765629	1.8137511	1.3467557
27.436611767973726	1.8010876	1.342046
27.454653521681404	1.7981788	1.3409619
27.472695969306564	1.8256735	1.3511748
27.490739111376627	1.7961076	1.3401895
27.508782948419153	1.7849286	1.3360122
27.526827480961902	1.787374	1.336927
27.54487270953279	1.7944453	1.3395691
27.562918634659898	1.7896109	1.3377634
27.580965256871508	1.8224498	1.3499814
27.599012576696026	1.8686464	1.3669844
27.617060594662068	1.8908119	1.375068
27.63510931129842	1.8642004	1.3653573
27.65315872713401	1.8687084	1.3670071
27.67120884269797	1.8593674	1.3635862
27.68925965851958	1.8269895	1.3516618
27.707311175128307	1.8260466	1.3513129
27.725363393053787	1.8309326	1.3531196
27.74341631282583	1.8837627	1.3725023
27.7614699349744	1.8542218	1.3616982
27.77952426002968	2.0035434	1.4154658
27.797579288521973	2.09232	1.4464854
27.815635020981784	2.5945387	1.6107572
27.83369145793979	2.672452	1.6347636
27.85174859992682	2.4786704	1.5743793
27.869806447473923	2.2413385	1.49711
27.887865001112267	1.9637568	1.4013411
27.905924261373233	1.9213969	1.3861446
27.92398422878836	1.9321566	1.3900204
27.94204490388936	1.9054779	1.3803905
27.96010628720813	1.9193666	1.3854121
27.978168379276728	1.9129065	1.3830787
27.9962311806274	1.9192837	1.3853822
28.014294691792568	1.9113185	1.3825045
28.0323589133048	1.9059105	1.3805472
28.050423845696887	1.852788	1.3611716
28.068489489501758	1.7994348	1.3414301
28.086555845252523	1.8093265	1.3451121
28.104622913482487	1.8617783	1.36447
28.122690694725115	1.8833189	1.3723407
28.14075918951405	1.8458229	1.3586106
28.15882839838312	1.8593887	1.363594
28.176898321866304	1.868379	1.3668866
28.1949689604978	1.864913	1.3656182
28.213040314811945	1.8999174	1.3783749
28.23111238534327	1.8946489	1.3764625
28.249185172626493	1.8868667	1.3736327
28.267258677196473	1.883907	1.3725549
28.285332899588294	1.8664117	1.3661668
28.303407840337172	1.8461586	1.3587343
28.321483499978545	1.8587784	1.3633702
28.33955987904799	1.869122	1.3671584
28.357636978081285	1.8921596	1.3755579
28.37571479761439	1.8991764	1.3781061
28.393793338183425	1.9431041	1.3939527
28.41187260032469	1.9169146	1.3845268
28.429952584574686	1.8979553	1.377663
28.448033291470065	1.9237692	1.3870001
28.46611472154769	1.9598376	1.399942
28.484196875344566	1.9657393	1.4020482
28.502279753397914	2.049541	1.4316218
28.52036335624511	2.0401316	1.4283317
28.538447684423716	2.0340674	1.4262073
28.556532738471482	1.9969378	1.4131305
28.574618518926325	1.9868652	1.409562
28.59270502632635	2.0049818	1.4159738
28.61079226120985	1.9756546	1.4055798
28.628880224115274	1.9285702	1.3887297
28.646968915581287	1.9764829	1.4058744
28.66505833614671	2.0424814	1.429154
28.68314848635055	2.0449784	1.4300274
28.701239366732004	1.9869845	1.4096044
28.71933097783044	2.0024834	1.4150913
28.737423320185403	2.0639176	1.4366342
28.75551639433665	2.0974386	1.4482536
28.773610200824074	2.0688818	1.4383608
28.791704740187793	2.0867405	1.4445555
28.80980001296809	2.1670766	1.4720994
28.827896019705413	2.2231386	1.4910192
28.845992760940433	2.1561375	1.4683791
28.86409023721397	2.0998383	1.4490819
28.88218844906704	2.132965	1.4604675
28.900287397040845	2.1575475	1.4688592
28.918387081676755	2.193376	1.4810051
28.936487503516343	2.2292497	1.4930673
28.954588663101365	2.2343192	1.494764
28.97269056097374	2.274642	1.5081916
28.990793197675597	2.3203096	1.5232563
29.00889657374923	2.3441396	1.5310583
29.027000689737125	2.3322432	1.5271684
29.04510554618196	2.389927	1.5459388
29.06321114362659	2.402556	1.5500181
29.08131748261405	2.3938415	1.5472044
29.099424563687567	2.4239066	1.55689
29.11753238739057	2.4170325	1.5546808
29.13564095426663	2.4502273	1.5653201
29.15375026485954	2.5485475	1.5964171
29.171860319713275	2.6106167	1.6157403
29.18997111937199	2.5907147	1.6095697
29.20808266438002	2.6709435	1.6343021
29.226194955281898	2.7615826	1.661801
29.244307992622335	2.8017797	1.6738517
29.26242177694624	2.788465	1.6698698
29.2805363087987	2.7672317	1.6634998
29.29865158872498	2.7988234	1.6729684
29.316767617270557	2.8417096	1.6857371
29.334884394981064	2.9245253	1.7101244
29.353001922402367	2.9460495	1.716406
29.37112020008047	2.9628184	1.7212839
29.389239228561596	3.0539997	1.7475697
29.407359008392152	3.2699976	1.8083135
29.42547954011872	3.728401	1.9309068
29.44360082428809	4.4293365	2.104599
29.46172286144722	5.426265	2.3294344
29.479845652143283	6.860375	2.6192317
29.497969196923606	8.920648	2.9867454
29.516093496335728	11.429782	3.380796
29.5342185509274	14.140562	3.7603939
29.55234436124651	16.20447	4.0254774
29.570470927841175	17.49778	4.183035
29.588598251259686	17.315271	4.1611624
29.60672633205055	16.077604	4.009689
29.624855170762405	13.949397	3.7348893
29.642984767944146	11.36998	3.3719401
29.66111512414481	8.859182	2.9764378
29.67924623991366	6.595482	2.568167
29.697378115800138	5.0661488	2.2508106
29.71551075235387	4.181691	2.0449183
29.733644150124675	3.7947114	1.9480019
29.751778309662576	3.5106876	1.8736829
29.769913231517766	3.373526	1.8367162
29.78804891624066	3.2536285	1.8037817
29.806185364381818	3.2657633	1.8071423
29.82432257649206	3.283205	1.8119617
29.842460553122333	3.275321	1.8097848
29.86059929482382	3.2397423	1.7999284
29.878738802147872	3.2374609	1.7992946
29.896879075646048	3.267638	1.8076609
29.915020115870114	3.2021286	1.7894492
29.933161923371976	3.1615083	1.778063
29.951304498703777	3.2022562	1.7894849
29.969447842417857	3.2887506	1.8134913
29.987591955066733	3.2927713	1.8145995
30.005736837203123	3.2480147	1.8022249
30.023882489379943	3.2071116	1.790841
30.04202891215028	3.183547	1.7842497
30.060176106067455	3.2198346	1.7943897
30.078324071684946	3.1584995	1.7772168
30.09647280955646	3.123802	1.767428
30.114622320235863	3.1495197	1.7746886
30.132772604277257	3.1715014	1.7808709
30.1509236622349	3.1561015	1.776542
30.16907549466328	3.1018019	1.7611933
30.18722810211705	3.1014423	1.7610912
30.205381485151097	3.0700493	1.7521557
30.22353564432045	3.0300503	1.7407039
30.241690580180403	3.0124779	1.7356491
30.25984629328638	2.9324584	1.7124423
30.278002784194037	2.8942115	1.7012383
30.296160053459246	2.9672832	1.7225804
30.314318101638033	3.0193102	1.7376163
30.332476929286646	3.0555632	1.748017
30.35063653696153	3.0364985	1.7425551
30.368796925219307	2.945389	1.7162136
30.386958094616844	2.9184837	1.708357
30.40512004571115	2.9246922	1.7101731
30.423282779059463	2.9189343	1.708489
30.441446295219233	2.9298723	1.711687
30.459610594748067	2.845187	1.6867682
30.47777567820382	2.7916071	1.6708103
30.495941546144504	2.8392842	1.6850176
30.51410819912835	2.8477938	1.6875408
30.532275637713795	2.8139849	1.6774936
30.55044386245946	2.775859	1.666091
30.56861287392416	2.8405483	1.6853926
30.586782672666956	2.91516	1.707384
30.604953259247047	2.8312058	1.6826187
30.623124634223885	2.719154	1.6489857
30.641296798157075	2.685201	1.6386583
30.659469751606462	2.7081418	1.6456432
30.677643495132074	2.7751071	1.6658653
30.695818029294152	2.774353	1.6656389
30.713993354653116	2.7822793	1.6680166
30.73216947176962	2.7757523	1.6660589
30.75034638120448	2.7389476	1.6549766
30.768524083518756	2.6356921	1.6234815
30.786702579273673	2.6242235	1.6199455
30.80488186903069	2.7611215	1.6616622
30.82306195335144	2.946789	1.7166214
30.841242832797782	3.105004	1.7621021
30.85942450793176	3.3802683	1.8385506
30.877606979315637	3.735686	1.9327923
30.895790247511883	4.0847826	2.0210845
30.913974313083134	4.4263644	2.1038926
30.932159176592283	4.730763	2.1750317
30.95034483860237	4.8414917	2.200339
30.968531299676698	4.6799555	2.1633205
30.98671856037873	4.3033113	2.0744424
31.00490662127215	3.9097106	1.9772989
31.023095482920848	3.573841	1.8904606
31.04128514588892	3.1645727	1.7789246
31.059475610740662	2.7295544	1.6521363
31.07766687804056	2.5316057	1.591102
31.09585894835335	2.5547318	1.5983529
31.11405182224393	2.5563996	1.5988744
31.132245500277417	2.5246682	1.5889205
31.15043998301914	2.466558	1.5705279
31.168635271034628	2.4016504	1.5497259
31.18683136488964	2.391825	1.5465527
31.20502826515008	2.4331944	1.55987
31.223225972382135	2.4278407	1.558153
31.241424487152155	2.330762	1.5266833
31.259623810026692	2.3378205	1.5289932
31.27782394157253	2.462635	1.5692785
31.296024882356644	2.525536	1.5891936
31.314226632946237	2.425321	1.5573442
31.332429193908684	2.3791902	1.5424623
31.350632565811598	2.3457844	1.5315953
31.368836749222787	2.42794	1.5581849
31.387041744710295	2.518442	1.58696
31.40524755284232	2.5855093	1.6079519
31.423454174187317	2.5560818	1.598775
31.441661609313922	2.4725554	1.5724361
31.459869858791002	2.404509	1.550648
31.478078923187628	2.3751042	1.5411373
31.496288803073064	2.34804	1.5323316
31.514499499016807	2.3943179	1.5473584
31.532711011588546	2.4314075	1.5592971
31.550923341358178	2.4711359	1.5719846
31.56913648889584	2.3962526	1.5479834
31.587350454771844	2.3304944	1.5265957
31.605565239556732	2.254757	1.5015848
31.62378084382127	2.265166	1.5050468
31.641997268136382	2.2981684	1.5159711
31.660214513073274	2.349522	1.5328151
31.67843257920331	2.3732984	1.5405513
31.6966514670981	2.2924201	1.514074
31.71487117732944	2.2623484	1.5041105
31.733091710469346	2.260085	1.5033579
31.751313067090052	2.2584913	1.5028278
31.769535247764008	2.301888	1.5171974
31.787758253063878	2.3227258	1.5240492
31.805982083562526	2.2736042	1.5078475
31.824206739833024	2.2269316	1.4922907
31.84243222244869	2.2385104	1.4961653
31.860658531983013	2.2222955	1.4907366
31.878885669009737	2.2007353	1.4834876
31.897113634102784	2.181315	1.4769275
31.91534242783632	2.1441395	1.4642881
31.933572050784694	2.1851823	1.4782362
31.951802503522508	2.2759738	1.5086331
31.970033786624548	2.3368273	1.5286685
31.988265900665834	2.3275907	1.5256443
32.006498846221575	2.2371604	1.4957141
32.02473262386724	2.1351964	1.4612311
32.04296723417845	2.157733	1.4689224
32.0612026777311	2.2595801	1.50319
32.07943895510129	2.3070292	1.5188907
32.097676066865304	2.2679672	1.5059772
32.115914013599685	2.2260206	1.4919854
32.13415279588115	2.1344793	1.4609858
32.152392414286666	2.061465	1.4357803
32.1706328693934	2.0541642	1.4332355
32.18887416177875	2.0759535	1.440817
32.20711629202032	2.141165	1.463272
32.225359260695924	2.1313584	1.4599173
32.243603068383614	2.0780842	1.4415562
32.26184771566166	2.0646	1.4368716
32.28009320310852	2.1418345	1.4635007
32.2983395313029	2.1165342	1.4548314
32.31658670082372	2.063236	1.4363968
32.33483471225012	2.1603956	1.4698285
32.35308356616143	2.309317	1.5196438
32.371333263137245	2.370341	1.5395912
32.38958380375734	2.2192485	1.4897143
32.407835188601744	2.0769258	1.4411544
32.42608741825067	2.0869792	1.444638
32.444340493284585	2.0694666	1.4385641
32.46259441428416	2.0077393	1.4169471
32.48084918183028	1.9705926	1.403778
32.49910479650405	1.9381677	1.3921809
32.51736125888683	1.9942535	1.4121804
32.53561856956014	1.9712853	1.4040247
32.5538767291058	1.9247974	1.3873707
32.572135738105764	2.0349681	1.4265231
32.59039559714228	2.1236918	1.4572892
32.608656306797776	2.0992525	1.4488797
32.62691786765491	2.0856771	1.4441874
32.645180280296586	2.0478218	1.4310212
32.663443545305896	2.0415413	1.4288251
32.68170766326619	2.0397935	1.4282134
32.69997263476099	2.0158253	1.4197977
32.7182384603741	2.0172617	1.4203033
32.7365051406895	2.0053797	1.4161143
32.75477267629144	2.003996	1.4156256
32.77304106776434	2.031472	1.4252971
32.79131031569289	2.090745	1.4459409
32.809580420661966	2.1732743	1.4742029
32.827851383256714	2.089396	1.4454743
32.84612320406245	1.9706993	1.403816
32.86439588366476	1.9402304	1.3929216
32.88266942264945	1.9871145	1.4096506
32.9009438216025	2.039899	1.4282503
32.9192190811102	2.0691152	1.4384419
32.937495201758985	2.0402944	1.4283887
32.95577218413556	2.024454	1.4228331
32.974050028826866	2.0449862	1.4300301
32.992328736420035	2.0065227	1.4165177
33.010608307502444	1.9728495	1.4045815
33.02888874266169	2.032359	1.4256083
33.047170042485604	2.0131288	1.4188477
33.06545220756225	1.9535979	1.3977116
33.083735238479896	2.0743642	1.4402653
33.10201913582707	2.0727172	1.4396935
33.12030390019248	1.956949	1.3989099
33.138589532165135	1.8762522	1.3697635
33.15687603233419	1.8830311	1.3722358
33.17516340128909	1.9422511	1.3936467
33.19345163961947	1.9959984	1.412798
33.211740747915215	1.9960858	1.412829
33.23003072676643	1.9445355	1.394466
33.248321576763466	1.953974	1.3978462
33.266613298496885	1.9493886	1.3962051
33.28490589255747	1.9291493	1.3889382
33.30319935953626	1.9147019	1.3837276
33.32149370002451	1.8797953	1.3710563
33.339788914613706	1.7918475	1.3385991
33.358085003895575	1.8326547	1.3537558
33.376381968462034	1.9910041	1.4110295
33.39467980890529	2.022356	1.4220957
33.41297852581774	1.9813648	1.4076096
33.43127811979204	1.9647429	1.4016929
33.44957859142105	1.9298575	1.389193
33.467879941297866	1.884374	1.372725
33.486182170015844	1.9598322	1.39994
33.50448527816853	2.0510125	1.4321357
33.522789266349754	2.0339544	1.4261677
33.541094135153514	2.0523121	1.4325893
33.55939988517411	2.0383747	1.4277166
33.57770651700602	2.003351	1.4153978
33.59601403124398	1.9602648	1.4000946
33.61432242848296	1.8645597	1.3654888
33.632631709318154	1.8421674	1.3572646
33.650941874344994	1.8587512	1.3633603
33.66925292415916	1.8932312	1.3759474
33.68756485935654	1.7785368	1.3336179
33.70587768053328	1.8070942	1.344282
33.724191388285746	1.8689679	1.367102
33.74250598321054	1.9578985	1.3992493
33.760821465904506	2.0232375	1.4224055
33.77913783696474	1.9795852	1.4069773
33.79745509698852	1.8683705	1.3668835
33.815773246573414	1.7743839	1.33206
33.8340922863172	1.8937203	1.3761251
33.852412216817896	1.9839294	1.4085203
33.87073303867377	1.8432553	1.3576654
33.889054752483304	1.7516675	1.3235058
33.907377358845245	1.7997918	1.3415632
33.92570085835853	1.834142	1.354305
33.94402525162239	1.9103624	1.3821586
33.96235053923627	1.9683535	1.4029802
33.980676721799824	2.122531	1.4568908
33.999003799912984	2.1010327	1.449494
34.01733177417592	2.0227747	1.4222429
34.03566064518901	1.9373065	1.3918716
34.0539904135529	1.9349141	1.391012
34.07232107986846	1.8331559	1.3539408
34.090652644736785	1.8354597	1.3547914
34.108985108759235	1.8926507	1.3757365
34.12731847253742	1.9166923	1.3844465
34.14565273667313	1.9166195	1.3844203
34.16398790176847	1.999847	1.4141595
34.18232396842574	1.9563317	1.3986893
34.20066093724749	1.9086615	1.3815432
34.21899880883651	1.8653527	1.3657792
34.23733758379583	1.9526724	1.3973806
34.25567726272874	1.9697075	1.4034626
34.27401784623872	1.9738722	1.4049456
34.29235933492957	2.0283487	1.424201
34.31070172940526	2.086768	1.4445649
34.32904503027003	2.0675635	1.4379025
34.347389238128386	2.0077305	1.416944
34.36573435358502	1.929268	1.3889809
34.38408037724492	1.9331405	1.3903742
34.402427309713296	1.9753734	1.4054798
34.42077515159559	2.022943	1.422302
34.43912390349752	1.9226012	1.3865789
34.45747356602499	1.8607142	1.36408
34.47582413978423	1.922137	1.3864115
34.49417562538163	1.934016	1.390689
34.51252802342388	1.9003485	1.3785313
34.53088133451789	1.9220886	1.3863941
34.54923555927084	2.0549295	1.4335026
34.567590698290104	2.0269105	1.423696
34.58594675218336	1.925245	1.387532
34.6043037215585	1.7901818	1.3379767
34.62266160702365	1.7900654	1.3379333
34.641020409187234	1.8310066	1.3531469
34.65938012865785	1.8704106	1.3676295
34.677740766044394	2.0400743	1.4283117
34.69610232195598	2.0609827	1.4356123
34.714464797002016	1.934169	1.3907441
34.73282819179208	1.8641597	1.3653424
34.751192506936064	1.7789255	1.3337637
34.76955774304408	1.9037175	1.3797528
34.7879239007265	2.1605997	1.4698979
34.80629098059391	2.0982575	1.4485364
34.824658983257194	1.8106236	1.3455942
34.843027909327446	1.8460754	1.3587036
34.86139775941603	1.8873527	1.3738096
34.879768534134534	1.8909671	1.3751245
34.89814023409483	1.916277	1.3842965
34.91651285990901	1.8528785	1.3612047
34.93488641218944	1.928388	1.3886641
34.95326089154871	1.9613262	1.4004736
34.97163629859967	1.9470549	1.395369
34.99001263395542	1.9233406	1.3868456
35.00838989822934	2.056734	1.4341319
35.02676809203499	2.0633597	1.43644
35.04514721598624	1.832145	1.3535675
35.063527270697215	1.6350585	1.278694
35.081908256782256	1.6957834	1.3022225
35.10029017485597	1.8655374	1.3658468
35.11867302553321	1.8207759	1.3493613
35.137056809429104	1.7908974	1.3382441
35.155441527159006	1.9832964	1.4082955
35.173827179338524	2.128353	1.4588876
35.19221376658354	1.9894025	1.4104618
35.21060128951017	1.9455203	1.3948191
35.2289897487348	1.8656995	1.3659061
35.24737914487405	1.8498106	1.3600774
35.26576947854479	2.022253	1.4220594
35.28416075036418	2.1555667	1.4681848
35.30255296094958	2.0308192	1.4250681
35.32094611091867	1.7881676	1.3372239
35.33934020088932	1.6192751	1.2725074
35.35773523147969	1.6645013	1.2901555
35.3761312033082	2.101497	1.4496541
35.394528116993506	2.3361082	1.5284332
35.41292597315452	2.5687354	1.6027275
35.431324772410434	2.248811	1.4996036
35.449724515380666	1.9433721	1.3940488
35.46812520268491	1.9863282	1.4093716
35.486526834943106	2.0178938	1.4205259
35.504929412775454	1.9136674	1.3833537
35.52333293680242	1.8281299	1.3520836
35.54173740764471	1.7216624	1.3121214
35.560142825923286	1.5081575	1.2280706
35.5785491922594	1.503934	1.2263498
35.59695650727454	1.2908717	1.1361654
35.61536477159042	1.1671087	1.080328
