0.008763373481513119	0.0	0.0
0.026290120649546365	0.3180582	0.56396645
0.043816868432600686	0.24565311	0.49563405
0.06134361724069026	0.22211353	0.47128922
0.07887036748382949	0.15354364	0.39184645
0.0963971195720331	0.060210463	0.2453782
0.11392387391531617	0.049843207	0.22325592
0.1314506309236943	0.040553942	0.20138009
0.1489773910071836	0.036560025	0.19120675
0.16650415457580078	0.06397464	0.2529321
0.18403092203956356	0.045971125	0.21440879
0.20155769380849	0.08924396	0.2987373
0.2190844702925996	0.16815066	0.41006178
0.2366112519019124	0.20462827	0.45235857
0.2541380390464497	0.19815737	0.4451487
0.27166483213623416	0.13641435	0.36934313
0.28919163158128947	0.106727846	0.32669228
0.3067184377916406	0.11477295	0.33878157
0.324245251177314	0.09688433	0.3112625
0.34177207214833777	0.05246586	0.22905427
0.3592989011147415	0.07715766	0.27777267
0.37682573848655654	0.08556743	0.29251912
0.39435258467381573	0.08330541	0.28862676
0.41187944008655414	0.086332425	0.2938238
0.42940630513480854	0.15564711	0.3945214
0.446933180228618	0.19523321	0.44185203
0.4644600657780234	0.22780237	0.47728646
0.48198696219306775	0.17113791	0.41368818
0.49951386988379676	0.19523387	0.44185278
0.5170407892602581	0.15166967	0.3894479
0.5345677207325025	0.1468183	0.38316876
0.5520946647105822	0.117285974	0.3424704
0.5696216216045534	0.160584	0.40072933
0.5871485918244737	0.22236122	0.47155192
0.6046755757804043	0.21380313	0.46238852
0.6222025738824094	0.15832117	0.39789593
0.6397295865405557	0.13021249	0.36084968
0.6572566141649129	0.13616635	0.36900726
0.6747836571655547	0.14828894	0.38508302
0.6923107159525568	0.16338202	0.4042054
0.7098377909359992	0.16455698	0.40565625
0.7273648825259653	0.1738512	0.4169547
0.7448919911325411	0.168949	0.41103405
0.762419117165817	0.16409904	0.4050914
0.7799462610358868	0.15792143	0.3973933
0.7974734231528482	0.14682512	0.38317767
0.8150006039268024	0.12823883	0.3581045
0.8325278037678551	0.13881674	0.37258118
0.8500550230861152	0.19231449	0.43853676
0.8675822622916969	0.22129993	0.47042528
0.8851095217947171	0.26660684	0.51633984
0.9026368020052984	0.2688869	0.51854306
0.9201641033335665	0.27290657	0.5224046
0.9376914261896523	0.26315114	0.5129826
0.9552187709836915	0.22741662	0.4768822
0.9727461381258234	0.21605848	0.46482092
0.990273528026193	0.2136085	0.462178
1.0078009410949496	0.22731939	0.47678024
1.0253283777422473	0.25496593	0.5049415
1.0428558383782454	0.28470436	0.53357697
1.0603833234131086	0.28963017	0.538173
1.0779108332570058	0.32448545	0.5696362
1.0954383683201119	0.28965434	0.53819543
1.112965929012607	0.37521428	0.6125474
1.1304935157446763	0.50732315	0.7122662
1.1480211289265108	0.56558603	0.7520545
1.1655487689683062	1.367285	1.1693096
1.1830764362802655	1.6543212	1.2862042
1.200604131272596	2.0971403	1.4481506
1.2181318543555117	2.4169524	1.5546551
1.235659605939232	2.4324386	1.5596278
1.253187386433982	4.0284023	2.007088
1.270715196249994	6.3202233	2.5140054
1.2882430357975057	11.598061	3.4055924
1.3057709054867608	16.281858	4.0350785
1.3232988057280106	22.205967	4.712321
1.3408267369315112	27.081425	5.2039814
1.358354699507526	30.658651	5.5370255
1.3758826938663256	34.664196	5.887631
1.3934107204181858	36.708267	6.058735
1.410938779573391	37.326317	6.1095266
1.4284668717422309	37.857212	6.1528215
1.4459949973350033	37.68407	6.1387353
1.4635231567620117	38.187798	6.1796274
1.4810513504335687	37.497322	6.1235056
1.4985795787599925	36.73859	6.061237
1.5161078421516088	35.770954	5.980882
1.5336361410187505	34.98207	5.914564
1.5511644757717598	34.87196	5.9052486
1.5686928468209842	35.804928	5.9837217
1.58622125457678	36.55352	6.045951
1.6037496994495108	37.723927	6.1419806
1.621278181849548	37.292366	6.1067476
1.6388067021872719	38.21025	6.181444
1.6563352608730693	37.48278	6.1223183
1.673863858317336	36.59881	6.049695
1.6913924949304753	35.79239	5.982674
1.7089211711228998	34.731693	5.89336
1.7264498873050296	34.075478	5.8374205
1.7439786438872935	33.13624	5.756408
1.7615074412801288	31.881763	5.646394
1.779036279893981	31.040428	5.571394
1.796565160139305	29.989307	5.476249
1.814094082426564	29.442268	5.426073
1.8316230471662298	28.833044	5.369641
1.849152054768784	28.102188	5.30115
1.8666811056447168	27.731869	5.2661057
1.8842102002045273	27.031664	5.1991982
1.901739338858724	26.55306	5.152966
1.9192685220178245	25.769054	5.076323
1.9367977500923557	25.267374	5.026666
1.9543270234928547	24.61875	4.9617286
1.971856342629867	23.983973	4.8973436
1.9893857079139496	23.2358	4.8203526
2.006915119755667	22.510181	4.7444897
2.0244445785655945	21.886993	4.678354
2.0419740847543175	21.658375	4.653856
2.0595036387324317	21.486916	4.635398
2.0770332409105414	21.23736	4.608401
2.094562891699263	20.718536	4.551762
2.1120925915092217	20.109997	4.484417
2.129622340751053	19.71563	4.4402285
2.1471521398354043	187.92546	13.7085905
2.1646819891729323	444.36816	21.080042
2.182211889174303	440.73044	20.993582
2.1997418402501974	453.07657	21.285595
2.2172718428113023	432.98343	20.808254
2.234801897268317	320.7386	17.909176
2.2523320040319548	17.225565	4.150369
2.269862163512935	16.951479	4.1172175
2.287392376121992	16.730524	4.0902963
2.304922642269869	16.358507	4.044565
2.322452962367322	16.002283	4.000285
2.3399833368251164	15.540306	3.9421196
2.357513766054032	15.280186	3.9089878
2.3750442504648586	15.06919	3.8819056
2.3925747904683963	14.628378	3.8247063
2.410105386475459	14.396569	3.794281
2.4276360388968707	13.984356	3.7395663
2.445166748143469	13.729355	3.7053144
2.4626975146261025	13.825676	3.7182894
2.4802283387556323	13.731355	3.7055843
2.4977592209429305	13.6408825	3.6933565
2.5152901615988825	13.28599	3.6449952
2.5328211611343865	13.214533	3.63518
2.5503522199603523	13.043665	3.6116014
2.5678833384877024	12.697376	3.5633378
2.5854145171273712	12.338988	3.5126896
2.6029457562903064	12.1532345	3.4861488
2.620477056387469	12.098497	3.4782894
2.6380084178298326	11.906621	3.4505973
2.655539841028383	11.649143	3.413084
2.673071326394119	11.287768	3.3597274
2.6906028743380523	11.146244	3.3385992
2.708134485271211	11.030975	3.3212912
2.7256661596046325	10.867361	3.2965682
2.743197897749369	10.791437	3.2850323
2.760729700116486	10.743319	3.2777002
2.778261567117063	10.63961	3.2618415
2.795793499162193	10.408759	3.226261
2.8133254966629817	10.091349	3.1766884
2.830857560030551	9.942172	3.153121
2.8483896896760337	9.750178	3.1225276
2.865921886010578	9.634036	3.1038744
2.883454149445347	9.501651	3.0824747
2.9009864803915177	9.442901	3.0729303
2.91851887926028	9.29632	3.0489867
2.9360513464628384	9.189516	3.0314214
2.953583882410413	9.1046295	3.0173879
2.9711164875142373	9.049864	3.008299
2.9886491621855606	8.9793	2.996548
3.0061819068356455	8.824293	2.9705713
3.023714721875769	8.6576185	2.942383
3.041247607717225	8.404151	2.8989913
3.0587805647713213	8.200615	2.8636715
3.0763135934493806	8.23639	2.8699112
3.0938466941627407	8.253897	2.8729596
3.1113798673227544	8.231843	2.869119
3.1289131133407904	8.055155	2.8381605
3.1464464326282315	7.9282002	2.815706
3.1639798255964786	7.782488	2.789711
3.1815132926569443	7.684422	2.772079
3.1990468342210603	7.7310805	2.780482
3.216580450700272	7.568163	2.7510295
3.2341141425060416	7.421818	2.7243013
3.251647910049847	7.2596936	2.694382
3.2691817537431813	7.1348605	2.6711159
3.286715673997555	7.068075	2.658585
3.3042496712244938	7.0431995	2.6539028
3.32178374583554	7.1079526	2.6660743
3.339317898242251	7.140238	2.6721222
3.3568521288562034	7.0751724	2.6599197
3.3743864380889876	6.915183	2.6296735
3.3919208263522127	6.7196975	2.592238
3.4094552940575023	6.5497975	2.5592573
3.4269898416164972	6.4489245	2.5394733
3.444524469440858	6.4681845	2.5432625
3.4620591779422587	6.500292	2.549567
3.479593967532391	6.547782	2.5588634
3.4971288386229658	6.5045633	2.5504045
3.5146637916257086	6.457535	2.541168
3.5321988269523628	6.433341	2.5364032
3.5497339450146903	6.370027	2.5238912
3.5672691462244708	6.3299	2.5159292
3.5848044309934988	6.3190813	2.5137782
3.60233979973359	6.339228	2.5177824
3.619875252856575	6.2829123	2.506574
3.6374107907743034	6.3095093	2.5118737
3.6549464138986427	6.3180633	2.5135758
3.6724821226414788	6.370981	2.5240803
3.690017917414714	6.282455	2.5064826
3.7075537986302702	6.265663	2.5031307
3.7250897667000857	6.3393464	2.5178058
3.7426258220361235	6.5059843	2.550683
3.7601619650503553	6.877378	2.6224756
3.777698196154779	7.430454	2.7258859
3.7952345157614067	8.558222	2.925444
3.8127709242822716	9.374855	3.0618384
3.830307422129425	11.674991	3.4168684
3.847844009714936	30.45875	5.5189447
3.8653806874508954	97.84009	9.891415
3.882917455749409	97.16086	9.85702
3.900454315022606	96.90155	9.843859
3.917991265682631	41.461365	6.43905
3.9355283081416506	11.071267	3.3273513
3.9530654428118495	8.78003	2.9631116
3.970602670105433	7.5288887	2.743882
3.9881399904346244	6.6359086	2.5760257
4.005677404211669	6.4965563	2.5488343
4.023214911848827	6.5045595	2.5504038
4.0407525137583855	6.5300403	2.5553944
4.058290210352644	6.5608683	2.5614192
4.075828002043927	6.421998	2.534166
4.0933658892445814	6.2277746	2.4955509
4.110903872366966	6.225955	2.4951863
4.128441951823468	6.159089	2.4817512
4.145980128026488	6.1565933	2.4812484
4.163518401388452	6.057755	2.4612508
4.181056772321807	6.058352	2.461372
4.1985952412390155	6.1215534	2.4741774
4.216133808552567	6.1970816	2.4893937
4.233672474674966	6.342101	2.5183527
4.251211240018741	6.4839606	2.5463622
4.268750104996445	6.726515	2.5935526
4.286289070020643	7.555862	2.748793
4.303828135503928	9.225698	3.0373836
4.3213673018589125	29.573034	5.4381094
4.3389065694982305	90.91514	9.534943
4.356445938834537	166.02132	12.884926
4.3739854102805085	171.72498	13.104387
4.391524984248844	172.63574	13.139092
4.409064661152262	136.95753	11.702886
4.426604441403504	97.07577	9.852703
4.444144325415337	75.92867	8.713706
4.461684313600543	21.835308	4.672827
4.47922440637193	22.326717	4.725116
4.496764604142329	20.7074	4.5505385
4.5143049073245916	18.829859	4.3393383
4.531845316331589	16.72637	4.0897884
4.5493858315762195	13.913227	3.730044
4.566926453471405	11.637683	3.4114048
4.584467182430081	9.549113	3.090164
4.602008018865218	8.325563	2.8854053
4.619548963189798	7.620473	2.7605205
4.637090015816834	7.115935	2.667571
4.654631177159353	6.809934	2.609585
4.672172447630417	6.480375	2.545658
4.689713827643102	6.221582	2.49431
4.7072553176105085	5.981238	2.445657
4.724796917945764	5.900493	2.4290931
4.742338629062015	5.883701	2.4256341
4.759880451372434	5.8231306	2.4131165
4.777422385290215	5.755296	2.39902
4.794964431228581	5.7117276	2.3899221
4.812506589600768	5.8359656	2.4157743
4.830048860820047	5.856717	2.4200654
4.847591245299709	5.8219824	2.4128785
4.8651337434530655	5.720888	2.3918378
4.882676355693457	5.67581	2.3823957
4.900219082434242	5.6431947	2.375541
4.917761924088813	5.5726333	2.3606427
4.935304881070575	5.5053735	2.3463533
4.952847953792969	5.511099	2.347573
4.970391142669449	5.477814	2.3404732
4.9879344481135055	5.4378514	2.3319201
5.005477870538642	5.4692826	2.3386497
5.023021410358394	5.4440947	2.3332584
5.040565067986324	5.4954615	2.34424
5.05810884383601	5.425393	2.3292472
5.075652738321066	5.395956	2.3229196
5.09319675185512	5.320682	2.3066604
5.110740884851836	5.2517505	2.2916698
5.128285137724894	5.335685	2.30991
5.145829510888007	5.328542	2.3083634
5.163374004754908	5.4071913	2.3253367
5.1809186197393595	5.354932	2.3140726
5.198463356255145	5.3382897	2.310474
5.216008214716077	5.3638926	2.3160079
5.233553195535998	5.3437734	2.3116603
5.251098299128764	5.355568	2.31421
5.268643525908272	5.3295336	2.3085783
5.286188876288432	5.333496	2.3094363
5.3037343506831895	5.348677	2.3127208
5.32127994950651	5.2832	2.2985213
5.3388256731723915	5.2726173	2.2962182
5.356371522094851	5.19741	2.279783
5.373917496687938	5.2120824	2.2829986
5.391463597365729	5.227858	2.2864509
5.40900982454232	5.2174697	2.284178
5.426556178631843	5.2078667	2.2820752
5.444102660048449	5.258051	2.293044
5.4616492692063225	5.2642007	2.2943847
5.479196006519669	5.271954	2.2960737
5.496742872402727	5.1818104	2.276359
5.514289867269756	5.0593724	2.2493048
5.531836991535049	4.9903293	2.2339046
5.549384245612924	5.0494394	2.2470958
5.566931629917724	5.066552	2.2509003
5.584479144863822	5.1174955	2.2621882
5.6020267908656205	5.124448	2.2637243
5.619574568337545	5.1288614	2.264699
5.637122477694054	5.111952	2.2609625
5.654670519349629	5.109138	2.2603402
5.672218693718784	5.090098	2.2561245
5.689767001216059	5.0570126	2.2487803
5.707315442256021	5.0295434	2.2426643
5.724864017253266	5.0744214	2.2526476
5.7424127266224225	5.148214	2.2689676
5.75996157077814	5.1440587	2.2680516
5.777510550135105	5.1829333	2.2766056
5.795059665108022	5.1776667	2.2754486
5.812608916111639	5.23809	2.2886875
5.830158303560715	5.380709	2.3196356
5.847707827870055	5.390723	2.321793
5.86525748945448	5.433	2.3308797
5.8828072887288485	5.512649	2.347903
5.900357226108044	5.568652	2.3597991
5.917907302006979	5.67727	2.3827024
5.9354575168406	6.3242517	2.5148065
5.9530078710238765	6.9367495	2.633771
5.970558364971812	7.452643	2.7299528
5.988108999099438	7.679994	2.7712803
6.005659773821818	8.152372	2.855236
6.023210689554039	7.9398623	2.8177762
6.040761746711227	8.357093	2.8908637
6.058312945708531	7.7641697	2.786426
6.075864286961132	7.283942	2.698878
6.093415770884244	6.631264	2.575124
6.1109673978931065	6.1063814	2.4711094
6.128519168402993	5.620847	2.3708327
6.146071082829204	5.466495	2.3380537
6.163623141587075	5.3354735	2.3098643
6.181175345091969	5.2244115	2.2856972
6.198727693759281	5.2090664	2.282338
6.216280188004435	5.186441	2.277376
6.233832828242885	5.1760926	2.2751029
6.251385614890126	5.1693854	2.2736282
6.268938548361669	5.1582427	2.2711766
6.286491629073067	5.109176	2.2603488
6.304044857439898	5.1047435	2.259368
6.321598233877777	5.1002984	2.258384
6.339151758802344	5.0653324	2.2506294
6.356705432629277	5.0620546	2.249901
6.37425925577428	5.01184	2.238714
6.391813228653095	4.979807	2.231548
6.409367351681486	5.010016	2.2383065
6.426921625275259	5.0862713	2.2552762
6.44447604985025	5.0876102	2.255573
6.46203062582232	5.0831485	2.2545838
6.47958535360737	5.0518746	2.2476375
6.497140233621328	5.085464	2.2550974
6.514695266280161	5.0793705	2.2537458
6.532250451999859	5.030027	2.242772
6.549805791196454	5.077067	2.2532349
6.567361284286002	5.0444646	2.2459886
6.584916931684597	5.110161	2.2605665
6.602472733808367	5.067889	2.2511973
6.6200286910734665	5.0525346	2.2477844
6.637584803896092	5.066895	2.2509766
6.655141072692462	5.1198635	2.2627115
6.672697497878842	5.1036344	2.2591224
6.690254079871514	4.993505	2.234615
6.707810819086808	4.950649	2.2250054
6.725367715941078	4.9337335	2.221201
6.742924770850719	4.9650483	2.2282388
6.760481984232151	4.9471016	2.224208
6.778039356501836	4.92358	2.2189143
6.795596888076266	4.9754376	2.230569
6.813154579371963	4.993462	2.2346056
6.830712430805492	5.065305	2.2506232
6.84827044279344	5.0821257	2.254357
6.865828615752445	5.0695105	2.2515574
6.883386950099159	5.0498853	2.247195
6.900945446250287	5.066145	2.25081
6.918504104622553	5.099908	2.2582974
6.936062925632727	5.1357927	2.2662287
6.953621909697607	5.1539955	2.2702413
6.971181057234028	5.1531186	2.2700481
6.988740368658859	5.1185985	2.262432
7.006299844389007	5.0595217	2.2493382
7.023859484841407	5.1125593	2.261097
7.041419290433036	5.2866197	2.299265
7.058979261580902	5.5033307	2.345918
7.0765393987020495	5.7311277	2.3939774
7.094099702213559	6.1238737	2.474646
7.111660172532549	6.500357	2.5495799
7.129220810076164	6.821635	2.611826
7.146781615261595	7.4206796	2.7240925
7.16434258850606	7.543487	2.746541
7.181903730226821	7.9360003	2.8170907
7.1994650408411704	8.019178	2.8318155
7.217026520766437	8.212536	2.8657522
7.234588170419983	8.5799	2.9291465
7.252149990219215	8.599692	2.9325233
7.269711980581568	8.467417	2.9098825
7.2872741419245175	8.127933	2.8509529
7.304836474665574	7.6528544	2.7663794
7.322398979222286	7.313582	2.7043636
7.339961656012233	7.062722	2.6575782
7.357524505453039	6.8351016	2.6144028
7.375087527962357	6.598527	2.56876
7.392650723957886	6.3567343	2.5212564
7.410214093857353	6.051158	2.4599102
7.427777638078528	5.833505	2.415265
7.445341357039213	5.6393695	2.3747356
7.4629052511572525	5.437236	2.331788
7.480469320850524	5.316825	2.305824
7.498033566536948	5.2343082	2.287861
7.5155979886344735	5.2700324	2.295655
7.5331625875610975	5.2592974	2.293316
7.550727363734844	5.2266717	2.2861915
7.568292317573788	5.20779	2.2820582
7.585857449496025	5.1613913	2.2718697
7.603422759919705	5.1445465	2.2681594
7.620988249263007	5.153091	2.270042
7.638553917944147	5.163105	2.2722466
7.656119766381391	5.199686	2.280282
7.673685794993023	5.213413	2.28329
7.691252004197388	5.129574	2.2648563
7.70881839441285	5.1651115	2.2726882
7.726384966057826	5.13792	2.2666981
7.743951719550762	5.19442	2.279127
7.761518655310149	5.3111706	2.3045976
7.779085773754511	5.4120717	2.326386
7.796653075302419	5.476141	2.3401155
7.814220560372475	5.4422126	2.332855
7.831788229383323	5.381177	2.3197365
7.8493560827536495	5.345247	2.311979
7.866924120902174	5.3220615	2.3069594
7.884492344247663	5.338167	2.3104475
7.9020607532089135	5.3117614	2.304726
7.919629348204771	5.301289	2.3024528
7.937198129654115	5.320314	2.3065805
7.954767097975865	5.344538	2.3118258
7.972336253588986	5.3860183	2.3207796
7.989905596912472	5.367615	2.3168113
8.007475128365371	5.400923	2.3239884
8.025044848366756	5.443161	2.3330584
8.042614757335754	5.618632	2.3703654
8.060184855691523	5.6386046	2.3745747
8.07775514385327	5.700643	2.3876019
8.095325622240228	5.723109	2.392302
8.112896291271687	5.848427	2.4183521
8.130467151366968	6.0015755	2.4498112
8.148038202945436	6.039278	2.4574943
8.165609446426497	6.018374	2.4532375
8.183180882229594	6.018828	2.45333
8.200752510774217	5.9724655	2.443863
8.218324332479893	5.967819	2.442912
8.235896347766193	5.9372797	2.4366534
8.253468557052724	5.947664	2.4387832
8.27104096075914	5.9505563	2.439376
8.288613559305137	6.0439606	2.4584467
8.306186353110448	6.1480613	2.4795284
8.32375934259485	6.311308	2.5122316
8.341332528178162	6.332912	2.5165277
8.358905910280246	6.3597817	2.5218608
8.376479489321003	6.292507	2.508487
8.394053265720377	6.3159757	2.5131605
8.411627239898356	6.330653	2.516079
8.42920141227497	6.349975	2.5199156
8.44677578327029	6.423356	2.534434
8.464350353304427	6.419469	2.533667
8.48192512279754	6.3763494	2.5251434
8.499500092169827	6.2505236	2.5001047
8.51707526184153	6.190622	2.488096
8.534650632232934	6.1866875	2.4873052
8.552226203764365	6.198819	2.4897428
8.569801976856192	6.212936	2.4925761
8.587377951928834	6.268898	2.5037768
8.60495412940274	6.237574	2.4975135
8.622530509698416	6.2177224	2.4935362
8.6401070932364	6.3064404	2.5112627
8.657683880437283	6.4708323	2.5437832
8.675260871721695	6.704067	2.5892212
8.692838067510303	6.848676	2.6169975
8.710415468223834	6.9181156	2.6302311
8.727993074283043	7.0520015	2.6555605
8.745570886108737	7.077573	2.6603708
8.763148904121765	7.216335	2.6863236
8.78072712874302	7.264678	2.6953068
8.798305560393441	7.512549	2.740903
8.815884199494006	7.620295	2.7604883
8.833463046465745	7.721632	2.7787824
8.851042101729728	7.858943	2.8033807
8.86862136570707	8.171293	2.8585474
8.886200838818924	8.315794	2.8837118
8.903780521486505	8.278234	2.877192
8.921360414131055	8.456505	2.908007
8.938940517173874	8.577915	2.9288077
8.956520831036297	8.742969	2.956851
8.97410135613971	8.934765	2.9891076
8.99168209290554	9.1343	3.0223005
9.009263041755265	9.56735	3.0931134
9.026844203110405	9.910898	3.1481578
9.044425577392525	10.03909	3.1684523
9.062007165023239	10.031506	3.1672552
9.079588966424197	10.297675	3.2089992
9.097170982017108	10.361632	3.2189488
9.11475321222372	11.436838	3.3818395
9.132335657465825	12.340233	3.5128667
9.149918318165264	12.453179	3.5289063
9.167501194743924	13.002946	3.60596
9.18508428762374	12.648897	3.5565288
9.202667597226693	12.701538	3.5639217
9.220251123974803	12.421184	3.52437
9.237834868290143	12.123982	3.481951
9.255418830594836	11.943967	3.4560044
9.273003011311046	11.41509	3.3786225
9.290587410860985	11.183063	3.3441086
9.308172029666911	10.544675	3.2472565
9.32575686815113	10.309504	3.2108417
9.343341926735997	8.95315	2.9921815
9.360927205843916	8.665058	2.9436471
9.378512705897327	8.412214	2.9003818
9.396098427318728	8.187188	2.8613262
9.413684370530664	8.176796	2.8595097
9.431270535955722	8.047063	2.8367345
9.448856924016539	7.9311476	2.8162293
9.466443535135806	7.716352	2.7778323
9.484030369736251	7.7175717	2.7780519
9.501617428240658	7.751938	2.7842302
9.519204711071852	7.8891187	2.8087575
9.536792218652714	7.9216685	2.8145459
9.55437995140617	7.855742	2.8028097
9.571967909755191	7.7995677	2.7927706
9.589556094122802	7.8161497	2.7957377
9.60714450493207	7.9055643	2.8116837
9.624733142606116	8.013323	2.8307812
9.642322007568108	8.074675	2.841597
9.659911100241267	8.102001	2.8464015
9.677500421048851	8.153703	2.855469
9.695089970414175	8.158337	2.8562803
9.712679748760609	8.178431	2.8597956
9.730269756511557	8.190251	2.8618615
9.747859994090492	8.173314	2.8589008
9.765450461920915	8.220354	2.867116
9.78304116042639	8.266523	2.8751562
9.800632090030527	8.311616	2.8829873
9.81822325115699	8.333063	2.8867044
9.835814644229481	8.375322	2.8940148
9.853406269671762	8.393002	2.8970678
9.870998127907646	8.42889	2.9032552
9.888590219360985	8.456276	2.9079676
9.906182544455698	8.464882	2.909447
9.923775103615734	8.4480095	2.9065459
9.941367897265108	8.4452095	2.9060643
9.958960925827878	8.421822	2.9020374
9.97655418972816	8.409837	2.899972
9.994147689390106	8.389259	2.896422
10.011741425237934	8.409537	2.8999202
10.029335397695904	8.353046	2.8901637
10.04692960718833	8.312513	2.883143
10.06452405413958	8.224983	2.8679233
10.082118738974064	8.237146	2.870043
10.099713662116246	8.288311	2.8789427
10.117308823990651	8.324235	2.885175
10.134904225021844	8.356469	2.890756
10.152499865634445	8.332068	2.8865323
10.170095746253125	8.299221	2.880837
10.18769186730261	8.254783	2.8731139
10.205288229207675	8.2017765	2.8638744
10.222884832393145	8.196958	2.8630328
10.2404816772839	8.2164	2.8664265
10.258078764304868	8.189448	2.8617213
10.275676093881035	8.158987	2.856394
10.293273666437438	8.107809	2.8474214
10.310871482399158	8.166543	2.8577163
10.32846954219134	8.19217	2.8621967
10.346067846239173	8.184808	2.8609104
10.363666394967908	8.221102	2.8672464
10.38126518880283	8.206138	2.8646357
10.398864228169298	8.232601	2.869251
10.416463513492713	8.266225	2.8751044
10.434063045198531	8.247766	2.8718922
10.451662823712262	8.2341795	2.869526
10.469262849459467	8.204236	2.8643038
10.486863122865758	8.130254	2.85136
10.504463644356806	8.158575	2.856322
10.522064414358338	8.061772	2.8393261
10.539665433296118	7.985484	2.8258598
10.557266701595987	7.822934	2.7969508
10.574868219683818	7.757786	2.7852802
10.592469987985552	7.693113	2.773646
10.610072006927185	7.605637	2.757832
10.627674276934751	7.4888444	2.7365754
10.64527679843435	7.363864	2.713644
10.662879571852143	7.2754884	2.6973114
10.680482597614331	7.164224	2.676607
10.698085876147173	7.0392256	2.653154
10.715689407876988	6.9692135	2.639927
10.733293193230146	6.88716	2.6243398
10.750897232633072	6.8576717	2.6187158
10.76850152651225	6.747272	2.597551
10.786106075294207	6.7575727	2.599533
10.803710879405534	6.70848	2.5900733
10.821315939272877	6.6053176	2.5700812
10.83892125532294	6.43508	2.536746
10.856526827982472	6.3118906	2.5123477
10.874132657678285	6.270381	2.504073
10.891738744837243	6.207121	2.4914093
10.909345089886271	6.1677322	2.483492
10.926951693252343	6.1709814	2.484146
10.944558555362494	6.194022	2.4887793
10.96216567664381	6.137096	2.4773164
10.979773057523436	5.985923	2.4466145
10.997380698428573	5.8711314	2.4230418
11.014988599786477	5.7824044	2.404663
11.032596762024461	5.705082	2.3885314
11.050205185569892	5.6496086	2.3768904
11.067813870850198	5.5746484	2.3610694
11.085422818292859	5.560166	2.3580005
11.10303202832541	5.454819	2.3355556
11.120641501375454	5.3684177	2.3169847
11.138251237870636	5.291144	2.3002486
11.155861238238671	5.2775817	2.2972987
11.173471502907317	5.243027	2.2897658
11.191082032304402	5.1647296	2.2726042
11.208692826857805	5.087149	2.255471
11.226303886995465	5.028491	2.2424297
11.243915213145371	4.977448	2.2310195
11.261526805735578	4.8961787	2.2127311
11.279138665194196	4.8678946	2.2063305
11.296750791949393	4.861308	2.2048373
11.314363186429393	4.8485475	2.2019417
11.331975849062479	4.8708777	2.2070065
11.34958878027699	4.787157	2.1879573
11.36720198050133	4.7194324	2.1724255
11.384815450163948	4.6182466	2.1490107
11.402429189693366	4.5969214	2.1440432
11.420043199518153	4.5149813	2.1248486
11.437657480066942	63.470524	7.966839
11.455272031768422	85.12887	9.226531
11.472886855051353	107.54872	10.37057
11.490501950344528	99.12906	9.956358
11.508117318076819	84.48504	9.191574
11.52573295867715	45.866505	6.7724814
11.543348872574514	4.1604667	2.0397222
11.560965060197946	4.0941377	2.0233974
11.57858152197655	4.041354	2.0103118
11.59619825833949	4.0113144	2.0028267
11.613815269715985	4.0240455	2.0060024
11.631432556535323	38.538517	6.2079396
11.649050119226837	83.06825	9.114179
11.666667958219929	93.44318	9.666601
11.68428607394406	107.70791	10.3782425
11.701904466828756	82.56749	9.086665
11.719523137303586	65.40123	8.087103
11.737142085798196	4.620891	2.1496258
11.754761312742286	3.704603	1.9247345
11.772380818565619	3.6345153	1.9064405
11.790000603698015	3.5902686	1.8948004
11.80762066856935	3.5841053	1.8931733
11.825241013609572	3.5622857	1.8874018
11.842861639248683	3.5516875	1.8845922
11.860482545916748	3.5178006	1.8755801
11.878103734043883	3.479636	1.8653783
11.895725204060282	3.3855064	1.8399745
11.91334695639619	3.33443	1.8260422
11.930968991481919	3.3365524	1.8266232
11.948591309747824	3.351765	1.8307827
11.966213911624347	3.3661308	1.8347019
11.98383679754198	3.3218255	1.8225876
12.001459967931268	3.3325653	1.8255315
12.019083423222835	3.3462381	1.8292726
12.036707163847352	3.330236	1.8248934
12.05433119023556	3.2544532	1.8040103
12.071955502818259	3.2401838	1.8000511
12.089580102026313	3.2064235	1.7906489
12.107204988290643	3.1702998	1.7805336
12.12483016204224	3.1124141	1.7642035
12.142455623712152	3.0701952	1.7521973
12.16008137373149	3.0542772	1.7476491
12.177707412531431	3.0516033	1.7468839
12.19533374054321	3.0242403	1.7390343
12.212960358198126	3.014718	1.7362944
12.230587265927545	3.0148058	1.7363197
12.248214464162889	3.0108693	1.7351856
12.265841953335649	3.0257814	1.7394773
12.283469733877375	3.0147939	1.7363162
12.301097806219685	3.0510087	1.7467136
12.31872617079425	3.0209067	1.7380756
12.336354828032825	2.968354	1.7228912
12.353983778367205	2.9256616	1.7104565
12.371613022229262	2.8816235	1.6975346
12.389242560050928	2.882568	1.6978127
12.406872392264201	2.870882	1.6943678
12.424502519301143	2.8461947	1.6870669
12.442132941593874	2.837755	1.6845638
12.459763659574586	2.823659	1.6803746
12.477394673675532	2.8077538	1.6756353
12.49502598432903	2.8243484	1.6805798
12.51265759196746	2.8516695	1.6886888
12.530289497023267	2.8881135	1.699445
12.547921699928967	2.8757117	1.6957923
12.565554201117134	2.8498585	1.6881524
12.583187001020404	2.8018467	1.6738718
12.600820100071486	2.775828	1.6660815
12.618453498703152	2.7562382	1.6601923
12.636087197348235	2.7765846	1.6663086
12.65372119643964	2.798465	1.6728613
12.671355496410326	2.8387597	1.6848619
12.68899009769333	2.8636365	1.6922283
12.706625000721749	2.9135468	1.7069114
12.724260205928752	2.949889	1.717524
12.741895713747551	2.9621038	1.7210764
12.759531524611454	3.001692	1.7325392
12.777167638953818	3.0173452	1.7370508
12.794804057208072	3.0145454	1.7362447
12.812440779807702	3.029346	1.7405016
12.830077807186271	3.1431513	1.7728934
12.847715139777405	3.2063425	1.7906263
12.865352778014795	3.4639924	1.8611804
12.882990722332197	3.6417348	1.908333
12.90062897316344	3.7645707	1.9402502
12.918267530942412	3.8141823	1.9529932
12.935906396103071	3.6783051	1.9178908
12.953545569079449	3.8612282	1.9650009
12.971185050305628	3.7028236	1.9242722
12.988824840215775	3.6809008	1.9185674
13.006464939244115	3.6214263	1.9030045
13.024105347824943	3.4591167	1.8598701
13.041746066392617	3.5793047	1.8919051
13.05938709538157	3.3879483	1.840638
13.077028435226296	3.4289331	1.8517379
13.094670086361363	3.3217082	1.8225554
13.112312049221401	3.2237763	1.7954878
13.129954324241112	3.1124544	1.764215
13.147596911855258	2.9490862	1.7172904
13.165239812498685	2.9670973	1.7225264
13.182883026606293	2.8637254	1.6922545
13.200526554613058	2.751731	1.6588342
13.218170396954017	2.6635702	1.6320448
13.235814554064284	2.6751308	1.6355827
13.253459026379034	2.7022257	1.6438448
13.271103814333523	2.7122056	1.6468775
13.288748918363058	2.724942	1.6507398
13.306394338903031	2.694749	1.6415691
13.32404007638889	2.6686423	1.633598
13.341686131256164	2.6565115	1.6298808
13.359332503940449	2.6612554	1.6313355
13.376979194877402	2.649872	1.6278428
13.394626204502751	2.6836157	1.6381745
13.412273533252307	2.7060342	1.6450028
13.429921181561937	2.7421699	1.6559498
13.447569149867581	2.7410607	1.6556149
13.465217438605247	2.7333572	1.6532868
13.482866048211022	2.7243752	1.6505681
13.500514979121052	2.7513747	1.6587268
13.518164231771568	2.7662477	1.6632041
13.535813806598844	2.7681391	1.6637726
13.553463704039254	2.7561307	1.6601598
13.571113924529229	2.7420588	1.6559163
13.588764468505275	2.725506	1.6509107
13.606415336403956	2.7384272	1.6548194
13.624066528661917	2.7459729	1.6570977
13.641718045715882	2.792388	1.671044
13.659369888002635	2.8173587	1.678499
13.67702205595903	2.881721	1.6975633
13.694674550021993	2.9467556	1.7166116
13.712327370628532	3.0086942	1.7345588
13.729980518215713	3.092443	1.7585343
13.747633993220681	3.1590881	1.7773824
13.765287796080647	3.2481902	1.8022736
13.7829419272329	3.2793248	1.8108906
13.800596387114801	3.2947726	1.8151509
13.818251176163775	3.2983408	1.8161335
13.835906294817324	3.3644834	1.8342528
13.853561743513023	3.4153402	1.848064
13.871217522688525	3.4273562	1.851312
13.888873632781538	3.4574087	1.8594109
13.906530074229858	3.4910913	1.8684462
13.92418684747135	3.5134873	1.8744298
13.941843952943948	3.5215168	1.8765705
13.959501391085665	3.4879036	1.867593
13.977159162334578	3.4465427	1.8564867
13.994817267128846	3.3723664	1.8364004
14.012475705906693	3.249994	1.802774
14.030134479106424	3.1889095	1.7857518
14.047793587166414	3.1344228	1.7704301
14.065453030525108	3.0526152	1.7471734
14.083112809621026	2.988134	1.728622
14.100772924892766	2.9598346	1.720417
14.118433376778997	2.9521234	1.7181745
14.136094165718458	2.8538654	1.6893387
14.153755292149969	2.7440467	1.6565164
14.171416756512416	2.63564	1.6234654
14.189078559244768	2.5873408	1.6085213
14.20674070078606	2.5373223	1.5928974
14.224403181575408	2.501797	1.581707
14.242066002051999	2.5096667	1.5841928
14.259729162655093	2.4980297	1.5805156
14.277392663824022	2.4729261	1.572554
14.295056505998208	2.4416895	1.5625906
14.312720689617128	2.469282	1.5713949
14.330385215120348	2.5073137	1.58345
14.348050082947497	2.532201	1.5912892
14.3657152935383	2.5033114	1.5821856
14.383380847332528	2.4557576	1.5670857
14.401046744770051	2.3865697	1.5448526
14.418712986290798	2.3883953	1.5454434
14.436379572334793	2.4001808	1.5492517
14.454046503342123	2.4260216	1.5575691
14.471713779752946	2.4181306	1.5550339
14.489381402007504	2.3877199	1.5452249
14.507049370546113	2.3967376	1.54814
14.524717685809168	2.4065278	1.5512987
14.542386348237134	2.4466484	1.5641766
14.560055358270553	2.469188	1.571365
14.577724716350051	2.4971924	1.5802507
14.595394422916325	2.4564083	1.5672933
14.61306447841015	2.4686654	1.5711987
14.63073488327237	2.4857469	1.5766251
14.648405637943917	2.547854	1.5961999
14.6660767428658	2.5277522	1.5898906
14.683748198479094	2.5423524	1.5944756
14.701420005224954	2.5950687	1.6109217
14.719092163544628	2.6680257	1.6334093
14.73676467387942	2.6879773	1.6395051
14.754437536670727	2.683659	1.6381878
14.772110752360014	2.700975	1.6434643
14.78978432138882	2.7245665	1.6506261
14.807458244198777	2.7276492	1.6515596
14.82513252123159	2.6851282	1.6386361
14.842807152929028	2.7061903	1.6450503
14.860482139732962	2.6800394	1.6370826
14.87815748208531	2.6696732	1.6339135
14.8958331804281	2.6601386	1.6309931
14.91350923520342	2.6472795	1.6270462
14.931185646853438	2.6919181	1.6407065
14.948862415820408	2.6943002	1.6414324
14.966539542546656	2.7380357	1.6547011
14.98421702747459	2.7123256	1.646914
15.001894871046696	2.7304251	1.6523998
15.019573073705542	2.6905463	1.6402885
15.037251635893766	2.6701188	1.6340498
15.054930558054092	2.7177937	1.6485733
15.072609840629323	2.7997136	1.6732345
15.090289484062351	2.8967476	1.7019835
15.107969488796124	3.110096	1.7635465
15.125649855273691	3.519305	1.8759811
15.14333058393817	4.0764856	2.0190308
15.161011675232768	5.2018557	2.2807577
15.17869312960076	6.7179737	2.5919054
15.196374947485506	8.711799	2.9515755
15.214057129330447	11.924641	3.4532073
15.231739675579114	16.717073	4.0886517
15.249422586675102	21.70869	4.6592584
15.267105863062092	24.585344	4.958361
15.284789505183847	24.545618	4.9543533
15.302473513484218	22.151043	4.7064896
15.320157888407127	18.440407	4.2942295
15.337842630396578	14.186026	3.766434
15.355527739896656	10.928678	3.305855
15.37321321735153	8.478415	2.9117718
15.39089906320545	6.2226443	2.4945228
15.408585277902748	4.7192593	2.1723857
15.42627186188783	3.6740475	1.9167805
15.443958815605198	3.15135	1.7752042
15.461646139499424	2.883014	1.697944
15.479333834015168	2.7590435	1.6610368
15.497021899597165	2.7136445	1.6473143
15.514710336690234	2.6773663	1.636266
15.53239914573928	2.6352174	1.6233352
15.550088327189297	2.6002197	1.6125197
15.567777881485336	2.5484192	1.5963769
15.58546780907256	2.5389879	1.5934201
15.6031581103962	2.5488038	1.5964973
15.620848785901568	2.5303473	1.5907066
15.638539836034063	2.5354483	1.5923091
15.656231261239173	2.502682	1.5819867
15.673923061962451	2.444155	1.5633793
15.691615238649552	2.3974438	1.5483681
15.709307791746202	2.3890963	1.5456702
15.727000721698221	2.4273217	1.5579864
15.744694028951498	2.4316154	1.5593637
15.76238771395202	2.406517	1.5512953
15.780081777145844	2.3868914	1.5449568
15.797776218979125	2.3715882	1.5399961
15.815471039898094	2.3820577	1.5433916
15.833166240349064	2.4017205	1.5497485
15.850861820778437	2.4509711	1.5655577
15.868557781632699	2.453767	1.5664505
15.886254123358412	2.4238868	1.5568837
15.903950846402232	2.3590195	1.53591
15.921647951210897	2.322657	1.5240266
15.939345438231225	2.3348339	1.5280163
15.957043307910133	2.3441515	1.5310622
15.974741560694602	2.3784583	1.5422251
15.992440197031714	2.4298623	1.5588015
16.01013921736862	2.4273708	1.5580022
16.02783862215259	2.3742394	1.5408567
16.045538411830933	2.361266	1.5366411
16.06323858685107	2.3562474	1.5350074
16.080939147660512	2.355133	1.5346442
16.09864009470684	2.3520534	1.5336406
16.11634142843774	2.3420374	1.5303717
16.134043149300954	2.3451362	1.5313838
16.15174525774433	2.3747897	1.5410353
16.169447754215817	2.3991838	1.5489299
16.18715063916342	2.4252868	1.5573332
16.204853913035244	2.4436927	1.5632315
16.222557576279478	2.4690177	1.5713109
16.240261629344403	22.472588	4.740526
16.257966072678386	42.98271	6.5561204
16.275670906729868	38.07599	6.1705747
16.293376131947387	2.514447	1.5857008
16.31108174877957	2.532001	1.5912262
16.328787757675133	2.5408628	1.5940084
16.34649415908287	2.553271	1.5978959
16.364200953451657	2.5987704	1.6120702
16.38190814123048	2.6230998	1.6195986
16.39961572286839	2.652189	1.6285542
16.41732369881455	2.6596584	1.6308459
16.43503206951817	2.6875238	1.6393669
16.45274083542859	2.6919644	1.6407207
16.47044999699522	2.7150872	1.6477522
16.488159554667558	2.7891643	1.6700791
16.505869508895184	2.8586752	1.6907617
16.523579860127786	2.9081378	1.7053263
16.541290608815117	2.9601893	1.72052
16.559001755407035	2.998831	1.7317133
16.57671330035348	3.0517879	1.7469367
16.59442524410448	3.1080003	1.7629521
16.61213758711015	3.1824772	1.7839499
16.629850329820705	3.241104	1.8003066
16.647563472686436	3.3221362	1.8226728
16.665277016157724	3.3863773	1.8402113
16.682990960685053	3.5049338	1.8721468
16.70070530671898	3.5706515	1.8896167
16.718420054710155	3.5843892	1.8932483
16.736135205109335	3.5799944	1.8920873
16.753850758367335	3.587397	1.8940425
16.771566714935087	3.6129515	1.9007765
16.789283075263597	3.6811516	1.9186327
16.80699983980398	3.7404118	1.9340144
16.82471700900741	3.8264997	1.9561441
16.84243458332518	3.9135191	1.9782616
16.860152563208665	3.9951751	1.9987934
16.87787094910932	4.0543528	2.0135424
16.89558974147871	4.1196837	2.0297005
16.913308940768466	4.2001767	2.0494332
16.931028547430333	4.255812	2.062962
16.94874856191613	4.3225794	2.0790813
16.966468984677785	4.404289	2.0986397
16.98418981616729	4.4811935	2.116883
17.00191105683676	4.5026245	2.121939
17.019632707138374	4.5143695	2.1247046
17.03735476752442	4.524646	2.1271214
17.05507723844728	4.5365286	2.1299129
17.072800120359403	4.5715566	2.13812
17.090523413713353	4.6209083	2.1496298
17.108247118961785	4.654883	2.1575177
17.125971236557437	4.6373305	2.1534462
17.143695766953133	4.6588326	2.158433
17.161420710601806	4.677591	2.1627738
17.179146067956477	4.717677	2.1720214
17.19687183947025	4.7016315	2.1683247
17.21459802559634	4.693924	2.1665466
17.232324626788028	4.6939	2.166541
17.25005164349871	4.7073693	2.1696472
17.267779076181863	4.68274	2.163964
17.285506925291074	4.6668053	2.160279
17.30323519127999	4.621589	2.1497881
17.320963874602384	4.6410413	2.1543076
17.33869297571211	4.622061	2.1498978
17.356422495063114	4.650272	2.1564488
17.37415243310944	4.630161	2.1517808
17.391882790305218	4.5510616	2.1333218
17.40961356710468	4.519113	2.1258206
17.42734476396215	4.5278964	2.1278853
17.445076381332044	4.516497	2.1252053
17.462808419668868	4.604768	2.1458724
17.48054087942723	4.7734184	2.1848154
17.498273761061835	5.1041813	2.2592435
17.51600706502747	5.6163397	2.3698819
17.533740791779024	6.362191	2.5223384
17.551474941771485	7.941655	2.8180943
17.56920951545993	9.177744	3.0294793
17.586944513299528	11.41137	3.378072
17.60467993574556	13.132153	3.6238313
17.622415783253373	14.837935	3.852004
17.64015205627843	16.143919	4.0179496
17.657888755276293	17.177732	4.144603
17.675625880702604	17.499819	4.1832786
17.69336343301311	17.200579	4.147358
17.71110141266366	16.44103	4.0547543
17.728839820110178	15.78462	3.9729862
17.746578655808705	15.099331	3.8857858
17.764317920215372	13.635874	3.6926785
17.7820576137864	11.808235	3.4363112
17.79979773697811	9.550233	3.0903451
17.81753829024692	7.4385624	2.727373
17.835279274049356	5.715165	2.3906412
17.85302068884201	4.691462	2.1659782
17.870762535081607	4.0989113	2.024577
17.888504813224934	3.7971208	1.9486202
17.90624752372891	3.6752028	1.9170818
17.923990667050536	3.6197832	1.9025728
17.941734243646895	3.6069221	1.8991898
17.959478253975185	3.5508955	1.884382
17.9772226984927	3.4930155	1.8689611
17.994967577656833	3.449842	1.857375
18.01271289192506	3.3985636	1.8435193
18.030458641754965	3.3794737	1.8383344
18.04820482760425	3.344631	1.8288332
18.06595144993067	3.3269873	1.8240031
18.083698509192125	3.290267	1.8139093
18.101446005846576	3.2736423	1.8093209
18.119193940352105	3.2562194	1.8044997
18.136942313166887	3.2340777	1.7983541
18.1546911247492	3.2309532	1.7974852
18.1724403755574	3.1993403	1.78867
18.19019006604997	3.173583	1.7814553
18.207940196685467	3.154776	1.776169
18.225690767922575	3.1552384	1.7762991
18.243441780220046	3.1329498	1.770014
18.261193234036764	3.1221118	1.7669499
18.278945129831676	3.1056619	1.7622888
18.29669746806386	3.0971406	1.7598695
18.314450249192483	3.0555112	1.748002
18.3322034736768	3.0444498	1.7448351
18.349957141976184	3.0006475	1.7322377
18.3677112545501	2.9846377	1.7276105
18.385465811858108	3.0060747	1.7338035
18.403220814359884	3.0311248	1.7410126
18.420976262515172	3.044559	1.7448665
18.43873215678387	3.0925367	1.758561
18.456488497625923	3.1393116	1.7718103
18.474245285501407	3.1836097	1.7842673
18.492002520870486	3.267338	1.807578
18.50976020419343	3.3795805	1.8383635
18.527518335930615	3.6813462	1.9186834
18.545276916542516	4.2639585	2.0649354
18.563035946489688	4.3888683	2.0949626
18.580795426232832	4.8324833	2.198291
18.598555356232698	4.7234597	2.1733522
18.616315736950185	5.068037	2.25123
18.63407656884626	4.729519	2.1747458
18.65183785238201	4.8843017	2.2100456
18.669599588018617	4.6906304	2.1657863
18.68736177621737	4.657003	2.158009
18.705124417439652	4.6526375	2.1569974
18.72288751214696	4.4618354	2.1123056
18.740651060800886	4.628035	2.1512868
18.758415063863115	4.3443556	2.0843117
18.77617952179546	4.454287	2.1105182
18.793944435059814	4.15036	2.0372434
18.811709804118184	4.2009816	2.0496297
18.829475629432675	4.19374	2.0478623
18.8472419114655	4.0302544	2.0075493
18.86500865067897	4.1170096	2.0290415
18.88277584753551	3.784318	1.9453324
18.90054350249763	3.8125985	1.9525876
18.918311616027957	3.5089386	1.8732162
18.936080188589226	3.4042451	1.8450596
18.953849220644265	3.062313	1.7499466
18.971618712656007	2.9286895	1.7113414
18.9893886650875	2.8773205	1.6962667
19.007159078401887	8.067768	2.8403816
19.024929953062408	32.928295	5.738318
19.042701289532435	32.88337	5.734402
19.060473088275405	25.405085	5.0403457
19.07824534975489	2.6547363	1.6293361
19.096018074434568	2.6264389	1.6206292
19.113791262778197	2.5930266	1.6102878
19.13156491524966	2.5947628	1.6108267
19.149339032312945	2.590245	1.6094238
19.167113614432136	2.598043	1.6118445
19.184888662071433	2.5581882	1.5994337
19.202664175695123	2.5588887	1.5996526
19.220440155767623	2.5099993	1.5842978
19.238216602753447	2.5186498	1.5870254
19.2559935171172	2.5649436	1.6015441
19.27377089932361	2.5911884	1.6097169
19.291548749837514	2.5593698	1.5998031
19.309327069123835	2.5128667	1.5852025
19.32710585764763	2.5126073	1.5851206
19.344885115874032	2.4993134	1.5809216
19.362664844268313	2.4866464	1.5769104
19.380445043295822	2.4970293	1.5801991
19.39822571342203	2.4824624	1.5755832
19.41600685511252	2.45365	1.566413
19.43378846883297	2.4600868	1.5684664
19.451570555049173	2.4550974	1.5668751
19.469353114227037	2.4633348	1.5695014
19.48713614683254	2.4522972	1.5659813
19.50491965333182	2.4489996	1.564928
19.52270363419109	2.428883	1.5584874
19.540488089876686	2.466389	1.5704741
19.55827302085503	2.49808	1.5805316
19.576058427592674	2.4964347	1.580011
19.593844310556282	2.4659572	1.5703367
19.611630670212598	2.4433525	1.5631226
19.629417507028506	2.4451895	1.5637102
19.64720482147098	2.5183632	1.5869352
19.6649926140071	2.545428	1.5954398
19.682780885104084	2.5584104	1.5995032
19.70056963522921	2.5123441	1.5850376
19.718358864849908	2.534462	1.5919994
19.7361485744337	2.5333872	1.5916618
19.753938764448215	2.546749	1.5958537
19.771729435361202	2.5420012	1.5943655
19.789520587640506	2.548139	1.5962892
19.807312221754092	2.5106916	1.5845162
19.825104338170043	2.5057538	1.5829573
19.842896937356517	2.5129957	1.5852431
19.860690019781824	2.5058203	1.5829782
19.87848358591436	2.5045295	1.5825706
19.896277636222635	2.5022178	1.58184
19.914072171175278	2.5212088	1.5878315
19.931867191241015	2.5333526	1.591651
19.94966269688869	2.541311	1.594149
19.967458688587264	2.5162537	1.5862703
19.985255166805807	2.489435	1.5777943
20.00305213201348	2.4770443	1.5738629
20.020849584679578	2.4753323	1.5733188
20.038647525273507	2.480363	1.5749168
20.05644595426477	2.4601443	1.5684847
20.07424487212299	2.4342902	1.5602212
20.092044279317903	2.4219122	1.5562494
20.109844176319353	2.4391744	1.5617857
20.127644563597304	2.4408264	1.5623144
20.145445441621817	2.4641428	1.5697589
20.16324681086307	2.4505181	1.5654131
20.181048671791373	2.40631	1.5512285
20.198851024877122	2.368097	1.5388622
20.216653870590836	2.3824728	1.543526
20.234457209403146	2.4135919	1.5535738
20.252261041784802	2.4085088	1.5519371
20.270065368206662	2.3925385	1.5467833
20.287870189139685	2.3855739	1.5445303
20.305675505054968	2.3881845	1.5453752
20.323481316423702	2.3543708	1.5343959
20.341287623717207	2.3273165	1.5255545
20.359094427406884	2.328854	1.5260583
20.376901727964288	2.3665087	1.538346
20.39470952586107	2.3683214	1.5389352
20.41251782156899	2.3659358	1.5381598
20.430326615559935	2.3790975	1.5424323
20.448135908305886	2.400849	1.5494673
20.465945700278965	2.4183307	1.5550983
20.483755991951384	2.3907852	1.5462164
20.50156678379548	2.3508496	1.5332481
20.519378076283708	2.3502238	1.533044
20.537189869888635	2.3648643	1.5378115
20.55500216508294	2.348812	1.5325835
20.572814962339415	2.2974432	1.5157319
20.59062826213098	2.2841945	1.5113552
20.60844206493066	2.305807	1.5184884
20.626256371211593	2.34783	1.532263
20.644071181447032	2.3437636	1.5309355
20.66188649611036	2.3502257	1.5330446
20.67970231567506	2.337462	1.5288761
20.697518640614742	2.354009	1.534278
20.715335471403122	2.3694115	1.5392892
20.73315280851404	2.3823583	1.543489
20.750970652421447	2.3657837	1.5381104
20.768789003599412	2.3286707	1.5259982
20.786607862522136	2.3288064	1.5260427
20.8044272296639	2.3098772	1.519828
20.82224710549913	2.314756	1.5214322
20.84006749050237	2.2954285	1.5150672
20.857888385148268	3.8525481	1.9627908
20.8757097899116	45.958252	6.7792516
20.893531705267254	64.83666	8.052121
20.911354131690224	83.88012	9.158609
20.92917706965566	69.16562	8.316587
20.94700051963877	50.24537	7.0883965
20.96482448211493	29.44494	5.426319
20.982648957559622	4.1127987	2.0280037
21.00047394644843	2.1991992	1.4829698
21.01829944925707	2.2251387	1.4916899
21.036125466461375	2.2574997	1.5024978
21.053951998537297	2.261379	1.5037882
21.071779045960906	2.263276	1.5044188
21.089606609208378	2.266431	1.505467
21.10743468875603	2.2534783	1.501159
21.12526328508028	2.2326071	1.4941912
21.143092398657675	2.218786	1.489559
21.16092202996488	2.2176294	1.4891707
21.17875217947867	2.2497547	1.4999182
21.19658284767596	2.2399724	1.4966537
21.21441403503377	2.2114244	1.4870858
21.232245742029225	2.18886	1.4794797
21.2500779691396	2.1884987	1.4793576
21.26791071684227	2.1743155	1.474556
21.28574398561475	2.1711545	1.4734838
21.30357777593465	2.1793299	1.4762553
21.321412088279704	2.150792	1.4665579
21.339246923127792	2.1311967	1.4598619
21.357082280956888	2.1271722	1.4584829
21.3749181622451	2.1296353	1.459327
21.392754567470647	2.1269474	1.4584057
21.41059149711187	2.1395776	1.4627295
21.42842895164726	2.1657097	1.4716351
21.446266931555378	2.173241	1.4741917
21.464105437314945	2.1363533	1.4616269
21.481944469404798	2.1333094	1.4605852
21.49978402830388	2.1414995	1.4633863
21.51762411449127	2.1590383	1.4693667
21.53546472844617	2.1265204	1.4582593
21.553305870647876	2.09557	1.4476084
21.571147541575865	2.0618658	1.4359199
21.58898974170967	2.0677195	1.4379567
21.60683247152899	2.064844	1.4369565
21.62467573151363	2.077949	1.4415092
21.642519522143523	2.0653071	1.4371177
21.660363843898722	2.0501134	1.4318217
21.6782086972594	2.047816	1.4310192
21.696054082705864	2.048746	1.4313442
21.713900000718535	2.0764618	1.4409933
21.73174645177795	2.098026	1.4484564
21.749593436364794	2.1216006	1.4565716
21.767440954959845	2.1397014	1.4627718
21.785289008044032	2.1283484	1.458886
21.803137596098388	2.109298	1.4523423
21.820986719604086	2.0747972	1.4404156
21.838836379042412	2.0438113	1.4296193
21.85668657489478	2.0543115	1.4332869
21.87453730764273	2.0350175	1.4265404
21.892388577767914	2.0185237	1.4207476
21.91024038575213	1.9621176	1.4007561
21.928092732077285	1.9524791	1.3973114
21.945945617225426	1.9792093	1.4068438
21.963799041678694	2.0220182	1.4219768
21.981653005919398	31.341116	5.598314
21.999507510429943	78.14345	8.839878
22.01736255569286	73.06204	8.547634
22.035218142190818	4.1447577	2.035868
22.05307427040661	1.9359825	1.3913959
22.07093094082315	1.9861946	1.4093242
22.088788153923474	2.0408347	1.4285779
22.106645910190746	2.04985	1.4317297
22.12450421010827	2.0043762	1.4157599
22.142363054159464	1.9783473	1.4065373
22.16022244282787	1.9731216	1.4046785
22.178082376597164	1.9706607	1.4038023
22.195942855951145	1.9617703	1.4006321
22.213803881373742	1.9634279	1.4012237
22.231665453349002	2.021483	1.4217887
22.24952757236111	2.0440402	1.4296993
22.26739023889438	2.0339358	1.4261612
22.28525345343323	1.9757222	1.4056039
22.30311721646225	1.9855016	1.4090782
22.320981528466113	1.9860704	1.4092801
22.33884638992964	1.9525769	1.3973464
22.356711801337788	1.9206468	1.385874
22.37457776317561	1.9256147	1.3876652
22.392444275928337	1.9131696	1.3831737
22.410311340081282	1.9040588	1.3798764
22.428178956119904	1.9295471	1.3890814
22.446047124529805	1.9471252	1.3953943
22.46391584579669	1.9730331	1.404647
22.481785120406414	1.97051	1.4037485
22.49965494884496	1.9661058	1.402179
22.51752533159841	1.959175	1.3997053
22.53539626915302	1.9284315	1.3886797
22.553267761995137	1.9166814	1.3844427
22.571139810611264	1.9252403	1.3875303
22.589012415488025	1.9385275	1.3923101
22.60688557711216	1.9750426	1.4053621
22.624759295970566	2.0004482	1.414372
22.642633572550263	1.9792734	1.4068666
22.660508407338362	1.9428415	1.3938586
22.67838380082217	1.9137073	1.3833681
22.696259753489077	1.9350731	1.391069
22.714136265826614	1.9406488	1.3930718
22.73201333832246	1.9382092	1.3921958
22.74989097146439	1.9313117	1.3897164
22.76776916574035	1.9543395	1.3979769
22.785647921638393	1.9505655	1.3966265
22.803527239646712	1.9306893	1.3894925
22.82140712025363	1.9034986	1.3796734
22.839287563947593	1.863578	1.3651292
22.85716857121719	1.8453922	1.3584522
22.875050142551135	1.8338033	1.35418
22.892932278438277	1.8556587	1.3622257
22.910814979367604	1.8855677	1.3731598
22.928698245828222	1.8854289	1.3731092
22.946582078309387	1.8888661	1.3743602
22.96446647730047	1.8695452	1.3673131
22.98235144329098	1.8784369	1.3705608
23.000236976770562	1.8902037	1.3748468
23.018123078229	1.861044	1.3642008
23.03600974815619	1.8692586	1.3672084
23.053896987042194	1.8761034	1.3697093
23.071784795377173	1.9156417	1.384067
23.08967317365145	1.9388503	1.392426
23.10756212235546	1.9442729	1.3943719
23.125451641979787	1.9381262	1.392166
23.143341733015134	1.8949313	1.3765651
23.161232395952357	1.8998919	1.3783656
23.179123631282426	1.9226846	1.386609
23.197015439496468	1.9650395	1.4017986
23.214907821085717	1.9815584	1.4076784
23.23280077654157	1.9446938	1.3945228
23.250694306355538	1.9065773	1.3807887
23.268588411019277	1.9007095	1.3786622
23.28648309102458	1.8954833	1.3767655
23.304378346863356	1.9151729	1.3838978
23.322274179027676	1.9536968	1.397747
23.340170588009723	1.9486003	1.3959228
23.358067574301852	1.9377267	1.3920225
23.37596513839651	1.9285285	1.3887147
23.39386328078629	1.9163868	1.3843362
23.411762001963947	1.9368895	1.3917218
23.429661302422353	1.9517958	1.3970668
23.4475611826545	1.9392767	1.3925792
23.46546164315356	1.9347689	1.3909597
23.48336268441279	1.940349	1.3929641
23.501264306925638	1.9428563	1.3938638
23.51916651118564	1.9153088	1.3839468
23.537069297686497	1.9629405	1.4010497
23.554972666922037	2.0191948	1.4209838
23.57287661938623	1.9654137	1.4019321
23.59078115557318	1.8860501	1.3733354
23.608686275977128	1.8590891	1.3634841
23.62659198109246	1.8638505	1.3652291
23.6444982714137	1.8951929	1.37666
23.66240514743549	1.9126486	1.3829854
23.68031260965263	1.8831288	1.3722714
23.698220658560068	1.8630345	1.3649303
23.716129294652845	1.8842975	1.3726971
23.7340385184262	1.8982719	1.3777779
23.75194833037546	1.9078872	1.3812629
23.769858730996123	1.9198867	1.3855997
23.78776972078382	1.9344248	1.390836
23.80568130023431	1.9475859	1.3955593
23.823593469843495	1.9467869	1.3952731
23.841506230107424	1.9457129	1.3948882
23.859419581522275	1.9338391	1.3906255
23.87733352458438	1.9610598	1.4003785
23.89524805979019	1.9733359	1.4047548
23.913163187636318	1.9876382	1.4098363
23.931078908619508	1.9793811	1.4069048
23.948995223236633	1.9847283	1.4088038
23.966912131984735	1.9732499	1.4047241
23.98482963536096	2.0107098	1.417995
24.002747733862616	2.044852	1.4299833
24.020666427987155	2.0546324	1.433399
24.038585718232156	2.0268831	1.4236865
24.056505605095353	2.0155325	1.4196945
24.074426089074617	2.081583	1.4427692
24.092347170667946	2.1099572	1.4525691
24.110268850373515	2.1159434	1.4546282
24.128191128689586	2.1438231	1.46418
24.146114006114626	2.1480553	1.4656246
24.164037483147187	2.1383028	1.4622936
24.181961560286005	2.0701878	1.4388148
24.199886238029926	2.0334644	1.425996
24.21781151687797	2.0054421	1.4161364
24.235737397329274	2.025701	1.4232713
24.253663879883135	2.0335016	1.4260089
24.271590965038975	2.0394416	1.4280902
24.289518653296376	2.0356956	1.4267781
24.30744694515505	2.0387723	1.4278558
24.32537584111486	2.0371683	1.427294
24.34330534167581	2.0345993	1.4263939
24.361235447338046	2.0237715	1.4225932
24.379166158601876	2.0373044	1.4273417
24.39709747596772	2.0743005	1.4402432
24.41502939993615	2.0696292	1.4386206
24.432961931007917	2.0446367	1.4299079
24.450895069683856	1.9848597	1.4088504
24.468828816465	1.9907898	1.4109535
24.4867631718525	1.9899544	1.4106574
24.504698136347656	1.9880471	1.4099813
24.52263371045192	1.9705949	1.4037788
24.540569894666874	1.9994075	1.4140041
24.558506689494266	2.0052066	1.4160532
24.57644409543597	1.9896431	1.4105471
24.594382112994012	1.9682178	1.4029319
24.61232074267057	1.9615592	1.4005567
24.630259984967953	1.9754393	1.4055033
24.64819984038863	1.9946235	1.4123114
24.66614030943522	2.0003257	1.4143287
24.684081392610462	1.9958775	1.4127553
24.702023090417274	1.9861015	1.4092911
24.7199654033587	1.9923904	1.4115206
24.737908331937927	1.9843372	1.4086651
24.755851876658305	1.9970732	1.4131784
24.773796038023324	2.023118	1.4223635
24.79174081653661	2.0402048	1.4283574
24.809686212701962	2.077628	1.4413979
24.827632227023294	2.108454	1.4520516
24.8455788600047	2.0874178	1.4447899
24.8635261121504	2.0426507	1.4292133
24.88147398396475	2.0190744	1.4209414
24.899422475952303	2.0243483	1.4227959
24.917371588617698	2.030895	1.4250947
24.935321322465768	2.1473908	1.4653978
24.953271678001478	2.3319254	1.5270643
24.97122265572994	2.5811105	1.6065835
24.989174256156414	2.8916745	1.7004924
25.00712647978632	3.404294	1.8450729
25.02507932712521	4.0041347	2.0010333
25.043032798678798	4.5288897	2.1281188
25.060986894952933	5.1324053	2.2654812
25.078941616453637	5.9099035	2.4310293
25.096896963687055	6.9216905	2.6309106
25.114852937159508	8.06137	2.839255
25.132809537377444	8.414253	2.9007332
25.150766764847468	8.248393	2.8720016
25.168724620076347	7.5588827	2.7493422
25.186683103570985	6.496502	2.5488236
25.204642215838426	5.310162	2.304379
25.222601957385894	3.9459205	1.9864341
25.24056232872074	3.0239394	1.7389477
25.25852333035048	2.5239444	1.5886927
25.276484962782778	2.2586637	1.5028851
25.294447226525435	2.0697806	1.4386733
25.312410122086423	1.9691693	1.403271
25.330373649973843	1.9397064	1.3927335
25.348337810695988	1.9754758	1.4055161
25.366302604761245	1.9822323	1.4079177
25.384268032678207	1.9666665	1.4023789
25.40223409495558	1.9310576	1.389625
25.420200792102257	1.9637837	1.4013507
25.438168124627246	1.9609325	1.400333
25.45613609303974	1.8998835	1.3783627
25.474104697849057	1.8524597	1.361051
25.492073939564698	1.8762492	1.3697624
25.510043818696285	1.8941989	1.376299
25.528014335753614	1.917335	1.3846787
25.54598549124664	1.9470416	1.3953643
25.56395728568544	1.9460268	1.3950007
25.58192971958028	1.9033705	1.379627
25.59990279344156	1.9043465	1.3799806
25.617876507779833	1.9154515	1.3839984
25.635850863105826	1.9261227	1.3878483
25.653825859930386	1.859255	1.363545
25.671801498764548	1.8379396	1.3557063
25.68977778011949	1.8505548	1.360351
25.707754704506524	1.8773569	1.3701668
25.725732272437153	1.8746293	1.369171
25.743710484423012	1.8574173	1.362871
25.761689340975888	1.8518023	1.3608094
25.77966884260774	1.8861858	1.3733848
25.797648989830662	1.8909959	1.3751348
25.815629783156922	1.8390515	1.3561163
25.83361122309895	1.8748013	1.3692338
25.85159331016929	1.9044687	1.3800249
25.869576044880695	1.8989486	1.3780234
25.887559427746034	1.8379896	1.3557247
25.90554345927836	1.8266286	1.3515283
25.92352813999086	1.8741426	1.3689933
25.94151347039689	1.8991245	1.3780873
25.959499451009965	1.8658618	1.3659655
25.97748608234374	1.8165833	1.3478068
25.995473364912062	1.816649	1.3478312
26.013461299228904	1.835361	1.3547549
26.03144988580839	1.8338583	1.3542002
26.04943912516483	1.8300428	1.3527907
26.067429017812675	1.8434376	1.3577325
26.085419564266537	1.8643922	1.3654275
26.103410765041186	1.8542485	1.3617079
26.12140262065155	1.8227648	1.350098
26.139395131612723	1.7972603	1.3406193
26.157388298439948	1.8066677	1.3441234
26.17538212164861	1.8240405	1.3505704
26.193376601754295	1.8364668	1.355163
26.211371739272714	1.8552982	1.3620933
26.229367534719746	1.8915523	1.3753371
26.247363988611433	1.8694481	1.3672776
26.26536110146397	1.8209058	1.3494095
26.283358873793727	1.8298106	1.3527049
26.301357306117204	1.8829156	1.3721937
26.319356398951104	1.8943548	1.3763556
26.33735615281224	1.8596292	1.3636822
26.35535656821762	1.8178339	1.3482707
26.373357645684404	1.8150933	1.3472539
26.39135938572991	1.8132465	1.3465685
26.409361788871614	1.7888528	1.3374801
26.427364855627165	1.7924037	1.3388069
26.445368586514352	1.8779837	1.3703954
26.46337298205115	1.8705735	1.3676891
26.48137804275568	1.833771	1.354168
26.499383769146217	1.8055485	1.343707
26.517390161741215	1.8199795	1.3490661
26.53539722105928	1.812545	1.3463079
26.553404947619182	1.7942737	1.3395051
26.571413341939856	1.8131183	1.3465208
26.589422404540397	1.8014859	1.3421944
26.60743213594006	1.7641327	1.3282065
26.62544253665827	1.7684425	1.329828
26.64345360721459	1.792265	1.338755
26.66146534812879	1.8058448	1.3438172
26.679477759920758	1.7993593	1.341402
26.69749084311057	1.8373823	1.3555008
26.71550459821847	1.87951	1.3709522
26.733519025764842	1.8691937	1.3671845
26.751534126270258	1.8238636	1.350505
26.769549900255434	1.8283122	1.3521509
26.787566348241267	1.8410047	1.3568363
26.80558347074881	1.8354491	1.3547875
26.823601268299267	1.7806518	1.3344107
26.841619741414036	1.793554	1.3392364
26.85963889061465	1.8580302	1.3630958
26.877658716422832	1.9091618	1.3817242
26.89567921936045	1.8909528	1.3751192
26.913700399949544	1.8400524	1.3564852
26.93172225871233	1.7872539	1.3368821
26.949744796171174	1.7940451	1.3394197
26.967768012848605	1.8314382	1.3533064
26.98579190926733	1.8618075	1.3644806
27.003816485950225	1.8447825	1.3582277
27.021841743420318	1.8370752	1.3553874
27.039867682200814	1.8481551	1.3594687
27.057894302815072	1.8625795	1.3647635
27.07592160578664	1.8374298	1.3555182
27.0939495916392	1.8333515	1.3540131
27.111978260896635	1.8244053	1.3507055
27.13000761408296	1.820441	1.3492372
27.148037651722397	1.8134652	1.3466496
27.166068374339304	1.8301668	1.3528366
27.184099782458215	1.8338385	1.354193
27.20213187660384	1.7913784	1.3384238
27.22016465730105	1.7845095	1.3358554
27.23819812507487	1.8474377	1.3592048
27.256232280450533	1.868214	1.3668263
27.274267123953383	1.8745325	1.3691356
27.292302656108987	1.8556918	1.3622378
27.31033887744306	1.7825922	1.3351375
27.32837578848146	1.7679867	1.3296566
27.34641338975026	1.7876164	1.3370178
27.364451681775673	1.8410865	1.3568665
27.382490665084074	1.857814	1.3630165
27.400530340202046	1.8457053	1.3585674
27.41857070765629	1.8155425	1.3474207
27.436611767973726	1.7980597	1.3409175
27.454653521681404	1.7878778	1.3371155
27.472695969306564	1.8064841	1.344055
27.490739111376627	1.8294301	1.3525642
27.508782948419153	1.8120855	1.3461373
27.526827480961902	1.8135061	1.3466648
27.54487270953279	1.84196	1.3571882
27.562918634659898	1.8788444	1.3707094
27.580965256871508	1.849661	1.3600224
27.599012576696026	1.8506533	1.3603872
27.617060594662068	1.8219671	1.3498026
27.63510931129842	1.8086177	1.3448486
27.65315872713401	1.8161827	1.3476583
27.67120884269797	1.8250872	1.3509579
27.68925965851958	1.8683584	1.3668791
27.707311175128307	1.8809665	1.3714833
27.725363393053787	1.8952996	1.3766987
27.74341631282583	1.8826145	1.372084
27.7614699349744	1.8370991	1.3553963
27.77952426002968	2.014871	1.4194615
27.797579288521973	2.0956662	1.4476416
27.815635020981784	2.5796764	1.6061372
27.83369145793979	2.652185	1.628553
27.85174859992682	2.3529253	1.5339248
27.869806447473923	2.1879132	1.4791596
27.887865001112267	1.9587015	1.3995361
27.905924261373233	2.0013108	1.4146769
27.92398422878836	1.9859619	1.4092416
27.94204490388936	1.9261236	1.3878486
27.96010628720813	1.8917665	1.3754151
27.978168379276728	1.889012	1.3744134
27.9962311806274	1.8692098	1.3671905
28.014294691792568	1.9068393	1.3808835
28.0323589133048	1.8640773	1.3653122
28.050423845696887	1.8008757	1.3419671
28.068489489501758	1.7761403	1.3327192
28.086555845252523	1.8140401	1.346863
28.104622913482487	1.847753	1.3593208
28.122690694725115	1.8368275	1.3552961
28.14075918951405	1.8269116	1.351633
28.15882839838312	1.8844378	1.3727483
28.176898321866304	1.9607652	1.4002733
28.1949689604978	1.9631234	1.4011151
28.213040314811945	1.9435074	1.3940973
28.23111238534327	1.9259832	1.387798
28.249185172626493	1.915834	1.3841366
28.267258677196473	1.9372735	1.3918598
28.285332899588294	1.9483951	1.3958492
28.303407840337172	1.8847543	1.3728635
28.321483499978545	1.8624027	1.3646988
28.33955987904799	1.8979846	1.3776736
28.357636978081285	1.9601858	1.4000664
28.37571479761439	2.0175643	1.4204099
28.393793338183425	1.9920826	1.4114115
28.41187260032469	1.9624472	1.4008737
28.429952584574686	1.9187979	1.3852068
28.448033291470065	1.9070327	1.3809536
28.46611472154769	1.9370861	1.3917924
28.484196875344566	1.9787006	1.406663
28.502279753397914	1.9485979	1.3959218
28.52036335624511	1.9712453	1.4040104
28.538447684423716	2.0437744	1.4296063
28.556532738471482	2.081215	1.4426416
28.574618518926325	2.0780692	1.441551
28.59270502632635	2.0744116	1.4402817
28.61079226120985	2.1141002	1.4539946
28.628880224115274	2.096447	1.4479113
28.646968915581287	2.077579	1.441381
28.66505833614671	2.0495174	1.4316136
28.68314848635055	2.0100615	1.4177663
28.701239366732004	2.0098045	1.4176757
28.71933097783044	2.026007	1.4233787
28.737423320185403	2.0508745	1.4320874
28.75551639433665	2.1097567	1.4525001
28.773610200824074	2.150116	1.4663274
28.791704740187793	2.1961167	1.48193
28.80980001296809	2.1981459	1.4826145
28.827896019705413	2.1551607	1.4680465
28.845992760940433	2.1301425	1.4595008
28.86409023721397	2.1553254	1.4681027
28.88218844906704	2.1659892	1.47173
28.900287397040845	2.1923745	1.4806669
28.918387081676755	2.2321913	1.4940519
28.936487503516343	2.2633348	1.5044384
28.954588663101365	2.3199458	1.5231369
28.97269056097374	2.3774137	1.5418864
28.990793197675597	2.3136206	1.521059
29.00889657374923	2.330827	1.5267047
29.027000689737125	2.385192	1.5444067
29.04510554618196	2.4566755	1.5673785
29.06321114362659	2.4728162	1.5725191
29.08131748261405	2.5140524	1.5855764
29.099424563687567	2.5657687	1.6018018
29.11753238739057	2.5862374	1.6081783
29.13564095426663	2.5689182	1.6027845
29.15375026485954	2.6303158	1.6218249
29.171860319713275	2.6970086	1.6422572
29.18997111937199	2.669654	1.6339076
29.20808266438002	2.680214	1.6371359
29.226194955281898	2.7519577	1.6589025
29.244307992622335	2.840031	1.6852391
29.26242177694624	2.8774645	1.6963091
29.2805363087987	2.9314544	1.712149
29.29865158872498	2.9274135	1.7109686
29.316767617270557	2.870386	1.6942214
29.334884394981064	2.8954103	1.7015905
29.353001922402367	2.9516256	1.7180296
29.37112020008047	2.9946415	1.7305033
29.389239228561596	3.0970647	1.7598479
29.407359008392152	3.3725955	1.8364627
29.42547954011872	3.8460112	1.961125
29.44360082428809	4.6265306	2.150937
29.46172286144722	5.792583	2.4067786
29.479845652143283	7.539068	2.7457364
29.497969196923606	9.89708	3.1459625
29.516093496335728	12.615748	3.5518656
29.5342185509274	15.397744	3.923996
29.55234436124651	17.469397	4.179641
29.570470927841175	18.454353	4.295853
29.588598251259686	17.920254	4.233232
29.60672633205055	16.275368	4.034274
29.624855170762405	13.79246	3.7138202
29.642984767944146	10.880113	3.2985015
29.66111512414481	8.249501	2.8721945
29.67924623991366	6.233531	2.496704
29.697378115800138	4.939063	2.2224002
29.71551075235387	4.0879693	2.0218728
29.733644150124675	3.6384985	1.9074849
29.751778309662576	3.4528432	1.8581828
29.769913231517766	3.3740165	1.8368496
29.78804891624066	3.3858142	1.8400582
29.806185364381818	3.3488934	1.8299983
29.82432257649206	3.3171341	1.8213001
29.842460553122333	3.2965262	1.8156338
29.86059929482382	3.3294134	1.824668
29.878738802147872	3.3409498	1.8278265
29.896879075646048	3.2787397	1.810729
29.915020115870114	3.2136428	1.7926636
29.933161923371976	3.226782	1.7963246
29.951304498703777	3.280538	1.8112255
29.969447842417857	3.3017995	1.8170855
29.987591955066733	3.3074708	1.8186454
30.005736837203123	3.3064053	1.8183523
30.023882489379943	3.306227	1.8183033
30.04202891215028	3.244631	1.801286
30.060176106067455	3.1286542	1.7688003
30.078324071684946	3.1200907	1.7663778
30.09647280955646	3.1227262	1.7671237
30.114622320235863	3.1082654	1.7630273
30.132772604277257	3.1080618	1.7629696
30.1509236622349	3.0957608	1.7594774
30.16907549466328	3.0836985	1.7560463
30.18722810211705	3.1615405	1.7780721
30.205381485151097	3.1416023	1.7724565
30.22353564432045	3.1607406	1.7778472
30.241690580180403	3.166356	1.7794257
30.25984629328638	3.1391203	1.7717563
30.278002784194037	3.0427952	1.7443609
30.296160053459246	2.9223757	1.7094958
30.314318101638033	2.9014885	1.7033756
30.332476929286646	2.9142635	1.7071214
30.35063653696153	3.0053082	1.7335825
30.368796925219307	3.0915873	1.758291
30.386958094616844	3.049972	1.7464169
30.40512004571115	3.0247962	1.7391942
30.423282779059463	2.9386446	1.7142476
30.441446295219233	2.967976	1.7227815
30.459610594748067	2.9289625	1.7114211
30.47777567820382	2.8927205	1.7008
30.495941546144504	2.8722825	1.694781
30.51410819912835	2.8768592	1.6961306
30.532275637713795	2.866727	1.6931412
30.55044386245946	2.8840582	1.6982515
30.56861287392416	2.8922882	1.7006729
30.586782672666956	2.8312669	1.6826369
30.604953259247047	2.8040342	1.674525
30.623124634223885	2.7727637	1.6651617
30.641296798157075	2.7101138	1.6462423
30.659469751606462	2.758231	1.6607922
30.677643495132074	2.7872896	1.6695178
30.695818029294152	2.743956	1.6564891
30.713993354653116	2.6917343	1.6406506
30.73216947176962	2.6562333	1.6297954
30.75034638120448	2.7762697	1.6662142
30.768524083518756	2.8528283	1.6890317
30.786702579273673	2.8330555	1.6831683
30.80488186903069	2.8504286	1.6883212
30.82306195335144	2.9605465	1.7206239
30.841242832797782	3.2255878	1.7959921
30.85942450793176	3.6494324	1.9103488
30.877606979315637	3.9216337	1.9803115
30.895790247511883	4.1780972	2.0440395
30.913974313083134	4.5653405	2.1366658
30.932159176592283	4.8869486	2.2106445
30.95034483860237	4.8823957	2.2096143
30.968531299676698	4.610499	2.1472073
30.98671856037873	4.1819882	2.044991
31.00490662127215	3.8249583	1.9557501
31.023095482920848	3.4502993	1.8574982
31.04128514588892	3.0396664	1.7434639
31.059475610740662	2.7093527	1.6460111
31.07766687804056	2.553325	1.5979127
31.09585894835335	2.4776306	1.5740491
31.11405182224393	2.4472785	1.564378
31.132245500277417	2.430846	1.5591171
31.15043998301914	2.436809	1.5610282
31.168635271034628	2.4265919	1.5577521
31.18683136488964	2.4291592	1.558576
31.20502826515008	2.4039094	1.5504546
31.223225972382135	2.3838842	1.5439832
31.241424487152155	2.4162438	1.5544271
31.259623810026692	2.4618254	1.5690205
31.27782394157253	2.468872	1.5712645
31.296024882356644	2.3831923	1.5437591
31.314226632946237	2.3285887	1.5259714
31.332429193908684	2.3258345	1.5250686
31.350632565811598	2.4123497	1.553174
31.368836749222787	2.4362912	1.5608623
31.387041744710295	2.4953146	1.5796565
31.40524755284232	2.5375311	1.592963
31.423454174187317	2.5824463	1.6069992
31.441661609313922	2.5936708	1.6104878
31.459869858791002	2.5556693	1.598646
31.478078923187628	2.460444	1.5685803
31.496288803073064	2.363417	1.5373409
31.514499499016807	2.33723	1.5288001
31.532711011588546	2.3380423	1.5290658
31.550923341358178	2.360307	1.536329
31.56913648889584	2.335816	1.5283376
31.587350454771844	2.341015	1.5300376
31.605565239556732	2.2975917	1.5157809
31.62378084382127	2.2038596	1.4845402
31.641997268136382	2.154285	1.4677483
31.660214513073274	2.201852	1.483864
31.67843257920331	2.29151	1.5137734
31.6966514670981	2.36499	1.5378524
31.71487117732944	2.351644	1.5335071
31.733091710469346	2.293612	1.5144676
31.751313067090052	2.3296003	1.5263028
31.769535247764008	2.3018317	1.5171789
31.787758253063878	2.3166132	1.5220424
31.805982083562526	2.3862634	1.5447536
31.824206739833024	2.4081373	1.5518174
31.84243222244869	2.423673	1.556815
31.860658531983013	2.4064374	1.5512697
31.878885669009737	2.3355818	1.5282611
31.897113634102784	2.2226868	1.4908677
31.91534242783632	2.1996682	1.4831278
31.933572050784694	2.160597	1.4698969
31.951802503522508	2.1269383	1.4584026
31.970033786624548	2.1775243	1.4756438
31.988265900665834	2.2556915	1.501896
32.006498846221575	2.1786673	1.476031
32.02473262386724	2.1902835	1.4799607
32.04296723417845	2.208986	1.4862658
32.0612026777311	2.2238343	1.4912525
32.07943895510129	2.1990893	1.4829327
32.097676066865304	2.1871216	1.478892
32.115914013599685	2.1594963	1.4695225
32.13415279588115	2.1274242	1.4585693
32.152392414286666	2.1364634	1.4616646
32.1706328693934	2.0649905	1.4370075
32.18887416177875	2.0081093	1.4170778
32.20711629202032	1.9708701	1.4038768
32.225359260695924	2.0668707	1.4376615
32.243603068383614	2.1998918	1.4832032
32.26184771566166	2.2400577	1.4966823
32.28009320310852	2.202014	1.4839184
32.2983395313029	2.112889	1.453578
32.31658670082372	2.0585625	1.4347692
32.33483471225012	2.016074	1.4198852
32.35308356616143	2.0069604	1.4166723
32.371333263137245	2.0855963	1.4441594
32.38958380375734	2.148143	1.4656545
32.407835188601744	2.2112942	1.4870421
32.42608741825067	2.2070796	1.4856243
32.444340493284585	2.1763563	1.4752479
32.46259441428416	2.0649376	1.4369891
32.48084918183028	1.9939061	1.4120574
32.49910479650405	2.0411944	1.4287038
32.51736125888683	2.1154242	1.4544498
32.53561856956014	2.1474693	1.4654247
32.5538767291058	2.1380088	1.4621931
32.572135738105764	2.0886447	1.4452144
32.59039559714228	2.0694687	1.4385648
32.608656306797776	2.0908804	1.4459877
32.62691786765491	2.0560956	1.4339092
32.645180280296586	2.0079417	1.4170187
32.663443545305896	1.9585593	1.3994853
32.68170766326619	1.9932815	1.4118363
32.69997263476099	1.9998881	1.414174
32.7182384603741	1.9815636	1.4076802
32.7365051406895	1.951156	1.3968378
32.75477267629144	2.0186071	1.420777
32.77304106776434	2.0746553	1.4403664
32.79131031569289	2.0893373	1.445454
32.809580420661966	2.0801039	1.4422566
32.827851383256714	2.0194726	1.4210815
32.84612320406245	1.9825718	1.4080383
32.86439588366476	2.0072443	1.4167725
32.88266942264945	1.9379092	1.392088
32.9009438216025	1.9554087	1.3983593
32.9192190811102	1.959292	1.3997471
32.937495201758985	2.0614882	1.4357884
32.95577218413556	2.033553	1.4260269
32.974050028826866	2.0455043	1.4302113
32.992328736420035	2.012125	1.4184939
33.010608307502444	1.9856869	1.409144
33.02888874266169	1.8651369	1.3657001
33.047170042485604	1.8124181	1.3462608
33.06545220756225	1.8335558	1.3540885
33.083735238479896	1.8908256	1.375073
33.10201913582707	1.8678634	1.366698
33.12030390019248	1.9060966	1.3806145
33.138589532165135	2.011685	1.4183388
33.15687603233419	2.0702813	1.4388472
33.17516340128909	2.0034313	1.4154263
33.19345163961947	1.9455984	1.394847
33.211740747915215	1.9745924	1.4052019
33.23003072676643	1.9509052	1.3967481
33.248321576763466	1.8887744	1.374327
33.266613298496885	1.8181804	1.3483992
33.28490589255747	1.8723588	1.3683416
33.30319935953626	1.8813958	1.3716398
33.32149370002451	1.9586308	1.3995109
33.339788914613706	1.9934382	1.4118917
33.358085003895575	1.8822045	1.3719347
33.376381968462034	1.8643324	1.3654056
33.39467980890529	1.9104377	1.3821858
33.41297852581774	1.9718745	1.4042345
33.43127811979204	1.962688	1.4009596
33.44957859142105	1.9233812	1.3868603
33.467879941297866	1.9398365	1.3927802
33.486182170015844	1.9666356	1.4023678
33.50448527816853	1.96589	1.402102
33.522789266349754	2.0205102	1.4214466
33.541094135153514	2.0414417	1.4287903
33.55939988517411	1.9938406	1.4120342
33.57770651700602	1.9294193	1.3890353
33.59601403124398	1.9221799	1.386427
33.61432242848296	2.0572114	1.4342983
33.632631709318154	2.0479558	1.4310681
33.650941874344994	2.0295312	1.4246162
33.66925292415916	1.9037513	1.3797649
33.68756485935654	1.8176752	1.3482119
33.70587768053328	1.7965467	1.3403533
33.724191388285746	1.7895137	1.3377271
33.74250598321054	1.7950172	1.3397825
33.760821465904506	1.8447351	1.3582103
33.77913783696474	1.911257	1.3824822
33.79745509698852	1.9210792	1.38603
33.815773246573414	1.951669	1.3970214
33.8340922863172	2.0700421	1.4387641
33.852412216817896	2.1122131	1.4533455
33.87073303867377	1.8683252	1.366867
33.889054752483304	1.7797794	1.3340838
33.907377358845245	1.858432	1.3632432
33.92570085835853	1.9305795	1.3894529
33.94402525162239	1.913323	1.3832293
33.96235053923627	1.9215324	1.3861935
33.980676721799824	2.0396538	1.4281645
33.999003799912984	2.0081062	1.4170767
34.01733177417592	1.8899544	1.3747561
34.03566064518901	1.796342	1.3402768
34.0539904135529	1.8481474	1.3594658
34.07232107986846	1.9027668	1.3794081
34.090652644736785	1.9314971	1.3897831
34.108985108759235	1.9824746	1.4080038
34.12731847253742	1.9634926	1.4012468
34.14565273667313	1.8811802	1.3715612
34.16398790176847	1.9847965	1.408828
34.18232396842574	2.017945	1.4205439
34.20066093724749	1.8799907	1.3711275
34.21899880883651	1.935344	1.3911664
34.23733758379583	1.9992868	1.4139614
34.25567726272874	1.8665711	1.3662251
34.27401784623872	1.9197305	1.3855435
34.29235933492957	2.0245733	1.422875
34.31070172940526	1.9347259	1.3909442
34.32904503027003	1.8507427	1.36042
34.347389238128386	1.972816	1.4045696
34.36573435358502	2.0273476	1.4238496
34.38408037724492	1.9512048	1.3968554
34.402427309713296	1.8750818	1.3693362
34.42077515159559	1.9465944	1.3952041
34.43912390349752	2.0708694	1.4390516
34.45747356602499	1.978158	1.4064701
34.47582413978423	1.8940238	1.3762354
34.49417562538163	2.1321683	1.4601946
34.51252802342388	2.1751497	1.4748389
34.53088133451789	1.9202816	1.3857423
34.54923555927084	1.8400847	1.3564972
34.567590698290104	1.987747	1.4098748
34.58594675218336	2.044041	1.4296995
34.6043037215585	2.0335438	1.4260238
34.62266160702365	2.1206222	1.4562356
34.641020409187234	2.1548836	1.4679521
34.65938012865785	2.0108485	1.4180439
34.677740766044394	1.9543941	1.3979964
34.69610232195598	1.8821292	1.3719071
34.714464797002016	1.8659567	1.3660003
34.73282819179208	1.9660776	1.4021689
34.751192506936064	2.1049538	1.4508458
34.76955774304408	2.0435965	1.4295442
34.7879239007265	1.9337087	1.3905785
34.80629098059391	1.989018	1.4103255
34.824658983257194	2.0400286	1.4282957
34.843027909327446	1.9856288	1.4091234
34.86139775941603	2.0226214	1.422189
34.879768534134534	2.0905378	1.4458692
34.89814023409483	2.2605176	1.5035018
34.91651285990901	2.1260242	1.4580892
34.93488641218944	1.7625656	1.3276166
34.95326089154871	1.8744547	1.3691072
34.97163629859967	2.21282	1.487555
34.99001263395542	2.3301458	1.5264815
35.00838989822934	2.1443353	1.4643549
35.02676809203499	1.8247923	1.3508487
35.04514721598624	1.6398427	1.2805635
35.063527270697215	1.7473525	1.3218746
35.081908256782256	1.9194028	1.3854251
35.10029017485597	1.9648587	1.4017341
35.11867302553321	1.7864239	1.3365717
35.137056809429104	1.6538434	1.2860184
35.155441527159006	1.9088403	1.3816079
35.173827179338524	2.0939066	1.4470338
35.19221376658354	1.9682964	1.4029598
35.21060128951017	1.8197888	1.3489954
35.2289897487348	1.5766227	1.2556363
35.24737914487405	1.4063245	1.1858855
35.26576947854479	1.7063503	1.3062735
35.28416075036418	1.9907457	1.4109379
35.30255296094958	1.8855623	1.3731577
35.32094611091867	1.8926333	1.3757302
35.33934020088932	1.8928212	1.3757983
35.35773523147969	1.609927	1.268829
35.3761312033082	1.6877292	1.2991264
35.394528116993506	1.9766737	1.4059423
35.41292597315452	2.2287138	1.4928877
35.431324772410434	2.2495813	1.4998604
35.449724515380666	2.1354876	1.4613308
35.46812520268491	1.9462628	1.3950852
35.486526834943106	1.9092994	1.381774
35.504929412775454	2.0258896	1.4233375
35.52333293680242	1.9364668	1.3915699
35.54173740764471	1.9792168	1.4068464
35.560142825923286	2.2944715	1.5147513
35.5785491922594	2.2197123	1.4898698
35.59695650727454	2.053258	1.4329194
35.61536477159042	1.8569168	1.3626873
