0.008763373481513119	0.0	0.0
0.026290120649546365	0.0	0.0
0.043816868432600686	0.0	0.0
0.06134361724069026	0.0	0.0
0.07887036748382949	0.0	0.0
0.0963971195720331	0.0	0.0
0.11392387391531617	0.0	0.0
0.1314506309236943	0.026983535	0.16426666
0.1489773910071836	0.06548317	0.25589678
0.16650415457580078	0.18896092	0.43469635
0.18403092203956356	0.22282201	0.47204027
0.20155769380849	0.18868074	0.43437397
0.2190844702925996	0.109935604	0.33156538
0.2366112519019124	0.065017775	0.25498584
0.2541380390464497	0.08313505	0.2883315
0.27166483213623416	0.07994824	0.2827512
0.28919163158128947	0.10598486	0.32555315
0.3067184377916406	0.11563886	0.34005713
0.324245251177314	0.15397911	0.39240173
0.34177207214833777	0.16392528	0.40487686
0.3592989011147415	0.16269054	0.40334916
0.37682573848655654	0.1451574	0.38099527
0.39435258467381573	0.16708253	0.4087573
0.41187944008655414	0.17715596	0.42089897
0.42940630513480854	0.1542306	0.39272204
0.446933180228618	0.15278259	0.39087415
0.4644600657780234	0.1432035	0.37842238
0.48198696219306775	0.14318421	0.3783969
0.49951386988379676	0.10329768	0.32139957
0.5170407892602581	0.12590297	0.3548281
0.5345677207325025	0.15008032	0.38740203
0.5520946647105822	0.16347568	0.40432125
0.5696216216045534	0.1801893	0.42448708
0.5871485918244737	0.16650185	0.4080464
0.6046755757804043	0.14295924	0.3780995
0.6222025738824094	0.13041869	0.36113527
0.6397295865405557	0.10752259	0.32790637
0.6572566141649129	0.12766507	0.3573025
0.6747836571655547	0.18047215	0.42482013
0.6923107159525568	0.21048027	0.4587813
0.7098377909359992	0.17229734	0.41508716
0.7273648825259653	0.14633512	0.38253775
0.7448919911325411	0.14914408	0.38619176
0.762419117165817	0.16594823	0.40736744
0.7799462610358868	0.16038182	0.400477
0.7974734231528482	0.15140726	0.38911086
0.8150006039268024	0.1445725	0.3802269
0.8325278037678551	0.16028108	0.4003512
0.8500550230861152	0.18738428	0.43287906
0.8675822622916969	0.20603089	0.45390627
0.8851095217947171	0.16693135	0.40857232
0.9026368020052984	0.1645952	0.40570334
0.9201641033335665	0.16927452	0.41142985
0.9376914261896523	0.23388582	0.48361742
0.9552187709836915	0.26089832	0.51078206
0.9727461381258234	0.23636469	0.4861735
0.990273528026193	0.20177579	0.4491946
1.0078009410949496	0.20486712	0.4526225
1.0253283777422473	0.25478894	0.5047662
1.0428558383782454	0.25058308	0.50058275
1.0603833234131086	0.22682948	0.47626618
1.0779108332570058	0.27699178	0.5263001
1.0954383683201119	0.28118923	0.5302728
1.112965929012607	0.36422575	0.60351115
1.1304935157446763	0.50754267	0.7124203
1.1480211289265108	0.5651013	0.75173223
1.1655487689683062	1.5436268	1.2424278
1.1830764362802655	1.8260587	1.3513174
1.200604131272596	2.220695	1.4901997
1.2181318543555117	2.4417605	1.5626134
1.235659605939232	2.4860299	1.5767149
1.253187386433982	4.1208105	2.029978
1.270715196249994	6.4999685	2.5495036
1.2882430357975057	12.036513	3.4693677
1.3057709054867608	16.648932	4.0803103
1.3232988057280106	22.2108	4.7128334
1.3408267369315112	27.134668	5.209095
1.358354699507526	30.827524	5.552254
1.3758826938663256	34.85534	5.903841
1.3934107204181858	36.78441	6.0650153
1.410938779573391	37.28752	6.106351
1.4284668717422309	37.70494	6.1404347
1.4459949973350033	37.216557	6.1005373
1.4635231567620117	37.148525	6.094959
1.4810513504335687	36.47214	6.039217
1.4985795787599925	35.78757	5.982271
1.5161078421516088	35.545193	5.961979
1.5336361410187505	34.90009	5.90763
1.5511644757717598	34.95889	5.9126043
1.5686928468209842	35.687435	5.973896
1.58622125457678	36.05171	6.0043073
1.6037496994495108	37.027412	6.0850153
1.621278181849548	36.82496	6.068357
1.6388067021872719	37.603344	6.1321564
1.6563352608730693	36.898785	6.074437
1.673863858317336	36.190754	6.0158753
1.6913924949304753	35.265663	5.93849
1.7089211711228998	34.457253	5.87003
1.7264498873050296	33.891125	5.8216085
1.7439786438872935	33.189396	5.761024
1.7615074412801288	32.539093	5.7043047
1.779036279893981	31.532455	5.6153765
1.796565160139305	30.436192	5.5169005
1.814094082426564	29.914286	5.469395
1.8316230471662298	29.176188	5.401499
1.849152054768784	28.479887	5.336655
1.8666811056447168	27.787687	5.271403
1.8842102002045273	26.934404	5.1898365
1.901739338858724	26.38294	5.1364326
1.9192685220178245	25.715078	5.071004
1.9367977500923557	24.9046	4.990451
1.9543270234928547	24.244396	4.92386
1.971856342629867	23.727554	4.8710938
1.9893857079139496	23.334013	4.830529
2.006915119755667	22.897394	4.7851224
2.0244445785655945	22.492226	4.742597
2.0419740847543175	22.130018	4.704255
2.0595036387324317	21.701649	4.658503
2.0770332409105414	21.211329	4.605576
2.094562891699263	20.589508	4.537566
2.1120925915092217	19.920807	4.463273
2.129622340751053	19.52885	4.419146
2.1471521398354043	187.53125	13.694205
2.1646819891729323	443.93213	21.069696
2.182211889174303	440.18542	20.980597
2.1997418402501974	452.77945	21.278614
2.2172718428113023	432.7942	20.803705
2.234801897268317	320.74673	17.909403
2.2523320040319548	17.107359	4.136104
2.269862163512935	16.812128	4.1002593
2.287392376121992	16.51331	4.0636573
2.304922642269869	16.197884	4.0246596
2.322452962367322	15.930773	3.9913373
2.3399833368251164	15.633972	3.9539819
2.357513766054032	15.570329	3.9459255
2.3750442504648586	15.287281	3.9098952
2.3925747904683963	14.936399	3.8647637
2.410105386475459	14.682663	3.8317964
2.4276360388968707	14.385152	3.7927763
2.445166748143469	14.304673	3.782152
2.4626975146261025	13.859303	3.7228086
2.4802283387556323	13.441082	3.666208
2.4977592209429305	13.066471	3.6147573
2.5152901615988825	12.774314	3.5741172
2.5328211611343865	12.741108	3.569469
2.5503522199603523	12.7263155	3.5673962
2.5678833384877024	12.64899	3.556542
2.5854145171273712	12.331341	3.511601
2.6029457562903064	11.987356	3.4622762
2.620477056387469	11.720989	3.423593
2.6380084178298326	11.590139	3.4044294
2.655539841028383	11.518263	3.3938565
2.673071326394119	11.452549	3.3841615
2.6906028743380523	11.321328	3.3647182
2.708134485271211	11.20121	3.3468208
2.7256661596046325	10.915251	3.3038237
2.743197897749369	10.619111	3.2586977
2.760729700116486	10.397599	3.224531
2.778261567117063	10.202724	3.1941705
2.795793499162193	10.173543	3.1895993
2.8133254966629817	10.035142	3.1678293
2.830857560030551	9.994994	3.1614861
2.8483896896760337	9.834992	3.136079
2.865921886010578	9.765362	3.1249578
2.883454149445347	9.541838	3.0889864
2.9009864803915177	9.3874855	3.0639005
2.91851887926028	9.202674	3.033591
2.9360513464628384	8.995906	2.9993176
2.953583882410413	8.923627	2.9872441
2.9711164875142373	8.770393	2.961485
2.9886491621855606	8.814427	2.9689102
3.0061819068356455	8.702326	2.9499705
3.023714721875769	8.561506	2.9260051
3.041247607717225	8.365754	2.8923614
3.0587805647713213	8.249278	2.8721557
3.0763135934493806	8.190833	2.8619633
3.0938466941627407	8.137331	2.8526008
3.1113798673227544	8.083836	2.8432088
3.1289131133407904	7.9549055	2.820444
3.1464464326282315	7.8404326	2.8000772
3.1639798255964786	7.7630267	2.7862208
3.1815132926569443	7.673665	2.770138
3.1990468342210603	7.6088543	2.7584152
3.216580450700272	7.5180106	2.741899
3.2341141425060416	7.410144	2.722158
3.251647910049847	7.353644	2.7117603
3.2691817537431813	7.2161713	2.6862931
3.286715673997555	7.128717	2.6699657
3.3042496712244938	6.996254	2.6450434
3.32178374583554	6.9168167	2.6299841
3.339317898242251	6.8449984	2.6162949
3.3568521288562034	6.870814	2.6212237
3.3743864380889876	6.8593793	2.6190417
3.3919208263522127	6.7643466	2.6008358
3.4094552940575023	6.639068	2.576639
3.4269898416164972	6.5002556	2.5495598
3.444524469440858	6.4695115	2.5435236
3.4620591779422587	6.4376497	2.5372524
3.479593967532391	6.4373713	2.5371976
3.4971288386229658	6.4181085	2.5333986
3.5146637916257086	6.3620973	2.5223198
3.5321988269523628	6.318957	2.5137537
3.5497339450146903	6.2800055	2.5059938
3.5672691462244708	6.2694902	2.503895
3.5848044309934988	6.2617936	2.5023577
3.60233979973359	6.261605	2.5023198
3.619875252856575	6.261578	2.5023146
3.6374107907743034	6.2291813	2.4958327
3.6549464138986427	6.193422	2.4886587
3.6724821226414788	6.2157874	2.493148
3.690017917414714	6.3848696	2.52683
3.7075537986302702	6.5028706	2.5500727
3.7250897667000857	6.653715	2.5794797
3.7426258220361235	6.8289742	2.6132307
3.7601619650503553	7.111146	2.6666732
3.777698196154779	7.479847	2.734931
3.7952345157614067	8.417804	2.9013453
3.8127709242822716	9.14448	3.0239842
3.830307422129425	11.448111	3.3835056
3.847844009714936	30.332767	5.5075192
3.8653806874508954	97.92408	9.895659
3.882917455749409	97.14538	9.8562355
3.900454315022606	96.80322	9.838862
3.917991265682631	41.358673	6.431071
3.9355283081416506	11.092321	3.3305137
3.9530654428118495	8.858289	2.9762878
3.970602670105433	7.423347	2.724582
3.9881399904346244	6.46341	2.5423238
4.005677404211669	6.307136	2.5114012
4.023214911848827	6.312378	2.5124445
4.0407525137583855	6.368433	2.5235755
4.058290210352644	6.4074492	2.5312939
4.075828002043927	6.361319	2.5221655
4.0933658892445814	6.252028	2.5004056
4.110903872366966	6.202201	2.4904218
4.128441951823468	6.224036	2.4948018
4.145980128026488	6.217789	2.4935496
4.163518401388452	6.163429	2.4826255
4.181056772321807	6.070337	2.4638054
4.1985952412390155	6.0206885	2.4537091
4.216133808552567	6.1198063	2.4738243
4.233672474674966	6.305814	2.511138
4.251211240018741	6.5711546	2.5634263
4.268750104996445	6.824152	2.6123078
4.286289070020643	7.77684	2.7886987
4.303828135503928	9.3767395	3.0621462
4.3213673018589125	29.549967	5.435988
4.3389065694982305	90.66593	9.521866
4.356445938834537	165.9439	12.881921
4.3739854102805085	171.62561	13.100595
4.391524984248844	172.4683	13.132719
4.409064661152262	136.49628	11.683162
4.426604441403504	96.629005	9.830006
4.444144325415337	75.65846	8.698187
4.461684313600543	21.62715	4.6505
4.47922440637193	22.15672	4.7070923
4.496764604142329	20.577307	4.5362215
4.5143049073245916	18.75512	4.330718
4.531845316331589	16.598314	4.074103
4.5493858315762195	13.634984	3.6925578
4.566926453471405	11.36551	3.371277
4.584467182430081	9.241362	3.0399609
4.602008018865218	8.141627	2.8533537
4.619548963189798	7.471227	2.7333546
4.637090015816834	7.054316	2.6559963
4.654631177159353	6.798485	2.6073904
4.672172447630417	6.527363	2.5548704
4.689713827643102	6.2541103	2.5008218
4.7072553176105085	5.9980893	2.4490998
4.724796917945764	5.8142734	2.4112804
4.742338629062015	5.750323	2.397983
4.759880451372434	5.7818823	2.4045546
4.777422385290215	5.719083	2.3914604
4.794964431228581	5.789139	2.4060628
4.812506589600768	5.7128506	2.390157
4.830048860820047	5.643612	2.3756287
4.847591245299709	5.591426	2.3646195
4.8651337434530655	5.6069474	2.3678994
4.882676355693457	5.5573583	2.357405
4.900219082434242	5.5124874	2.3478687
4.917761924088813	5.388026	2.3212123
4.935304881070575	5.47014	2.338833
4.952847953792969	5.4922113	2.3435466
4.970391142669449	5.462128	2.3371196
4.9879344481135055	5.4593515	2.3365254
5.005477870538642	5.4285445	2.3299236
5.023021410358394	5.446159	2.3337007
5.040565067986324	5.4448223	2.3334143
5.05810884383601	5.453684	2.3353124
5.075652738321066	5.498796	2.3449512
5.09319675185512	5.404872	2.3248382
5.110740884851836	5.3942657	2.3225558
5.128285137724894	5.400766	2.3239548
5.145829510888007	5.443491	2.333129
5.163374004754908	5.4106264	2.3260753
5.1809186197393595	5.372054	2.3177693
5.198463356255145	5.332705	2.3092651
5.216008214716077	5.2915263	2.3003318
5.233553195535998	5.316633	2.3057826
5.251098299128764	5.3586245	2.3148704
5.268643525908272	5.3803363	2.3195553
5.286188876288432	5.321454	2.3068278
5.3037343506831895	5.260064	2.293483
5.32127994950651	5.2160273	2.2838624
5.3388256731723915	5.2441406	2.2900088
5.356371522094851	5.2611375	2.293717
5.373917496687938	5.31459	2.3053393
5.391463597365729	5.294762	2.301035
5.40900982454232	5.209844	2.2825084
5.426556178631843	5.178415	2.275613
5.444102660048449	5.126409	2.2641575
5.4616492692063225	5.1788025	2.2756982
5.479196006519669	5.121094	2.2629836
5.496742872402727	5.0626345	2.2500298
5.514289867269756	5.0608153	2.2496257
5.531836991535049	5.1208944	2.2629395
5.549384245612924	5.1419077	2.2675774
5.566931629917724	5.127357	2.2643669
5.584479144863822	5.077751	2.2533865
5.6020267908656205	5.129009	2.2647314
5.619574568337545	5.1557117	2.2706192
5.637122477694054	5.136424	2.2663682
5.654670519349629	5.0853195	2.2550652
5.672218693718784	5.0374227	2.2444203
5.689767001216059	5.0577216	2.2489378
5.707315442256021	5.0944905	2.2570977
5.724864017253266	5.08261	2.2544644
5.7424127266224225	5.095328	2.2572832
5.75996157077814	5.088571	2.2557862
5.777510550135105	5.138399	2.2668037
5.795059665108022	5.179337	2.2758157
5.812608916111639	5.271702	2.2960186
5.830158303560715	5.3537555	2.3138185
5.847707827870055	5.388162	2.3212416
5.86525748945448	5.470443	2.3388977
5.8828072887288485	5.602688	2.3669999
5.900357226108044	5.624478	2.3715982
5.917907302006979	5.5604033	2.3580508
5.9354575168406	6.1560807	2.4811451
5.9530078710238765	6.820569	2.6116219
5.970558364971812	7.373359	2.715393
5.988108999099438	7.7365146	2.781459
6.005659773821818	8.19119	2.8620255
6.023210689554039	7.9904647	2.826741
6.040761746711227	8.326816	2.8856223
6.058312945708531	7.7100663	2.7767007
6.075864286961132	7.2841153	2.69891
6.093415770884244	6.6669354	2.582041
6.1109673978931065	6.1218476	2.4742367
6.128519168402993	5.5283213	2.3512383
6.146071082829204	5.437973	2.3319461
6.163623141587075	5.3736944	2.318123
6.181175345091969	5.3512197	2.3132703
6.198727693759281	5.2729697	2.2962947
6.216280188004435	5.2280006	2.286482
6.233832828242885	5.1081324	2.2601178
6.251385614890126	5.1402116	2.2672036
6.268938548361669	5.1674194	2.273196
6.286491629073067	5.1470733	2.268716
6.304044857439898	5.065418	2.2506483
6.321598233877777	4.9795666	2.2314942
6.339151758802344	4.9432645	2.2233453
6.356705432629277	5.045207	2.2461538
6.37425925577428	5.076961	2.2532113
6.391813228653095	5.065441	2.2506535
6.409367351681486	5.065284	2.2506185
6.426921625275259	5.0360956	2.2441247
6.44447604985025	5.078374	2.2535248
6.46203062582232	5.067084	2.2510183
6.47958535360737	5.023099	2.2412271
6.497140233621328	4.9051943	2.2147672
6.514695266280161	4.836608	2.199229
6.532250451999859	4.8583217	2.20416
6.549805791196454	4.988009	2.233385
6.567361284286002	5.0408764	2.2451897
6.584916931684597	5.0847826	2.2549462
6.602472733808367	5.0502543	2.247277
6.6200286910734665	5.0923486	2.2566233
6.637584803896092	5.092716	2.2567048
6.655141072692462	5.016422	2.239737
6.672697497878842	4.9220963	2.2185798
6.690254079871514	4.851842	2.2026896
6.707810819086808	4.8609343	2.2047527
6.725367715941078	4.8739176	2.207695
6.742924770850719	4.91785	2.2176225
6.760481984232151	4.9305305	2.2204797
6.778039356501836	4.9631677	2.2278168
6.795596888076266	4.9345117	2.2213762
6.813154579371963	4.8693	2.206649
6.830712430805492	4.874602	2.20785
6.84827044279344	4.852611	2.2028642
6.865828615752445	4.8722386	2.2073147
6.883386950099159	4.889207	2.2111552
6.900945446250287	4.9221888	2.2186007
6.918504104622553	4.9863267	2.2330084
6.936062925632727	4.959517	2.2269974
6.953621909697607	4.940569	2.222739
6.971181057234028	4.9932446	2.234557
6.988740368658859	5.074605	2.2526884
7.006299844389007	5.1614842	2.27189
7.023859484841407	5.2114677	2.2828639
7.041419290433036	5.25436	2.2922392
7.058979261580902	5.403656	2.3245766
7.0765393987020495	5.7003975	2.3875506
7.094099702213559	6.005517	2.4506156
7.111660172532549	6.309784	2.5119283
7.129220810076164	6.6677527	2.582199
7.146781615261595	7.2305183	2.6889622
7.16434258850606	7.4842863	2.7357423
7.181903730226821	7.897059	2.8101707
7.1994650408411704	8.085933	2.8435774
7.217026520766437	8.246868	2.871736
7.234588170419983	8.446531	2.9062917
7.252149990219215	8.380288	2.8948727
7.269711980581568	8.282996	2.8780196
7.2872741419245175	8.064255	2.8397632
7.304836474665574	7.64265	2.7645342
7.322398979222286	7.348975	2.7108994
7.339961656012233	7.0807137	2.6609612
7.357524505453039	6.8087993	2.6093676
7.375087527962357	6.540894	2.557517
7.392650723957886	6.2478237	2.4995646
7.410214093857353	5.8856983	2.426046
7.427777638078528	5.6953125	2.3864853
7.445341357039213	5.550838	2.3560216
7.4629052511572525	5.4412656	2.332652
7.480469320850524	5.3689384	2.317097
7.498033566536948	5.3037295	2.3029828
7.5155979886344735	5.2624726	2.294008
7.5331625875610975	5.2129197	2.283182
7.550727363734844	5.1666317	2.2730227
7.568292317573788	5.112246	2.2610276
7.585857449496025	5.135321	2.2661247
7.603422759919705	5.166046	2.2728937
7.620988249263007	5.238734	2.2888281
7.638553917944147	5.264455	2.29444
7.656119766381391	5.2039423	2.2812152
7.673685794993023	5.1696687	2.2736905
7.691252004197388	5.1837707	2.2767897
7.70881839441285	5.227386	2.2863476
7.726384966057826	5.252951	2.2919319
7.743951719550762	5.2672853	2.2950568
7.761518655310149	5.2533197	2.2920122
7.779085773754511	5.295816	2.301264
7.796653075302419	5.2950625	2.3011003
7.814220560372475	5.3226395	2.3070846
7.831788229383323	5.2500205	2.2912924
7.8493560827536495	5.223884	2.2855818
7.866924120902174	5.2564573	2.2926965
7.884492344247663	5.2977343	2.3016808
7.9020607532089135	5.3154664	2.3055296
7.919629348204771	5.264421	2.2944326
7.937198129654115	5.2541304	2.292189
7.954767097975865	5.274402	2.2966065
7.972336253588986	5.323296	2.307227
7.989905596912472	5.372847	2.3179402
8.007475128365371	5.421008	2.328306
8.025044848366756	5.419194	2.3279164
8.042614757335754	5.5044246	2.346151
8.060184855691523	5.5227695	2.3500574
8.07775514385327	5.6458406	2.3760977
8.095325622240228	5.6969714	2.386833
8.112896291271687	5.783204	2.4048293
8.130467151366968	5.8588977	2.420516
8.148038202945436	5.91615	2.4323137
8.165609446426497	5.86917	2.422637
8.183180882229594	5.852239	2.41914
8.200752510774217	5.771249	2.4023423
8.218324332479893	5.8726864	2.4233627
8.235896347766193	5.933663	2.4359112
8.253468557052724	6.001065	2.449707
8.27104096075914	5.992513	2.447961
8.288613559305137	6.027909	2.45518
8.306186353110448	6.116219	2.473099
8.32375934259485	6.257625	2.5015244
8.341332528178162	6.294953	2.5089746
8.358905910280246	6.3195257	2.5138667
8.376479489321003	6.300254	2.5100307
8.394053265720377	6.3887606	2.5275998
8.411627239898356	6.3990645	2.5296373
8.42920141227497	6.3817587	2.5262144
8.44677578327029	6.3582854	2.521564
8.464350353304427	6.298508	2.509683
8.48192512279754	6.2622037	2.5024395
8.499500092169827	6.2166395	2.493319
8.51707526184153	6.1816635	2.4862952
8.534650632232934	6.179224	2.4858046
8.552226203764365	6.115945	2.4730437
8.569801976856192	6.1216626	2.4741993
8.587377951928834	6.1541014	2.480746
8.60495412940274	6.2314615	2.4962895
8.622530509698416	6.2843504	2.5068607
8.6401070932364	6.3675947	2.5234094
8.657683880437283	6.458355	2.5413294
8.675260871721695	6.615276	2.572018
8.692838067510303	6.733823	2.594961
8.710415468223834	6.925667	2.6316662
8.727993074283043	7.0596538	2.6570008
8.745570886108737	7.1379576	2.6716957
8.763148904121765	7.1192756	2.6681972
8.78072712874302	7.148845	2.6737325
8.798305560393441	7.3938537	2.7191641
8.815884199494006	7.561088	2.7497432
8.833463046465745	7.726382	2.779637
8.851042101729728	7.7696013	2.7874005
8.86862136570707	8.020992	2.8321357
8.886200838818924	8.189786	2.8617802
8.903780521486505	8.294136	2.879954
8.921360414131055	8.409277	2.8998754
8.938940517173874	8.584792	2.9299817
8.956520831036297	8.661626	2.943064
8.97410135613971	8.901655	2.9835641
8.99168209290554	9.025406	3.0042312
9.009263041755265	9.3853655	3.0635543
9.026844203110405	9.67031	3.1097121
9.044425577392525	9.816181	3.1330786
9.062007165023239	9.935698	3.1520941
9.079588966424197	10.152462	3.186293
9.097170982017108	10.276927	3.2057645
9.11475321222372	11.305865	3.3624196
9.132335657465825	12.321917	3.5102587
9.149918318165264	12.476007	3.5321393
9.167501194743924	13.11782	3.621853
9.18508428762374	12.752387	3.5710485
9.202667597226693	12.736492	3.5688221
9.220251123974803	12.415061	3.5235012
9.237834868290143	12.044794	3.470561
9.255418830594836	11.895334	3.4489613
9.273003011311046	11.308373	3.3627925
9.290587410860985	11.106715	3.3326738
9.308172029666911	10.506726	3.241408
9.32575686815113	10.227893	3.1981077
9.343341926735997	8.82981	2.9714997
9.360927205843916	8.594623	2.9316587
9.378512705897327	8.356725	2.8908
9.396098427318728	8.097708	2.845647
9.413684370530664	8.014393	2.8309703
9.431270535955722	7.8910108	2.8090942
9.448856924016539	7.8768263	2.8065684
9.466443535135806	7.724272	2.7792573
9.484030369736251	7.814737	2.795485
9.501617428240658	7.895255	2.8098497
9.519204711071852	7.838793	2.7997844
9.536792218652714	7.8363223	2.799343
9.55437995140617	7.8525767	2.802245
9.571967909755191	7.8773704	2.8066654
9.589556094122802	7.873661	2.8060045
9.60714450493207	7.838214	2.799681
9.624733142606116	7.8038716	2.793541
9.642322007568108	7.902513	2.8111408
9.659911100241267	7.952958	2.8200989
9.677500421048851	8.029441	2.8336267
9.695089970414175	8.073878	2.8414571
9.712679748760609	8.115029	2.848689
9.730269756511557	8.072101	2.8411443
9.747859994090492	8.097587	2.8456259
9.765450461920915	8.126273	2.850662
9.78304116042639	8.282872	2.8779979
9.800632090030527	8.374305	2.8938391
9.81822325115699	8.356468	2.8907557
9.835814644229481	8.315096	2.8835907
9.853406269671762	8.287242	2.878757
9.870998127907646	8.27071	2.8758843
9.888590219360985	8.3086405	2.8824713
9.906182544455698	8.321101	2.8846319
9.923775103615734	8.321085	2.884629
9.941367897265108	8.345636	2.8888814
9.958960925827878	8.344333	2.888656
9.97655418972816	8.304335	2.8817244
9.994147689390106	8.316595	2.8838508
10.011741425237934	8.21177	2.8656187
10.029335397695904	8.309947	2.8826978
10.04692960718833	8.297748	2.8805811
10.06452405413958	8.303206	2.8815284
10.082118738974064	8.280169	2.8775282
10.099713662116246	8.223594	2.8676808
10.117308823990651	8.239353	2.8704274
10.134904225021844	8.2099285	2.8652973
10.152499865634445	8.244212	2.8712735
10.170095746253125	8.2987	2.8807466
10.18769186730261	8.27596	2.8767967
10.205288229207675	8.296939	2.8804407
10.222884832393145	8.265051	2.8749
10.2404816772839	8.233326	2.8693774
10.258078764304868	8.20586	2.8645873
10.275676093881035	8.096664	2.8454638
10.293273666437438	8.050722	2.8373795
10.310871482399158	8.098467	2.8457806
10.32846954219134	8.093578	2.8449216
10.346067846239173	8.145525	2.8540366
10.363666394967908	8.128263	2.851011
10.38126518880283	8.14464	2.8538816
10.398864228169298	8.148045	2.854478
10.416463513492713	8.151827	2.8551404
10.434063045198531	8.207893	2.864942
10.451662823712262	8.187878	2.8614469
10.469262849459467	8.2198515	2.8670282
10.486863122865758	8.11971	2.8495104
10.504463644356806	8.129339	2.8511996
10.522064414358338	8.028592	2.833477
10.539665433296118	7.922353	2.8146675
10.557266701595987	7.9162884	2.81359
10.574868219683818	7.8321867	2.7986045
10.592469987985552	7.789581	2.790982
10.610072006927185	7.6194468	2.7603345
10.627674276934751	7.5343876	2.7448838
10.64527679843435	7.375819	2.715846
10.662879571852143	7.313405	2.7043307
10.680482597614331	7.187594	2.6809688
10.698085876147173	7.071718	2.6592703
10.715689407876988	6.9412627	2.6346276
10.733293193230146	6.9297423	2.6324403
10.750897232633072	6.843948	2.616094
10.76850152651225	6.7309723	2.5944118
10.786106075294207	6.648343	2.578438
10.803710879405534	6.5732155	2.5638282
10.821315939272877	6.4961753	2.5487595
10.83892125532294	6.406616	2.5311294
10.856526827982472	6.288647	2.5077176
10.874132657678285	6.2864556	2.5072806
10.891738744837243	6.2405357	2.4981065
10.909345089886271	6.2059546	2.4911754
10.926951693252343	6.164036	2.4827476
10.944558555362494	6.138125	2.477524
10.96216567664381	6.088782	2.4675457
10.979773057523436	5.9706693	2.4434953
10.997380698428573	5.8606873	2.4208856
11.014988599786477	5.7848706	2.4051757
11.032596762024461	5.718441	2.3913262
11.050205185569892	5.687161	2.3847768
11.067813870850198	5.5979238	2.3659933
11.085422818292859	5.5015206	2.345532
11.10303202832541	5.4277787	2.3297594
11.120641501375454	5.410811	2.326115
11.138251237870636	5.3618855	2.3155746
11.155861238238671	5.273754	2.2964656
11.173471502907317	5.1547747	2.270413
11.191082032304402	5.102556	2.258884
11.208692826857805	5.01777	2.240038
11.226303886995465	5.004683	2.237115
11.243915213145371	5.016089	2.2396626
11.261526805735578	5.0029154	2.2367198
11.279138665194196	4.8995667	2.2134964
11.296750791949393	4.8109813	2.193395
11.314363186429393	4.774824	2.185137
11.331975849062479	4.7203026	2.1726258
11.34958878027699	4.6729155	2.1616926
11.36720198050133	4.6263022	2.1508842
11.384815450163948	4.620394	2.1495101
11.402429189693366	4.573358	2.1385412
11.420043199518153	4.467433	2.1136303
11.437657480066942	63.40265	7.962578
11.455272031768422	85.1347	9.226847
11.472886855051353	107.53844	10.370074
11.490501950344528	99.18852	9.959344
11.508117318076819	84.53106	9.1940775
11.52573295867715	45.91895	6.7763524
11.543348872574514	4.226958	2.0559566
11.560965060197946	4.1676426	2.0414805
11.57858152197655	4.0951147	2.023639
11.59619825833949	4.016195	2.0040445
11.613815269715985	3.9686992	1.9921595
11.631432556535323	38.43976	6.1999807
11.649050119226837	82.99342	9.110073
11.666667958219929	93.44347	9.666616
11.68428607394406	107.78071	10.381749
11.701904466828756	82.63194	9.090211
11.719523137303586	65.445656	8.0898485
11.737142085798196	4.656659	2.1579294
11.754761312742286	3.7069557	1.9253455
11.772380818565619	3.6201687	1.9026741
11.790000603698015	3.5768204	1.8912483
11.80762066856935	3.5656807	1.888301
11.825241013609572	3.586605	1.8938334
11.842861639248683	3.550941	1.884394
11.860482545916748	3.4614654	1.8605014
11.878103734043883	3.4155126	1.8481106
11.895725204060282	3.3921044	1.8417666
11.91334695639619	3.4015524	1.8443298
11.930968991481919	3.3687005	1.835402
11.948591309747824	3.323301	1.8229923
11.966213911624347	3.2944312	1.8150568
11.98383679754198	3.275453	1.8098212
12.001459967931268	3.2586546	1.8051744
12.019083423222835	3.2588992	1.8052422
12.036707163847352	3.222517	1.795137
12.05433119023556	3.2147887	1.7929832
12.071955502818259	3.1602457	1.7777079
12.089580102026313	3.1159263	1.7651986
12.107204988290643	3.1189308	1.7660495
12.12483016204224	3.1101646	1.7635659
12.142455623712152	3.0908315	1.7580761
12.16008137373149	3.0847297	1.7563399
12.177707412531431	3.1053655	1.7622048
12.19533374054321	3.0910125	1.7581276
12.212960358198126	3.0642514	1.7505003
12.230587265927545	3.0448048	1.744937
12.248214464162889	3.0203865	1.7379259
12.265841953335649	3.0024545	1.7327592
12.283469733877375	2.9857972	1.7279459
12.301097806219685	2.9791687	1.7260269
12.31872617079425	2.974287	1.7246121
12.336354828032825	2.9902375	1.7292303
12.353983778367205	2.986915	1.7282693
12.371613022229262	2.9392238	1.7144165
12.389242560050928	2.872444	1.6948286
12.406872392264201	2.8443167	1.6865102
12.424502519301143	2.805392	1.6749305
12.442132941593874	2.8180962	1.6787186
12.459763659574586	2.8201654	1.6793348
12.477394673675532	2.8288484	1.681918
12.49502598432903	2.8458703	1.6869707
12.51265759196746	2.8264265	1.6811979
12.530289497023267	2.8108697	1.6765648
12.547921699928967	2.7945504	1.671691
12.565554201117134	2.7965853	1.6722994
12.583187001020404	2.7999902	1.6733171
12.600820100071486	2.7896018	1.6702101
12.618453498703152	2.8063254	1.675209
12.636087197348235	2.8310058	1.6825593
12.65372119643964	2.836178	1.6840956
12.671355496410326	2.7980037	1.6727234
12.68899009769333	2.7770627	1.6664522
12.706625000721749	2.796862	1.6723821
12.724260205928752	2.8643572	1.6924412
12.741895713747551	2.9580193	1.7198893
12.759531524611454	2.9882495	1.7286555
12.777167638953818	2.9833539	1.7272388
12.794804057208072	3.0000975	1.7320789
12.812440779807702	3.0865257	1.7568511
12.830077807186271	3.247641	1.8021213
12.847715139777405	3.2593806	1.8053755
12.865352778014795	3.4500642	1.8574349
12.882990722332197	3.5885916	1.8943578
12.90062897316344	3.6298985	1.9052292
12.918267530942412	3.6683145	1.9152844
12.935906396103071	3.567713	1.8888391
12.953545569079449	3.7927341	1.9474943
12.971185050305628	3.635107	1.9065957
12.988824840215775	3.6342418	1.9063687
13.006464939244115	3.606757	1.8991463
13.024105347824943	3.433569	1.8529892
13.041746066392617	3.5037186	1.8718222
13.05938709538157	3.3080711	1.8188103
13.077028435226296	3.3538694	1.8313572
13.094670086361363	3.2659197	1.8071855
13.112312049221401	3.202397	1.7895243
13.129954324241112	3.135079	1.7706155
13.147596911855258	2.9282324	1.7112079
13.165239812498685	2.8921807	1.7006413
13.182883026606293	2.8378663	1.6845968
13.200526554613058	2.7778008	1.6666735
13.218170396954017	2.7362094	1.6541492
13.235814554064284	2.6800382	1.6370822
13.253459026379034	2.6618176	1.6315078
13.271103814333523	2.6393423	1.6246053
13.288748918363058	2.6651797	1.6325378
13.306394338903031	2.6714556	1.6344588
13.32404007638889	2.6594496	1.6307819
13.341686131256164	2.6720006	1.6346256
13.359332503940449	2.6791947	1.6368246
13.376979194877402	2.6616676	1.6314617
13.394626204502751	2.712594	1.6469954
13.412273533252307	2.7108984	1.6464806
13.429921181561937	2.723188	1.6502085
13.447569149867581	2.7312572	1.6526515
13.465217438605247	2.721318	1.6496418
13.482866048211022	2.7060885	1.6450193
13.500514979121052	2.6781878	1.6365169
13.518164231771568	2.6552608	1.629497
13.535813806598844	2.7111454	1.6465557
13.553463704039254	2.712879	1.647082
13.571113924529229	2.7074153	1.6454226
13.588764468505275	2.717657	1.6485318
13.606415336403956	2.7300487	1.6522859
13.624066528661917	2.7568717	1.660383
13.641718045715882	2.804644	1.6747072
13.659369888002635	2.8821855	1.6977
13.67702205595903	2.9693902	1.7231919
13.694674550021993	3.0040922	1.7332318
13.712327370628532	3.0479164	1.7458283
13.729980518215713	3.1104581	1.7636491
13.747633993220681	3.1377072	1.7713574
13.765287796080647	3.1901507	1.7860993
13.7829419272329	3.2742133	1.8094788
13.800596387114801	3.3357718	1.8264096
13.818251176163775	3.318619	1.8217077
13.835906294817324	3.3754704	1.8372453
13.853561743513023	3.3793077	1.8382894
13.871217522688525	3.4315495	1.8524442
13.888873632781538	3.4316256	1.8524648
13.906530074229858	3.4278157	1.8514361
13.92418684747135	3.4628165	1.8608644
13.941843952943948	3.444148	1.8558416
13.959501391085665	3.4611948	1.8604287
13.977159162334578	3.4198756	1.8492906
13.994817267128846	3.3879106	1.8406278
14.012475705906693	3.291537	1.8142594
14.030134479106424	3.2302346	1.7972853
14.047793587166414	3.1702905	1.7805309
14.065453030525108	3.0839753	1.7561251
14.083112809621026	3.0592792	1.7490796
14.100772924892766	2.9555266	1.7191645
14.118433376778997	2.8824265	1.6977711
14.136094165718458	2.7631502	1.6622726
14.153755292149969	2.7239718	1.6504459
14.171416756512416	2.7268214	1.651309
14.189078559244768	2.677069	1.6361752
14.20674070078606	2.6154647	1.6172398
14.224403181575408	2.5510354	1.5971961
14.242066002051999	2.530537	1.5907662
14.259729162655093	2.5104845	1.5844508
14.277392663824022	2.4622948	1.5691701
14.295056505998208	2.4019024	1.5498072
14.312720689617128	2.3710043	1.5398066
14.330385215120348	2.3585777	1.5357661
14.348050082947497	2.3424554	1.5305082
14.3657152935383	2.3307245	1.526671
14.383380847332528	2.3348863	1.5280335
14.401046744770051	2.373834	1.5407251
14.418712986290798	2.4062514	1.5512097
14.436379572334793	2.4183047	1.55509
14.454046503342123	2.3780248	1.5420846
14.471713779752946	2.3651702	1.537911
14.489381402007504	2.374964	1.5410918
14.507049370546113	2.367806	1.5387677
14.524717685809168	2.3577778	1.5355058
14.542386348237134	2.3686357	1.5390372
14.560055358270553	2.4040353	1.5504951
14.577724716350051	2.418127	1.5550328
14.595394422916325	2.455158	1.5668944
14.61306447841015	2.485491	1.576544
14.63073488327237	2.5194361	1.5872731
14.648405637943917	2.5430937	1.594708
14.6660767428658	2.502702	1.5819931
14.683748198479094	2.497473	1.5803396
14.701420005224954	2.5003605	1.5812528
14.719092163544628	2.603481	1.6135306
14.73676467387942	2.6705365	1.6341777
14.754437536670727	2.6940231	1.641348
14.772110752360014	2.6772685	1.6362361
14.78978432138882	2.6341584	1.6230091
14.807458244198777	2.6381097	1.6242259
14.82513252123159	2.6338546	1.6229155
14.842807152929028	2.6845849	1.6384703
14.860482139732962	2.6326716	1.622551
14.87815748208531	2.6540349	1.6291208
14.8958331804281	2.6828387	1.6379373
14.91350923520342	2.6590557	1.6306611
14.931185646853438	2.6696365	1.6339022
14.948862415820408	2.664326	1.6322763
14.966539542546656	2.725387	1.6508746
14.98421702747459	2.7037544	1.6443098
15.001894871046696	2.6799073	1.6370423
15.019573073705542	2.6785045	1.6366137
15.037251635893766	2.63535	1.6233761
15.054930558054092	2.654752	1.629341
15.072609840629323	2.720968	1.6495357
15.090289484062351	2.9041955	1.70417
15.107969488796124	3.190086	1.7860812
15.125649855273691	3.5954185	1.8961588
15.14333058393817	4.0669045	2.0166569
15.161011675232768	5.0429277	2.2456465
15.17869312960076	6.378611	2.5255911
15.196374947485506	8.254267	2.873024
15.214057129330447	11.300767	3.3616614
15.231739675579114	16.031929	4.003989
15.249422586675102	21.139097	4.5977273
15.267105863062092	24.547697	4.954563
15.284789505183847	25.000168	5.0000167
15.302473513484218	22.834093	4.7785034
15.320157888407127	19.110456	4.371551
15.337842630396578	14.722842	3.8370357
15.355527739896656	11.462614	3.3856483
15.37321321735153	8.868829	2.9780579
15.39089906320545	6.499898	2.5494897
15.408585277902748	4.8530097	2.2029548
15.42627186188783	3.7512097	1.936804
15.443958815605198	3.1828299	1.7840487
15.461646139499424	2.87595	1.6958627
15.479333834015168	2.7114851	1.6466588
15.497021899597165	2.653026	1.6288112
15.514710336690234	2.622678	1.6194685
15.53239914573928	2.6019492	1.6130558
15.550088327189297	2.5505037	1.5970297
15.567777881485336	2.5060568	1.583053
15.58546780907256	2.4977884	1.5804393
15.6031581103962	2.5074728	1.5835001
15.620848785901568	2.5178154	1.5867625
15.638539836034063	2.514345	1.5856686
15.656231261239173	2.5034852	1.5822406
15.673923061962451	2.4960008	1.5798737
15.691615238649552	2.4764376	1.5736701
15.709307791746202	2.4573994	1.5676094
15.727000721698221	2.4559407	1.5671442
15.744694028951498	2.4466414	1.5641744
15.76238771395202	2.4395747	1.5619138
15.780081777145844	2.4080615	1.551793
15.797776218979125	2.4075344	1.5516231
15.815471039898094	2.4065678	1.5513116
15.833166240349064	2.4010897	1.5495449
15.850861820778437	2.3772972	1.5418487
15.868557781632699	2.3827078	1.5436022
15.886254123358412	2.3911312	1.5463283
15.903950846402232	2.4129891	1.5533799
15.921647951210897	2.39483	1.5475239
15.939345438231225	2.3930361	1.5469441
15.957043307910133	2.3803315	1.5428323
15.974741560694602	2.373591	1.5406463
15.992440197031714	2.3892498	1.5457199
16.01013921736862	2.3640978	1.5375623
16.02783862215259	2.354553	1.5344553
16.045538411830933	2.3312798	1.5268528
16.06323858685107	2.354261	1.53436
16.080939147660512	2.3465345	1.5318402
16.09864009470684	2.3417413	1.5302749
16.11634142843774	2.3745503	1.5409576
16.134043149300954	2.4232733	1.5566866
16.15174525774433	2.4532783	1.5662944
16.169447754215817	2.4489238	1.5649037
16.18715063916342	2.4319503	1.5594711
16.204853913035244	2.423013	1.5566031
16.222557576279478	2.4386692	1.5616239
16.240261629344403	22.417526	4.734715
16.257966072678386	42.934856	6.5524693
16.275670906729868	38.029385	6.166797
16.293376131947387	2.4740813	1.5729213
16.31108174877957	2.4829965	1.5757526
16.328787757675133	2.5188603	1.5870918
16.34649415908287	2.5369315	1.5927747
16.364200953451657	2.5789535	1.6059121
16.38190814123048	2.6100953	1.6155789
16.39961572286839	2.6043046	1.6137857
16.41732369881455	2.660462	1.6310922
16.43503206951817	2.7106621	1.6464089
16.45274083542859	2.7972	1.6724832
16.47044999699522	2.8206997	1.6794939
16.488159554667558	2.8946	1.7013524
16.505869508895184	2.9264193	1.710678
16.523579860127786	2.9367094	1.713683
16.541290608815117	2.9893296	1.7289678
16.559001755407035	3.0147316	1.7362982
16.57671330035348	3.0541813	1.7476217
16.59442524410448	3.1343815	1.7704184
16.61213758711015	3.1573505	1.7768935
16.629850329820705	3.188812	1.7857245
16.647563472686436	3.2520168	1.803335
16.665277016157724	3.336032	1.8264807
16.682990960685053	3.4231005	1.8501623
16.70070530671898	3.4533217	1.8583115
16.718420054710155	3.4959476	1.8697454
16.736135205109335	3.5271049	1.8780588
16.753850758367335	3.5458164	1.8830339
16.771566714935087	3.5894659	1.8945886
16.789283075263597	3.6949465	1.9222244
16.80699983980398	3.7780435	1.943719
16.82471700900741	3.8509364	1.9623803
16.84243458332518	3.895062	1.9735911
16.860152563208665	3.976879	1.9942113
16.87787094910932	4.0669255	2.016662
16.89558974147871	4.076656	2.019073
16.913308940768466	4.119498	2.0296545
16.931028547430333	4.16201	2.0401006
16.94874856191613	4.2874417	2.0706139
16.966468984677785	4.403949	2.0985587
16.98418981616729	4.431935	2.105216
17.00191105683676	4.449092	2.109287
17.019632707138374	4.467345	2.1136096
17.03735476752442	4.483551	2.1174397
17.05507723844728	4.5050173	2.1225026
17.072800120359403	4.517391	2.1254156
17.090523413713353	4.569046	2.1375327
17.108247118961785	4.6543307	2.1573899
17.125971236557437	4.666667	2.160247
17.143695766953133	4.6707706	2.1611965
17.161420710601806	4.6574163	2.158105
17.179146067956477	4.6957164	2.1669602
17.19687183947025	4.7248926	2.1736817
17.21459802559634	4.6994834	2.1678293
17.232324626788028	4.629041	2.1515207
17.25005164349871	4.581701	2.1404908
17.267779076181863	4.5662665	2.1368825
17.285506925291074	4.557173	2.1347535
17.30323519127999	4.5479326	2.1325881
17.320963874602384	4.536061	2.129803
17.33869297571211	4.5216484	2.1264167
17.356422495063114	4.484339	2.117626
17.37415243310944	4.485436	2.1178849
17.391882790305218	4.464572	2.1129534
17.40961356710468	4.5103307	2.123754
17.42734476396215	4.525618	2.12735
17.445076381332044	4.545616	2.132045
17.462808419668868	4.562569	2.136017
17.48054087942723	4.650191	2.15643
17.498273761061835	4.949809	2.2248166
17.51600706502747	5.4672213	2.338209
17.533740791779024	6.174555	2.4848652
17.551474941771485	7.5483947	2.7474341
17.56920951545993	8.657079	2.9422915
17.586944513299528	10.900636	3.3016112
17.60467993574556	12.635229	3.5546067
17.622415783253373	14.476622	3.8048155
17.64015205627843	15.993742	3.9992177
17.657888755276293	17.099947	4.135208
17.675625880702604	17.536118	4.187615
17.69336343301311	17.394737	4.1707
17.71110141266366	16.497284	4.061685
17.728839820110178	15.488998	3.9356065
17.746578655808705	14.517809	3.8102243
17.764317920215372	13.102447	3.6197302
17.7820576137864	11.659859	3.4146535
17.79979773697811	9.60084	3.0985222
17.81753829024692	7.6691275	2.769319
17.835279274049356	5.9306273	2.435288
17.85302068884201	4.848989	2.202042
17.870762535081607	4.171319	2.0423808
17.888504813224934	3.839878	1.9595606
17.90624752372891	3.698433	1.923131
17.923990667050536	3.6309447	1.9055037
17.941734243646895	3.5702548	1.8895118
17.959478253975185	3.5363133	1.8805088
17.9772226984927	3.4912784	1.8684963
17.994967577656833	3.451859	1.8579179
18.01271289192506	3.3661387	1.8347039
18.030458641754965	3.3256092	1.8236253
18.04820482760425	3.3067143	1.8184373
18.06595144993067	3.3246105	1.8233514
18.083698509192125	3.3008504	1.8168243
18.101446005846576	3.2390914	1.7997476
18.119193940352105	3.208844	1.7913246
18.136942313166887	3.2134652	1.7926141
18.1546911247492	3.2555397	1.8043114
18.1724403755574	3.245325	1.8014786
18.19019006604997	3.2101426	1.7916871
18.207940196685467	3.137265	1.7712326
18.225690767922575	3.0914574	1.758254
18.243441780220046	3.0270092	1.7398303
18.261193234036764	3.0128117	1.7357453
18.278945129831676	3.037548	1.7428563
18.29669746806386	3.0332286	1.7416167
18.314450249192483	3.0317006	1.7411779
18.3322034736768	3.03412	1.7418725
18.349957141976184	3.049064	1.7461569
18.3677112545501	3.0121655	1.7355591
18.385465811858108	3.0156975	1.7365763
18.403220814359884	3.0218225	1.738339
18.420976262515172	3.0796907	1.7549047
18.43873215678387	3.1106284	1.7636974
18.456488497625923	3.1873772	1.7853227
18.474245285501407	3.2789266	1.8107806
18.492002520870486	3.3193464	1.8219074
18.50976020419343	3.383836	1.8395206
18.527518335930615	3.6483116	1.9100554
18.545276916542516	4.238101	2.0586648
18.563035946489688	4.409555	2.099894
18.580795426232832	4.760818	2.1819298
18.598555356232698	4.6160545	2.1485004
18.616315736950185	4.9532566	2.2255912
18.63407656884626	4.686015	2.1647205
18.65183785238201	4.867102	2.206151
18.669599588018617	4.623555	2.1502454
18.68736177621737	4.5877023	2.1418922
18.705124417439652	4.565768	2.1367657
18.72288751214696	4.3725705	2.0910692
18.740651060800886	4.511018	2.1239157
18.758415063863115	4.2524447	2.0621457
18.77617952179546	4.3983	2.0972126
18.793944435059814	4.1887875	2.0466528
18.811709804118184	4.2113767	2.0521638
18.829475629432675	4.2195797	2.0541615
18.8472419114655	4.013873	2.0034652
18.86500865067897	4.1205225	2.029907
18.88277584753551	3.8182638	1.9540378
18.90054350249763	3.7946322	1.9479816
18.918311616027957	3.4521182	1.8579876
18.936080188589226	3.3661864	1.8347169
18.953849220644265	3.076953	1.7541245
18.971618712656007	2.935182	1.7132373
18.9893886650875	2.864266	1.6924143
19.007159078401887	8.033304	2.8343084
19.024929953062408	32.93135	5.7385845
19.042701289532435	32.865715	5.732863
19.060473088275405	25.398184	5.039661
19.07824534975489	2.65304	1.6288155
19.096018074434568	2.6454444	1.6264822
19.113791262778197	2.5967898	1.6114558
19.13156491524966	2.5935206	1.6104411
19.149339032312945	2.5811963	1.6066102
19.167113614432136	2.5688505	1.6027634
19.184888662071433	2.5463269	1.5957215
19.202664175695123	2.5374959	1.5929519
19.220440155767623	2.5794122	1.6060549
19.238216602753447	2.5756283	1.6048764
19.2559935171172	2.5546565	1.5983293
19.27377089932361	2.54808	1.5962707
19.291548749837514	2.5196574	1.5873429
19.309327069123835	2.5011652	1.5815072
19.32710585764763	2.4873738	1.577141
19.344885115874032	2.5090973	1.5840131
19.362664844268313	2.5053928	1.5828433
19.380445043295822	2.5054731	1.5828687
19.39822571342203	2.4722471	1.5723381
19.41600685511252	2.446621	1.5641679
19.43378846883297	2.4770844	1.5738755
19.451570555049173	2.4922264	1.5786787
19.469353114227037	2.530311	1.5906951
19.48713614683254	2.5114667	1.5847608
19.50491965333182	2.4863873	1.5768282
19.52270363419109	2.4592507	1.5681999
19.540488089876686	2.4694057	1.5714343
19.55827302085503	2.486648	1.576911
19.576058427592674	2.5046487	1.5826082
19.593844310556282	2.4596486	1.5683267
19.611630670212598	2.4343567	1.5602425
19.629417507028506	2.4657779	1.5702796
19.64720482147098	2.4984877	1.5806606
19.6649926140071	2.5207083	1.5876739
19.682780885104084	2.5020792	1.5817962
19.70056963522921	2.5037668	1.5823295
19.718358864849908	2.5538628	1.598081
19.7361485744337	2.5720809	1.6037709
19.753938764448215	2.5679665	1.6024876
19.771729435361202	2.522087	1.5881081
19.789520587640506	2.4817204	1.5753478
19.807312221754092	2.4617834	1.5690072
19.825104338170043	2.4667494	1.5705888
19.842896937356517	2.5079691	1.5836569
19.860690019781824	2.5210235	1.5877731
19.87848358591436	2.5341413	1.5918987
19.896277636222635	2.5229182	1.5883697
19.914072171175278	2.52211	1.5881152
19.931867191241015	2.5273519	1.5897647
19.94966269688869	2.484348	1.5761815
19.967458688587264	2.4426327	1.5628924
19.985255166805807	2.4242575	1.5570028
20.00305213201348	2.4467585	1.5642117
20.020849584679578	2.4815812	1.5753036
20.038647525273507	2.4653068	1.5701295
20.05644595426477	2.414756	1.5539485
20.07424487212299	2.3947093	1.5474849
20.092044279317903	2.3942993	1.5473523
20.109844176319353	2.4284167	1.5583378
20.127644563597304	2.4245849	1.5571078
20.145445441621817	2.4412782	1.562459
20.16324681086307	2.4391267	1.5617704
20.181048671791373	2.4170175	1.554676
20.198851024877122	2.4087873	1.5520269
20.216653870590836	2.393646	1.5471412
20.234457209403146	2.3861794	1.5447264
20.252261041784802	2.3781703	1.5421318
20.270065368206662	2.3804884	1.5428832
20.287870189139685	2.3927798	1.5468613
20.305675505054968	2.358313	1.53568
20.323481316423702	2.3488479	1.5325952
20.341287623717207	2.3596077	1.5361015
20.359094427406884	2.4057856	1.5510595
20.376901727964288	2.3810017	1.5430495
20.39470952586107	2.3585482	1.5357566
20.41251782156899	2.3069932	1.5188789
20.430326615559935	2.3166006	1.5220383
20.448135908305886	2.3115811	1.5203885
20.465945700278965	2.3176842	1.5223942
20.483755991951384	2.328327	1.5258856
20.50156678379548	2.3443618	1.5311309
20.519378076283708	2.3650563	1.537874
20.537189869888635	2.3535023	1.5341128
20.55500216508294	2.3435123	1.5308535
20.572814962339415	2.358064	1.5355989
20.59062826213098	2.3493562	1.532761
20.60844206493066	2.3300257	1.5264422
20.626256371211593	2.293542	1.5144445
20.644071181447032	2.336697	1.5286258
20.66188649611036	2.3833191	1.5438002
20.67970231567506	2.3971865	1.548285
20.697518640614742	2.3758075	1.5413655
20.715335471403122	2.3533237	1.5340546
20.73315280851404	2.3343792	1.5278676
20.750970652421447	2.3316622	1.5269781
20.768789003599412	2.333278	1.5275071
20.786607862522136	2.311423	1.5203365
20.8044272296639	2.2697659	1.5065742
20.82224710549913	2.245374	1.4984572
20.84006749050237	2.25256	1.5008531
20.857888385148268	3.8361857	1.9586183
20.8757097899116	45.95783	6.7792206
20.893531705267254	64.81933	8.051045
20.911354131690224	83.84802	9.156857
20.92917706965566	69.10915	8.313191
20.94700051963877	50.162926	7.082579
20.96482448211493	29.41096	5.4231873
20.982648957559622	4.138537	2.0343394
21.00047394644843	2.185459	1.4783298
21.01829944925707	2.1713388	1.4735464
21.036125466461375	2.2148573	1.4882396
21.053951998537297	2.2614815	1.5038223
21.071779045960906	2.2902918	1.513371
21.089606609208378	2.26087	1.503619
21.10743468875603	2.250055	1.5000184
21.12526328508028	2.22223	1.4907146
21.143092398657675	2.2284124	1.4927868
21.16092202996488	2.2261107	1.4920156
21.17875217947867	2.2062123	1.4853324
21.19658284767596	2.1828258	1.4774389
21.21441403503377	2.164355	1.4711747
21.232245742029225	2.1836467	1.4777167
21.2500779691396	2.2232041	1.4910413
21.26791071684227	2.230627	1.4935284
21.28574398561475	2.209411	1.4864087
21.30357777593465	2.1464376	1.4650726
21.321412088279704	2.1112072	1.4529994
21.339246923127792	2.112067	1.4532952
21.357082280956888	2.1218812	1.4566679
21.3749181622451	2.1234303	1.4571995
21.392754567470647	2.097411	1.4482441
21.41059149711187	2.0723727	1.4395738
21.42842895164726	2.0766482	1.441058
21.446266931555378	2.1158333	1.4545904
21.464105437314945	2.138347	1.4623088
21.481944469404798	2.1481357	1.465652
21.49978402830388	2.1224468	1.456862
21.51762411449127	2.0933838	1.446853
21.53546472844617	2.0833418	1.4433786
21.553305870647876	2.1184702	1.4554965
21.571147541575865	2.1291978	1.4591771
21.58898974170967	2.082213	1.4429874
21.60683247152899	2.0605059	1.4354463
21.62467573151363	2.081112	1.442606
21.642519522143523	2.0677752	1.4379761
21.660363843898722	2.0251997	1.4230951
21.6782086972594	2.0176473	1.4204391
21.696054082705864	2.0521436	1.4325305
21.713900000718535	2.060002	1.4352708
21.73174645177795	2.033848	1.4261304
21.749593436364794	2.0139375	1.4191326
21.767440954959845	2.0088594	1.4173424
21.785289008044032	2.0364969	1.4270588
21.803137596098388	2.0220506	1.4219882
21.820986719604086	2.0362961	1.4269885
21.838836379042412	2.0123975	1.41859
21.85668657489478	2.0329583	1.4258184
21.87453730764273	2.0360522	1.426903
21.892388577767914	2.0499861	1.4317772
21.91024038575213	2.009928	1.4177192
21.928092732077285	2.020579	1.4214708
21.945945617225426	2.0222392	1.4220545
21.963799041678694	2.0041664	1.4156858
21.981653005919398	31.30221	5.5948377
21.999507510429943	78.099304	8.837381
22.01736255569286	73.08451	8.548948
22.035218142190818	4.1765966	2.0436723
22.05307427040661	2.0059292	1.4163083
22.07093094082315	1.9972905	1.4132553
22.088788153923474	1.9805399	1.4073166
22.106645910190746	1.9989805	1.413853
22.12450421010827	2.0016937	1.4148122
22.142363054159464	2.004875	1.4159361
22.16022244282787	1.9747031	1.4052413
22.178082376597164	1.9697533	1.403479
22.195942855951145	1.9544439	1.3980143
22.213803881373742	1.9461354	1.3950396
22.231665453349002	1.968963	1.4031974
22.24952757236111	1.9469606	1.3953353
22.26739023889438	1.9357942	1.3913282
22.28525345343323	1.9387575	1.3923928
22.30311721646225	1.9492285	1.3961477
22.320981528466113	1.9600523	1.4000187
22.33884638992964	1.9525949	1.3973528
22.356711801337788	1.9761441	1.405754
22.37457776317561	1.966796	1.402425
22.392444275928337	1.9653503	1.4019095
22.410311340081282	1.9705418	1.4037598
22.428178956119904	1.9697589	1.403481
22.446047124529805	1.9562348	1.3986547
22.46391584579669	1.9649476	1.4017658
22.481785120406414	1.9687496	1.4031214
22.49965494884496	1.9957024	1.4126933
22.51752533159841	2.0119536	1.4184335
22.53539626915302	1.9919075	1.4113495
22.553267761995137	1.9670331	1.4025096
22.571139810611264	1.9317412	1.389871
22.589012415488025	1.9344279	1.3908371
22.60688557711216	1.9627705	1.400989
22.624759295970566	1.9610304	1.400368
22.642633572550263	1.9637046	1.4013225
22.660508407338362	1.9622953	1.4008195
22.67838380082217	1.9488667	1.3960181
22.696259753489077	1.9275498	1.3883623
22.714136265826614	1.8869777	1.3736731
22.73201333832246	1.9074876	1.3811183
22.74989097146439	1.9254961	1.3876225
22.76776916574035	1.9641436	1.4014791
22.785647921638393	1.9658445	1.4020858
22.803527239646712	1.9552915	1.3983173
22.82140712025363	1.9432343	1.3939995
22.839287563947593	1.9330784	1.3903519
22.85716857121719	1.9101042	1.3820652
22.875050142551135	1.8948234	1.3765259
22.892932278438277	1.892851	1.3758092
22.910814979367604	1.882753	1.3721344
22.928698245828222	1.8577619	1.3629974
22.946582078309387	1.8564804	1.3625273
22.96446647730047	1.8606952	1.364073
22.98235144329098	1.8891429	1.3744609
23.000236976770562	1.8895745	1.3746179
23.018123078229	1.9171541	1.3846133
23.03600974815619	1.922785	1.3866452
23.053896987042194	1.9229407	1.3867013
23.071784795377173	1.924731	1.3873467
23.08967317365145	1.9021692	1.3791915
23.10756212235546	1.8978151	1.3776121
23.125451641979787	1.8759695	1.3696604
23.143341733015134	1.9031056	1.3795309
23.161232395952357	1.9141619	1.3835324
23.179123631282426	1.9189241	1.3852524
23.197015439496468	1.9243729	1.3872176
23.214907821085717	1.920794	1.3859271
23.23280077654157	1.9063529	1.3807074
23.250694306355538	1.892128	1.3755465
23.268588411019277	1.9313318	1.3897237
23.28648309102458	1.9689424	1.4031901
23.304378346863356	1.9646704	1.401667
23.322274179027676	1.9146113	1.3836948
23.340170588009723	1.91702	1.3845649
23.358067574301852	1.9182131	1.3849957
23.37596513839651	1.8979754	1.3776703
23.39386328078629	1.8734503	1.3687404
23.411762001963947	1.91528	1.3839364
23.429661302422353	1.9465907	1.3952028
23.4475611826545	1.9787196	1.4066697
23.46546164315356	1.9580654	1.3993089
23.48336268441279	1.9496337	1.3962928
23.501264306925638	1.8923889	1.3756412
23.51916651118564	1.898903	1.3780069
23.537069297686497	1.9244912	1.3872603
23.554972666922037	1.9527067	1.3973929
23.57287661938623	1.9645005	1.4016064
23.59078115557318	1.9459133	1.3949599
23.608686275977128	1.9356896	1.3912907
23.62659198109246	1.9254416	1.3876028
23.6444982714137	1.9506326	1.3966504
23.66240514743549	1.9475179	1.395535
23.68031260965263	1.9245243	1.3872722
23.698220658560068	1.9163532	1.3843241
23.716129294652845	1.9105697	1.3822336
23.7340385184262	1.9240458	1.3870997
23.75194833037546	1.9263425	1.3879274
23.769858730996123	1.9065285	1.3807709
23.78776972078382	1.8863009	1.3734267
23.80568130023431	1.8911724	1.3751991
23.823593469843495	1.882667	1.3721031
23.841506230107424	1.8758366	1.3696119
23.859419581522275	1.844011	1.3579437
23.87733352458438	1.8425269	1.3573971
23.89524805979019	1.8404604	1.3566357
23.913163187636318	1.8685586	1.3669523
23.931078908619508	1.9057144	1.3804761
23.948995223236633	1.9249325	1.3874193
23.966912131984735	1.9505935	1.3966365
23.98482963536096	1.9871501	1.4096631
24.002747733862616	2.0317454	1.4253931
24.020666427987155	2.0142932	1.419258
24.038585718232156	2.031666	1.4253652
24.056505605095353	2.0410857	1.4286658
24.074426089074617	2.0914516	1.4461852
24.092347170667946	2.0778391	1.4414712
24.110268850373515	2.0714355	1.4392482
24.128191128689586	2.0544052	1.4333197
24.146114006114626	2.0673423	1.4378256
24.164037483147187	2.075867	1.440787
24.181961560286005	2.0790381	1.441887
24.199886238029926	2.068014	1.4380591
24.21781151687797	2.0984457	1.4486012
24.235737397329274	2.0742261	1.4402174
24.253663879883135	2.0574796	1.4343917
24.271590965038975	2.0677161	1.4379555
24.289518653296376	2.0491486	1.4314847
24.30744694515505	2.028326	1.4241931
24.32537584111486	1.9965235	1.4129839
24.34330534167581	1.9916894	1.4112723
24.361235447338046	1.994345	1.4122127
24.379166158601876	2.019317	1.4210267
24.39709747596772	2.0589695	1.434911
24.41502939993615	2.0897384	1.4455928
24.432961931007917	2.047825	1.4310224
24.450895069683856	1.939537	1.3926727
24.468828816465	1.8801711	1.3711933
24.4867631718525	1.8989339	1.3780181
24.504698136347656	1.977609	1.4062749
24.52263371045192	2.00881	1.417325
24.540569894666874	2.0128584	1.4187524
24.558506689494266	2.0160513	1.4198772
24.57644409543597	1.9918345	1.4113237
24.594382112994012	1.9476185	1.395571
24.61232074267057	1.9411604	1.3932554
24.630259984967953	1.9456974	1.3948826
24.64819984038863	1.9494901	1.3962414
24.66614030943522	1.9470414	1.3953643
24.684081392610462	1.9250677	1.3874681
24.702023090417274	1.9551533	1.398268
24.7199654033587	1.9903969	1.4108143
24.737908331937927	2.0267527	1.4236406
24.755851876658305	2.0000322	1.414225
24.773796038023324	2.0173082	1.4203198
24.79174081653661	2.034133	1.4262303
24.809686212701962	2.079571	1.4420718
24.827632227023294	2.1080441	1.4519105
24.8455788600047	2.1122427	1.4533557
24.8635261121504	2.0923214	1.4464859
24.88147398396475	2.082312	1.4430219
24.899422475952303	2.1029654	1.4501605
24.917371588617698	2.1088936	1.452203
24.935321322465768	2.1521206	1.4670107
24.953271678001478	2.2775986	1.5091715
24.97122265572994	2.5261421	1.5893842
24.989174256156414	2.846792	1.6872439
25.00712647978632	3.2399664	1.7999907
25.02507932712521	3.796872	1.9485563
25.043032798678798	4.382349	2.093406
25.060986894952933	5.064544	2.2504542
25.078941616453637	5.798178	2.4079406
25.096896963687055	6.7790055	2.6036522
25.114852937159508	8.014205	2.8309371
25.132809537377444	8.441595	2.9054422
25.150766764847468	8.456525	2.9080105
25.168724620076347	7.8501644	2.8018146
25.186683103570985	6.889339	2.6247551
25.204642215838426	5.6701927	2.3812168
25.222601957385894	4.273904	2.0673423
25.24056232872074	3.1854377	1.7847794
25.25852333035048	2.5878296	1.6086732
25.276484962782778	2.2523746	1.5007913
25.294447226525435	2.0662706	1.4374528
25.312410122086423	1.9570047	1.3989298
25.330373649973843	1.9381067	1.392159
25.348337810695988	1.9626633	1.4009509
25.366302604761245	1.9347756	1.3909621
25.384268032678207	1.9142603	1.3835679
25.40223409495558	1.9506897	1.3966709
25.420200792102257	1.9573183	1.3990419
25.438168124627246	1.9412868	1.3933007
25.45613609303974	1.8856213	1.3731793
25.474104697849057	1.8454142	1.3584602
25.492073939564698	1.8516397	1.3607497
25.510043818696285	1.8913327	1.3752574
25.528014335753614	1.8885798	1.3742561
25.54598549124664	1.8245676	1.3507656
25.56395728568544	1.8089534	1.3449733
25.58192971958028	1.8255991	1.3511473
25.59990279344156	1.8377571	1.355639
25.617876507779833	1.8377347	1.3556308
25.635850863105826	1.864806	1.365579
25.653825859930386	1.8874339	1.3738391
25.671801498764548	1.8669542	1.3663653
25.68977778011949	1.840776	1.356752
25.707754704506524	1.8605876	1.3640336
25.725732272437153	1.8745438	1.3691398
25.743710484423012	1.8866913	1.3735688
25.761689340975888	1.8923682	1.3756337
25.77966884260774	1.9163548	1.3843247
25.797648989830662	1.8895574	1.3746117
25.815629783156922	1.8835354	1.3724196
25.83361122309895	1.8796082	1.370988
25.85159331016929	1.8569173	1.3626875
25.869576044880695	1.8288574	1.3523525
25.887559427746034	1.781032	1.3345531
25.90554345927836	1.8019705	1.3423749
25.92352813999086	1.8379096	1.3556952
25.94151347039689	1.8194157	1.3488572
25.959499451009965	1.8212276	1.3495287
25.97748608234374	1.8512231	1.3605967
25.995473364912062	1.8471255	1.35909
26.013461299228904	1.8376687	1.3556064
26.03144988580839	1.8173369	1.3480864
26.04943912516483	1.8344413	1.3544155
26.067429017812675	1.8407189	1.3567309
26.085419564266537	1.8300704	1.352801
26.103410765041186	1.8190268	1.348713
26.12140262065155	1.8381969	1.3558012
26.139395131612723	1.7997553	1.3415496
26.157388298439948	1.7981856	1.3409644
26.17538212164861	1.8011426	1.3420665
26.193376601754295	1.8067912	1.3441694
26.211371739272714	1.7932006	1.3391044
26.229367534719746	1.7853307	1.3361627
26.247363988611433	1.8154706	1.347394
26.26536110146397	1.8532081	1.3613259
26.283358873793727	1.8850332	1.3729651
26.301357306117204	1.8926165	1.375724
26.319356398951104	1.873001	1.3685763
26.33735615281224	1.8459076	1.3586419
26.35535656821762	1.8490406	1.3597944
26.373357645684404	1.8624339	1.3647102
26.39135938572991	1.8519936	1.3608797
26.409361788871614	1.8408933	1.3567952
26.427364855627165	1.7810872	1.3345737
26.445368586514352	1.7703938	1.3305615
26.46337298205115	1.7741375	1.3319675
26.48137804275568	1.7982035	1.3409711
26.499383769146217	1.7929659	1.3390168
26.517390161741215	1.7847804	1.3359567
26.53539722105928	1.745123	1.3210311
26.553404947619182	1.7141122	1.309241
26.571413341939856	1.7668734	1.3292379
26.589422404540397	1.8589466	1.3634319
26.60743213594006	1.8723366	1.3683336
26.62544253665827	1.8569486	1.362699
26.64345360721459	1.8313363	1.3532687
26.66146534812879	1.8619741	1.3645418
26.679477759920758	1.8173782	1.3481017
26.69749084311057	1.7829962	1.3352888
26.71550459821847	1.7765691	1.33288
26.733519025764842	1.7984998	1.3410816
26.751534126270258	1.7608603	1.3269742
26.769549900255434	1.748764	1.3224084
26.787566348241267	1.7359773	1.317565
26.80558347074881	1.7707798	1.3307065
26.823601268299267	1.7910521	1.3383019
26.841619741414036	1.8046297	1.3433651
26.85963889061465	1.8188858	1.3486607
26.877658716422832	1.8411603	1.3568937
26.89567921936045	1.8511256	1.3605608
26.913700399949544	1.8231895	1.3502554
26.93172225871233	1.8187599	1.3486141
26.949744796171174	1.8296508	1.3526459
26.967768012848605	1.7787609	1.333702
26.98579190926733	1.8132117	1.3465555
27.003816485950225	1.8583136	1.3631997
27.021841743420318	1.8838035	1.3725172
27.039867682200814	1.870925	1.3678176
27.057894302815072	1.870953	1.3678278
27.07592160578664	1.821487	1.3496248
27.0939495916392	1.7893584	1.337669
27.111978260896635	1.7878809	1.3371166
27.13000761408296	1.791905	1.3386205
27.148037651722397	1.7864045	1.3365644
27.166068374339304	1.7721411	1.3312179
27.184099782458215	1.7897537	1.3378167
27.20213187660384	1.7808053	1.3344682
27.22016465730105	1.7935953	1.3392518
27.23819812507487	1.8122207	1.3461875
27.256232280450533	1.8674831	1.3665589
27.274267123953383	1.855441	1.3621458
27.292302656108987	1.8195529	1.3489081
27.31033887744306	1.7835318	1.3354894
27.32837578848146	1.7276541	1.3144026
27.34641338975026	1.7218419	1.3121897
27.364451681775673	1.7402442	1.3191831
27.382490665084074	1.7253897	1.3135409
27.400530340202046	1.7345941	1.3170398
27.41857070765629	1.7783238	1.333538
27.436611767973726	1.8208188	1.3493772
27.454653521681404	1.8106753	1.3456134
27.472695969306564	1.8223127	1.3499306
27.490739111376627	1.8211789	1.3495107
27.508782948419153	1.8329729	1.3538733
27.526827480961902	1.8293802	1.3525459
27.54487270953279	1.823446	1.3503504
27.562918634659898	1.807052	1.3442663
27.580965256871508	1.8138057	1.346776
27.599012576696026	1.7935139	1.3392214
27.617060594662068	1.7638242	1.3280904
27.63510931129842	1.7788699	1.3337429
27.65315872713401	1.8319181	1.3534837
27.67120884269797	1.8248059	1.3508538
27.68925965851958	1.8157717	1.3475057
27.707311175128307	1.8121272	1.3461528
27.725363393053787	1.838913	1.3560653
27.74341631282583	1.8659129	1.3659842
27.7614699349744	1.8824989	1.3720418
27.77952426002968	2.0245419	1.422864
27.797579288521973	2.0875058	1.4448203
27.815635020981784	2.4756007	1.5734042
27.83369145793979	2.498295	1.5805995
27.85174859992682	2.3344824	1.5279013
27.869806447473923	2.254553	1.5015169
27.887865001112267	1.9775943	1.4062697
27.905924261373233	1.8798659	1.3710821
27.92398422878836	1.8908669	1.375088
27.94204490388936	1.9065152	1.3807662
27.96010628720813	1.8988799	1.3779985
27.978168379276728	1.8403746	1.3566041
27.9962311806274	1.8481845	1.3594794
28.014294691792568	1.8738717	1.3688943
28.0323589133048	1.8619444	1.3645308
28.050423845696887	1.8288643	1.3523551
28.068489489501758	1.8424743	1.3573778
28.086555845252523	1.8362141	1.3550698
28.104622913482487	1.838873	1.3560505
28.122690694725115	1.8397337	1.3563678
28.14075918951405	1.8680128	1.3667526
28.15882839838312	1.891927	1.3754734
28.176898321866304	1.9203526	1.3857678
28.1949689604978	1.8781977	1.3704735
28.213040314811945	1.8189456	1.3486829
28.23111238534327	1.7901478	1.337964
28.249185172626493	1.8230383	1.3501993
28.267258677196473	1.8838558	1.3725363
28.285332899588294	1.9215468	1.3861986
28.303407840337172	1.9323926	1.3901052
28.321483499978545	1.9300823	1.389274
28.33955987904799	1.9324118	1.3901122
28.357636978081285	1.9383564	1.3922486
28.37571479761439	1.9019133	1.3790988
28.393793338183425	1.8892236	1.3744903
28.41187260032469	1.8734211	1.3687297
28.429952584574686	1.9449127	1.3946012
28.448033291470065	1.975349	1.4054711
28.46611472154769	2.0234323	1.422474
28.484196875344566	2.0348685	1.4264882
28.502279753397914	1.9959345	1.4127754
28.52036335624511	1.9471165	1.3953911
28.538447684423716	1.9028671	1.3794445
28.556532738471482	1.9103012	1.3821365
28.574618518926325	1.9559585	1.3985559
28.59270502632635	1.9986005	1.4137187
28.61079226120985	2.0205817	1.4214717
28.628880224115274	2.0107925	1.4180242
28.646968915581287	1.9888732	1.4102741
28.66505833614671	2.0404708	1.4284505
28.68314848635055	2.070218	1.4388252
28.701239366732004	2.0507448	1.4320421
28.71933097783044	2.0852916	1.4440539
28.737423320185403	2.1229565	1.4570369
28.75551639433665	2.0852778	1.4440491
28.773610200824074	2.0850732	1.4439783
28.791704740187793	2.1346028	1.461028
28.80980001296809	2.149093	1.4659785
28.827896019705413	2.146265	1.4650136
28.845992760940433	2.181666	1.4770464
28.86409023721397	2.1675372	1.4722558
28.88218844906704	2.1604748	1.4698553
28.900287397040845	2.2064772	1.4854215
28.918387081676755	2.2478254	1.499275
28.936487503516343	2.2383912	1.4961253
28.954588663101365	2.1935294	1.4810568
28.97269056097374	2.2588696	1.5029536
28.990793197675597	2.3578217	1.53552
29.00889657374923	2.37492	1.5410775
29.027000689737125	2.3551638	1.5346543
29.04510554618196	2.3863914	1.5447949
29.06321114362659	2.4076457	1.551659
29.08131748261405	2.4268942	1.5578492
29.099424563687567	2.475259	1.5732956
29.11753238739057	2.5154405	1.586014
29.13564095426663	2.4991093	1.5808572
29.15375026485954	2.517506	1.586665
29.171860319713275	2.544537	1.5951605
29.18997111937199	2.6202664	1.6187238
29.20808266438002	2.7035427	1.6442454
29.226194955281898	2.8037982	1.6744546
29.244307992622335	2.84781	1.6875455
29.26242177694624	2.8338995	1.683419
29.2805363087987	2.8894713	1.6998445
29.29865158872498	2.9177687	1.7081478
29.316767617270557	2.9859655	1.7279947
29.334884394981064	3.0582542	1.7487864
29.353001922402367	3.0598552	1.7492442
29.37112020008047	3.05482	1.7478044
29.389239228561596	3.0838063	1.7560769
29.407359008392152	3.313204	1.8202208
29.42547954011872	3.7063737	1.9251945
29.44360082428809	4.3051295	2.0748806
29.46172286144722	5.36933	2.3171813
29.479845652143283	7.0029874	2.6463158
29.497969196923606	9.16152	3.0268004
29.516093496335728	11.727456	3.4245374
29.5342185509274	14.618669	3.8234367
29.55234436124651	16.99862	4.122938
29.570470927841175	18.472431	4.2979565
29.588598251259686	18.380291	4.2872243
29.60672633205055	17.025848	4.126239
29.624855170762405	14.728835	3.8378165
29.642984767944146	11.863885	3.444399
29.66111512414481	8.942012	2.9903197
29.67924623991366	6.5504217	2.559379
29.697378115800138	4.9575267	2.2265503
29.71551075235387	4.0257826	2.0064354
29.733644150124675	3.6288702	1.9049594
29.751778309662576	3.4764473	1.8645234
29.769913231517766	3.4126134	1.847326
29.78804891624066	3.3805804	1.8386354
29.806185364381818	3.3829875	1.8392899
29.82432257649206	3.3464851	1.8293401
29.842460553122333	3.290255	1.8139061
29.86059929482382	3.2455795	1.8015492
29.878738802147872	3.295573	1.8153713
29.896879075646048	3.255041	1.8041732
29.915020115870114	3.2525096	1.8034716
29.933161923371976	3.2929533	1.8146496
29.951304498703777	3.2720745	1.8088876
29.969447842417857	3.2167993	1.7935438
29.987591955066733	3.2287264	1.7968657
30.005736837203123	3.322705	1.8228289
30.023882489379943	3.2985756	1.8161981
30.04202891215028	3.222622	1.7951663
30.060176106067455	3.2045655	1.79013
30.078324071684946	3.169479	1.780303
30.09647280955646	3.1057296	1.762308
30.114622320235863	3.086866	1.7569479
30.132772604277257	3.076352	1.7539532
30.1509236622349	3.0786493	1.754608
30.16907549466328	3.0762079	1.7539122
30.18722810211705	3.106769	1.7626029
30.205381485151097	3.1246054	1.7676554
30.22353564432045	3.102947	1.7615184
30.241690580180403	3.0594964	1.7491416
30.25984629328638	3.0432806	1.7445002
30.278002784194037	2.9934876	1.7301698
30.296160053459246	2.9317527	1.7122362
30.314318101638033	2.9308598	1.7119755
30.332476929286646	3.020498	1.737958
30.35063653696153	2.9757566	1.7250382
30.368796925219307	2.9087021	1.7054918
30.386958094616844	2.9039817	1.7041073
30.40512004571115	2.9030738	1.7038409
30.423282779059463	2.9223197	1.7094793
30.441446295219233	2.9675026	1.7226441
30.459610594748067	2.945011	1.7161034
30.47777567820382	2.7935777	1.6714
30.495941546144504	2.7427762	1.6561329
30.51410819912835	2.7443395	1.6566048
30.532275637713795	2.809514	1.6761605
30.55044386245946	2.8443959	1.6865337
30.56861287392416	2.8651533	1.6926764
30.586782672666956	2.7901723	1.670381
30.604953259247047	2.6955621	1.6418167
30.623124634223885	2.7267513	1.6512878
30.641296798157075	2.7401938	1.6553531
30.659469751606462	2.7036967	1.6442921
30.677643495132074	2.689219	1.6398839
30.695818029294152	2.6853626	1.6387076
30.713993354653116	2.6927252	1.6409525
30.73216947176962	2.6817458	1.6376036
30.75034638120448	2.6461442	1.6266973
30.768524083518756	2.7033641	1.644191
30.786702579273673	2.7680316	1.6637403
30.80488186903069	2.8396206	1.6851174
30.82306195335144	2.9617627	1.7209772
30.841242832797782	3.117125	1.7655382
30.85942450793176	3.3757408	1.8373189
30.877606979315637	3.727675	1.9307188
30.895790247511883	4.1432385	2.0354946
30.913974313083134	4.664959	2.1598516
30.932159176592283	4.996926	2.2353804
30.95034483860237	4.9557457	2.2261505
30.968531299676698	4.6514387	2.1567194
30.98671856037873	4.317661	2.0778983
31.00490662127215	4.001978	2.0004945
31.023095482920848	3.6940675	1.9219958
31.04128514588892	3.2654068	1.8070437
31.059475610740662	2.9021704	1.7035757
31.07766687804056	2.6443908	1.6261584
31.09585894835335	2.494618	1.579436
31.11405182224393	2.4343958	1.560255
31.132245500277417	2.506911	1.5833228
31.15043998301914	2.4911141	1.5783263
31.168635271034628	2.4651024	1.5700644
31.18683136488964	2.3816843	1.5432707
31.20502826515008	2.3331532	1.5274663
31.223225972382135	2.3409643	1.5300211
31.241424487152155	2.4013693	1.5496352
31.259623810026692	2.5230103	1.5883987
31.27782394157253	2.5082166	1.583735
31.296024882356644	2.4306448	1.5590525
31.314226632946237	2.450085	1.5652747
31.332429193908684	2.4343448	1.5602387
31.350632565811598	2.4183424	1.555102
31.368836749222787	2.3976665	1.54844
31.387041744710295	2.3874676	1.5451432
31.40524755284232	2.450387	1.5653712
31.423454174187317	2.4972646	1.5802736
31.441661609313922	2.4853835	1.57651
31.459869858791002	2.5022197	1.5818406
31.478078923187628	2.519936	1.5874306
31.496288803073064	2.4763682	1.5736481
31.514499499016807	2.3428488	1.5306367
31.532711011588546	2.2165012	1.4887918
31.550923341358178	2.1687715	1.472675
31.56913648889584	2.1978037	1.4824991
31.587350454771844	2.2925224	1.5141078
31.605565239556732	2.3682828	1.5389227
31.62378084382127	2.326643	1.5253338
31.641997268136382	2.2651913	1.5050553
31.660214513073274	2.3200874	1.5231833
31.67843257920331	2.384945	1.5443267
31.6966514670981	2.4145	1.5538661
31.71487117732944	2.402516	1.5500051
31.733091710469346	2.3884819	1.5454714
31.751313067090052	2.3512692	1.5333849
31.769535247764008	2.3578112	1.5355166
31.787758253063878	2.2818801	1.5105894
31.805982083562526	2.2256534	1.4918624
31.824206739833024	2.1819272	1.4771348
31.84243222244869	2.1905599	1.480054
31.860658531983013	2.190681	1.4800949
31.878885669009737	2.2190464	1.4896464
31.897113634102784	2.2516484	1.5005493
31.91534242783632	2.3003712	1.5166974
31.933572050784694	2.2770076	1.5089756
31.951802503522508	2.1685905	1.4726135
31.970033786624548	2.0557833	1.4338003
31.988265900665834	2.0359464	1.4268659
32.006498846221575	2.0464263	1.4305335
32.02473262386724	2.0979362	1.4484254
32.04296723417845	2.1263208	1.4581909
32.0612026777311	2.2113726	1.4870684
32.07943895510129	2.1935833	1.481075
32.097676066865304	2.171646	1.4736506
32.115914013599685	2.2481582	1.499386
32.13415279588115	2.31118	1.5202566
32.152392414286666	2.2306936	1.4935507
32.1706328693934	2.15423	1.4677296
32.18887416177875	2.1335435	1.4606655
32.20711629202032	2.1389327	1.462509
32.225359260695924	2.1894703	1.4796859
32.243603068383614	2.1730452	1.4741253
32.26184771566166	2.1479151	1.4655768
32.28009320310852	2.189963	1.4798524
32.2983395313029	2.1987808	1.4828286
32.31658670082372	2.1170225	1.4549991
32.33483471225012	2.1425927	1.4637598
32.35308356616143	2.1053507	1.4509827
32.371333263137245	2.0687652	1.4383203
32.38958380375734	2.0631988	1.436384
32.407835188601744	2.088894	1.4453006
32.42608741825067	2.0390441	1.427951
32.444340493284585	2.0413258	1.4287497
32.46259441428416	2.029689	1.4246715
32.48084918183028	2.033818	1.4261199
32.49910479650405	2.0569968	1.4342234
32.51736125888683	2.0827231	1.4431642
32.53561856956014	2.0574758	1.4343904
32.5538767291058	2.029478	1.4245975
32.572135738105764	2.0065913	1.416542
32.59039559714228	2.0350242	1.4265428
32.608656306797776	2.0253758	1.423157
32.62691786765491	2.0243602	1.4228001
32.645180280296586	2.014339	1.4192741
32.663443545305896	2.0189052	1.4208819
32.68170766326619	1.9560822	1.3986001
32.69997263476099	1.946353	1.3951175
32.7182384603741	1.9942462	1.4121778
32.7365051406895	2.0171988	1.4202813
32.75477267629144	1.9474548	1.3955123
32.77304106776434	1.9074771	1.3811145
32.79131031569289	1.8422755	1.3573045
32.809580420661966	1.8502125	1.3602252
32.827851383256714	1.8669528	1.3663648
32.84612320406245	1.9165407	1.3843918
32.86439588366476	1.9103315	1.3821474
32.88266942264945	1.9495819	1.3962743
32.9009438216025	2.0114927	1.4182711
32.9192190811102	2.004834	1.4159216
32.937495201758985	2.0154037	1.4196491
32.95577218413556	2.0493026	1.4315386
32.974050028826866	2.0377622	1.427502
32.992328736420035	1.9994264	1.4140108
33.010608307502444	1.9697337	1.4034721
33.02888874266169	2.0103748	1.4178768
33.047170042485604	2.043487	1.4295058
33.06545220756225	2.042229	1.4290657
33.083735238479896	2.0438757	1.4296418
33.10201913582707	2.0108058	1.4180288
33.12030390019248	1.991097	1.4110624
33.138589532165135	2.0292645	1.4245225
33.15687603233419	2.051145	1.432182
33.17516340128909	2.0876715	1.4448776
33.19345163961947	1.9544889	1.3980304
33.211740747915215	1.8478405	1.359353
33.23003072676643	1.8843039	1.3726995
33.248321576763466	1.9777449	1.4063232
33.266613298496885	2.0525973	1.4326888
33.28490589255747	2.0016143	1.4147842
33.30319935953626	1.8952341	1.376675
33.32149370002451	1.8124481	1.346272
33.339788914613706	1.816635	1.347826
33.358085003895575	1.876393	1.369815
33.376381968462034	1.8836216	1.372451
33.39467980890529	1.8460814	1.3587058
33.41297852581774	1.8477753	1.359329
33.43127811979204	1.9312422	1.3896915
33.44957859142105	1.8990779	1.3780704
33.467879941297866	1.8793948	1.3709102
33.486182170015844	1.9073226	1.3810586
33.50448527816853	2.0064456	1.4164906
33.522789266349754	1.9922026	1.4114541
33.541094135153514	1.9395694	1.3926842
33.55939988517411	1.8851727	1.3730159
33.57770651700602	1.8659847	1.3660105
33.59601403124398	1.8598495	1.363763
33.61432242848296	1.940518	1.3930248
33.632631709318154	1.9731481	1.4046879
33.650941874344994	1.9195867	1.3854915
33.66925292415916	1.9547518	1.3981245
33.68756485935654	1.9644399	1.4015847
33.70587768053328	1.934269	1.39078
33.724191388285746	1.8743117	1.369055
33.74250598321054	1.8811253	1.3715413
33.760821465904506	1.9397984	1.3927665
33.77913783696474	1.9960132	1.4128033
33.79745509698852	1.9863012	1.409362
33.815773246573414	1.9522319	1.3972229
33.8340922863172	1.9599954	1.3999983
33.852412216817896	2.1096961	1.4524794
33.87073303867377	2.1367788	1.4617724
33.889054752483304	2.0314443	1.4252875
33.907377358845245	1.9285425	1.3887197
33.92570085835853	1.9127753	1.3830312
33.94402525162239	1.95729	1.3990319
33.96235053923627	1.9587704	1.3995608
33.980676721799824	1.9610893	1.400389
33.999003799912984	1.9387232	1.3923804
34.01733177417592	1.9395345	1.3926717
34.03566064518901	2.0238962	1.4226371
34.0539904135529	2.0613747	1.4357488
34.07232107986846	2.0430796	1.4293634
34.090652644736785	2.1179943	1.4553331
34.108985108759235	2.0721605	1.4395001
34.12731847253742	1.929288	1.3889881
34.14565273667313	1.8729157	1.3685452
34.16398790176847	1.9674394	1.4026544
34.18232396842574	1.9795113	1.4069511
34.20066093724749	2.014874	1.4194626
34.21899880883651	2.1098702	1.4525392
34.23733758379583	2.054254	1.4332669
34.25567726272874	1.9979671	1.4134947
34.27401784623872	1.9451216	1.3946762
34.29235933492957	1.9920218	1.4113901
34.31070172940526	1.9601449	1.4000517
34.32904503027003	1.9583299	1.3994035
34.347389238128386	2.0385194	1.4277673
34.36573435358502	2.004412	1.4157726
34.38408037724492	1.8881304	1.3740926
34.402427309713296	1.9387336	1.3923842
34.42077515159559	2.129381	1.4592398
34.43912390349752	2.0996501	1.4490169
34.45747356602499	1.8524387	1.3610432
34.47582413978423	1.918431	1.3850744
34.49417562538163	2.060772	1.4355389
34.51252802342388	2.068131	1.4380997
34.53088133451789	1.9309397	1.3895825
34.54923555927084	1.9042777	1.3799556
34.567590698290104	1.9672146	1.4025743
34.58594675218336	2.0091941	1.4174604
34.6043037215585	1.9902095	1.4107479
34.62266160702365	2.1012506	1.4495691
34.641020409187234	2.0301704	1.4248405
34.65938012865785	1.9170141	1.3845628
34.677740766044394	1.9481235	1.395752
34.69610232195598	1.9438597	1.3942237
34.714464797002016	1.85691	1.3626848
34.73282819179208	2.142865	1.4638528
34.751192506936064	2.1663642	1.4718574
34.76955774304408	2.0260909	1.4234082
34.7879239007265	1.8702786	1.3675812
34.80629098059391	1.8049556	1.3434863
34.824658983257194	1.8785882	1.370616
34.843027909327446	1.7821736	1.3349807
34.86139775941603	1.7429712	1.3202163
34.879768534134534	1.9007941	1.3786929
34.89814023409483	2.0632243	1.4363928
34.91651285990901	2.160877	1.4699922
34.93488641218944	2.2628202	1.5042673
34.95326089154871	2.2618032	1.5039293
34.97163629859967	2.0612106	1.4356917
34.99001263395542	2.015054	1.419526
35.00838989822934	2.058586	1.4347773
35.02676809203499	2.0247905	1.4229513
35.04514721598624	1.9031543	1.3795485
35.063527270697215	1.7763618	1.3328023
35.081908256782256	1.7280114	1.3145385
35.10029017485597	2.058204	1.4346442
35.11867302553321	2.1097465	1.4524966
35.137056809429104	2.030196	1.4248494
35.155441527159006	1.9879628	1.4099513
35.173827179338524	2.0385752	1.4277868
35.19221376658354	2.131139	1.4598421
35.21060128951017	2.0813243	1.4426795
35.2289897487348	2.1053517	1.450983
35.24737914487405	2.1182864	1.4554334
35.26576947854479	2.0700932	1.4387819
35.28416075036418	2.0265124	1.4235562
35.30255296094958	1.8277321	1.3519365
35.32094611091867	1.833559	1.3540897
35.33934020088932	1.7368678	1.3179028
35.35773523147969	1.6927624	1.301062
35.3761312033082	2.025906	1.4233433
35.394528116993506	2.0136309	1.4190246
35.41292597315452	1.7129906	1.3088127
35.431324772410434	1.4182186	1.1908898
35.449724515380666	1.5022993	1.2256832
35.46812520268491	2.0153987	1.4196475
35.486526834943106	2.4397526	1.5619707
35.504929412775454	2.1151903	1.4543694
35.52333293680242	2.1014621	1.4496421
35.54173740764471	2.4037554	1.5504049
35.560142825923286	2.1779075	1.4757736
35.5785491922594	1.6119894	1.2696414
35.59695650727454	1.3029652	1.141475
35.61536477159042	1.1140177	1.0554703
