0.008763373481513119	0.0	0.0
0.026290120649546365	0.0	0.0
0.043816868432600686	0.0	0.0
0.06134361724069026	0.011486674	0.1071759
0.07887036748382949	0.09469616	0.3077274
0.0963971195720331	0.12556733	0.3543548
0.11392387391531617	0.21761356	0.4664907
0.1314506309236943	0.16215114	0.40267995
0.1489773910071836	0.1436246	0.37897837
0.16650415457580078	0.08103223	0.28466162
0.18403092203956356	0.051136967	0.22613484
0.20155769380849	0.06268224	0.2503642
0.2190844702925996	0.113812044	0.3373604
0.2366112519019124	0.11543149	0.3397521
0.2541380390464497	0.13516687	0.36765048
0.27166483213623416	0.12812907	0.3579512
0.28919163158128947	0.10059485	0.3171669
0.3067184377916406	0.11761088	0.3429444
0.324245251177314	0.116078354	0.34070274
0.34177207214833777	0.1398962	0.374027
0.3592989011147415	0.1396598	0.37371087
0.37682573848655654	0.11581891	0.34032178
0.39435258467381573	0.12637983	0.35549942
0.41187944008655414	0.09193165	0.30320233
0.42940630513480854	0.1353667	0.36792213
0.446933180228618	0.13629575	0.36918256
0.4644600657780234	0.15411113	0.3925699
0.48198696219306775	0.15931267	0.3991399
0.49951386988379676	0.13552116	0.368132
0.5170407892602581	0.116617985	0.34149376
0.5345677207325025	0.07822076	0.27967975
0.5520946647105822	0.092357226	0.3039033
0.5696216216045534	0.13145578	0.36256832
0.5871485918244737	0.14856729	0.38544428
0.6046755757804043	0.14582573	0.38187134
0.6222025738824094	0.111195676	0.33346015
0.6397295865405557	0.088879615	0.29812685
0.6572566141649129	0.10185281	0.31914386
0.6747836571655547	0.17819382	0.4221301
0.6923107159525568	0.21186657	0.46028966
0.7098377909359992	0.18008249	0.42436126
0.7273648825259653	0.17019959	0.41255254
0.7448919911325411	0.16061318	0.40076575
0.762419117165817	0.20196658	0.44940692
0.7799462610358868	0.22759955	0.47707394
0.7974734231528482	0.22623664	0.4756434
0.8150006039268024	0.18928376	0.43506753
0.8325278037678551	0.1749526	0.41827336
0.8500550230861152	0.19001624	0.43590853
0.8675822622916969	0.18919177	0.4349618
0.8851095217947171	0.18794283	0.43352374
0.9026368020052984	0.18894401	0.43467692
0.9201641033335665	0.20382465	0.45146945
0.9376914261896523	0.25157973	0.50157726
0.9552187709836915	0.28708372	0.53580195
0.9727461381258234	0.29118443	0.5396151
0.990273528026193	0.26606998	0.5158197
1.0078009410949496	0.21452527	0.4631687
1.0253283777422473	0.25532094	0.5052929
1.0428558383782454	0.28720215	0.53591245
1.0603833234131086	0.30575183	0.5529483
1.0779108332570058	0.31974953	0.565464
1.0954383683201119	0.33336017	0.5773735
1.112965929012607	0.42851797	0.65461284
1.1304935157446763	0.6104558	0.7813167
1.1480211289265108	0.639092	0.79943234
1.1655487689683062	1.3892493	1.1786642
1.1830764362802655	1.6025594	1.2659224
1.200604131272596	1.9552706	1.39831
1.2181318543555117	2.2237499	1.4912243
1.235659605939232	2.2175498	1.489144
1.253187386433982	3.6955314	1.9223765
1.270715196249994	6.0478373	2.4592352
1.2882430357975057	11.368657	3.371744
1.3057709054867608	16.124964	4.01559
1.3232988057280106	22.061094	4.6969237
1.3408267369315112	26.781313	5.1750665
1.358354699507526	30.388887	5.512612
1.3758826938663256	34.354084	5.8612356
1.3934107204181858	35.925205	5.993764
1.410938779573391	36.510754	6.0424128
1.4284668717422309	36.729847	6.0605154
1.4459949973350033	36.288612	6.024003
1.4635231567620117	36.43626	6.0362453
1.4810513504335687	36.29951	6.0249076
1.4985795787599925	35.926292	5.9938545
1.5161078421516088	35.640377	5.9699564
1.5336361410187505	34.74151	5.8941927
1.5511644757717598	34.304394	5.856995
1.5686928468209842	34.97329	5.9138217
1.58622125457678	35.70096	5.975028
1.6037496994495108	36.878967	6.0728054
1.621278181849548	36.392555	6.0326242
1.6388067021872719	37.184208	6.0978856
1.6563352608730693	36.561817	6.046637
1.673863858317336	35.655598	5.971231
1.6913924949304753	34.97705	5.9141397
1.7089211711228998	33.974495	5.8287644
1.7264498873050296	33.123177	5.755274
1.7439786438872935	32.039265	5.6603236
1.7615074412801288	31.263945	5.591417
1.779036279893981	30.660942	5.5372324
1.796565160139305	29.849766	5.463494
1.814094082426564	29.085247	5.393074
1.8316230471662298	28.350569	5.3245254
1.849152054768784	27.577593	5.251437
1.8666811056447168	27.245687	5.2197404
1.8842102002045273	26.538599	5.1515627
1.901739338858724	25.898907	5.089097
1.9192685220178245	24.876421	4.9876266
1.9367977500923557	24.000504	4.8990307
1.9543270234928547	23.610718	4.859086
1.971856342629867	23.051008	4.8011465
1.9893857079139496	22.714642	4.765988
2.006915119755667	22.372894	4.7299995
2.0244445785655945	21.984648	4.688779
2.0419740847543175	21.520844	4.639056
2.0595036387324317	21.08313	4.591637
2.0770332409105414	20.69508	4.5491843
2.094562891699263	20.481295	4.5256267
2.1120925915092217	19.827387	4.4527955
2.129622340751053	19.522873	4.4184694
2.1471521398354043	187.41832	13.690081
2.1646819891729323	443.59363	21.061663
2.182211889174303	439.80756	20.97159
2.1997418402501974	452.3708	21.26901
2.2172718428113023	432.50415	20.796734
2.234801897268317	320.5486	17.903872
2.2523320040319548	17.012283	4.124595
2.269862163512935	16.704325	4.0870924
2.287392376121992	16.21828	4.0271926
2.304922642269869	15.796085	3.974429
2.322452962367322	15.485637	3.9351795
2.3399833368251164	15.1876955	3.8971393
2.357513766054032	15.122162	3.8887224
2.3750442504648586	14.724689	3.8372762
2.3925747904683963	14.457083	3.802247
2.410105386475459	14.350571	3.7882147
2.4276360388968707	14.195972	3.7677543
2.445166748143469	13.960113	3.7363234
2.4626975146261025	13.62399	3.691069
2.4802283387556323	13.1907	3.6319003
2.4977592209429305	13.061507	3.6140707
2.5152901615988825	12.756519	3.571627
2.5328211611343865	12.564685	3.5446699
2.5503522199603523	12.384608	3.5191772
2.5678833384877024	12.260948	3.5015638
2.5854145171273712	12.093462	3.4775655
2.6029457562903064	11.93883	3.4552612
2.620477056387469	11.536964	3.3966107
2.6380084178298326	11.393794	3.3754694
2.655539841028383	11.146488	3.3386357
2.673071326394119	11.093462	3.330685
2.6906028743380523	10.97303	3.3125565
2.708134485271211	10.8244705	3.2900562
2.7256661596046325	10.624845	3.2595773
2.743197897749369	10.389669	3.223301
2.760729700116486	10.2665615	3.2041476
2.778261567117063	10.179627	3.190553
2.795793499162193	10.197072	3.1932855
2.8133254966629817	10.126966	3.1822896
2.830857560030551	10.02677	3.1665075
2.8483896896760337	9.722615	3.118111
2.865921886010578	9.469937	3.0773263
2.883454149445347	9.300507	3.049673
2.9009864803915177	9.350635	3.0578806
2.91851887926028	9.334111	3.0551777
2.9360513464628384	9.2305355	3.0381796
2.953583882410413	9.087341	3.0145218
2.9711164875142373	8.827152	2.9710524
2.9886491621855606	8.652351	2.941488
3.0061819068356455	8.487765	2.913377
3.023714721875769	8.332001	2.8865206
3.041247607717225	8.087491	2.8438513
3.0587805647713213	7.9639354	2.8220446
3.0763135934493806	7.898034	2.8103442
3.0938466941627407	7.870806	2.8054957
3.1113798673227544	7.9104295	2.8125486
3.1289131133407904	7.931685	2.8163247
3.1464464326282315	7.8815913	2.8074172
3.1639798255964786	7.9330516	2.8165674
3.1815132926569443	7.8180695	2.796081
3.1990468342210603	7.6972456	2.774391
3.216580450700272	7.491959	2.7371442
3.2341141425060416	7.323594	2.706214
3.251647910049847	7.2216473	2.6873124
3.2691817537431813	7.017244	2.649008
3.286715673997555	6.9474845	2.6358082
3.3042496712244938	6.9437766	2.6351047
3.32178374583554	6.923739	2.6313
3.339317898242251	6.956671	2.63755
3.3568521288562034	6.847305	2.6167355
3.3743864380889876	6.7169046	2.5916991
3.3919208263522127	6.6474023	2.5782557
3.4094552940575023	6.5996275	2.568974
3.4269898416164972	6.7069707	2.589782
3.444524469440858	6.7097588	2.59032
3.4620591779422587	6.6849074	2.5855188
3.479593967532391	6.6033535	2.569699
3.4971288386229658	6.4699497	2.5436096
3.5146637916257086	6.248913	2.4997826
3.5321988269523628	6.219105	2.4938133
3.5497339450146903	6.251486	2.500297
3.5672691462244708	6.357156	2.5213401
3.5848044309934988	6.396902	2.5292099
3.60233979973359	6.373392	2.5245578
3.619875252856575	6.3304067	2.5160298
3.6374107907743034	6.261718	2.5023425
3.6549464138986427	6.236184	2.4972353
3.6724821226414788	6.1767445	2.4853058
3.690017917414714	6.1521173	2.4803462
3.7075537986302702	6.17366	2.484685
3.7250897667000857	6.257002	2.5014
3.7426258220361235	6.4360495	2.536937
3.7601619650503553	6.7486043	2.5978076
3.777698196154779	7.2734776	2.6969385
3.7952345157614067	8.357652	2.8909605
3.8127709242822716	9.168304	3.0279207
3.830307422129425	11.30215	3.361867
3.847844009714936	29.952951	5.472929
3.8653806874508954	97.4407	9.871205
3.882917455749409	96.62911	9.83001
3.900454315022606	96.60634	9.828853
3.917991265682631	41.190243	6.4179626
3.9355283081416506	10.909008	3.3028789
3.9530654428118495	8.608067	2.9339507
3.970602670105433	7.2449	2.6916351
3.9881399904346244	6.38206	2.526274
4.005677404211669	6.3995185	2.529727
4.023214911848827	6.42762	2.5352752
4.0407525137583855	6.411588	2.5321114
4.058290210352644	6.355358	2.5209835
4.075828002043927	6.2469673	2.4993935
4.0933658892445814	6.134138	2.4767191
4.110903872366966	6.0665045	2.4630275
4.128441951823468	5.9874988	2.4469366
4.145980128026488	5.945988	2.4384396
4.163518401388452	5.957101	2.4407172
4.181056772321807	5.9105406	2.4311604
4.1985952412390155	5.9216	2.4334338
4.216133808552567	5.9315486	2.435477
4.233672474674966	6.0310655	2.4558227
4.251211240018741	6.2438116	2.4987621
4.268750104996445	6.4954467	2.5486166
4.286289070020643	7.5107493	2.7405746
4.303828135503928	9.151744	3.0251849
4.3213673018589125	29.44751	5.426556
4.3389065694982305	90.552605	9.515913
4.356445938834537	165.71838	12.873165
4.3739854102805085	170.97507	13.075744
4.391524984248844	171.93533	13.1124115
4.409064661152262	136.20271	11.670591
4.426604441403504	96.57393	9.827204
4.444144325415337	75.571014	8.693159
4.461684313600543	21.44401	4.630768
4.47922440637193	21.987942	4.6891303
4.496764604142329	20.384205	4.514887
4.5143049073245916	18.37519	4.286629
4.531845316331589	16.158924	4.0198164
4.5493858315762195	13.1593275	3.6275787
4.566926453471405	10.976065	3.3130145
4.584467182430081	8.990615	2.9984355
4.602008018865218	8.043645	2.836132
4.619548963189798	7.5148053	2.7413144
4.637090015816834	6.978221	2.6416323
4.654631177159353	6.6154404	2.5720499
4.672172447630417	6.282089	2.5064096
4.689713827643102	6.071216	2.4639838
4.7072553176105085	5.940253	2.4372635
4.724796917945764	5.8261147	2.4137347
4.742338629062015	5.7317033	2.3940976
4.759880451372434	5.642387	2.375371
4.777422385290215	5.5892024	2.3641493
4.794964431228581	5.52871	2.351321
4.812506589600768	5.506287	2.3465478
4.830048860820047	5.5030384	2.3458555
4.847591245299709	5.4865394	2.3423364
4.8651337434530655	5.4738703	2.3396304
4.882676355693457	5.4553366	2.3356662
4.900219082434242	5.4611273	2.3369055
4.917761924088813	5.4791646	2.3407617
4.935304881070575	5.5226793	2.350038
4.952847953792969	5.543032	2.3543644
4.970391142669449	5.498394	2.3448656
4.9879344481135055	5.455047	2.3356042
5.005477870538642	5.3662972	2.316527
5.023021410358394	5.3627143	2.3157535
5.040565067986324	5.326179	2.3078516
5.05810884383601	5.25734	2.2928889
5.075652738321066	5.27217	2.2961206
5.09319675185512	5.251253	2.2915614
5.110740884851836	5.3147206	2.3053677
5.128285137724894	5.355666	2.3142312
5.145829510888007	5.3380475	2.3104215
5.163374004754908	5.227003	2.286264
5.1809186197393595	5.1723285	2.2742753
5.198463356255145	5.129215	2.264777
5.216008214716077	5.173663	2.2745688
5.233553195535998	5.153952	2.2702317
5.251098299128764	5.1946626	2.2791803
5.268643525908272	5.185198	2.277103
5.286188876288432	5.1826034	2.2765331
5.3037343506831895	5.2081175	2.28213
5.32127994950651	5.211692	2.282913
5.3388256731723915	5.1725645	2.2743273
5.356371522094851	5.0993114	2.2581656
5.373917496687938	5.072496	2.2522202
5.391463597365729	5.104045	2.2592134
5.40900982454232	5.0606318	2.249585
5.426556178631843	5.037912	2.2445292
5.444102660048449	5.0190697	2.240328
5.4616492692063225	5.02895	2.242532
5.479196006519669	5.0491104	2.2470226
5.496742872402727	5.1111097	2.2607763
5.514289867269756	5.1455445	2.2683792
5.531836991535049	5.2420597	2.2895546
5.549384245612924	5.1769533	2.275292
5.566931629917724	5.122138	2.263214
5.584479144863822	5.024814	2.2416098
5.6020267908656205	4.9917736	2.2342277
5.619574568337545	4.9838185	2.2324467
5.637122477694054	5.0347114	2.2438161
5.654670519349629	5.133401	2.265701
5.672218693718784	5.1407456	2.2673213
5.689767001216059	5.0991488	2.2581296
5.707315442256021	5.0554695	2.2484372
5.724864017253266	5.014004	2.2391973
5.7424127266224225	5.074435	2.2526507
5.75996157077814	4.9725456	2.2299206
5.777510550135105	4.9966197	2.235312
5.795059665108022	5.039587	2.2449024
5.812608916111639	5.175775	2.275033
5.830158303560715	5.3584766	2.3148384
5.847707827870055	5.4000354	2.3237977
5.86525748945448	5.3995824	2.3237002
5.8828072887288485	5.404603	2.3247802
5.900357226108044	5.41248	2.3264737
5.917907302006979	5.442921	2.3330069
5.9354575168406	6.0903006	2.4678535
5.9530078710238765	6.717877	2.5918868
5.970558364971812	7.3079376	2.7033198
5.988108999099438	7.62468	2.7612822
6.005659773821818	8.120436	2.8496377
6.023210689554039	7.884951	2.8080156
6.040761746711227	8.37636	2.8941941
6.058312945708531	7.8029637	2.7933786
6.075864286961132	7.3097534	2.7036555
6.093415770884244	6.574885	2.564154
6.1109673978931065	5.956245	2.440542
6.128519168402993	5.3735857	2.3180995
6.146071082829204	5.236289	2.2882938
6.163623141587075	5.074835	2.2527394
6.181175345091969	5.087771	2.2556088
6.198727693759281	5.064031	2.2503402
6.216280188004435	5.086468	2.25532
6.233832828242885	5.074183	2.2525947
6.251385614890126	5.073101	2.2523546
6.268938548361669	5.0777187	2.2533793
6.286491629073067	5.05074	2.247385
6.304044857439898	5.0848093	2.2549522
6.321598233877777	5.037762	2.2444959
6.339151758802344	4.95041	2.2249517
6.356705432629277	4.9163103	2.2172754
6.37425925577428	4.88898	2.2111037
6.391813228653095	4.9200554	2.2181199
6.409367351681486	4.892881	2.2119858
6.426921625275259	4.8959184	2.2126722
6.44447604985025	4.8411155	2.2002535
6.46203062582232	4.8409905	2.200225
6.47958535360737	4.836819	2.199277
6.497140233621328	4.940344	2.2226884
6.514695266280161	4.906546	2.2150724
6.532250451999859	4.9424586	2.223164
6.549805791196454	4.9513516	2.2251632
6.567361284286002	4.936172	2.2217498
6.584916931684597	4.9073424	2.2152522
6.602472733808367	4.8529224	2.202935
6.6200286910734665	4.8131137	2.193881
6.637584803896092	4.860593	2.2046752
6.655141072692462	4.922749	2.2187269
6.672697497878842	4.9461093	2.223985
6.690254079871514	4.976168	2.2307327
6.707810819086808	4.932502	2.2209237
6.725367715941078	4.968166	2.2289383
6.742924770850719	4.9582705	2.2267175
6.760481984232151	4.975877	2.2306674
6.778039356501836	4.9529653	2.2255259
6.795596888076266	4.8873243	2.2107294
6.813154579371963	4.877336	2.2084692
6.830712430805492	4.803909	2.191782
6.84827044279344	4.827425	2.1971402
6.865828615752445	4.8615294	2.2048876
6.883386950099159	4.944089	2.2235308
6.900945446250287	4.9566007	2.2263424
6.918504104622553	4.929727	2.2202988
6.936062925632727	4.883652	2.2098987
6.953621909697607	4.9129515	2.216518
6.971181057234028	4.991679	2.2342067
6.988740368658859	5.065288	2.2506194
7.006299844389007	5.061936	2.2498746
7.023859484841407	5.139112	2.2669609
7.041419290433036	5.2504773	2.291392
7.058979261580902	5.4328218	2.3308415
7.0765393987020495	5.634288	2.3736656
7.094099702213559	5.9888053	2.4472036
7.111660172532549	6.3742366	2.524725
7.129220810076164	6.725623	2.5933807
7.146781615261595	7.203394	2.683914
7.16434258850606	7.4486465	2.7292209
7.181903730226821	7.8889365	2.808725
7.1994650408411704	8.124063	2.850274
7.217026520766437	8.274734	2.8765836
7.234588170419983	8.459953	2.9085999
7.252149990219215	8.367135	2.8926
7.269711980581568	8.242835	2.871034
7.2872741419245175	8.030456	2.8338058
7.304836474665574	7.650505	2.7659547
7.322398979222286	7.342884	2.7097757
7.339961656012233	7.12721	2.6696835
7.357524505453039	6.779642	2.6037745
7.375087527962357	6.487534	2.5470638
7.392650723957886	6.196758	2.4893289
7.410214093857353	5.851034	2.4188912
7.427777638078528	5.604494	2.3673813
7.445341357039213	5.4413652	2.3326733
7.4629052511572525	5.2398467	2.289071
7.480469320850524	5.1250377	2.2638545
7.498033566536948	5.0265017	2.241986
7.5155979886344735	4.9798093	2.2315485
7.5331625875610975	4.962411	2.227647
7.550727363734844	5.001073	2.2363079
7.568292317573788	5.0254135	2.2417433
7.585857449496025	5.0179896	2.240087
7.603422759919705	5.0390525	2.2447834
7.620988249263007	5.0783753	2.253525
7.638553917944147	5.1238623	2.263595
7.656119766381391	5.169312	2.273612
7.673685794993023	5.1687603	2.2734907
7.691252004197388	5.2155724	2.2837627
7.70881839441285	5.1713343	2.2740567
7.726384966057826	5.150053	2.269373
7.743951719550762	5.128458	2.2646098
7.761518655310149	5.1068563	2.2598355
7.779085773754511	5.1221714	2.2632215
7.796653075302419	5.076463	2.2531009
7.814220560372475	5.098369	2.2579567
7.831788229383323	5.1063113	2.2597148
7.8493560827536495	5.1356835	2.2662046
7.866924120902174	5.2669353	2.2949805
7.884492344247663	5.379717	2.3194218
7.9020607532089135	5.399206	2.3236191
7.919629348204771	5.314755	2.3053753
7.937198129654115	5.1729345	2.2744086
7.954767097975865	5.138715	2.2668734
7.972336253588986	5.192228	2.278646
7.989905596912472	5.2851753	2.298951
8.007475128365371	5.3638635	2.3160017
8.025044848366756	5.4178123	2.3276196
8.042614757335754	5.51318	2.348016
8.060184855691523	5.6135573	2.3692946
8.07775514385327	5.711523	2.3898792
8.095325622240228	5.711347	2.3898425
8.112896291271687	5.662525	2.379606
8.130467151366968	5.6695595	2.3810837
8.148038202945436	5.7165756	2.3909361
8.165609446426497	5.7867613	2.4055688
8.183180882229594	5.8505855	2.4187984
8.200752510774217	5.84456	2.4175525
8.218324332479893	5.805933	2.4095504
8.235896347766193	5.7976184	2.4078245
8.253468557052724	5.875174	2.4238758
8.27104096075914	5.9269047	2.4345236
8.288613559305137	6.0323563	2.4560854
8.306186353110448	6.0602307	2.4617536
8.32375934259485	6.1412406	2.4781528
8.341332528178162	6.183106	2.4865851
8.358905910280246	6.2507534	2.5001507
8.376479489321003	6.2910085	2.5081882
8.394053265720377	6.2460136	2.4992025
8.411627239898356	6.1878057	2.48753
8.42920141227497	6.1642942	2.4827998
8.44677578327029	6.155236	2.4809747
8.464350353304427	6.099335	2.4696832
8.48192512279754	6.070134	2.4637642
8.499500092169827	6.074917	2.4647346
8.51707526184153	6.12239	2.4743464
8.534650632232934	6.1879926	2.4875677
8.552226203764365	6.098331	2.4694798
8.569801976856192	6.0745234	2.464655
8.587377951928834	6.102183	2.4702597
8.60495412940274	6.149293	2.4797769
8.622530509698416	6.162476	2.4824336
8.6401070932364	6.2402773	2.4980547
8.657683880437283	6.2922006	2.508426
8.675260871721695	6.5269156	2.5547829
8.692838067510303	6.6402307	2.5768645
8.710415468223834	6.840845	2.615501
8.727993074283043	7.0209837	2.649714
8.745570886108737	7.0759754	2.6600707
8.763148904121765	7.180967	2.6797326
8.78072712874302	7.1499963	2.6739478
8.798305560393441	7.3135514	2.7043579
8.815884199494006	7.354788	2.7119713
8.833463046465745	7.5369263	2.7453463
8.851042101729728	7.648728	2.7656333
8.86862136570707	7.9303536	2.8160884
8.886200838818924	8.039762	2.8354473
8.903780521486505	8.124063	2.850274
8.921360414131055	8.266718	2.87519
8.938940517173874	8.448388	2.9066112
8.956520831036297	8.61382	2.934931
8.97410135613971	8.859014	2.9764094
8.99168209290554	9.062495	3.010398
9.009263041755265	9.318144	3.0525634
9.026844203110405	9.548958	3.090139
9.044425577392525	9.770933	3.1258492
9.062007165023239	9.862668	3.1404884
9.079588966424197	10.127961	3.1824458
9.097170982017108	10.129709	3.1827204
9.11475321222372	11.073457	3.3276803
9.132335657465825	12.048573	3.4711053
9.149918318165264	12.19123	3.491594
9.167501194743924	12.8846855	3.5895245
9.18508428762374	12.507743	3.5366287
9.202667597226693	12.5116	3.537174
9.220251123974803	12.164643	3.4877849
9.237834868290143	11.8825865	3.4471128
9.255418830594836	11.700086	3.420539
9.273003011311046	11.277707	3.3582299
9.290587410860985	11.139599	3.3376038
9.308172029666911	10.509506	3.2418368
9.32575686815113	10.130827	3.182896
9.343341926735997	8.711065	2.9514513
9.360927205843916	8.452951	2.907396
9.378512705897327	8.239916	2.8705254
9.396098427318728	8.067681	2.8403664
9.413684370530664	8.026318	2.8330755
9.431270535955722	7.9063344	2.8118205
9.448856924016539	7.7399487	2.7820764
9.466443535135806	7.592663	2.7554786
9.484030369736251	7.5907807	2.7551372
9.501617428240658	7.611599	2.7589126
9.519204711071852	7.5484815	2.7474499
9.536792218652714	7.531465	2.7443514
9.55437995140617	7.578102	2.7528353
9.571967909755191	7.7480316	2.7835286
9.589556094122802	7.850742	2.8019176
9.60714450493207	7.9007173	2.8108215
9.624733142606116	7.9060884	2.8117766
9.642322007568108	7.880771	2.8072712
9.659911100241267	7.914256	2.8132288
9.677500421048851	7.9660263	2.8224149
9.695089970414175	7.951299	2.819805
9.712679748760609	8.022729	2.8324423
9.730269756511557	8.014991	2.831076
9.747859994090492	8.1098	2.8477712
9.765450461920915	8.10464	2.846865
9.78304116042639	8.183009	2.860596
9.800632090030527	8.247098	2.871776
9.81822325115699	8.2571745	2.87353
9.835814644229481	8.225925	2.8680875
9.853406269671762	8.141354	2.8533058
9.870998127907646	8.154125	2.855543
9.888590219360985	8.223777	2.8677127
9.906182544455698	8.265722	2.875017
9.923775103615734	8.221086	2.8672435
9.941367897265108	8.258745	2.8738034
9.958960925827878	8.217498	2.866618
9.97655418972816	8.215006	2.866183
9.994147689390106	8.235689	2.8697891
10.011741425237934	8.205607	2.8645432
10.029335397695904	8.174749	2.8591518
10.04692960718833	8.181063	2.8602557
10.06452405413958	8.190615	2.861925
10.082118738974064	8.269908	2.8757448
10.099713662116246	8.276199	2.8768384
10.117308823990651	8.248891	2.8720882
10.134904225021844	8.140809	2.8532102
10.152499865634445	8.040276	2.835538
10.170095746253125	7.9915614	2.826935
10.18769186730261	8.018076	2.8316207
10.205288229207675	8.042993	2.8360171
10.222884832393145	8.090687	2.8444133
10.2404816772839	8.137369	2.8526075
10.258078764304868	8.173507	2.8589346
10.275676093881035	8.148454	2.8545496
10.293273666437438	8.031584	2.8340049
10.310871482399158	7.981554	2.8251643
10.32846954219134	7.986549	2.8260484
10.346067846239173	7.9659185	2.8223958
10.363666394967908	7.9098682	2.8124487
10.38126518880283	7.884324	2.8079038
10.398864228169298	7.968676	2.8228843
10.416463513492713	8.066996	2.8402457
10.434063045198531	8.129456	2.8512201
10.451662823712262	8.09175	2.8446002
10.469262849459467	8.045547	2.8364673
10.486863122865758	7.9410195	2.8179815
10.504463644356806	7.8920255	2.809275
10.522064414358338	7.882563	2.8075902
10.539665433296118	7.9051127	2.8116033
10.557266701595987	7.8613353	2.8038073
10.574868219683818	7.754676	2.7847219
10.592469987985552	7.6354656	2.7632346
10.610072006927185	7.4785075	2.734686
10.627674276934751	7.4026637	2.7207837
10.64527679843435	7.2386875	2.690481
10.662879571852143	7.155858	2.6750436
10.680482597614331	7.18379	2.6802595
10.698085876147173	7.096055	2.6638422
10.715689407876988	6.9967422	2.6451356
10.733293193230146	6.8168797	2.6109154
10.750897232633072	6.6838427	2.5853128
10.76850152651225	6.6515393	2.579058
10.786106075294207	6.5907035	2.5672367
10.803710879405534	6.487031	2.5469651
10.821315939272877	6.3594775	2.5218005
10.83892125532294	6.292691	2.5085237
10.856526827982472	6.285169	2.507024
10.874132657678285	6.355662	2.5210438
10.891738744837243	6.308174	2.511608
10.909345089886271	6.231067	2.4962106
10.926951693252343	6.075806	2.464915
10.944558555362494	6.001392	2.4497738
10.96216567664381	5.9328384	2.435742
10.979773057523436	5.841059	2.4168284
10.997380698428573	5.8193536	2.4123337
11.014988599786477	5.736583	2.3951166
11.032596762024461	5.7000523	2.387478
11.050205185569892	5.5724173	2.360597
11.067813870850198	5.511038	2.34756
11.085422818292859	5.4886947	2.3427963
11.10303202832541	5.4464064	2.3337538
11.120641501375454	5.434274	2.331153
11.138251237870636	5.34507	2.3119407
11.155861238238671	5.265731	2.294718
11.173471502907317	5.1550345	2.2704701
11.191082032304402	5.103681	2.2591329
11.208692826857805	5.0915647	2.2564495
11.226303886995465	4.9825397	2.2321603
11.243915213145371	4.8800364	2.2090805
11.261526805735578	4.802283	2.1914113
11.279138665194196	4.788511	2.1882665
11.296750791949393	4.7637753	2.1826074
11.314363186429393	4.7294383	2.1747272
11.331975849062479	4.660588	2.1588395
11.34958878027699	4.6016192	2.1451385
11.36720198050133	4.573376	2.1385453
11.384815450163948	4.5580072	2.134949
11.402429189693366	4.5413604	2.1310468
11.420043199518153	4.467079	2.1135466
11.437657480066942	63.41664	7.9634566
11.455272031768422	85.12331	9.22623
11.472886855051353	107.547516	10.370512
11.490501950344528	99.14243	9.957029
11.508117318076819	84.48973	9.19183
11.52573295867715	45.83266	6.7699823
11.543348872574514	4.1075273	2.0267036
11.560965060197946	4.0466666	2.011633
11.57858152197655	4.0148716	2.0037146
11.59619825833949	4.0079274	2.0019808
11.613815269715985	3.961391	1.9903244
11.631432556535323	38.49469	6.204409
11.649050119226837	83.00918	9.110937
11.666667958219929	93.40509	9.664631
11.68428607394406	107.65343	10.375617
11.701904466828756	82.45943	9.080717
11.719523137303586	65.296844	8.0806465
11.737142085798196	4.5312166	2.1286654
11.754761312742286	3.6304622	1.9053771
11.772380818565619	3.5878117	1.8941519
11.790000603698015	3.5060987	1.872458
11.80762066856935	3.5027068	1.871552
11.825241013609572	3.4748342	1.8640907
11.842861639248683	3.484919	1.8667938
11.860482545916748	3.470249	1.8628604
11.878103734043883	3.4494543	1.8572707
11.895725204060282	3.4193609	1.8491514
11.91334695639619	3.3600295	1.8330383
11.930968991481919	3.3683705	1.8353121
11.948591309747824	3.3008318	1.8168192
11.966213911624347	3.2726483	1.8090463
11.98383679754198	3.2546618	1.8040681
12.001459967931268	3.2633905	1.8064857
12.019083423222835	3.2389019	1.7996949
12.036707163847352	3.2100127	1.7916508
12.05433119023556	3.1728802	1.781258
12.071955502818259	3.1632807	1.7785615
12.089580102026313	3.1727247	1.7812144
12.107204988290643	3.1316175	1.7696377
12.12483016204224	3.129434	1.7690207
12.142455623712152	3.1015544	1.7611231
12.16008137373149	3.1210146	1.7666394
12.177707412531431	3.0657988	1.7509422
12.19533374054321	3.0418808	1.7440989
12.212960358198126	3.0584102	1.748831
12.230587265927545	3.0727394	1.7529231
12.248214464162889	3.0180738	1.7372605
12.265841953335649	2.9387386	1.714275
12.283469733877375	2.899035	1.7026553
12.301097806219685	2.9088094	1.7055233
12.31872617079425	2.9010806	1.7032559
12.336354828032825	2.8899767	1.6999931
12.353983778367205	2.8768575	1.6961302
12.371613022229262	2.8695993	1.6939892
12.389242560050928	2.8383546	1.6847417
12.406872392264201	2.8222837	1.6799654
12.424502519301143	2.8470619	1.6873239
12.442132941593874	2.823001	1.6801789
12.459763659574586	2.8067443	1.6753341
12.477394673675532	2.7547233	1.6597359
12.49502598432903	2.7582946	1.6608114
12.51265759196746	2.7372851	1.6544743
12.530289497023267	2.7293596	1.6520773
12.547921699928967	2.7445714	1.6566749
12.565554201117134	2.7582362	1.6607938
12.583187001020404	2.7545516	1.6596842
12.600820100071486	2.772209	1.6649952
12.618453498703152	2.7625272	1.6620852
12.636087197348235	2.7784007	1.6668535
12.65372119643964	2.7392664	1.6550729
12.671355496410326	2.7353852	1.6539
12.68899009769333	2.7553282	1.6599181
12.706625000721749	2.7930508	1.6712422
12.724260205928752	2.8824599	1.6977808
12.741895713747551	2.9350874	1.7132097
12.759531524611454	2.9892082	1.7289327
12.777167638953818	2.9824467	1.7269762
12.794804057208072	2.9620264	1.7210538
12.812440779807702	3.0162852	1.7367456
12.830077807186271	3.1987967	1.7885181
12.847715139777405	3.243376	1.8009375
12.865352778014795	3.43239	1.852671
12.882990722332197	3.5005999	1.870989
12.90062897316344	3.566007	1.8883873
12.918267530942412	3.6112	1.9003158
12.935906396103071	3.519918	1.8761444
12.953545569079449	3.6808906	1.9185647
12.971185050305628	3.5148795	1.8748012
12.988824840215775	3.5641806	1.8879038
13.006464939244115	3.5940166	1.8957891
13.024105347824943	3.4237263	1.8503314
13.041746066392617	3.4737103	1.8637892
13.05938709538157	3.258167	1.8050393
13.077028435226296	3.3017464	1.8170708
13.094670086361363	3.2512486	1.8031219
13.112312049221401	3.1686685	1.7800754
13.129954324241112	3.0570514	1.7484425
13.147596911855258	2.8553112	1.6897666
13.165239812498685	2.7991407	1.6730633
13.182883026606293	2.7325048	1.653029
13.200526554613058	2.7431524	1.6562464
13.218170396954017	2.7208815	1.6495094
13.235814554064284	2.6863143	1.6389979
13.253459026379034	2.6655557	1.632653
13.271103814333523	2.6538234	1.629056
13.288748918363058	2.6506236	1.6280736
13.306394338903031	2.6842468	1.638367
13.32404007638889	2.6740308	1.6352464
13.341686131256164	2.6933343	1.6411381
13.359332503940449	2.6260433	1.6205071
13.376979194877402	2.6307833	1.621969
13.394626204502751	2.6541135	1.629145
13.412273533252307	2.6881678	1.6395633
13.429921181561937	2.6943104	1.6414355
13.447569149867581	2.7360992	1.6541158
13.465217438605247	2.7250752	1.6507802
13.482866048211022	2.7298646	1.6522301
13.500514979121052	2.7063854	1.6451095
13.518164231771568	2.667536	1.6332593
13.535813806598844	2.6386979	1.6244069
13.553463704039254	2.6213534	1.6190594
13.571113924529229	2.6254206	1.620315
13.588764468505275	2.6595447	1.6308111
13.606415336403956	2.7016408	1.6436669
13.624066528661917	2.711911	1.6467881
13.641718045715882	2.7484665	1.6578499
13.659369888002635	2.7918634	1.670887
13.67702205595903	2.8680978	1.6935459
13.694674550021993	2.9304419	1.7118534
13.712327370628532	3.0097709	1.7348691
13.729980518215713	3.0986273	1.7602918
13.747633993220681	3.1651258	1.77908
13.765287796080647	3.2115479	1.7920792
13.7829419272329	3.244769	1.8013242
13.800596387114801	3.2455366	1.8015373
13.818251176163775	3.2447486	1.8013185
13.835906294817324	3.2901826	1.813886
13.853561743513023	3.3607812	1.8332434
13.871217522688525	3.378817	1.8381559
13.888873632781538	3.400584	1.8440672
13.906530074229858	3.4575944	1.8594608
13.92418684747135	3.5004306	1.8709438
13.941843952943948	3.4978998	1.8702673
13.959501391085665	3.4676702	1.8621682
13.977159162334578	3.3994968	1.8437724
13.994817267128846	3.3353012	1.8262807
14.012475705906693	3.2364292	1.7990079
14.030134479106424	3.1409824	1.7722816
14.047793587166414	3.067839	1.7515247
14.065453030525108	2.9970443	1.7311974
14.083112809621026	2.9406219	1.7148242
14.100772924892766	2.9042263	1.704179
14.118433376778997	2.9148204	1.7072846
14.136094165718458	2.893486	1.701025
14.153755292149969	2.8158317	1.678044
14.171416756512416	2.72866	1.6518656
14.189078559244768	2.6411016	1.6251466
14.20674070078606	2.5921981	1.6100305
14.224403181575408	2.5350304	1.5921779
14.242066002051999	2.4864786	1.5768572
14.259729162655093	2.468412	1.571118
14.277392663824022	2.4168296	1.5546156
14.295056505998208	2.400286	1.5492857
14.312720689617128	2.367172	1.5385617
14.330385215120348	2.3481605	1.5323709
14.348050082947497	2.3615634	1.5367379
14.3657152935383	2.3788605	1.5423555
14.383380847332528	2.3885336	1.5454881
14.401046744770051	2.369578	1.5393434
14.418712986290798	2.3417914	1.5302913
14.436379572334793	2.293874	1.514554
14.454046503342123	2.2981367	1.5159607
14.471713779752946	2.3333495	1.5275306
14.489381402007504	2.3788426	1.5423497
14.507049370546113	2.4023776	1.5499605
14.524717685809168	2.4167109	1.5545774
14.542386348237134	2.4146736	1.5539219
14.560055358270553	2.405369	1.5509253
14.577724716350051	2.4243941	1.5570467
14.595394422916325	2.4481502	1.5646566
14.61306447841015	2.4942207	1.5793102
14.63073488327237	2.4948883	1.5795215
14.648405637943917	2.520158	1.5875006
14.6660767428658	2.5048263	1.5826643
14.683748198479094	2.5010302	1.5814645
14.701420005224954	2.519395	1.5872602
14.719092163544628	2.5862288	1.6081756
14.73676467387942	2.6432424	1.6258051
14.754437536670727	2.669217	1.6337739
14.772110752360014	2.624648	1.6200765
14.78978432138882	2.6206245	1.6188343
14.807458244198777	2.6372485	1.6239607
14.82513252123159	2.646822	1.6269057
14.842807152929028	2.681622	1.6375659
14.860482139732962	2.6638472	1.6321297
14.87815748208531	2.6636477	1.6320685
14.8958331804281	2.6662674	1.6328709
14.91350923520342	2.6606183	1.6311402
14.931185646853438	2.7139459	1.6474057
14.948862415820408	2.7280793	1.6516899
14.966539542546656	2.7125287	1.6469756
14.98421702747459	2.6573527	1.6301389
15.001894871046696	2.6485267	1.6274295
15.019573073705542	2.66644	1.6329237
15.037251635893766	2.6613436	1.6313624
15.054930558054092	2.711616	1.6466985
15.072609840629323	2.6958785	1.641913
15.090289484062351	2.78819	1.6697874
15.107969488796124	2.8907256	1.7002134
15.125649855273691	3.078674	1.7546151
15.14333058393817	3.428578	1.8516419
15.161011675232768	3.9870768	1.9967666
15.17869312960076	4.661224	2.1589868
15.196374947485506	5.382756	2.3200767
15.214057129330447	6.7166605	2.5916522
15.231739675579114	8.904996	2.984124
15.249422586675102	13.577354	3.6847463
15.267105863062092	18.166864	4.2622604
15.284789505183847	25.41024	5.0408573
15.302473513484218	30.439817	5.517229
15.320157888407127	34.62827	5.8845787
15.337842630396578	33.47562	5.785812
15.355527739896656	30.658934	5.537051
15.37321321735153	23.970882	4.8960066
15.39089906320545	16.309717	4.038529
15.408585277902748	10.303189	3.2098582
15.42627186188783	6.2676034	2.503518
15.443958815605198	4.46423	2.1128724
15.461646139499424	3.6966805	1.9226754
15.479333834015168	3.248891	1.8024681
15.497021899597165	2.9087784	1.7055141
15.514710336690234	2.6884673	1.6396546
15.53239914573928	2.5862086	1.6081693
15.550088327189297	2.5470717	1.5959548
15.567777881485336	2.5396988	1.5936433
15.58546780907256	2.548048	1.5962607
15.6031581103962	2.5363169	1.5925819
15.620848785901568	2.5303726	1.5907145
15.638539836034063	2.5222602	1.5881625
15.656231261239173	2.520055	1.5874681
15.673923061962451	2.4793053	1.574581
15.691615238649552	2.459565	1.5683
15.709307791746202	2.4287243	1.5584365
15.727000721698221	2.4067473	1.5513695
15.744694028951498	2.3749175	1.5410768
15.76238771395202	2.3702352	1.5395569
15.780081777145844	2.3830626	1.5437171
15.797776218979125	2.3923888	1.5467349
15.815471039898094	2.4058993	1.5510962
15.833166240349064	2.4104216	1.5525533
15.850861820778437	2.432205	1.5595528
15.868557781632699	2.4250538	1.5572585
15.886254123358412	2.4505577	1.5654258
15.903950846402232	2.4865875	1.5768918
15.921647951210897	2.5105627	1.5844755
15.939345438231225	2.5196517	1.5873411
15.957043307910133	2.5307064	1.5908194
15.974741560694602	2.5282362	1.5900428
15.992440197031714	2.5148141	1.5858165
16.01013921736862	2.4904182	1.5781059
16.02783862215259	2.5006783	1.5813533
16.045538411830933	2.484531	1.5762395
16.06323858685107	2.4558327	1.5671097
16.080939147660512	2.434022	1.5601352
16.09864009470684	2.4239156	1.556893
16.11634142843774	2.4352753	1.5605369
16.134043149300954	2.411595	1.5529312
16.15174525774433	2.3980272	1.5485564
16.169447754215817	2.3722422	1.5402085
16.18715063916342	2.3965535	1.5480806
16.204853913035244	2.3998153	1.5491338
16.222557576279478	2.3981965	1.5486112
16.240261629344403	22.365587	4.729227
16.257966072678386	42.925976	6.5517917
16.275670906729868	38.058502	6.1691575
16.293376131947387	2.4983048	1.5806026
16.31108174877957	2.5187895	1.5870695
16.328787757675133	2.5393016	1.5935186
16.34649415908287	2.50486	1.582675
16.364200953451657	2.5203643	1.5875655
16.38190814123048	2.5525348	1.5976654
16.39961572286839	2.5882075	1.6087906
16.41732369881455	2.626633	1.620689
16.43503206951817	2.6763358	1.635951
16.45274083542859	2.6847277	1.6385138
16.47044999699522	2.737981	1.6546845
16.488159554667558	2.7649763	1.6628218
16.505869508895184	2.8660932	1.692954
16.523579860127786	2.9317524	1.712236
16.541290608815117	2.955298	1.719098
16.559001755407035	3.0147376	1.7363
16.57671330035348	3.1017778	1.7611865
16.59442524410448	3.23782	1.7993944
16.61213758711015	3.382305	1.8391044
16.629850329820705	3.4891217	1.8679191
16.647563472686436	3.5380108	1.8809601
16.665277016157724	3.463176	1.8609611
16.682990960685053	3.4402518	1.8547916
16.70070530671898	3.446079	1.8563617
16.718420054710155	3.5112283	1.8738272
16.736135205109335	3.559783	1.8867387
16.753850758367335	3.6583302	1.9126762
16.771566714935087	3.7181163	1.9282417
16.789283075263597	3.7356372	1.9327797
16.80699983980398	3.7529752	1.9372597
16.82471700900741	3.8030043	1.9501293
16.84243458332518	3.8973472	1.97417
16.860152563208665	3.9409018	1.9851705
16.87787094910932	4.0082536	2.0020623
16.89558974147871	4.064974	2.0161781
16.913308940768466	4.1813855	2.0448437
16.931028547430333	4.220123	2.0542936
16.94874856191613	4.2713876	2.0667336
16.966468984677785	4.3348374	2.0820272
16.98418981616729	4.425275	2.1036336
17.00191105683676	4.421774	2.1028016
17.019632707138374	4.3952847	2.0964935
17.03735476752442	4.4011593	2.097894
17.05507723844728	4.4669313	2.1135116
17.072800120359403	4.5181804	2.1256013
17.090523413713353	4.5639887	2.1363494
17.108247118961785	4.595105	2.1436195
17.125971236557437	4.6087546	2.146801
17.143695766953133	4.647109	2.1557155
17.161420710601806	4.6452117	2.1552753
17.179146067956477	4.6427855	2.1547124
17.19687183947025	4.6071663	2.146431
17.21459802559634	4.57433	2.1387682
17.232324626788028	4.5798254	2.1400526
17.25005164349871	4.586503	2.1416123
17.267779076181863	4.5832214	2.140846
17.285506925291074	4.6366496	2.1532881
17.30323519127999	4.6316905	2.1521363
17.320963874602384	4.5935745	2.1432626
17.33869297571211	4.515361	2.1249378
17.356422495063114	4.4779224	2.1161103
17.37415243310944	4.4841228	2.1175747
17.391882790305218	4.479349	2.1164472
17.40961356710468	4.5090055	2.123442
17.42734476396215	4.5325365	2.1289754
17.445076381332044	4.6020365	2.1452358
17.462808419668868	4.685063	2.1645007
17.48054087942723	4.772395	2.1845813
17.498273761061835	4.8804407	2.209172
17.51600706502747	5.162008	2.2720053
17.533740791779024	5.7083373	2.3892126
17.551474941771485	6.525289	2.5544646
17.56920951545993	8.318839	2.8842397
17.586944513299528	9.596955	3.0978954
17.60467993574556	12.660655	3.5581815
17.622415783253373	15.495323	3.93641
17.64015205627843	18.376001	4.2867236
17.657888755276293	20.874393	4.5688505
17.675625880702604	22.533278	4.746923
17.69336343301311	21.04444	4.587422
17.71110141266366	18.843122	4.3408666
17.728839820110178	15.912545	3.9890532
17.746578655808705	12.742824	3.569709
17.764317920215372	10.578867	3.252517
17.7820576137864	8.839811	2.973182
17.79979773697811	7.4375515	2.7271874
17.81753829024692	6.0612154	2.4619536
17.835279274049356	5.2688713	2.2954023
17.85302068884201	4.518102	2.1255827
17.870762535081607	4.0833607	2.0207326
17.888504813224934	3.8405764	1.9597389
17.90624752372891	3.6992419	1.9233413
17.923990667050536	3.6018772	1.8978612
17.941734243646895	3.5159903	1.8750974
17.959478253975185	3.4964933	1.8698913
17.9772226984927	3.479661	1.8653849
17.994967577656833	3.4647286	1.8613782
18.01271289192506	3.4187157	1.848977
18.030458641754965	3.3724709	1.8364289
18.04820482760425	3.3471675	1.8295265
18.06595144993067	3.335807	1.8264192
18.083698509192125	3.2849536	1.8124441
18.101446005846576	3.2275302	1.7965329
18.119193940352105	3.1928573	1.7868568
18.136942313166887	3.1756153	1.7820256
18.1546911247492	3.1646883	1.7789571
18.1724403755574	3.1130373	1.7643802
18.19019006604997	3.0714183	1.7525462
18.207940196685467	3.0456605	1.745182
18.225690767922575	3.0363889	1.7425237
18.243441780220046	3.0298681	1.7406516
18.261193234036764	3.0294397	1.7405286
18.278945129831676	3.040754	1.7437758
18.29669746806386	3.0289	1.7403735
18.314450249192483	3.0438945	1.744676
18.3322034736768	3.0458229	1.7452286
18.349957141976184	3.0593288	1.7490937
18.3677112545501	3.0258415	1.7394946
18.385465811858108	3.0287826	1.7403398
18.403220814359884	3.0359592	1.7424004
18.420976262515172	3.0653546	1.7508154
18.43873215678387	3.0899367	1.7578216
18.456488497625923	3.1387792	1.77166
18.474245285501407	3.209652	1.7915502
18.492002520870486	3.26484	1.8068868
18.50976020419343	3.3444915	1.8287951
18.527518335930615	3.6429849	1.9086605
18.545276916542516	4.146459	2.0362856
18.563035946489688	4.2454677	2.0604532
18.580795426232832	4.6462235	2.15551
18.598555356232698	4.581379	2.1404157
18.616315736950185	4.8654327	2.2057726
18.63407656884626	4.5431457	2.1314657
18.65183785238201	4.735514	2.1761236
18.669599588018617	4.607013	2.1463954
18.68736177621737	4.5804396	2.140196
18.705124417439652	4.5607276	2.135586
18.72288751214696	4.3362417	2.0823646
18.740651060800886	4.47381	2.1151383
18.758415063863115	4.237811	2.0585945
18.77617952179546	4.4021106	2.0981207
18.793944435059814	4.163333	2.0404246
18.811709804118184	4.188891	2.046678
18.829475629432675	4.1352806	2.0335388
18.8472419114655	3.9293451	1.9822576
18.86500865067897	3.9855037	1.9963726
18.88277584753551	3.6784456	1.9179274
18.90054350249763	3.7033057	1.9243975
18.918311616027957	3.4231722	1.8501817
18.936080188589226	3.3815076	1.8388876
18.953849220644265	3.076112	1.7538848
18.971618712656007	2.8563542	1.6900752
18.9893886650875	2.7497942	1.6582503
19.007159078401887	7.924995	2.8151367
19.024929953062408	32.817837	5.7286854
19.042701289532435	32.789062	5.7261734
19.060473088275405	25.349033	5.0347824
19.07824534975489	2.6091802	1.6152956
19.096018074434568	2.5506296	1.597069
19.113791262778197	2.5751848	1.6047382
19.13156491524966	2.5788894	1.6058921
19.149339032312945	2.5853639	1.6079067
19.167113614432136	2.5442064	1.5950569
19.184888662071433	2.5343413	1.5919615
19.202664175695123	2.544454	1.5951345
19.220440155767623	2.5287035	1.5901897
19.238216602753447	2.5165474	1.586363
19.2559935171172	2.498122	1.5805448
19.27377089932361	2.5141397	1.5856038
19.291548749837514	2.5302806	1.5906856
19.309327069123835	2.5247986	1.5889615
19.32710585764763	2.4806077	1.5749946
19.344885115874032	2.459537	1.5682911
19.362664844268313	2.4828596	1.5757092
19.380445043295822	2.5075443	1.5835228
19.39822571342203	2.4808314	1.5750655
19.41600685511252	2.4750812	1.5732391
19.43378846883297	2.4798775	1.5747627
19.451570555049173	2.4592175	1.5681893
19.469353114227037	2.4382052	1.5614754
19.48713614683254	2.4384022	1.5615385
19.50491965333182	2.4642081	1.5697796
19.52270363419109	2.5151367	1.5859183
19.540488089876686	2.4865608	1.5768833
19.55827302085503	2.5062375	1.5831101
19.576058427592674	2.4976113	1.5803833
19.593844310556282	2.4842458	1.576149
19.611630670212598	2.458682	1.5680186
19.629417507028506	2.4745874	1.5730821
19.64720482147098	2.4540455	1.5665394
19.6649926140071	2.3977077	1.5484533
19.682780885104084	2.3501122	1.5330076
19.70056963522921	2.379402	1.542531
19.718358864849908	2.4356742	1.5606647
19.7361485744337	2.5148487	1.5858275
19.753938764448215	2.5235653	1.5885733
19.771729435361202	2.4999418	1.5811205
19.789520587640506	2.467579	1.5708529
19.807312221754092	2.4745765	1.5730786
19.825104338170043	2.5087864	1.5839149
19.842896937356517	2.479586	1.5746701
19.860690019781824	2.4435422	1.5631834
19.87848358591436	2.4193819	1.5554363
19.896277636222635	2.4015903	1.5497066
19.914072171175278	2.3716009	1.5400003
19.931867191241015	2.4247894	1.5571735
19.94966269688869	2.4560697	1.5671853
19.967458688587264	2.4637253	1.5696259
19.985255166805807	2.4145236	1.5538738
20.00305213201348	2.4031847	1.5502208
20.020849584679578	2.4236534	1.5568087
20.038647525273507	2.4263587	1.5576774
20.05644595426477	2.4306445	1.5590525
20.07424487212299	2.4068942	1.5514169
20.092044279317903	2.3906105	1.5461599
20.109844176319353	2.4091318	1.5521379
20.127644563597304	2.4252167	1.5573107
20.145445441621817	2.4158304	1.5542942
20.16324681086307	2.4020896	1.5498676
20.181048671791373	2.3777494	1.5419953
20.198851024877122	2.377246	1.541832
20.216653870590836	2.4131777	1.5534406
20.234457209403146	2.4012814	1.5496068
20.252261041784802	2.3916495	1.5464959
20.270065368206662	2.3949049	1.547548
20.287870189139685	2.4090257	1.5521036
20.305675505054968	2.4037354	1.5503985
20.323481316423702	2.347949	1.5323019
20.341287623717207	2.318777	1.5227531
20.359094427406884	2.315316	1.5216162
20.376901727964288	2.3243113	1.5245692
20.39470952586107	2.3287437	1.5260222
20.41251782156899	2.3545678	1.5344601
20.430326615559935	2.3520715	1.5336465
20.448135908305886	2.38001	1.5427281
20.465945700278965	2.389433	1.5457791
20.483755991951384	2.3835561	1.543877
20.50156678379548	2.3527079	1.5338539
20.519378076283708	2.2975416	1.5157644
20.537189869888635	2.273442	1.5077938
20.55500216508294	2.2766833	1.5088682
20.572814962339415	2.2817135	1.5105342
20.59062826213098	2.3014479	1.5170524
20.60844206493066	2.2799902	1.5099636
20.626256371211593	2.287849	1.5125637
20.644071181447032	2.258145	1.5027126
20.66188649611036	2.2368307	1.4956038
20.67970231567506	2.24806	1.4993532
20.697518640614742	2.2842407	1.5113704
20.715335471403122	2.3227215	1.5240477
20.73315280851404	2.3155856	1.5217048
20.750970652421447	2.2830732	1.5109842
20.768789003599412	2.235983	1.4953203
20.786607862522136	2.240744	1.4969115
20.8044272296639	2.265213	1.5050625
20.82224710549913	2.265767	1.5052465
20.84006749050237	2.251534	1.5005113
20.857888385148268	3.8010993	1.9496409
20.8757097899116	45.925426	6.77683
20.893531705267254	64.77797	8.048476
20.911354131690224	83.790535	9.153717
20.92917706965566	69.06299	8.310414
20.94700051963877	50.1432	7.0811863
20.96482448211493	29.390474	5.421298
20.982648957559622	4.0957694	2.0238008
21.00047394644843	2.2054937	1.4850905
21.01829944925707	2.201143	1.4836249
21.036125466461375	2.2059553	1.4852458
21.053951998537297	2.1945443	1.4813994
21.071779045960906	2.1933148	1.4809844
21.089606609208378	2.210341	1.4867215
21.10743468875603	2.2217696	1.4905602
21.12526328508028	2.195862	1.4818442
21.143092398657675	2.1852026	1.4782431
21.16092202996488	2.1711173	1.4734712
21.17875217947867	2.1720514	1.4737881
21.19658284767596	2.148122	1.4656473
21.21441403503377	2.1552556	1.4680789
21.232245742029225	2.1780217	1.4758122
21.2500779691396	2.170627	1.4733049
21.26791071684227	2.1799557	1.4764673
21.28574398561475	2.1784303	1.4759506
21.30357777593465	2.196149	1.481941
21.321412088279704	2.19985	1.4831891
21.339246923127792	2.2068777	1.4855564
21.357082280956888	2.2150385	1.4883006
21.3749181622451	2.1956966	1.4817883
21.392754567470647	2.1244864	1.4575619
21.41059149711187	2.0603342	1.4353864
21.42842895164726	2.0524278	1.4326297
21.446266931555378	2.0609972	1.4356173
21.464105437314945	2.0558429	1.4338211
21.481944469404798	2.0508578	1.4320816
21.49978402830388	2.064961	1.4369972
21.51762411449127	2.056245	1.4339613
21.53546472844617	2.0586777	1.4348093
21.553305870647876	2.012715	1.4187019
21.571147541575865	2.0221252	1.4220145
21.58898974170967	2.0626287	1.4361855
21.60683247152899	2.0812638	1.4426585
21.62467573151363	2.0619643	1.4359541
21.642519522143523	2.0596914	1.4351625
21.660363843898722	2.0551832	1.433591
21.6782086972594	2.0406616	1.4285172
21.696054082705864	2.025143	1.4230752
21.713900000718535	2.0652008	1.4370806
21.73174645177795	2.052078	1.4325076
21.749593436364794	2.0811424	1.4426165
21.767440954959845	2.0784984	1.4416999
21.785289008044032	2.103062	1.4501938
21.803137596098388	2.046975	1.4307253
21.820986719604086	2.0164332	1.4200118
21.838836379042412	1.9402819	1.39294
21.85668657489478	1.9427904	1.3938402
21.87453730764273	1.969965	1.4035544
21.892388577767914	2.004694	1.4158722
21.91024038575213	1.9798335	1.4070655
21.928092732077285	1.9614475	1.4005169
21.945945617225426	1.9559227	1.3985431
21.963799041678694	1.9722973	1.404385
21.981653005919398	31.302095	5.5948277
21.999507510429943	78.08675	8.836671
22.01736255569286	73.02481	8.545456
22.035218142190818	4.1210628	2.03004
22.05307427040661	1.9679066	1.402821
22.07093094082315	1.9944533	1.4122511
22.088788153923474	1.9883301	1.4100816
22.106645910190746	1.994015	1.4120959
22.12450421010827	2.0221202	1.4220127
22.142363054159464	2.0484579	1.4312434
22.16022244282787	2.0211887	1.4216852
22.178082376597164	1.996772	1.4130719
22.195942855951145	1.9827651	1.4081069
22.213803881373742	1.9772893	1.4061612
22.231665453349002	1.9843405	1.4086663
22.24952757236111	1.9570329	1.39894
22.26739023889438	1.9524797	1.3973116
22.28525345343323	1.9564278	1.3987236
22.30311721646225	1.9750849	1.4053771
22.320981528466113	1.9482452	1.3957956
22.33884638992964	1.9501759	1.396487
22.356711801337788	1.9594616	1.3998077
22.37457776317561	1.9415407	1.3933918
22.392444275928337	1.9346496	1.3909168
22.410311340081282	1.9202304	1.3857238
22.428178956119904	1.9499637	1.3964111
22.446047124529805	1.9782646	1.406508
22.46391584579669	1.9616377	1.4005848
22.481785120406414	1.9425789	1.3937643
22.49965494884496	1.9828036	1.4081206
22.51752533159841	1.9851232	1.408944
22.53539626915302	1.9611399	1.4004071
22.553267761995137	1.9064343	1.3807368
22.571139810611264	1.8635285	1.3651111
22.589012415488025	1.8495283	1.3599737
22.60688557711216	1.8598046	1.3637465
22.624759295970566	1.928084	1.3885547
22.642633572550263	1.9373031	1.3918704
22.660508407338362	1.9531536	1.3975527
22.67838380082217	1.9891866	1.4103853
22.696259753489077	1.9834466	1.4083489
22.714136265826614	1.9550134	1.3982179
22.73201333832246	1.9481481	1.3957608
22.74989097146439	1.9492749	1.3961643
22.76776916574035	1.9259019	1.3877686
22.785647921638393	1.9098008	1.3819554
22.803527239646712	1.9377651	1.3920363
22.82140712025363	1.9405214	1.393026
22.839287563947593	1.8979449	1.3776592
22.85716857121719	1.8789512	1.3707484
22.875050142551135	1.915869	1.3841492
22.892932278438277	1.9519049	1.3971059
22.910814979367604	1.940521	1.3930259
22.928698245828222	1.9399605	1.3928246
22.946582078309387	1.9708123	1.4038563
22.96446647730047	1.9627256	1.4009731
22.98235144329098	1.9161782	1.3842609
23.000236976770562	1.8910685	1.3751613
23.018123078229	1.8979733	1.3776696
23.03600974815619	1.9195449	1.3854765
23.053896987042194	1.9338527	1.3906304
23.071784795377173	1.9180343	1.3849312
23.08967317365145	1.9090185	1.3816724
23.10756212235546	1.8834256	1.3723795
23.125451641979787	1.9013745	1.3789034
23.143341733015134	1.8847606	1.3728658
23.161232395952357	1.910394	1.38217
23.179123631282426	1.9124187	1.3829023
23.197015439496468	1.9283485	1.38865
23.214907821085717	1.9563373	1.3986913
23.23280077654157	1.9603631	1.4001297
23.250694306355538	1.9793727	1.4069018
23.268588411019277	1.9696022	1.4034252
23.28648309102458	1.980026	1.4071339
23.304378346863356	1.987649	1.4098401
23.322274179027676	1.9894067	1.4104633
23.340170588009723	1.9854871	1.4090731
23.358067574301852	1.9734172	1.4047837
23.37596513839651	1.9642743	1.4015257
23.39386328078629	1.966603	1.4023563
23.411762001963947	1.9530506	1.3975159
23.429661302422353	1.9165587	1.3843983
23.4475611826545	1.8974284	1.3774717
23.46546164315356	1.870565	1.367686
23.48336268441279	1.8985723	1.3778869
23.501264306925638	1.9035621	1.3796964
23.51916651118564	1.8854494	1.3731167
23.537069297686497	1.8448898	1.3582672
23.554972666922037	1.8710941	1.3678794
23.57287661938623	1.9195523	1.3854791
23.59078115557318	1.9519144	1.3971093
23.608686275977128	1.9461492	1.3950446
23.62659198109246	1.9799154	1.4070947
23.6444982714137	1.9869158	1.40958
23.66240514743549	1.9804527	1.4072856
23.68031260965263	1.9499391	1.3964022
23.698220658560068	1.9192927	1.3853854
23.716129294652845	1.902888	1.379452
23.7340385184262	1.8962713	1.3770517
23.75194833037546	1.8737401	1.3688463
23.769858730996123	1.9075518	1.3811414
23.78776972078382	1.912519	1.3829385
23.80568130023431	1.9505916	1.3966358
23.823593469843495	1.9481704	1.3957688
23.841506230107424	1.9581524	1.39934
23.859419581522275	1.9202584	1.3857338
23.87733352458438	1.8928134	1.3757956
23.89524805979019	1.8751677	1.3693676
23.913163187636318	1.8862643	1.3734134
23.931078908619508	1.9404297	1.3929931
23.948995223236633	1.9884775	1.4101338
23.966912131984735	2.0290482	1.4244466
23.98482963536096	2.042747	1.429247
24.002747733862616	2.0517082	1.4323785
24.020666427987155	2.0887184	1.4452399
24.038585718232156	2.10558	1.4510617
24.056505605095353	2.0947654	1.4473305
24.074426089074617	2.0804546	1.442378
24.092347170667946	2.0567083	1.4341228
24.110268850373515	2.0606654	1.4355018
24.128191128689586	2.0668926	1.4376692
24.146114006114626	2.0477998	1.4310136
24.164037483147187	2.052221	1.4325576
24.181961560286005	2.0101812	1.4178085
24.199886238029926	1.9838651	1.4084975
24.21781151687797	2.0346346	1.4264061
24.235737397329274	2.0367296	1.4271404
24.253663879883135	2.0022516	1.4150094
24.271590965038975	2.0087454	1.4173021
24.289518653296376	2.0122173	1.4185264
24.30744694515505	1.9974877	1.4133251
24.32537584111486	1.9803976	1.407266
24.34330534167581	2.0382578	1.4276757
24.361235447338046	2.0309012	1.4250969
24.379166158601876	1.9848275	1.4088391
24.39709747596772	2.0055065	1.416159
24.41502939993615	1.997909	1.4134741
24.432961931007917	2.0077758	1.41696
24.450895069683856	1.9970481	1.4131695
24.468828816465	1.9820575	1.4078556
24.4867631718525	1.9550005	1.3982134
24.504698136347656	1.9730631	1.4046576
24.52263371045192	1.9654086	1.4019303
24.540569894666874	1.9487581	1.3959793
24.558506689494266	1.9178373	1.38486
24.57644409543597	1.9158993	1.3841602
24.594382112994012	1.9456565	1.3948679
24.61232074267057	1.9486955	1.3959569
24.630259984967953	1.957317	1.3990414
24.64819984038863	1.8866874	1.3735673
24.66614030943522	1.8893216	1.3745259
24.684081392610462	1.9612871	1.4004596
24.702023090417274	1.9937289	1.4119947
24.7199654033587	2.0063753	1.4164658
24.737908331937927	2.024368	1.4228029
24.755851876658305	2.0558562	1.4338257
24.773796038023324	2.0528755	1.432786
24.79174081653661	2.0423121	1.4290949
24.809686212701962	2.0300734	1.4248065
24.827632227023294	2.0380707	1.4276102
24.8455788600047	2.0873194	1.4447558
24.8635261121504	2.1431909	1.4639641
24.88147398396475	2.1174023	1.4551296
24.899422475952303	2.0799806	1.4422138
24.917371588617698	2.091757	1.4462909
24.935321322465768	2.2080402	1.4859476
24.953271678001478	2.3068712	1.5188388
24.97122265572994	2.4446654	1.5635426
24.989174256156414	2.7414415	1.6557299
25.00712647978632	3.298545	1.8161896
25.02507932712521	4.303893	2.0745826
25.043032798678798	5.820559	2.4125836
25.060986894952933	7.592774	2.755499
25.078941616453637	9.109859	3.0182543
25.096896963687055	9.989597	3.1606324
25.114852937159508	10.6224785	3.2592144
25.132809537377444	10.45014	3.2326677
25.150766764847468	9.706453	3.115518
25.168724620076347	8.217428	2.8666058
25.186683103570985	7.0388017	2.653074
25.204642215838426	5.720161	2.3916857
25.222601957385894	4.629268	2.1515734
25.24056232872074	3.4970975	1.8700528
25.25852333035048	2.7955165	1.6719798
25.276484962782778	2.3896039	1.5458343
25.294447226525435	2.211555	1.4871298
25.312410122086423	2.0752563	1.440575
25.330373649973843	1.9921412	1.4114324
25.348337810695988	1.9665961	1.4023538
25.366302604761245	1.973799	1.4049196
25.384268032678207	1.9869748	1.409601
25.40223409495558	1.9558014	1.3984997
25.420200792102257	1.9039625	1.3798414
25.438168124627246	1.913467	1.3832812
25.45613609303974	1.966614	1.4023602
25.474104697849057	1.9596939	1.3998907
25.492073939564698	1.8588488	1.363396
25.510043818696285	1.8369484	1.3553407
25.528014335753614	1.8561314	1.3623991
25.54598549124664	1.8530506	1.361268
25.56395728568544	1.8653013	1.3657603
25.58192971958028	1.8462839	1.3587803
25.59990279344156	1.8758662	1.3696226
25.617876507779833	1.852247	1.3609728
25.635850863105826	1.8367839	1.35528
25.653825859930386	1.7906386	1.3381474
25.671801498764548	1.8431791	1.3576373
25.68977778011949	1.8979198	1.3776501
25.707754704506524	1.8814054	1.3716433
25.725732272437153	1.8111895	1.3458045
25.743710484423012	1.8020266	1.3423959
25.761689340975888	1.8251107	1.3509666
25.77966884260774	1.8263978	1.3514428
25.797648989830662	1.8495567	1.359984
25.815629783156922	1.8276138	1.3518927
25.83361122309895	1.8262001	1.3513697
25.85159331016929	1.8571646	1.3627783
25.869576044880695	1.8760478	1.369689
25.887559427746034	1.8531789	1.3613151
25.90554345927836	1.8371212	1.3554045
25.92352813999086	1.8294744	1.3525807
25.94151347039689	1.8427995	1.3574976
25.959499451009965	1.8620003	1.3645513
25.97748608234374	1.8599796	1.3638107
25.995473364912062	1.8428851	1.357529
26.013461299228904	1.8292526	1.3524987
26.03144988580839	1.8279969	1.3520343
26.04943912516483	1.8124852	1.3462857
26.067429017812675	1.8033941	1.342905
26.085419564266537	1.7802471	1.334259
26.103410765041186	1.7799151	1.3341346
26.12140262065155	1.7831422	1.3353435
26.139395131612723	1.7697221	1.330309
26.157388298439948	1.7646891	1.328416
26.17538212164861	1.8132111	1.3465552
26.193376601754295	1.8221138	1.349857
26.211371739272714	1.8240958	1.350591
26.229367534719746	1.7966932	1.3404078
26.247363988611433	1.7860452	1.3364301
26.26536110146397	1.7974598	1.3406938
26.283358873793727	1.8280381	1.3520496
26.301357306117204	1.8520938	1.3609165
26.319356398951104	1.8363593	1.3551233
26.33735615281224	1.8244927	1.3507378
26.35535656821762	1.8333282	1.3540045
26.373357645684404	1.8635358	1.3651139
26.39135938572991	1.87548	1.3694817
26.409361788871614	1.8300729	1.3528019
26.427364855627165	1.7881697	1.3372246
26.445368586514352	1.7795635	1.3340029
26.46337298205115	1.8087153	1.3448849
26.48137804275568	1.8480759	1.3594395
26.499383769146217	1.8672963	1.3664905
26.517390161741215	1.859854	1.3637646
26.53539722105928	1.8315383	1.3533434
26.553404947619182	1.8723329	1.3683321
26.571413341939856	1.8850496	1.372971
26.589422404540397	1.8715423	1.3680433
26.60743213594006	1.8237383	1.3504586
26.62544253665827	1.8092415	1.3450805
26.64345360721459	1.7949604	1.3397613
26.66146534812879	1.7863444	1.336542
26.679477759920758	1.7949742	1.3397665
26.69749084311057	1.8489927	1.3597767
26.71550459821847	1.8515134	1.3607032
26.733519025764842	1.8078889	1.3445776
26.751534126270258	1.782741	1.3351933
26.769549900255434	1.7987227	1.3411647
26.787566348241267	1.8002264	1.3417252
26.80558347074881	1.8029181	1.3427279
26.823601268299267	1.8151035	1.3472577
26.841619741414036	1.827768	1.3519497
26.85963889061465	1.8378322	1.3556668
26.877658716422832	1.8542949	1.361725
26.89567921936045	1.8286436	1.3522735
26.913700399949544	1.8180075	1.348335
26.93172225871233	1.86028	1.3639208
26.949744796171174	1.8365343	1.3551879
26.967768012848605	1.7904654	1.3380827
26.98579190926733	1.8134829	1.3466562
27.003816485950225	1.877864	1.3703518
27.021841743420318	1.875223	1.3693879
27.039867682200814	1.8069073	1.3442125
27.057894302815072	1.7389523	1.3186934
27.07592160578664	1.7717278	1.3310627
27.0939495916392	1.8016027	1.342238
27.111978260896635	1.827241	1.3517548
27.13000761408296	1.840409	1.3566167
27.148037651722397	1.858399	1.3632311
27.166068374339304	1.8196706	1.3489517
27.184099782458215	1.8241401	1.3506073
27.20213187660384	1.8060151	1.3438807
27.22016465730105	1.8206443	1.3493125
27.23819812507487	1.8303577	1.3529071
27.256232280450533	1.8355694	1.3548318
27.274267123953383	1.7986689	1.3411446
27.292302656108987	1.7696112	1.3302673
27.31033887744306	1.8199214	1.3490446
27.32837578848146	1.846939	1.3590213
27.34641338975026	1.8012664	1.3421127
27.364451681775673	1.7846725	1.3359164
27.382490665084074	1.8093839	1.3451334
27.400530340202046	1.835583	1.3548368
27.41857070765629	1.8067101	1.3441392
27.436611767973726	1.7690437	1.330054
27.454653521681404	1.7766166	1.3328978
27.472695969306564	1.7851108	1.3360804
27.490739111376627	1.7870027	1.3367882
27.508782948419153	1.80989	1.3453215
27.526827480961902	1.8341185	1.3542963
27.54487270953279	1.8229133	1.3501531
27.562918634659898	1.8578521	1.3630304
27.580965256871508	1.8484062	1.3595611
27.599012576696026	1.8040377	1.3431447
27.617060594662068	1.7990193	1.3412752
27.63510931129842	1.8256301	1.3511587
27.65315872713401	1.8731511	1.3686311
27.67120884269797	1.8623117	1.3646654
27.68925965851958	1.8478158	1.3593439
27.707311175128307	1.834079	1.3542818
27.725363393053787	1.9293833	1.3890225
27.74341631282583	2.0157447	1.4197693
27.7614699349744	1.9901383	1.4107226
27.77952426002968	2.0911486	1.4460804
27.797579288521973	2.1508517	1.4665782
27.815635020981784	2.553673	1.5980216
27.83369145793979	2.5909655	1.6096476
27.85174859992682	2.4640782	1.5697383
27.869806447473923	2.3937678	1.5471807
27.887865001112267	2.124427	1.4575415
27.905924261373233	1.992256	1.411473
27.92398422878836	1.9640908	1.4014603
27.94204490388936	1.926111	1.387844
27.96010628720813	1.8653547	1.3657799
27.978168379276728	1.8273853	1.3518082
27.9962311806274	1.8061817	1.3439426
28.014294691792568	1.8191198	1.3487475
28.0323589133048	1.8692472	1.3672042
28.050423845696887	1.8738614	1.3688906
28.068489489501758	1.8509071	1.3604804
28.086555845252523	1.8810673	1.37152
28.104622913482487	1.8807329	1.3713982
28.122690694725115	1.884273	1.3726883
28.14075918951405	1.9067737	1.3808597
28.15882839838312	1.9558553	1.3985189
28.176898321866304	1.919561	1.3854822
28.1949689604978	1.9049022	1.3801819
28.213040314811945	1.9644641	1.4015934
28.23111238534327	1.9988978	1.4138238
28.249185172626493	1.9419957	1.393555
28.267258677196473	1.9313414	1.3897271
28.285332899588294	1.9594731	1.3998119
28.303407840337172	1.9857777	1.4091762
28.321483499978545	1.9811878	1.4075468
28.33955987904799	1.9586474	1.3995168
28.357636978081285	1.9684324	1.4030083
28.37571479761439	1.9819881	1.407831
28.393793338183425	2.0095627	1.4175905
28.41187260032469	2.0305681	1.42498
28.429952584574686	2.0479383	1.431062
28.448033291470065	2.1046414	1.4507382
28.46611472154769	2.0968463	1.4480492
28.484196875344566	2.0550113	1.433531
28.502279753397914	2.0503356	1.4318993
28.52036335624511	2.0154383	1.4196613
28.538447684423716	1.9278194	1.3884593
28.556532738471482	1.9264418	1.3879632
28.574618518926325	1.9563497	1.3986957
28.59270502632635	1.9429781	1.3939075
28.61079226120985	1.9763408	1.4058238
28.628880224115274	2.041038	1.4286491
28.646968915581287	2.0589876	1.4349173
28.66505833614671	2.043207	1.429408
28.68314848635055	1.9973283	1.4132687
28.701239366732004	2.016151	1.4199123
28.71933097783044	2.0930948	1.4467531
28.737423320185403	2.1605182	1.4698701
28.75551639433665	2.1220567	1.4567281
28.773610200824074	2.0566576	1.4341052
28.791704740187793	2.0915759	1.4462281
28.80980001296809	2.13178	1.4600617
28.827896019705413	2.2171545	1.4890113
28.845992760940433	2.2338784	1.4946165
28.86409023721397	2.1934218	1.4810206
28.88218844906704	2.144831	1.4645241
28.900287397040845	2.1650975	1.471427
28.918387081676755	2.150267	1.4663788
28.936487503516343	2.2131643	1.4876708
28.954588663101365	2.3059895	1.5185485
28.97269056097374	2.3860343	1.5446793
28.990793197675597	2.4201992	1.5556989
29.00889657374923	2.3467767	1.5319192
29.027000689737125	2.2969348	1.5155642
29.04510554618196	2.3589146	1.5358758
29.06321114362659	2.3797665	1.5426491
29.08131748261405	2.4252388	1.5573179
29.099424563687567	2.5011377	1.5814986
29.11753238739057	2.5852835	1.6078817
29.13564095426663	2.5723753	1.6038626
29.15375026485954	2.499257	1.5809039
29.171860319713275	2.5016735	1.5816679
29.18997111937199	2.5923383	1.610074
29.20808266438002	2.7323074	1.6529692
29.226194955281898	2.8123333	1.6770012
29.244307992622335	2.845872	1.6869712
29.26242177694624	2.915887	1.7075969
29.2805363087987	2.9266458	1.7107443
29.29865158872498	2.921563	1.709258
29.316767617270557	2.9644942	1.7217706
29.334884394981064	3.0240052	1.7389667
29.353001922402367	3.0334933	1.7416927
29.37112020008047	3.086848	1.7569427
29.389239228561596	3.1613743	1.7780254
29.407359008392152	3.3686721	1.8353943
29.42547954011872	3.6954594	1.9223578
29.44360082428809	4.1247973	2.0309596
29.46172286144722	4.922882	2.218757
29.479845652143283	6.5756397	2.564301
29.497969196923606	9.39976	3.065903
29.516093496335728	13.231465	3.6375082
29.5342185509274	16.850025	4.1048784
29.55234436124651	19.971672	4.4689674
29.570470927841175	21.462631	4.6327777
29.588598251259686	21.480024	4.6346545
29.60672633205055	19.696266	4.4380474
29.624855170762405	16.529167	4.065608
29.642984767944146	12.971591	3.6016095
29.66111512414481	9.655346	3.1073053
29.67924623991366	7.156334	2.6751325
29.697378115800138	5.349858	2.312976
29.71551075235387	4.3325276	2.0814724
29.733644150124675	3.7609448	1.9393156
29.751778309662576	3.5334942	1.8797591
29.769913231517766	3.4820573	1.8660271
29.78804891624066	3.363288	1.8339269
29.806185364381818	3.3538287	1.8313462
29.82432257649206	3.3393416	1.8273866
29.842460553122333	3.3357697	1.826409
29.86059929482382	3.3520467	1.8308595
29.878738802147872	3.3528256	1.8310722
29.896879075646048	3.3722286	1.8363628
29.915020115870114	3.2725546	1.8090204
29.933161923371976	3.2691903	1.8080902
29.951304498703777	3.2693033	1.8081214
29.969447842417857	3.2330966	1.7980814
29.987591955066733	3.1962264	1.7877994
30.005736837203123	3.2068613	1.7907711
30.023882489379943	3.1999435	1.7888386
30.04202891215028	3.1581154	1.7771087
30.060176106067455	3.16037	1.777743
30.078324071684946	3.1725957	1.7811782
30.09647280955646	3.1360672	1.7708944
30.114622320235863	3.1771743	1.782463
30.132772604277257	3.215601	1.7932097
30.1509236622349	3.1813731	1.7836404
30.16907549466328	3.1441069	1.773163
30.18722810211705	3.1144218	1.7647724
30.205381485151097	3.0846279	1.7563108
30.22353564432045	3.1090724	1.7632562
30.241690580180403	3.11562	1.7651119
30.25984629328638	3.0911589	1.7581692
30.278002784194037	2.9708636	1.7236193
30.296160053459246	2.9065914	1.7048728
30.314318101638033	2.9154978	1.7074829
30.332476929286646	2.960568	1.72063
30.35063653696153	3.0035493	1.7330751
30.368796925219307	2.994327	1.7304124
30.386958094616844	2.9017007	1.7034379
30.40512004571115	2.886486	1.6989661
30.423282779059463	2.9224	1.7095028
30.441446295219233	2.89903	1.7026538
30.459610594748067	2.7956758	1.6720275
30.47777567820382	2.7983336	1.6728221
30.495941546144504	2.7803285	1.6674317
30.51410819912835	2.749549	1.6581764
30.532275637713795	2.8048809	1.6747779
30.55044386245946	2.8794148	1.6968838
30.56861287392416	2.8847952	1.6984684
30.586782672666956	2.8733184	1.6950866
30.604953259247047	2.900017	1.7029437
30.623124634223885	2.8597102	1.6910678
30.641296798157075	2.788308	1.6698227
30.659469751606462	2.769151	1.6640766
30.677643495132074	2.8042145	1.6745789
30.695818029294152	2.721878	1.6498115
30.713993354653116	2.6453533	1.6264542
30.73216947176962	2.6429882	1.6257269
30.75034638120448	2.7153668	1.647837
30.768524083518756	2.7498143	1.6582564
30.786702579273673	2.8671694	1.6932718
30.80488186903069	2.9095168	1.7057306
30.82306195335144	2.9634821	1.7214767
30.841242832797782	3.1435444	1.7730043
30.85942450793176	3.5257592	1.8777006
30.877606979315637	4.0155787	2.003891
30.895790247511883	4.5080037	2.123206
30.913974313083134	4.8206267	2.1955926
30.932159176592283	5.056724	2.248716
30.95034483860237	5.4032655	2.3244925
30.968531299676698	5.478459	2.3406107
30.98671856037873	5.1645026	2.2725542
31.00490662127215	4.7765613	2.1855345
31.023095482920848	4.375799	2.091841
31.04128514588892	3.7520704	1.9370261
31.059475610740662	3.168459	1.7800165
31.07766687804056	2.7952554	1.6719017
31.09585894835335	2.6213574	1.6190606
31.11405182224393	2.553723	1.5980372
31.132245500277417	2.4540486	1.5665404
31.15043998301914	2.4695292	1.5714736
31.168635271034628	2.493837	1.5791887
31.18683136488964	2.4909353	1.5782697
31.20502826515008	2.4148524	1.5539795
31.223225972382135	2.4474528	1.5644337
31.241424487152155	2.462252	1.5691564
31.259623810026692	2.4690762	1.5713295
31.27782394157253	2.4781654	1.574219
31.296024882356644	2.5124657	1.585076
31.314226632946237	2.5236971	1.5886148
31.332429193908684	2.5235517	1.588569
31.350632565811598	2.4850433	1.576402
31.368836749222787	2.4959242	1.5798495
31.387041744710295	2.5128603	1.5852004
31.40524755284232	2.5373583	1.5929087
31.423454174187317	2.5370984	1.5928272
31.441661609313922	2.5197015	1.5873568
31.459869858791002	2.4876997	1.5772444
31.478078923187628	2.451848	1.5658379
31.496288803073064	2.4271004	1.5579154
31.514499499016807	2.397852	1.5485
31.532711011588546	2.367212	1.5385747
31.550923341358178	2.3505044	1.5331355
31.56913648889584	2.3718753	1.5400894
31.587350454771844	2.3269072	1.5254203
31.605565239556732	2.339298	1.5294764
31.62378084382127	2.3350284	1.52808
31.641997268136382	2.324527	1.52464
31.660214513073274	2.318235	1.5225751
31.67843257920331	2.3195143	1.5229951
31.6966514670981	2.2241776	1.4913677
31.71487117732944	2.2168047	1.4888937
31.733091710469346	2.32316	1.5241916
31.751313067090052	2.3414023	1.5301641
31.769535247764008	2.279112	1.5096729
31.787758253063878	2.2602258	1.5034047
31.805982083562526	2.2764325	1.5087851
31.824206739833024	2.3383746	1.5291744
31.84243222244869	2.4027493	1.5500804
31.860658531983013	2.365992	1.5381782
31.878885669009737	2.277733	1.5092161
31.897113634102784	2.2110808	1.4869703
31.91534242783632	2.2480006	1.4993334
31.933572050784694	2.2490685	1.4996895
31.951802503522508	2.2399168	1.4966352
31.970033786624548	2.244794	1.4982636
31.988265900665834	2.2052786	1.485018
32.006498846221575	2.1397612	1.4627923
32.02473262386724	2.1647394	1.4713054
32.04296723417845	2.1958928	1.4818546
32.0612026777311	2.261948	1.5039774
32.07943895510129	2.264629	1.5048684
32.097676066865304	2.1968338	1.482172
32.115914013599685	2.0947258	1.4473168
32.13415279588115	2.1195383	1.4558635
32.152392414286666	2.1518753	1.4669272
32.1706328693934	2.1698463	1.4730399
32.18887416177875	2.1347938	1.4610933
32.20711629202032	2.1702156	1.4731652
32.225359260695924	2.1992369	1.4829824
32.243603068383614	2.232669	1.4942119
32.26184771566166	2.1880949	1.479221
32.28009320310852	2.1618824	1.470334
32.2983395313029	2.1726744	1.4739995
32.31658670082372	2.1662946	1.4718337
32.33483471225012	2.1882248	1.479265
32.35308356616143	2.1405766	1.463071
32.371333263137245	2.0904963	1.4458549
32.38958380375734	2.0455468	1.4302261
32.407835188601744	1.9891994	1.4103898
32.42608741825067	2.0030317	1.415285
32.444340493284585	2.0790653	1.4418964
32.46259441428416	2.1496303	1.4661617
32.48084918183028	2.255889	1.5019617
32.49910479650405	2.159965	1.469682
32.51736125888683	2.058397	1.4347115
32.53561856956014	1.9908571	1.4109774
32.5538767291058	2.083701	1.443503
32.572135738105764	2.0934439	1.4468738
32.59039559714228	2.0386481	1.4278123
32.608656306797776	1.9469087	1.3953167
32.62691786765491	1.9939208	1.4120626
32.645180280296586	2.036207	1.4269572
32.663443545305896	2.1447012	1.4644798
32.68170766326619	2.1512718	1.4667214
32.69997263476099	2.1051517	1.450914
32.7182384603741	2.0437055	1.4295822
32.7365051406895	2.0679	1.4380194
32.75477267629144	2.049712	1.4316815
32.77304106776434	2.0070524	1.4167048
32.79131031569289	1.9789375	1.4067471
32.809580420661966	1.9678391	1.4027969
32.827851383256714	2.0011587	1.4146231
32.84612320406245	2.0300386	1.4247942
32.86439588366476	2.0735168	1.4399711
32.88266942264945	2.0692306	1.438482
32.9009438216025	2.1127102	1.4535165
32.9192190811102	2.106607	1.4514155
32.937495201758985	2.0974534	1.4482588
32.95577218413556	1.9901509	1.4107271
32.974050028826866	2.0174992	1.420387
32.992328736420035	2.048286	1.4311835
33.010608307502444	1.9358529	1.3913493
33.02888874266169	1.9245523	1.3872824
33.047170042485604	1.9989889	1.413856
33.06545220756225	1.9983888	1.4136438
33.083735238479896	1.8858265	1.373254
33.10201913582707	1.8400965	1.3565016
33.12030390019248	1.8290648	1.3524293
33.138589532165135	1.9447463	1.3945416
33.15687603233419	2.0441267	1.4297296
33.17516340128909	2.0134118	1.4189475
33.19345163961947	2.0017643	1.4148372
33.211740747915215	1.9385927	1.3923335
33.23003072676643	1.881229	1.371579
33.248321576763466	1.8845868	1.3728025
33.266613298496885	1.9784307	1.406567
33.28490589255747	2.0259473	1.4233577
33.30319935953626	1.9807513	1.4073917
33.32149370002451	1.9151093	1.3838748
33.339788914613706	1.9321387	1.3900139
33.358085003895575	1.9281217	1.3885682
33.376381968462034	1.9705207	1.4037523
33.39467980890529	2.08767	1.4448771
33.41297852581774	2.0750957	1.4405192
33.43127811979204	1.9500006	1.3964243
33.44957859142105	1.9527705	1.3974156
33.467879941297866	2.0463648	1.4305121
33.486182170015844	1.9550179	1.3982196
33.50448527816853	1.8867064	1.3735743
33.522789266349754	1.9297644	1.3891596
33.541094135153514	1.9747554	1.4052598
33.55939988517411	1.9152925	1.3839409
33.57770651700602	1.7946458	1.339644
33.59601403124398	1.778072	1.3334436
33.61432242848296	1.8662641	1.3661128
33.632631709318154	1.9675603	1.4026976
33.650941874344994	1.9054536	1.3803817
33.66925292415916	1.849605	1.3600018
33.68756485935654	1.9232297	1.3868055
33.70587768053328	1.9843422	1.4086668
33.724191388285746	1.9626204	1.4009355
33.74250598321054	1.8591526	1.3635074
33.760821465904506	1.863805	1.3652124
33.77913783696474	2.0456712	1.4302696
33.79745509698852	2.0338042	1.426115
33.815773246573414	1.9335426	1.3905188
33.8340922863172	1.9539756	1.3978467
33.852412216817896	1.9029185	1.3794631
33.87073303867377	1.8769225	1.3700082
33.889054752483304	1.8982764	1.3777795
33.907377358845245	1.924601	1.3872999
33.92570085835853	1.9514575	1.3969458
33.94402525162239	1.9144344	1.3836309
33.96235053923627	1.9854865	1.4090729
33.980676721799824	2.06056	1.4354651
33.999003799912984	1.9939429	1.4120704
34.01733177417592	1.8589289	1.3634255
34.03566064518901	1.7728869	1.331498
34.0539904135529	1.7246557	1.3132615
34.07232107986846	1.9239016	1.3870478
34.090652644736785	2.0648208	1.4369484
34.108985108759235	1.9744136	1.4051383
34.12731847253742	2.0147429	1.4194164
34.14565273667313	2.020181	1.4213307
34.16398790176847	1.8921005	1.3755364
34.18232396842574	1.9136368	1.3833426
34.20066093724749	2.0210779	1.4216462
34.21899880883651	1.977294	1.4061629
34.23733758379583	1.9771273	1.4061036
34.25567726272874	1.9688759	1.4031664
34.27401784623872	1.9982203	1.4135842
34.29235933492957	1.9606196	1.4002212
34.31070172940526	1.9159418	1.3841755
34.32904503027003	1.9218425	1.3863053
34.347389238128386	1.8799071	1.3710971
34.36573435358502	1.8941811	1.3762926
34.38408037724492	1.983797	1.4084733
34.402427309713296	2.0241237	1.422717
34.42077515159559	1.9928352	1.4116782
34.43912390349752	1.9256126	1.3876644
34.45747356602499	1.9655566	1.4019831
34.47582413978423	1.9983752	1.413639
34.49417562538163	1.9832842	1.4082912
34.51252802342388	1.9572775	1.3990273
34.53088133451789	1.8286098	1.352261
34.54923555927084	1.9629598	1.4010566
34.567590698290104	2.0482893	1.4311845
34.58594675218336	2.020903	1.4215847
34.6043037215585	2.0135112	1.4189824
34.62266160702365	1.9312412	1.389691
34.641020409187234	1.9716905	1.404169
34.65938012865785	2.0256715	1.4232608
34.677740766044394	1.9714628	1.4040879
34.69610232195598	1.7992142	1.3413479
34.714464797002016	1.6748292	1.2941519
34.73282819179208	1.8865502	1.3735174
34.751192506936064	2.1051486	1.450913
34.76955774304408	2.132511	1.4603119
34.7879239007265	2.10941	1.4523808
34.80629098059391	1.9901117	1.4107132
34.824658983257194	1.8685396	1.3669454
34.843027909327446	2.1123383	1.4533886
34.86139775941603	2.24605	1.4986827
34.879768534134534	2.2071571	1.4856504
34.89814023409483	1.9431809	1.3939803
34.91651285990901	1.9161334	1.3842447
34.93488641218944	2.1329858	1.4604745
34.95326089154871	2.1223507	1.456829
34.97163629859967	2.0426712	1.4292204
34.99001263395542	2.201891	1.483877
35.00838989822934	2.0593376	1.4350393
35.02676809203499	1.7217916	1.3121706
35.04514721598624	1.7558354	1.3250794
35.063527270697215	1.8450958	1.358343
35.081908256782256	1.8852031	1.373027
35.10029017485597	1.9088396	1.3816077
35.11867302553321	2.1348772	1.4611219
35.137056809429104	2.372418	1.5402656
35.155441527159006	2.1972685	1.4823186
35.173827179338524	2.013444	1.4189588
35.19221376658354	1.9722873	1.4043815
35.21060128951017	2.0085711	1.4172407
35.2289897487348	2.1922555	1.4806267
35.24737914487405	2.0099013	1.4177098
35.26576947854479	1.7993722	1.3414068
35.28416075036418	2.1102192	1.4526594
35.30255296094958	2.3847039	1.5442487
35.32094611091867	2.1245923	1.4575981
35.33934020088932	1.8144991	1.3470335
35.35773523147969	2.0477314	1.4309896
35.3761312033082	2.188069	1.4792123
35.394528116993506	2.004112	1.4156666
35.41292597315452	2.0754201	1.4406319
35.431324772410434	2.1937687	1.4811376
35.449724515380666	2.0981548	1.4485009
35.46812520268491	2.2598839	1.503291
35.486526834943106	2.7414558	1.6557342
35.504929412775454	2.604935	1.6139811
35.52333293680242	2.0382211	1.4276628
35.54173740764471	2.4312205	1.5592371
35.560142825923286	2.3657858	1.5381111
35.5785491922594	1.5441883	1.2426537
35.59695650727454	1.3030539	1.1415138
35.61536477159042	1.7820303	1.3349271
