0.008763373481513119	0.56609195	0.7523908
0.026290120649546365	0.33515513	0.57892585
0.043816868432600686	0.27121985	0.5207877
0.06134361724069026	0.18723494	0.43270653
0.07887036748382949	0.12052597	0.3471685
0.0963971195720331	0.036185376	0.19022454
0.11392387391531617	0.0	0.0
0.1314506309236943	0.0	0.0
0.1489773910071836	0.04797724	0.21903707
0.16650415457580078	0.09794623	0.3129636
0.18403092203956356	0.11553245	0.33990064
0.20155769380849	0.11410492	0.33779418
0.2190844702925996	0.14204939	0.37689438
0.2366112519019124	0.17376134	0.4168469
0.2541380390464497	0.19689395	0.44372734
0.27166483213623416	0.18363349	0.4285248
0.28919163158128947	0.1631863	0.40396324
0.3067184377916406	0.12684341	0.35615084
0.324245251177314	0.11074139	0.3327783
0.34177207214833777	0.104075246	0.32260695
0.3592989011147415	0.11021367	0.33198443
0.37682573848655654	0.15057224	0.3880364
0.39435258467381573	0.13423239	0.36637738
0.41187944008655414	0.13439901	0.36660472
0.42940630513480854	0.1299638	0.36050493
0.446933180228618	0.20140351	0.44878003
0.4644600657780234	0.23268151	0.48237073
0.48198696219306775	0.29648146	0.5445011
0.49951386988379676	0.25218678	0.502182
0.5170407892602581	0.21868868	0.46764162
0.5345677207325025	0.1393873	0.3733461
0.5520946647105822	0.14317773	0.37838835
0.5696216216045534	0.14826137	0.38504723
0.5871485918244737	0.17054105	0.41296616
0.6046755757804043	0.17109916	0.41364133
0.6222025738824094	0.17677413	0.42044514
0.6397295865405557	0.18736283	0.4328543
0.6572566141649129	0.18918097	0.4349494
0.6747836571655547	0.17454633	0.41778743
0.6923107159525568	0.16422544	0.4052474
0.7098377909359992	0.15022004	0.3875823
0.7273648825259653	0.16890436	0.41097975
0.7448919911325411	0.16319638	0.40397573
0.762419117165817	0.2072565	0.45525432
0.7799462610358868	0.19058685	0.43656254
0.7974734231528482	0.16555823	0.40688848
0.8150006039268024	0.15279157	0.39088562
0.8325278037678551	0.16837482	0.410335
0.8500550230861152	0.19847997	0.4455109
0.8675822622916969	0.18957856	0.4354062
0.8851095217947171	0.15728992	0.39659792
0.9026368020052984	0.14854567	0.38541624
0.9201641033335665	0.14297861	0.37812513
0.9376914261896523	0.15721983	0.39650956
0.9552187709836915	0.18742287	0.43292364
0.9727461381258234	0.2234914	0.47274876
0.990273528026193	0.23131534	0.48095253
1.0078009410949496	0.27410161	0.5235472
1.0253283777422473	0.3336148	0.577594
1.0428558383782454	0.3542894	0.5952222
1.0603833234131086	0.34181833	0.5846523
1.0779108332570058	0.31798092	0.56389797
1.0954383683201119	0.31189278	0.5584736
1.112965929012607	0.32660314	0.571492
1.1304935157446763	0.50716364	0.7121542
1.1480211289265108	0.57807857	0.76031476
1.1655487689683062	1.5076678	1.2278712
1.1830764362802655	1.802583	1.3426031
1.200604131272596	2.1356964	1.4614022
1.2181318543555117	2.3168318	1.5221143
1.235659605939232	2.355768	1.5348511
1.253187386433982	3.8286624	1.9566967
1.270715196249994	6.2008805	2.4901567
1.2882430357975057	11.670574	3.416222
1.3057709054867608	16.37735	4.046894
1.3232988057280106	21.889568	4.678629
1.3408267369315112	26.756014	5.1726217
1.358354699507526	30.168533	5.492589
1.3758826938663256	34.6249	5.8842926
1.3934107204181858	36.72521	6.0601325
1.410938779573391	37.52024	6.1253767
1.4284668717422309	38.25336	6.1849303
1.4459949973350033	37.79366	6.147655
1.4635231567620117	37.4732	6.121536
1.4810513504335687	36.33539	6.027884
1.4985795787599925	35.471203	5.9557705
1.5161078421516088	35.488235	5.9572005
1.5336361410187505	35.022026	5.917941
1.5511644757717598	35.04413	5.919808
1.5686928468209842	35.611233	5.967515
1.58622125457678	36.410213	6.0340877
1.6037496994495108	38.131042	6.1750336
1.621278181849548	37.73098	6.1425548
1.6388067021872719	38.059948	6.1692743
1.6563352608730693	37.20198	6.099343
1.673863858317336	36.270798	6.0225244
1.6913924949304753	35.536945	5.961287
1.7089211711228998	34.51057	5.87457
1.7264498873050296	33.819798	5.8154793
1.7439786438872935	32.869274	5.733173
1.7615074412801288	31.988617	5.655848
1.779036279893981	31.090565	5.5758915
1.796565160139305	30.14257	5.490225
1.814094082426564	29.067574	5.391435
1.8316230471662298	27.995459	5.2910733
1.849152054768784	26.97083	5.193345
1.8666811056447168	26.524084	5.1501536
1.8842102002045273	25.830872	5.082408
1.901739338858724	25.522173	5.0519476
1.9192685220178245	25.456741	5.0454674
1.9367977500923557	24.965378	4.9965367
1.9543270234928547	24.737469	4.9736776
1.971856342629867	24.062733	4.905378
1.9893857079139496	23.688608	4.8670945
2.006915119755667	23.107346	4.80701
2.0244445785655945	22.270409	4.7191534
2.0419740847543175	21.655243	4.6535196
2.0595036387324317	21.2694	4.611876
2.0770332409105414	20.940678	4.5760984
2.094562891699263	20.562384	4.5345764
2.1120925915092217	19.991447	4.4711795
2.129622340751053	19.757074	4.444893
2.1471521398354043	187.97485	13.710392
2.1646819891729323	444.14407	21.074726
2.182211889174303	440.26297	20.982445
2.1997418402501974	452.69223	21.276566
2.2172718428113023	432.7706	20.803139
2.234801897268317	320.91232	17.914026
2.2523320040319548	17.321802	4.161947
2.269862163512935	17.163563	4.142893
2.287392376121992	16.912094	4.1124315
2.304922642269869	16.574068	4.071126
2.322452962367322	16.222166	4.027675
2.3399833368251164	15.589992	3.9484162
2.357513766054032	15.381408	3.9219139
2.3750442504648586	15.189375	3.8973548
2.3925747904683963	14.916755	3.8622215
2.410105386475459	14.727709	3.8376696
2.4276360388968707	14.268933	3.777424
2.445166748143469	13.96432	3.7368865
2.4626975146261025	13.503256	3.6746776
2.4802283387556323	13.349531	3.653701
2.4977592209429305	13.043798	3.61162
2.5152901615988825	12.654079	3.5572572
2.5328211611343865	12.522341	3.538692
2.5503522199603523	12.350469	3.5143235
2.5678833384877024	12.39202	3.52023
2.5854145171273712	12.335577	3.512204
2.6029457562903064	12.138652	3.4840567
2.620477056387469	11.872146	3.4455981
2.6380084178298326	11.749794	3.4277973
2.655539841028383	11.518668	3.3939164
2.673071326394119	11.415603	3.3786983
2.6906028743380523	11.147922	3.3388503
2.708134485271211	10.801879	3.286621
2.7256661596046325	10.592497	3.2546117
2.743197897749369	10.429812	3.229522
2.760729700116486	10.346324	3.2165701
2.778261567117063	10.237999	3.1996872
2.795793499162193	10.15409	3.1865482
2.8133254966629817	10.088126	3.176181
2.830857560030551	9.980927	3.1592605
2.8483896896760337	9.918477	3.1493614
2.865921886010578	9.709878	3.1160676
2.883454149445347	9.388189	3.0640152
2.9009864803915177	9.133965	3.022245
2.91851887926028	9.041058	3.0068352
2.9360513464628384	9.026678	3.0044432
2.953583882410413	8.926829	2.98778
2.9711164875142373	8.932161	2.9886723
2.9886491621855606	8.91588	2.9859471
3.0061819068356455	8.826027	2.970863
3.023714721875769	8.614741	2.935088
3.041247607717225	8.41052	2.9000895
3.0587805647713213	8.303901	2.881649
3.0763135934493806	8.146954	2.854287
3.0938466941627407	8.002911	2.8289416
3.1113798673227544	7.954323	2.8203409
3.1289131133407904	7.8218074	2.7967494
3.1464464326282315	7.7585425	2.7854161
3.1639798255964786	7.676909	2.7707236
3.1815132926569443	7.6678457	2.7690876
3.1990468342210603	7.6266932	2.7616467
3.216580450700272	7.519707	2.7422085
3.2341141425060416	7.464103	2.7320511
3.251647910049847	7.258076	2.6940818
3.2691817537431813	7.249576	2.6925037
3.286715673997555	7.135698	2.6712728
3.3042496712244938	7.1540403	2.6747038
3.32178374583554	7.164449	2.6766489
3.339317898242251	7.1835303	2.6802108
3.3568521288562034	7.032369	2.6518614
3.3743864380889876	6.8586993	2.6189117
3.3919208263522127	6.7662063	2.6011932
3.4094552940575023	6.654084	2.5795512
3.4269898416164972	6.5310907	2.5556
3.444524469440858	6.387122	2.5272756
3.4620591779422587	6.402853	2.530386
3.479593967532391	6.348762	2.519675
3.4971288386229658	6.3196735	2.513896
3.5146637916257086	6.322657	2.5144894
3.5321988269523628	6.364424	2.5227811
3.5497339450146903	6.453871	2.540447
3.5672691462244708	6.4200883	2.5337894
3.5848044309934988	6.354484	2.5208101
3.60233979973359	6.267422	2.503482
3.619875252856575	6.2256947	2.495134
3.6374107907743034	6.215913	2.4931734
3.6549464138986427	6.308877	2.5117478
3.6724821226414788	6.381458	2.5261548
3.690017917414714	6.3715153	2.5241861
3.7075537986302702	6.4212604	2.5340207
3.7250897667000857	6.375206	2.5249171
3.7426258220361235	6.453954	2.5404634
3.7601619650503553	6.7180595	2.591922
3.777698196154779	7.3222165	2.7059596
3.7952345157614067	8.472415	2.9107413
3.8127709242822716	9.350125	3.0577974
3.830307422129425	11.559711	3.3999577
3.847844009714936	30.282572	5.50296
3.8653806874508954	97.726715	9.885682
3.882917455749409	97.013115	9.849524
3.900454315022606	96.69096	9.833157
3.917991265682631	41.359726	6.431153
3.9355283081416506	11.085716	3.329522
3.9530654428118495	8.944444	2.9907262
3.970602670105433	7.6899867	2.7730825
3.9881399904346244	6.662061	2.581097
4.005677404211669	6.4275784	2.5352669
4.023214911848827	6.3206286	2.514086
4.0407525137583855	6.40757	2.5313177
4.058290210352644	6.512816	2.552022
4.075828002043927	6.439459	2.5376089
4.0933658892445814	6.3043303	2.5108426
4.110903872366966	6.188385	2.4876466
4.128441951823468	6.11638	2.4731317
4.145980128026488	6.142486	2.478404
4.163518401388452	6.1177444	2.4734075
4.181056772321807	6.0942984	2.4686632
4.1985952412390155	6.1812277	2.4862075
4.216133808552567	6.325157	2.5149865
4.233672474674966	6.4392886	2.5375752
4.251211240018741	6.5615478	2.5615518
4.268750104996445	6.6317563	2.5752196
4.286289070020643	7.4495244	2.7293818
4.303828135503928	9.076827	3.0127773
4.3213673018589125	29.320173	5.4148107
4.3389065694982305	90.50661	9.513496
4.356445938834537	165.7638	12.874928
4.3739854102805085	171.25067	13.086278
4.391524984248844	172.25075	13.1244335
4.409064661152262	136.48624	11.682733
4.426604441403504	96.82484	9.839961
4.444144325415337	75.81368	8.707106
4.461684313600543	21.694824	4.65777
4.47922440637193	22.118122	4.7029905
4.496764604142329	20.58945	4.53756
4.5143049073245916	18.796398	4.335481
4.531845316331589	16.589846	4.0730634
4.5493858315762195	13.676133	3.6981256
4.566926453471405	11.298658	3.3613477
4.584467182430081	9.295844	3.0489087
4.602008018865218	8.234179	2.869526
4.619548963189798	7.5494514	2.7476265
4.637090015816834	6.9988155	2.6455274
4.654631177159353	6.755317	2.5990994
4.672172447630417	6.5185223	2.5531397
4.689713827643102	6.3957095	2.528974
4.7072553176105085	6.1666327	2.4832706
4.724796917945764	5.954678	2.4402208
4.742338629062015	5.8388495	2.416371
4.759880451372434	5.8631353	2.4213912
4.777422385290215	5.858531	2.4204402
4.794964431228581	5.8591056	2.420559
4.812506589600768	5.862755	2.4213126
4.830048860820047	5.81371	2.4111636
4.847591245299709	5.762467	2.400514
4.8651337434530655	5.7172127	2.3910694
4.882676355693457	5.6179504	2.3702216
4.900219082434242	5.6519494	2.377383
4.917761924088813	5.626666	2.3720593
4.935304881070575	5.6091022	2.3683543
4.952847953792969	5.594796	2.3653321
4.970391142669449	5.511371	2.347631
4.9879344481135055	5.523657	2.3502462
5.005477870538642	5.4384193	2.332042
5.023021410358394	5.414155	2.3268337
5.040565067986324	5.388518	2.3213181
5.05810884383601	5.376691	2.3187692
5.075652738321066	5.391818	2.3220289
5.09319675185512	5.3503137	2.3130746
5.110740884851836	5.3420796	2.3112938
5.128285137724894	5.3529515	2.3136446
5.145829510888007	5.320596	2.3066418
5.163374004754908	5.361323	2.315453
5.1809186197393595	5.3699517	2.3173156
5.198463356255145	5.3781667	2.3190875
5.216008214716077	5.2906213	2.3001351
5.233553195535998	5.295833	2.3012676
5.251098299128764	5.298076	2.301755
5.268643525908272	5.361265	2.3154407
5.286188876288432	5.3742537	2.3182437
5.3037343506831895	5.4335394	2.3309953
5.32127994950651	5.3375034	2.3103037
5.3388256731723915	5.2775784	2.297298
5.356371522094851	5.231375	2.28722
5.373917496687938	5.1530204	2.2700264
5.391463597365729	5.1163216	2.2619288
5.40900982454232	5.079381	2.2537482
5.426556178631843	5.1570196	2.2709072
5.444102660048449	5.203781	2.2811797
5.4616492692063225	5.221594	2.2850807
5.479196006519669	5.2373695	2.28853
5.496742872402727	5.206643	2.281807
5.514289867269756	5.246707	2.290569
5.531836991535049	5.273944	2.296507
5.549384245612924	5.2615685	2.2938108
5.566931629917724	5.2654543	2.2946577
5.584479144863822	5.215592	2.283767
5.6020267908656205	5.1532116	2.2700686
5.619574568337545	5.1174793	2.2621846
5.637122477694054	5.1523795	2.2698853
5.654670519349629	5.086052	2.2552278
5.672218693718784	5.0225167	2.2410972
5.689767001216059	4.9738655	2.2302165
5.707315442256021	5.055088	2.2483523
5.724864017253266	5.088693	2.2558131
5.7424127266224225	5.0518513	2.2476323
5.75996157077814	5.0255914	2.2417831
5.777510550135105	5.074655	2.2526996
5.795059665108022	5.0867233	2.2553766
5.812608916111639	5.0915947	2.2564561
5.830158303560715	5.233787	2.2877471
5.847707827870055	5.3273597	2.3081074
5.86525748945448	5.500142	2.3452382
5.8828072887288485	5.610435	2.3686357
5.900357226108044	5.6417007	2.3752265
5.917907302006979	5.593973	2.365158
5.9354575168406	6.13977	2.477856
5.9530078710238765	6.7988153	2.6074538
5.970558364971812	7.4674854	2.73267
5.988108999099438	7.824992	2.7973187
6.005659773821818	8.288612	2.878995
6.023210689554039	7.9706287	2.8232303
6.040761746711227	8.338455	2.8876383
6.058312945708531	7.6980047	2.7745278
6.075864286961132	7.235225	2.6898375
6.093415770884244	6.600707	2.569184
6.1109673978931065	6.079886	2.4657426
6.128519168402993	5.5552034	2.356948
6.146071082829204	5.4683914	2.3384593
6.163623141587075	5.300481	2.3022773
6.181175345091969	5.2241597	2.2856421
6.198727693759281	5.1546474	2.2703848
6.216280188004435	5.1728725	2.274395
6.233832828242885	5.1433315	2.2678914
6.251385614890126	5.174147	2.2746751
6.268938548361669	5.1758447	2.2750483
6.286491629073067	5.1826277	2.2765386
6.304044857439898	5.157004	2.2709038
6.321598233877777	5.05704	2.2487864
6.339151758802344	4.9977927	2.2355742
6.356705432629277	4.996131	2.2352026
6.37425925577428	5.017876	2.2400615
6.391813228653095	5.066144	2.2508097
6.409367351681486	5.0514817	2.2475502
6.426921625275259	5.0079045	2.2378347
6.44447604985025	4.965372	2.2283115
6.46203062582232	4.9830155	2.232267
6.47958535360737	5.0679827	2.251218
6.497140233621328	5.09927	2.2581563
6.514695266280161	5.096699	2.257587
6.532250451999859	5.06154	2.2497866
6.549805791196454	5.089009	2.2558832
6.567361284286002	5.126632	2.2642066
6.584916931684597	5.112983	2.2611907
6.602472733808367	5.086902	2.2554162
6.6200286910734665	5.0416927	2.2453713
6.637584803896092	5.005827	2.2373705
6.655141072692462	5.0067444	2.2375755
6.672697497878842	4.9807024	2.2317488
6.690254079871514	5.0036716	2.236889
6.707810819086808	4.971211	2.2296212
6.725367715941078	4.9308295	2.2205472
6.742924770850719	4.886851	2.2106223
6.760481984232151	4.8483825	2.2019043
6.778039356501836	4.8741145	2.2077396
6.795596888076266	4.9042253	2.2145486
6.813154579371963	4.915056	2.2169926
6.830712430805492	4.9002824	2.213658
6.84827044279344	4.927618	2.2198238
6.865828615752445	4.9372945	2.2220023
6.883386950099159	4.9823728	2.232123
6.900945446250287	5.0378566	2.244517
6.918504104622553	5.0475163	2.2466679
6.936062925632727	5.0473833	2.2466383
6.953621909697607	5.0248075	2.2416081
6.971181057234028	5.0094924	2.2381895
6.988740368658859	5.076029	2.2530043
7.006299844389007	5.143914	2.26802
7.023859484841407	5.1962824	2.2795355
7.041419290433036	5.2776103	2.297305
7.058979261580902	5.439491	2.3322716
7.0765393987020495	5.7122545	2.3900323
7.094099702213559	6.0719047	2.4641235
7.111660172532549	6.4158616	2.5329552
7.129220810076164	6.7295756	2.5941427
7.146781615261595	7.2518587	2.6929276
7.16434258850606	7.4619956	2.7316654
7.181903730226821	7.874769	2.806202
7.1994650408411704	8.023186	2.8325229
7.217026520766437	8.179827	2.8600397
7.234588170419983	8.449689	2.9068348
7.252149990219215	8.456164	2.9079485
7.269711980581568	8.327547	2.8857489
7.2872741419245175	8.126946	2.85078
7.304836474665574	7.8029184	2.7933705
7.322398979222286	7.5770416	2.7526426
7.339961656012233	7.268998	2.6961079
7.357524505453039	6.894486	2.6257353
7.375087527962357	6.6272173	2.5743382
7.392650723957886	6.3378115	2.517501
7.410214093857353	5.940821	2.43738
7.427777638078528	5.7059765	2.3887186
7.445341357039213	5.5232778	2.3501654
7.4629052511572525	5.436026	2.3315287
7.480469320850524	5.310936	2.3045468
7.498033566536948	5.270634	2.2957861
7.5155979886344735	5.2416425	2.2894633
7.5331625875610975	5.1625104	2.272116
7.550727363734844	5.116266	2.2619164
7.568292317573788	5.121847	2.2631497
7.585857449496025	5.1528206	2.2699826
7.603422759919705	5.2023296	2.2808616
7.620988249263007	5.197246	2.279747
7.638553917944147	5.213248	2.2832537
7.656119766381391	5.244103	2.2900007
7.673685794993023	5.24773	2.2907925
7.691252004197388	5.204149	2.2812603
7.70881839441285	5.1531506	2.2700553
7.726384966057826	5.1531253	2.2700496
7.743951719550762	5.20842	2.2821963
7.761518655310149	5.2633595	2.2942014
7.779085773754511	5.292822	2.3006134
7.796653075302419	5.2867236	2.2992876
7.814220560372475	5.2673492	2.2950706
7.831788229383323	5.2481656	2.2908876
7.8493560827536495	5.258225	2.293082
7.866924120902174	5.308221	2.3039577
7.884492344247663	5.3213005	2.3067944
7.9020607532089135	5.315868	2.3056166
7.919629348204771	5.253875	2.2921333
7.937198129654115	5.2695527	2.2955506
7.954767097975865	5.33814	2.3104415
7.972336253588986	5.3942094	2.3225436
7.989905596912472	5.463235	2.3373563
8.007475128365371	5.434159	2.3311281
8.025044848366756	5.4491134	2.3343337
8.042614757335754	5.543335	2.3544288
8.060184855691523	5.602708	2.367004
8.07775514385327	5.7169333	2.391011
8.095325622240228	5.782665	2.4047172
8.112896291271687	5.843568	2.4173472
8.130467151366968	5.9075007	2.430535
8.148038202945436	5.8957644	2.4281194
8.165609446426497	5.876179	2.4240832
8.183180882229594	5.956641	2.440623
8.200752510774217	5.9591627	2.4411397
8.218324332479893	5.977563	2.4449055
8.235896347766193	5.9842176	2.4462662
8.253468557052724	5.976114	2.4446092
8.27104096075914	6.028381	2.455276
8.288613559305137	6.073537	2.4644547
8.306186353110448	6.190224	2.4880161
8.32375934259485	6.282498	2.5064912
8.341332528178162	6.301514	2.5102818
8.358905910280246	6.3503623	2.5199926
8.376479489321003	6.327975	2.5155466
8.394053265720377	6.3761835	2.5251105
8.411627239898356	6.3949857	2.528831
8.42920141227497	6.352225	2.5203621
8.44677578327029	6.287998	2.5075881
8.464350353304427	6.22777	2.49555
8.48192512279754	6.2191358	2.4938195
8.499500092169827	6.220906	2.4941745
8.51707526184153	6.201735	2.4903283
8.534650632232934	6.1939754	2.4887698
8.552226203764365	6.1905265	2.488077
8.569801976856192	6.2526956	2.500539
8.587377951928834	6.304562	2.5108888
8.60495412940274	6.307464	2.5114665
8.622530509698416	6.3004704	2.5100737
8.6401070932364	6.483626	2.5462966
8.657683880437283	6.5792093	2.564997
8.675260871721695	6.73357	2.5949123
8.692838067510303	6.891396	2.6251469
8.710415468223834	7.060085	2.657082
8.727993074283043	7.1958327	2.682505
8.745570886108737	7.118335	2.6680207
8.763148904121765	7.172304	2.6781158
8.78072712874302	7.1574965	2.6753497
8.798305560393441	7.4370985	2.7271044
8.815884199494006	7.589617	2.754926
8.833463046465745	7.7903357	2.7911172
8.851042101729728	7.8684683	2.805079
8.86862136570707	8.119175	2.8494165
8.886200838818924	8.2479105	2.8719175
8.903780521486505	8.326436	2.8855565
8.921360414131055	8.452544	2.907326
8.938940517173874	8.619978	2.9359798
8.956520831036297	8.758336	2.9594486
8.97410135613971	9.035404	3.005895
8.99168209290554	9.210424	3.034868
9.009263041755265	9.496532	3.0816445
9.026844203110405	9.728721	3.1190896
9.044425577392525	10.004257	3.1629508
9.062007165023239	10.071008	3.173485
9.079588966424197	10.335574	3.2148988
9.097170982017108	10.368907	3.2200787
9.11475321222372	11.463675	3.385805
9.132335657465825	12.296256	3.5066018
9.149918318165264	12.398453	3.5211437
9.167501194743924	12.941343	3.5974078
9.18508428762374	12.61275	3.5514433
9.202667597226693	12.659392	3.558004
9.220251123974803	12.328011	3.5111268
9.237834868290143	11.9398365	3.455407
9.255418830594836	11.728366	3.4246702
9.273003011311046	11.173931	3.3427432
9.290587410860985	10.961187	3.3107684
9.308172029666911	10.385098	3.2225919
9.32575686815113	10.140113	3.1843543
9.343341926735997	8.856288	2.9759517
9.360927205843916	8.654193	2.941801
9.378512705897327	8.52055	2.918998
9.396098427318728	8.367052	2.8925858
9.413684370530664	8.248058	2.8719432
9.431270535955722	8.069717	2.8407247
9.448856924016539	7.996437	2.8277972
9.466443535135806	7.8429456	2.800526
9.484030369736251	7.810442	2.7947168
9.501617428240658	7.7744093	2.7882628
9.519204711071852	7.837813	2.7996094
9.536792218652714	7.8610473	2.803756
9.55437995140617	7.8622775	2.8039753
9.571967909755191	7.7799945	2.7892642
9.589556094122802	7.772549	2.7879293
9.60714450493207	7.8573127	2.8030899
9.624733142606116	7.98935	2.8265438
9.642322007568108	8.109878	2.8477848
9.659911100241267	8.144187	2.8538022
9.677500421048851	8.106097	2.8471208
9.695089970414175	8.023131	2.8325133
9.712679748760609	8.012585	2.830651
9.730269756511557	8.118303	2.8492637
9.747859994090492	8.229414	2.8686955
9.765450461920915	8.249369	2.8721714
9.78304116042639	8.274173	2.8764863
9.800632090030527	8.24594	2.8715744
9.81822325115699	8.264797	2.874856
9.835814644229481	8.291648	2.879522
9.853406269671762	8.294664	2.880046
9.870998127907646	8.317268	2.8839674
9.888590219360985	8.32445	2.8852122
9.906182544455698	8.335435	2.8871152
9.923775103615734	8.351914	2.889968
9.941367897265108	8.315765	2.8837068
9.958960925827878	8.269814	2.8757284
9.97655418972816	8.246023	2.871589
9.994147689390106	8.234883	2.8696487
10.011741425237934	8.253323	2.8728597
10.029335397695904	8.290589	2.8793383
10.04692960718833	8.304808	2.8818064
10.06452405413958	8.267926	2.8754
10.082118738974064	8.354751	2.8904586
10.099713662116246	8.418028	2.9013839
10.117308823990651	8.452349	2.9072924
10.134904225021844	8.4102	2.9000344
10.152499865634445	8.303928	2.8816538
10.170095746253125	8.191713	2.8621168
10.18769186730261	8.146574	2.8542204
10.205288229207675	8.1056185	2.8470368
10.222884832393145	8.083526	2.8431542
10.2404816772839	8.093183	2.844852
10.258078764304868	8.107854	2.8474293
10.275676093881035	8.148949	2.8546364
10.293273666437438	8.119731	2.8495142
10.310871482399158	8.13667	2.852485
10.32846954219134	8.116473	2.8489425
10.346067846239173	8.127827	2.8509343
10.363666394967908	8.108038	2.8474617
10.38126518880283	8.114595	2.8486128
10.398864228169298	8.171074	2.858509
10.416463513492713	8.171512	2.8585856
10.434063045198531	8.163958	2.857264
10.451662823712262	8.093539	2.8449147
10.469262849459467	8.0669155	2.8402317
10.486863122865758	8.0645075	2.8398077
10.504463644356806	8.16354	2.8571908
10.522064414358338	8.182845	2.8605673
10.539665433296118	8.031042	2.8339093
10.557266701595987	7.8803854	2.8072023
10.574868219683818	7.7238564	2.7791827
10.592469987985552	7.6610394	2.7678583
10.610072006927185	7.5827546	2.7536802
10.627674276934751	7.500024	2.7386172
10.64527679843435	7.372541	2.7152424
10.662879571852143	7.2946424	2.7008595
10.680482597614331	7.2118483	2.6854885
10.698085876147173	7.1214733	2.668609
10.715689407876988	7.0344567	2.652255
10.733293193230146	6.895784	2.6259825
10.750897232633072	6.852713	2.6177688
10.76850152651225	6.695539	2.587574
10.786106075294207	6.586053	2.5663307
10.803710879405534	6.5209794	2.5536208
10.821315939272877	6.4729147	2.5441923
10.83892125532294	6.4102125	2.5318398
10.856526827982472	6.303979	2.5107725
10.874132657678285	6.260704	2.5021398
10.891738744837243	6.2646074	2.5029197
10.909345089886271	6.246327	2.4992652
10.926951693252343	6.16446	2.4828331
10.944558555362494	6.0852365	2.4668272
10.96216567664381	5.9998274	2.4494545
10.979773057523436	5.923586	2.4338417
10.997380698428573	5.816831	2.4118106
11.014988599786477	5.7187276	2.391386
11.032596762024461	5.675457	2.3823218
11.050205185569892	5.6552978	2.378087
11.067813870850198	5.6421857	2.3753285
11.085422818292859	5.6101437	2.3685741
11.10303202832541	5.522681	2.3500385
11.120641501375454	5.428493	2.3299127
11.138251237870636	5.3335943	2.3094575
11.155861238238671	5.229698	2.2868533
11.173471502907317	5.1167364	2.2620203
11.191082032304402	5.047523	2.2466693
11.208692826857805	5.0216503	2.2409039
11.226303886995465	5.0293407	2.2426193
11.243915213145371	4.999847	2.2360337
11.261526805735578	4.9486194	2.2245493
11.279138665194196	4.8517094	2.2026596
11.296750791949393	4.781535	2.1866722
11.314363186429393	4.7011886	2.1682224
11.331975849062479	4.6394887	2.1539474
11.34958878027699	4.576762	2.1393368
11.36720198050133	4.525124	2.127234
11.384815450163948	4.5142937	2.1246867
11.402429189693366	4.501586	2.121694
11.420043199518153	4.4597077	2.111802
11.437657480066942	63.403976	7.9626613
11.455272031768422	85.08805	9.2243185
11.472886855051353	107.50665	10.368542
11.490501950344528	99.1558	9.957701
11.508117318076819	84.498184	9.192289
11.52573295867715	45.842175	6.7706847
11.543348872574514	4.114611	2.0284505
11.560965060197946	4.0575223	2.0143292
11.57858152197655	4.0537972	2.0134044
11.59619825833949	3.9823356	1.995579
11.613815269715985	3.9255853	1.9813089
11.631432556535323	38.46492	6.202009
11.649050119226837	83.020454	9.111556
11.666667958219929	93.47444	9.668218
11.68428607394406	107.74173	10.379871
11.701904466828756	82.558105	9.086149
11.719523137303586	65.369774	8.085157
11.737142085798196	4.565858	2.1367867
11.754761312742286	3.6651366	1.9144547
11.772380818565619	3.6141763	1.9010987
11.790000603698015	3.569195	1.8892313
11.80762066856935	3.5913243	1.895079
11.825241013609572	3.6018429	1.8978522
11.842861639248683	3.6091835	1.8997852
11.860482545916748	3.5517063	1.8845971
11.878103734043883	3.545205	1.8828715
11.895725204060282	3.5392745	1.8812959
11.91334695639619	3.5339217	1.8798728
11.930968991481919	3.468265	1.8623278
11.948591309747824	3.3855183	1.8399779
11.966213911624347	3.2914135	1.8142253
11.98383679754198	3.2934005	1.8147728
12.001459967931268	3.2657583	1.807141
12.019083423222835	3.2554948	1.804299
12.036707163847352	3.1895905	1.7859424
12.05433119023556	3.1920412	1.7866285
12.071955502818259	3.164528	1.778912
12.089580102026313	3.1930666	1.7869154
12.107204988290643	3.196161	1.787781
12.12483016204224	3.201045	1.7891464
12.142455623712152	3.164767	1.7789792
12.16008137373149	3.1231754	1.7672508
12.177707412531431	3.0984466	1.7602406
12.19533374054321	3.0715048	1.7525709
12.212960358198126	3.0686193	1.7517475
12.230587265927545	3.035002	1.7421257
12.248214464162889	3.02233	1.738485
12.265841953335649	3.0349236	1.7421032
12.283469733877375	2.9969637	1.7311741
12.301097806219685	3.010816	1.7351704
12.31872617079425	2.986684	1.7282026
12.336354828032825	2.9879105	1.7285573
12.353983778367205	2.9432428	1.7155882
12.371613022229262	2.9449482	1.7160852
12.389242560050928	2.9396803	1.7145497
12.406872392264201	2.9419894	1.7152228
12.424502519301143	2.9581623	1.7199309
12.442132941593874	2.9479775	1.7169676
12.459763659574586	2.9299634	1.7117136
12.477394673675532	2.8920314	1.7005974
12.49502598432903	2.8299546	1.6822469
12.51265759196746	2.7788773	1.6669965
12.530289497023267	2.7684526	1.6638668
12.547921699928967	2.7890487	1.6700445
12.565554201117134	2.7874982	1.6695802
12.583187001020404	2.7665415	1.6632924
12.600820100071486	2.776628	1.6663218
12.618453498703152	2.7409067	1.6555684
12.636087197348235	2.7650764	1.6628519
12.65372119643964	2.7217455	1.6497713
12.671355496410326	2.7399862	1.6552904
12.68899009769333	2.7473307	1.6575074
12.706625000721749	2.8091288	1.6760455
12.724260205928752	2.9180992	1.7082444
12.741895713747551	2.961914	1.7210212
12.759531524611454	3.0454414	1.7451193
12.777167638953818	3.046422	1.7454002
12.794804057208072	3.066529	1.7511507
12.812440779807702	3.0867922	1.7569269
12.830077807186271	3.2344596	1.7984604
12.847715139777405	3.2218616	1.7949545
12.865352778014795	3.4283223	1.8515729
12.882990722332197	3.542862	1.8822491
12.90062897316344	3.6465034	1.909582
12.918267530942412	3.7335403	1.9322371
12.935906396103071	3.598215	1.8968961
12.953545569079449	3.7597873	1.939017
12.971185050305628	3.567464	1.8887732
12.988824840215775	3.5848112	1.8933598
13.006464939244115	3.56308	1.8876122
13.024105347824943	3.4050314	1.8452728
13.041746066392617	3.506594	1.8725902
13.05938709538157	3.348496	1.8298897
13.077028435226296	3.3954394	1.8426718
13.094670086361363	3.3456426	1.8291098
13.112312049221401	3.2740471	1.8094329
13.129954324241112	3.1643915	1.7788737
13.147596911855258	2.9285583	1.7113031
13.165239812498685	2.868076	1.6935395
13.182883026606293	2.7970204	1.6724294
13.200526554613058	2.7577028	1.6606332
13.218170396954017	2.7305734	1.6524447
13.235814554064284	2.733706	1.6533923
13.253459026379034	2.7166955	1.6482401
13.271103814333523	2.6795747	1.6369407
13.288748918363058	2.6526184	1.6286861
13.306394338903031	2.6522179	1.6285632
13.32404007638889	2.6393504	1.6246078
13.341686131256164	2.6919832	1.6407264
13.359332503940449	2.7230928	1.6501796
13.376979194877402	2.695199	1.6417061
13.394626204502751	2.689371	1.6399302
13.412273533252307	2.7098675	1.6461675
13.429921181561937	2.7142682	1.6475036
13.447569149867581	2.7224674	1.6499901
13.465217438605247	2.735612	1.6539686
13.482866048211022	2.7449489	1.6567887
13.500514979121052	2.751189	1.6586709
13.518164231771568	2.7091913	1.6459621
13.535813806598844	2.7243106	1.6505486
13.553463704039254	2.7116232	1.6467007
13.571113924529229	2.7125096	1.6469698
13.588764468505275	2.710888	1.6464775
13.606415336403956	2.7446818	1.6567081
13.624066528661917	2.7424207	1.6560255
13.641718045715882	2.8207455	1.6795075
13.659369888002635	2.8632917	1.6921264
13.67702205595903	2.9253933	1.7103782
13.694674550021993	2.9823034	1.7269347
13.712327370628532	3.062969	1.750134
13.729980518215713	3.1436229	1.7730265
13.747633993220681	3.2182698	1.7939537
13.765287796080647	3.2638745	1.8066196
13.7829419272329	3.3209865	1.8223574
13.800596387114801	3.3011317	1.8169017
13.818251176163775	3.3133495	1.8202609
13.835906294817324	3.3610868	1.8333267
13.853561743513023	3.4270263	1.8512229
13.871217522688525	3.4302793	1.8521013
13.888873632781538	3.4984407	1.8704119
13.906530074229858	3.5491722	1.8839247
13.92418684747135	3.5993717	1.8972011
13.941843952943948	3.5712945	1.889787
13.959501391085665	3.55586	1.8856988
13.977159162334578	3.4519894	1.8579531
13.994817267128846	3.3784807	1.8380644
14.012475705906693	3.2677355	1.8076879
14.030134479106424	3.2160273	1.7933285
14.047793587166414	3.1434593	1.7729803
14.065453030525108	3.099573	1.7605604
14.083112809621026	3.0428202	1.7443682
14.100772924892766	2.9816601	1.7267485
14.118433376778997	2.9085321	1.705442
14.136094165718458	2.8484008	1.6877207
14.153755292149969	2.788613	1.6699141
14.171416756512416	2.724894	1.6507254
14.189078559244768	2.6616087	1.6314437
14.20674070078606	2.603016	1.6133865
14.224403181575408	2.5485623	1.5964217
14.242066002051999	2.4760048	1.5735326
14.259729162655093	2.4639902	1.5697103
14.277392663824022	2.4518983	1.5658538
14.295056505998208	2.4779263	1.574143
14.312720689617128	2.453698	1.5664284
14.330385215120348	2.4395828	1.5619164
14.348050082947497	2.4202926	1.5557289
14.3657152935383	2.4378047	1.5613471
14.383380847332528	2.4317718	1.5594139
14.401046744770051	2.4064155	1.5512625
14.418712986290798	2.4007673	1.549441
14.436379572334793	2.3858778	1.5446287
14.454046503342123	2.4163752	1.5544695
14.471713779752946	2.4023468	1.5499506
14.489381402007504	2.4093919	1.5522215
14.507049370546113	2.4097745	1.5523448
14.524717685809168	2.4237661	1.556845
14.542386348237134	2.423555	1.5567771
14.560055358270553	2.4160354	1.5543602
14.577724716350051	2.4353428	1.5605584
14.595394422916325	2.4515436	1.5657406
14.61306447841015	2.4747002	1.573118
14.63073488327237	2.4776475	1.5740545
14.648405637943917	2.4861944	1.5767671
14.6660767428658	2.504558	1.5825796
14.683748198479094	2.5450256	1.5953137
14.701420005224954	2.579702	1.606145
14.719092163544628	2.6233416	1.6196733
14.73676467387942	2.6385517	1.624362
14.754437536670727	2.6480086	1.6272703
14.772110752360014	2.6619718	1.6315551
14.78978432138882	2.681312	1.6374712
14.807458244198777	2.7283094	1.6517595
14.82513252123159	2.7194662	1.6490804
14.842807152929028	2.761275	1.6617085
14.860482139732962	2.699319	1.6429604
14.87815748208531	2.6841447	1.638336
14.8958331804281	2.663765	1.6321044
14.91350923520342	2.646504	1.6268079
14.931185646853438	2.6856837	1.6388056
14.948862415820408	2.6874974	1.6393589
14.966539542546656	2.7019446	1.6437593
14.98421702747459	2.6686144	1.6335894
15.001894871046696	2.6797981	1.6370089
15.019573073705542	2.7040114	1.6443878
15.037251635893766	2.7322464	1.6529508
15.054930558054092	2.7587926	1.6609614
15.072609840629323	2.7967596	1.6723515
15.090289484062351	2.9348452	1.7131389
15.107969488796124	3.2783601	1.8106242
15.125649855273691	3.9211142	1.9801804
15.14333058393817	4.8238854	2.1963346
15.161011675232768	6.138998	2.4777002
15.17869312960076	8.131844	2.8516388
15.196374947485506	11.112066	3.3334765
15.214057129330447	15.352535	3.9182312
15.231739675579114	20.498243	4.5274987
15.249422586675102	24.52772	4.9525466
15.267105863062092	25.381695	5.038025
15.284789505183847	23.1819	4.814759
15.302473513484218	19.60355	4.4275894
15.320157888407127	16.060093	4.0075045
15.337842630396578	12.100408	3.478564
15.355527739896656	9.15766	3.0261626
15.37321321735153	6.856917	2.6185715
15.39089906320545	4.987392	2.233247
15.408585277902748	3.8693786	1.9670736
15.42627186188783	3.2251956	1.7958829
15.443958815605198	2.8887794	1.699641
15.461646139499424	2.732058	1.6528938
15.479333834015168	2.6338613	1.6229175
15.497021899597165	2.635499	1.623422
15.514710336690234	2.60449	1.6138432
15.53239914573928	2.593998	1.6105893
15.550088327189297	2.5536704	1.5980208
15.567777881485336	2.5077293	1.5835812
15.58546780907256	2.5234995	1.5885526
15.6031581103962	2.5464752	1.5957679
15.620848785901568	2.5753295	1.6047833
15.638539836034063	2.5109222	1.584589
15.656231261239173	2.4436376	1.5632138
15.673923061962451	2.3897398	1.5458783
15.691615238649552	2.354947	1.5345837
15.709307791746202	2.3387108	1.5292844
15.727000721698221	2.3691325	1.5391986
15.744694028951498	2.3940825	1.5472823
15.76238771395202	2.4095197	1.5522628
15.780081777145844	2.3988886	1.5488346
15.797776218979125	2.3982878	1.5486406
15.815471039898094	2.3840585	1.5440396
15.833166240349064	2.412762	1.5533068
15.850861820778437	2.4157348	1.5542635
15.868557781632699	2.4126682	1.5532767
15.886254123358412	2.371129	1.5398471
15.903950846402232	2.3632193	1.5372766
15.921647951210897	2.3789217	1.5423753
15.939345438231225	2.4187734	1.5552406
15.957043307910133	2.4201205	1.5556736
15.974741560694602	2.4171925	1.5547323
15.992440197031714	2.4209852	1.5559516
16.01013921736862	2.4437363	1.5632454
16.02783862215259	2.4678233	1.5709307
16.045538411830933	2.457143	1.5675277
16.06323858685107	2.4134078	1.5535147
16.080939147660512	2.3801	1.5427573
16.09864009470684	2.3649173	1.5378288
16.11634142843774	2.3941152	1.5472928
16.134043149300954	2.3913689	1.5464052
16.15174525774433	2.4435227	1.5631771
16.169447754215817	2.4488614	1.5648838
16.18715063916342	2.4573472	1.5675927
16.204853913035244	2.449924	1.5652233
16.222557576279478	2.4631133	1.5694308
16.240261629344403	22.443535	4.7374606
16.257966072678386	43.001728	6.5575705
16.275670906729868	38.120304	6.1741643
16.293376131947387	2.5494616	1.5967034
16.31108174877957	2.5807123	1.6064596
16.328787757675133	2.5999203	1.6124269
16.34649415908287	2.6022747	1.6131568
16.364200953451657	2.58784	1.6086766
16.38190814123048	2.6217165	1.6191715
16.39961572286839	2.6677654	1.6333295
16.41732369881455	2.678019	1.6364654
16.43503206951817	2.7109706	1.6465025
16.45274083542859	2.7204385	1.6493752
16.47044999699522	2.7693834	1.6641464
16.488159554667558	2.7931046	1.6712584
16.505869508895184	2.90372	1.7040305
16.523579860127786	2.9643087	1.7217168
16.541290608815117	3.0169373	1.7369332
16.559001755407035	3.0320733	1.741285
16.57671330035348	3.079105	1.7547379
16.59442524410448	3.1331522	1.7700713
16.61213758711015	3.196127	1.7877715
16.629850329820705	3.2391877	1.7997744
16.647563472686436	3.3077743	1.8187288
16.665277016157724	3.3656518	1.8345712
16.682990960685053	3.4217072	1.8497857
16.70070530671898	3.4842963	1.866627
16.718420054710155	3.5584736	1.8863916
16.736135205109335	3.5858595	1.8936366
16.753850758367335	3.593379	1.8956211
16.771566714935087	3.6132774	1.9008623
16.789283075263597	3.6635318	1.9140354
16.80699983980398	3.7172534	1.928018
16.82471700900741	3.832979	1.9577996
16.84243458332518	3.9495857	1.9873564
16.860152563208665	4.08714	2.0216677
16.87787094910932	4.1167817	2.0289855
16.89558974147871	4.1213646	2.0301144
16.913308940768466	4.1512637	2.037465
16.931028547430333	4.2390847	2.0589037
16.94874856191613	4.3266177	2.0800524
16.966468984677785	4.3743024	2.0914834
16.98418981616729	4.3874826	2.094632
17.00191105683676	4.449598	2.109407
17.019632707138374	4.498781	2.121033
17.03735476752442	4.5535054	2.1338944
17.05507723844728	4.598675	2.144452
17.072800120359403	4.6352444	2.1529617
17.090523413713353	4.650279	2.1564505
17.108247118961785	4.6239953	2.1503477
17.125971236557437	4.6279836	2.151275
17.143695766953133	4.669818	2.1609762
17.161420710601806	4.676577	2.1625395
17.179146067956477	4.7003503	2.168029
17.19687183947025	4.699745	2.1678896
17.21459802559634	4.68975	2.1655831
17.232324626788028	4.6707945	2.1612022
17.25005164349871	4.6570206	2.158013
17.267779076181863	4.7114024	2.1705766
17.285506925291074	4.712627	2.1708586
17.30323519127999	4.6860404	2.1647265
17.320963874602384	4.604313	2.1457663
17.33869297571211	4.5501924	2.133118
17.356422495063114	4.540072	2.1307445
17.37415243310944	4.541778	2.1311448
17.391882790305218	4.5488553	2.1328046
17.40961356710468	4.5968456	2.1440256
17.42734476396215	4.659859	2.1586707
17.445076381332044	4.6915684	2.1660028
17.462808419668868	4.8554735	2.2035139
17.48054087942723	5.1802273	2.2760112
17.498273761061835	5.7758036	2.4032903
17.51600706502747	6.5445075	2.5582235
17.533740791779024	7.5607176	2.749676
17.551474941771485	9.667995	3.10934
17.56920951545993	11.1962185	3.346075
17.586944513299528	13.290237	3.645578
17.60467993574556	15.135574	3.8904467
17.622415783253373	16.80664	4.0995903
17.64015205627843	18.17861	4.263638
17.657888755276293	19.12594	4.3733215
17.675625880702604	19.487127	4.4144225
17.69336343301311	19.165564	4.377849
17.71110141266366	17.634993	4.199404
17.728839820110178	15.56543	3.9453049
17.746578655808705	13.209484	3.6344855
17.764317920215372	10.655617	3.2642941
17.7820576137864	8.669703	2.9444358
17.79979773697811	6.8848443	2.6238987
17.81753829024692	5.627873	2.3723137
17.835279274049356	4.674366	2.1620283
17.85302068884201	4.192396	2.0475342
17.870762535081607	3.8878396	1.9717605
17.888504813224934	3.7360585	1.9328886
17.90624752372891	3.6911778	1.9212438
17.923990667050536	3.6360087	1.9068321
17.941734243646895	3.6018698	1.8978592
17.959478253975185	3.5042248	1.8719574
17.9772226984927	3.44395	1.8557882
17.994967577656833	3.4005454	1.8440567
18.01271289192506	3.4381146	1.8542154
18.030458641754965	3.484271	1.8666202
18.04820482760425	3.4777994	1.8648859
18.06595144993067	3.4126987	1.8473492
18.083698509192125	3.3237343	1.8231112
18.101446005846576	3.306489	1.8183753
18.119193940352105	3.254833	1.8041155
18.136942313166887	3.2687266	1.807962
18.1546911247492	3.2030392	1.7897036
18.1724403755574	3.1816595	1.7837207
18.19019006604997	3.137132	1.771195
18.207940196685467	3.1078086	1.7628977
18.225690767922575	3.0819678	1.7555535
18.243441780220046	3.0407097	1.7437631
18.261193234036764	3.058634	1.748895
18.278945129831676	3.1096852	1.76343
18.29669746806386	3.0759726	1.7538451
18.314450249192483	3.0540254	1.7475771
18.3322034736768	3.0285616	1.7402763
18.349957141976184	3.0487146	1.7460569
18.3677112545501	3.0668669	1.7512473
18.385465811858108	3.0750413	1.7535796
18.403220814359884	3.1166482	1.7654032
18.420976262515172	3.1425047	1.7727112
18.43873215678387	3.19315	1.7869388
18.456488497625923	3.2023053	1.7894986
18.474245285501407	3.2828524	1.8118644
18.492002520870486	3.3307729	1.8250405
18.50976020419343	3.3904457	1.8413163
18.527518335930615	3.6650455	1.9144309
18.545276916542516	4.2401066	2.059152
18.563035946489688	4.426397	2.1039004
18.580795426232832	4.9003105	2.2136645
18.598555356232698	4.7392945	2.1769922
18.616315736950185	5.045686	2.2462604
18.63407656884626	4.7307124	2.17502
18.65183785238201	4.9283433	2.2199872
18.669599588018617	4.725716	2.1738713
18.68736177621737	4.6227713	2.150063
18.705124417439652	4.584539	2.1411536
18.72288751214696	4.405189	2.0988543
18.740651060800886	4.6246586	2.150502
18.758415063863115	4.3814764	2.0931976
18.77617952179546	4.5263734	2.1275275
18.793944435059814	4.1788898	2.0442333
18.811709804118184	4.1987743	2.049091
18.829475629432675	4.137621	2.0341144
18.8472419114655	3.9505424	1.9875971
18.86500865067897	4.044852	2.0111816
18.88277584753551	3.7888527	1.9464976
18.90054350249763	3.8359964	1.95857
18.918311616027957	3.5740252	1.8905092
18.936080188589226	3.4645486	1.8613298
18.953849220644265	3.1216395	1.7668163
18.971618712656007	2.9157603	1.7075597
18.9893886650875	2.8517716	1.6887189
19.007159078401887	8.042	2.835842
19.024929953062408	32.92237	5.737802
19.042701289532435	32.865124	5.732811
19.060473088275405	25.407282	5.0405636
19.07824534975489	2.6757586	1.6357746
19.096018074434568	2.6653295	1.6325836
19.113791262778197	2.6599324	1.63093
19.13156491524966	2.6336856	1.6228634
19.149339032312945	2.6237068	1.619786
19.167113614432136	2.5716238	1.6036283
19.184888662071433	2.578517	1.6057761
19.202664175695123	2.5411637	1.5941027
19.220440155767623	2.5211582	1.5878155
19.238216602753447	2.5030081	1.5820898
19.2559935171172	2.508114	1.5837027
19.27377089932361	2.5116696	1.5848248
19.291548749837514	2.5421078	1.5943989
19.309327069123835	2.533835	1.5918024
19.32710585764763	2.517342	1.5866134
19.344885115874032	2.5337007	1.5917603
19.362664844268313	2.545738	1.595537
19.380445043295822	2.5387506	1.5933458
19.39822571342203	2.5364792	1.5926328
19.41600685511252	2.5422378	1.5944396
19.43378846883297	2.5661428	1.6019185
19.451570555049173	2.5426986	1.5945841
19.469353114227037	2.5420978	1.5943958
19.48713614683254	2.5348647	1.5921258
19.50491965333182	2.5225258	1.5882461
19.52270363419109	2.4535127	1.5663693
19.540488089876686	2.4211133	1.5559927
19.55827302085503	2.4375541	1.5612668
19.576058427592674	2.475479	1.5733654
19.593844310556282	2.4891818	1.5777141
19.611630670212598	2.5270407	1.5896668
19.629417507028506	2.5544329	1.5982593
19.64720482147098	2.548291	1.5963367
19.6649926140071	2.508652	1.5838724
19.682780885104084	2.5038986	1.5823712
19.70056963522921	2.4952521	1.5796367
19.718358864849908	2.501145	1.5815009
19.7361485744337	2.501747	1.5816911
19.753938764448215	2.533495	1.5916957
19.771729435361202	2.5559902	1.5987464
19.789520587640506	2.577221	1.6053725
19.807312221754092	2.5630357	1.6009483
19.825104338170043	2.552707	1.5977193
19.842896937356517	2.556953	1.5990475
19.860690019781824	2.5750525	1.604697
19.87848358591436	2.566633	1.6020715
19.896277636222635	2.5487468	1.5964795
19.914072171175278	2.5428598	1.5946347
19.931867191241015	2.5342045	1.5919185
19.94966269688869	2.5314302	1.5910469
19.967458688587264	2.4949155	1.5795301
19.985255166805807	2.4690936	1.571335
20.00305213201348	2.491555	1.578466
20.020849584679578	2.454815	1.5667849
20.038647525273507	2.435815	1.5607098
20.05644595426477	2.4525237	1.5660535
20.07424487212299	2.484283	1.5761608
20.092044279317903	2.4708292	1.5718871
20.109844176319353	2.4658594	1.5703055
20.127644563597304	2.4495814	1.5651139
20.145445441621817	2.4251287	1.5572824
20.16324681086307	2.4061491	1.5511767
20.181048671791373	2.4195535	1.5554914
20.198851024877122	2.4302666	1.5589312
20.216653870590836	2.4726918	1.5724795
20.234457209403146	2.4340715	1.5601511
20.252261041784802	2.4001105	1.549229
20.270065368206662	2.3452587	1.5314238
20.287870189139685	2.3337657	1.5276668
20.305675505054968	2.3509004	1.5332646
20.323481316423702	2.369496	1.5393168
20.341287623717207	2.37866	1.5422904
20.359094427406884	2.384369	1.5441402
20.376901727964288	2.4149296	1.5540044
20.39470952586107	2.4182315	1.5550663
20.41251782156899	2.394969	1.5475687
20.430326615559935	2.3646436	1.5377398
20.448135908305886	2.3580632	1.5355986
20.465945700278965	2.3450723	1.5313629
20.483755991951384	2.3429062	1.5306555
20.50156678379548	2.3499944	1.5329691
20.519378076283708	2.3575118	1.5354191
20.537189869888635	2.369926	1.5394564
20.55500216508294	2.3348305	1.5280153
20.572814962339415	2.3284273	1.5259185
20.59062826213098	2.313027	1.5208639
20.60844206493066	2.3039522	1.5178776
20.626256371211593	2.3297074	1.5263379
20.644071181447032	2.3519418	1.5336041
20.66188649611036	2.386846	1.5449421
20.67970231567506	2.3729184	1.5404279
20.697518640614742	2.3557541	1.5348467
20.715335471403122	2.312894	1.5208203
20.73315280851404	2.318783	1.522755
20.750970652421447	2.3312955	1.5268581
20.768789003599412	2.3389785	1.529372
20.786607862522136	2.3329012	1.5273838
20.8044272296639	2.3183446	1.5226111
20.82224710549913	2.3006291	1.5167825
20.84006749050237	2.3140898	1.5212133
20.857888385148268	3.8968174	1.9740359
20.8757097899116	45.953423	6.7788954
20.893531705267254	64.784485	8.048881
20.911354131690224	83.80717	9.154626
20.92917706965566	69.07873	8.311361
20.94700051963877	50.14112	7.0810394
20.96482448211493	29.43405	5.425316
20.982648957559622	4.2006454	2.0495477
21.00047394644843	2.2943614	1.514715
21.01829944925707	2.2360723	1.4953502
21.036125466461375	2.2428112	1.4976019
21.053951998537297	2.30517	1.5182786
21.071779045960906	2.3297706	1.5263586
21.089606609208378	2.2817774	1.5105553
21.10743468875603	2.239579	1.4965223
21.12526328508028	2.2427742	1.4975895
21.143092398657675	2.287738	1.5125271
21.16092202996488	2.2824798	1.5107878
21.17875217947867	2.262901	1.5042942
21.19658284767596	2.240559	1.4968498
21.21441403503377	2.198172	1.4826233
21.232245742029225	2.1446283	1.4644549
21.2500779691396	2.1356635	1.461391
21.26791071684227	2.1501074	1.4663244
21.28574398561475	2.17201	1.4737741
21.30357777593465	2.1668208	1.4720125
21.321412088279704	2.1303751	1.4595804
21.339246923127792	2.112677	1.4535052
21.357082280956888	2.1117218	1.4531764
21.3749181622451	2.1254292	1.4578851
21.392754567470647	2.1565943	1.4685347
21.41059149711187	2.187252	1.4789361
21.42842895164726	2.1741512	1.4745003
21.446266931555378	2.1725008	1.4739406
21.464105437314945	2.1553776	1.4681205
21.481944469404798	2.1168056	1.4549246
21.49978402830388	2.109798	1.4525144
21.51762411449127	2.1018918	1.4497902
21.53546472844617	2.1063852	1.4513391
21.553305870647876	2.112154	1.4533252
21.571147541575865	2.092435	1.4465251
21.58898974170967	2.093955	1.4470505
21.60683247152899	2.105397	1.4509987
21.62467573151363	2.0906715	1.4459155
21.642519522143523	2.0672376	1.4377891
21.660363843898722	2.0660746	1.4373846
21.6782086972594	2.0794158	1.4420179
21.696054082705864	2.0760894	1.4408641
21.713900000718535	2.0622442	1.4360516
21.73174645177795	2.0242293	1.4227542
21.749593436364794	1.9771032	1.406095
21.767440954959845	1.9883795	1.4100991
21.785289008044032	2.032639	1.4257065
21.803137596098388	2.050408	1.4319246
21.820986719604086	2.0131843	1.4188672
21.838836379042412	2.030013	1.4247853
21.85668657489478	2.0346308	1.4264048
21.87453730764273	2.0182793	1.4206616
21.892388577767914	1.9952025	1.4125164
21.91024038575213	2.0198731	1.4212224
21.928092732077285	2.032766	1.4257511
21.945945617225426	2.016502	1.4200358
21.963799041678694	2.0037062	1.4155233
21.981653005919398	31.324118	5.596795
21.999507510429943	78.13866	8.839607
22.01736255569286	73.10673	8.550247
22.035218142190818	4.179772	2.044449
22.05307427040661	1.9605267	1.4001881
22.07093094082315	1.9245836	1.3872936
22.088788153923474	1.9501073	1.3964624
22.106645910190746	1.9804939	1.4073002
22.12450421010827	2.004609	1.4158422
22.142363054159464	1.9999436	1.4141936
22.16022244282787	1.9902834	1.410774
22.178082376597164	1.9777801	1.4063357
22.195942855951145	2.0131063	1.4188398
22.213803881373742	2.0101078	1.4177827
22.231665453349002	1.9890957	1.4103531
22.24952757236111	1.957371	1.3990607
22.26739023889438	1.9550861	1.3982439
22.28525345343323	1.9729036	1.4046009
22.30311721646225	2.0222876	1.4220716
22.320981528466113	2.0015116	1.4147478
22.33884638992964	1.9603955	1.4001412
22.356711801337788	1.9349439	1.3910226
22.37457776317561	1.9481884	1.3957752
22.392444275928337	1.9636266	1.4012946
22.410311340081282	1.98873	1.4102234
22.428178956119904	1.9822416	1.4079211
22.446047124529805	1.984871	1.4088545
22.46391584579669	1.9540178	1.3978618
22.481785120406414	1.8872066	1.3737564
22.49965494884496	1.8540978	1.3616526
22.51752533159841	1.9035978	1.3797094
22.53539626915302	1.977003	1.4060594
22.553267761995137	2.0124931	1.4186237
22.571139810611264	1.9851785	1.4089636
22.589012415488025	1.9571023	1.3989648
22.60688557711216	1.961534	1.4005477
22.624759295970566	1.9747871	1.4052712
22.642633572550263	1.9909859	1.411023
22.660508407338362	1.9649395	1.401763
22.67838380082217	1.9597648	1.399916
22.696259753489077	1.9449635	1.3946195
22.714136265826614	1.9198016	1.3855691
22.73201333832246	1.8791267	1.3708124
22.74989097146439	1.9138273	1.3834115
22.76776916574035	1.9183326	1.3850389
22.785647921638393	1.8950986	1.3766258
22.803527239646712	1.8809761	1.3714868
22.82140712025363	1.9207544	1.3859129
22.839287563947593	1.9688932	1.4031725
22.85716857121719	2.0030606	1.4152952
22.875050142551135	1.9722072	1.4043529
22.892932278438277	1.9141047	1.3835118
22.910814979367604	1.8715289	1.3680383
22.928698245828222	1.8953663	1.376723
22.946582078309387	1.9295883	1.3890963
22.96446647730047	1.9522358	1.3972243
22.98235144329098	1.976456	1.4058648
23.000236976770562	1.9679487	1.402836
23.018123078229	1.9269755	1.3881555
23.03600974815619	1.9129649	1.3830998
23.053896987042194	1.942221	1.3936359
23.071784795377173	1.9423184	1.3936708
23.08967317365145	1.953785	1.3977786
23.10756212235546	1.9398456	1.3927834
23.125451641979787	1.9217677	1.3862784
23.143341733015134	1.8893391	1.3745323
23.161232395952357	1.9099919	1.3820245
23.179123631282426	1.9485563	1.3959069
23.197015439496468	1.9436834	1.3941605
23.214907821085717	1.9286864	1.3887715
23.23280077654157	1.9245065	1.3872658
23.250694306355538	1.9321381	1.3900137
23.268588411019277	1.9350553	1.3910626
23.28648309102458	1.966903	1.4024632
23.304378346863356	1.9711969	1.4039932
23.322274179027676	1.9533334	1.397617
23.340170588009723	1.9632441	1.4011581
23.358067574301852	1.9521961	1.3972101
23.37596513839651	1.9379305	1.3920957
23.39386328078629	1.9424698	1.3937252
23.411762001963947	1.962652	1.4009469
23.429661302422353	1.9431428	1.3939666
23.4475611826545	1.9668138	1.4024314
23.46546164315356	1.9360687	1.3914268
23.48336268441279	1.9514202	1.3969324
23.501264306925638	1.927471	1.3883339
23.51916651118564	1.9297309	1.3891475
23.537069297686497	1.8986675	1.3779215
23.554972666922037	1.9297868	1.3891677
23.57287661938623	1.9539032	1.3978208
23.59078115557318	1.965622	1.4020064
23.608686275977128	1.9926322	1.4116062
23.62659198109246	1.9913884	1.4111656
23.6444982714137	1.9612058	1.4004306
23.66240514743549	1.9726439	1.4045084
23.68031260965263	2.0024052	1.4150636
23.698220658560068	1.9716789	1.4041648
23.716129294652845	1.9392352	1.3925643
23.7340385184262	1.8790747	1.3707935
23.75194833037546	1.9020188	1.3791369
23.769858730996123	1.9449928	1.39463
23.78776972078382	1.9612769	1.400456
23.80568130023431	1.9457517	1.394902
23.823593469843495	1.9175737	1.3847649
23.841506230107424	1.9326197	1.3901869
23.859419581522275	1.9196124	1.3855008
23.87733352458438	1.9291242	1.3889291
23.89524805979019	1.9318194	1.3898991
23.913163187636318	1.929093	1.3889179
23.931078908619508	1.9626049	1.40093
23.948995223236633	1.9927608	1.4116518
23.966912131984735	2.0300074	1.4247832
23.98482963536096	2.0277684	1.4239973
24.002747733862616	2.0097334	1.4176507
24.020666427987155	2.0257235	1.4232792
24.038585718232156	2.0443063	1.4297924
24.056505605095353	2.050206	1.431854
24.074426089074617	2.021877	1.4219272
24.092347170667946	2.0252924	1.4231277
24.110268850373515	2.0483794	1.4312161
24.128191128689586	2.0811937	1.4426343
24.146114006114626	2.0419774	1.4289777
24.164037483147187	2.0707548	1.4390117
24.181961560286005	2.086719	1.444548
24.199886238029926	2.1051974	1.4509299
24.21781151687797	2.1093538	1.4523615
24.235737397329274	2.113581	1.4538159
24.253663879883135	2.096573	1.4479548
24.271590965038975	2.094648	1.4472898
24.289518653296376	2.0947952	1.4473407
24.30744694515505	2.0942721	1.44716
24.32537584111486	2.062213	1.4360408
24.34330534167581	2.0253584	1.4231509
24.361235447338046	2.0581725	1.4346333
24.379166158601876	2.0236883	1.422564
24.39709747596772	2.0030138	1.4152787
24.41502939993615	1.9939314	1.4120663
24.432961931007917	2.0392969	1.4280396
24.450895069683856	2.0141315	1.419201
24.468828816465	1.9825175	1.408019
24.4867631718525	1.9609561	1.4003414
24.504698136347656	1.9785674	1.4066156
24.52263371045192	1.9867604	1.4095249
24.540569894666874	2.0117996	1.4183792
24.558506689494266	1.9763331	1.4058212
24.57644409543597	1.9545625	1.3980567
24.594382112994012	1.9442655	1.3943692
24.61232074267057	1.9334675	1.3904918
24.630259984967953	1.9136114	1.3833334
24.64819984038863	1.9152662	1.3839314
24.66614030943522	1.9162335	1.3842809
24.684081392610462	1.9699315	1.4035425
24.702023090417274	2.0081215	1.4170821
24.7199654033587	2.027205	1.4237995
24.737908331937927	2.0008101	1.4145
24.755851876658305	2.044347	1.4298066
24.773796038023324	2.08421	1.4436793
24.79174081653661	2.1031523	1.4502249
24.809686212701962	2.0919633	1.4463621
24.827632227023294	2.10067	1.4493688
24.8455788600047	2.1496294	1.4661615
24.8635261121504	2.1913576	1.4803234
24.88147398396475	2.2046666	1.484812
24.899422475952303	2.2168565	1.4889112
24.917371588617698	2.2731767	1.5077058
24.935321322465768	2.4685268	1.5711546
24.953271678001478	2.8020506	1.6739327
24.97122265572994	3.1789222	1.7829533
24.989174256156414	3.6607113	1.9132985
25.00712647978632	4.197921	2.0488827
25.02507932712521	4.6843634	2.164339
25.043032798678798	5.242547	2.289661
25.060986894952933	6.203771	2.490737
25.078941616453637	7.1930327	2.681983
25.096896963687055	8.07261	2.841234
25.114852937159508	8.4426	2.9056153
25.132809537377444	8.093674	2.8449383
25.150766764847468	7.3277617	2.7069838
25.168724620076347	6.030283	2.4556634
25.186683103570985	4.7274075	2.1742601
25.204642215838426	3.6671565	1.9149821
25.222601957385894	2.8749094	1.6955558
25.24056232872074	2.4081588	1.5518243
25.25852333035048	2.1717632	1.4736903
25.276484962782778	2.0205827	1.421472
25.294447226525435	1.9771547	1.4061134
25.312410122086423	1.9624863	1.4008877
25.330373649973843	1.9677784	1.4027753
25.348337810695988	1.9734414	1.4047923
25.366302604761245	1.9906751	1.4109129
25.384268032678207	1.9828048	1.408121
25.40223409495558	1.96199	1.4007106
25.420200792102257	1.9681755	1.4029168
25.438168124627246	2.0034342	1.4154272
25.45613609303974	2.0112925	1.4182004
25.474104697849057	1.9607894	1.4002819
25.492073939564698	1.9467701	1.395267
25.510043818696285	1.9230634	1.3867456
25.528014335753614	1.8985227	1.3778689
25.54598549124664	1.871355	1.3679748
25.56395728568544	1.8893824	1.3745481
25.58192971958028	1.8691803	1.3671798
25.59990279344156	1.8466157	1.3589023
25.617876507779833	1.8811456	1.3715487
25.635850863105826	1.9106182	1.3822511
25.653825859930386	1.9059519	1.3805622
25.671801498764548	1.895041	1.3766049
25.68977778011949	1.8788928	1.3707271
25.707754704506524	1.8335153	1.3540736
25.725732272437153	1.832989	1.3538792
25.743710484423012	1.8714881	1.3680234
25.761689340975888	1.8662869	1.366121
25.77966884260774	1.8486603	1.3596545
25.797648989830662	1.8515348	1.3607111
25.815629783156922	1.8297933	1.3526986
25.83361122309895	1.8322062	1.3535901
25.85159331016929	1.8859936	1.3733149
25.869576044880695	1.9149439	1.383815
25.887559427746034	1.877114	1.3700781
25.90554345927836	1.8507466	1.3604215
25.92352813999086	1.8430952	1.3576064
25.94151347039689	1.883435	1.372383
25.959499451009965	1.8871787	1.3737462
25.97748608234374	1.8833816	1.3723636
25.995473364912062	1.8503773	1.3602858
26.013461299228904	1.8790832	1.3707966
26.03144988580839	1.8576272	1.362948
26.04943912516483	1.8174692	1.3481355
26.067429017812675	1.7847686	1.3359523
26.085419564266537	1.7843615	1.3357999
26.103410765041186	1.8126186	1.3463353
26.12140262065155	1.8219968	1.3498136
26.139395131612723	1.8256421	1.3511633
26.157388298439948	1.8316987	1.3534026
26.17538212164861	1.8643323	1.3654056
26.193376601754295	1.887626	1.373909
26.211371739272714	1.8800769	1.371159
26.229367534719746	1.8455687	1.358517
26.247363988611433	1.8830227	1.3722327
26.26536110146397	1.8697879	1.3674018
26.283358873793727	1.833572	1.3540945
26.301357306117204	1.8254265	1.3510834
26.319356398951104	1.8534627	1.3614193
26.33735615281224	1.900492	1.3785833
26.35535656821762	1.8974851	1.3774923
26.373357645684404	1.8684285	1.3669047
26.39135938572991	1.8428317	1.3575094
26.409361788871614	1.8269186	1.3516356
26.427364855627165	1.8130187	1.3464838
26.445368586514352	1.8108345	1.3456725
26.46337298205115	1.7759342	1.3326418
26.48137804275568	1.7429029	1.3201904
26.499383769146217	1.8091241	1.3450369
26.517390161741215	1.8626177	1.3647776
26.53539722105928	1.8676466	1.3666186
26.553404947619182	1.8343015	1.3543639
26.571413341939856	1.8225155	1.3500057
26.589422404540397	1.8092266	1.345075
26.60743213594006	1.8460946	1.3587106
26.62544253665827	1.8971832	1.3773828
26.64345360721459	1.8893331	1.3745302
26.66146534812879	1.83277	1.3537984
26.679477759920758	1.8038055	1.3430582
26.69749084311057	1.7946011	1.3396273
26.71550459821847	1.778465	1.333591
26.733519025764842	1.7696856	1.3302953
26.751534126270258	1.809068	1.345016
26.769549900255434	1.8098706	1.3453143
26.787566348241267	1.8195895	1.3489217
26.80558347074881	1.8199131	1.3490416
26.823601268299267	1.867376	1.3665197
26.841619741414036	1.8344241	1.3544091
26.85963889061465	1.8084682	1.344793
26.877658716422832	1.8004183	1.3417966
26.89567921936045	1.8106992	1.3456223
26.913700399949544	1.7810937	1.3345762
26.93172225871233	1.798898	1.34123
26.949744796171174	1.8161488	1.3476456
26.967768012848605	1.8235666	1.350395
26.98579190926733	1.8654135	1.3658015
27.003816485950225	1.8802079	1.3712068
27.021841743420318	1.825596	1.3511462
27.039867682200814	1.7662032	1.3289858
27.057894302815072	1.806758	1.344157
27.07592160578664	1.8708909	1.3678051
27.0939495916392	1.8516563	1.3607558
27.111978260896635	1.7829367	1.3352665
27.13000761408296	1.7807871	1.3344613
27.148037651722397	1.820657	1.3493172
27.166068374339304	1.8299652	1.3527621
27.184099782458215	1.8565544	1.3625543
27.20213187660384	1.8443967	1.3580856
27.22016465730105	1.814127	1.3468953
27.23819812507487	1.80254	1.342587
27.256232280450533	1.812696	1.346364
27.274267123953383	1.8104395	1.3455257
27.292302656108987	1.8187733	1.348619
27.31033887744306	1.8191774	1.3487688
27.32837578848146	1.8404995	1.3566501
27.34641338975026	1.8209767	1.3494357
27.364451681775673	1.8067565	1.3441564
27.382490665084074	1.8210849	1.3494757
27.400530340202046	1.8519317	1.360857
27.41857070765629	1.8466129	1.3589014
27.436611767973726	1.8667586	1.3662938
27.454653521681404	1.8306495	1.353015
27.472695969306564	1.8039724	1.3431203
27.490739111376627	1.83335	1.3540125
27.508782948419153	1.8433396	1.3576964
27.526827480961902	1.8218765	1.3497691
27.54487270953279	1.8573197	1.3628352
27.562918634659898	1.8650845	1.3656809
27.580965256871508	1.8479431	1.3593907
27.599012576696026	1.7904944	1.3380936
27.617060594662068	1.7833104	1.3354064
27.63510931129842	1.8280969	1.3520713
27.65315872713401	1.8668538	1.3663286
27.67120884269797	1.8514652	1.3606856
27.68925965851958	1.8922821	1.3756025
27.707311175128307	1.9348513	1.3909893
27.725363393053787	1.9199795	1.3856332
27.74341631282583	1.934992	1.3910398
27.7614699349744	1.9438714	1.3942279
27.77952426002968	2.0936334	1.4469393
27.797579288521973	2.138513	1.4623656
27.815635020981784	2.5430048	1.5946802
27.83369145793979	2.6182842	1.6181114
27.85174859992682	2.44641	1.5641004
27.869806447473923	2.3409164	1.5300053
27.887865001112267	2.0591767	1.4349831
27.905924261373233	1.9794855	1.4069419
27.92398422878836	1.9811846	1.4075456
27.94204490388936	1.9752669	1.4054419
27.96010628720813	1.9503028	1.3965324
27.978168379276728	1.9416213	1.3934207
27.9962311806274	1.930963	1.389591
28.014294691792568	1.9187	1.3851714
28.0323589133048	1.9383177	1.3922348
28.050423845696887	1.9199077	1.3856074
28.068489489501758	1.8934901	1.3760414
28.086555845252523	1.8992269	1.3781244
28.104622913482487	1.9087995	1.3815931
28.122690694725115	1.9027855	1.3794149
28.14075918951405	1.9004807	1.3785793
28.15882839838312	1.9397984	1.3927665
28.176898321866304	1.972578	1.404485
28.1949689604978	1.9468637	1.3953005
28.213040314811945	1.9364905	1.3915784
28.23111238534327	1.9047552	1.3801287
28.249185172626493	1.9039587	1.3798401
28.267258677196473	1.9016927	1.3790188
28.285332899588294	1.9282941	1.3886303
28.303407840337172	1.9729793	1.4046278
28.321483499978545	1.932238	1.3900496
28.33955987904799	1.9323701	1.3900971
28.357636978081285	1.9429653	1.3939029
28.37571479761439	2.032137	1.4255304
28.393793338183425	2.021706	1.4218671
28.41187260032469	1.9694784	1.403381
28.429952584574686	1.9650344	1.4017968
28.448033291470065	2.0407634	1.4285529
28.46611472154769	2.0801375	1.4422681
28.484196875344566	2.0612562	1.4357076
28.502279753397914	1.997702	1.4134009
28.52036335624511	2.0047183	1.4158808
28.538447684423716	1.9907894	1.4109534
28.556532738471482	1.9941223	1.4121339
28.574618518926325	2.003949	1.415609
28.59270502632635	2.075013	1.4404905
28.61079226120985	2.108051	1.4519129
28.628880224115274	2.1189332	1.4556556
28.646968915581287	2.1556263	1.4682051
28.66505833614671	2.105564	1.4510562
28.68314848635055	2.092685	1.4466115
28.701239366732004	2.143094	1.4639311
28.71933097783044	2.1581635	1.4690689
28.737423320185403	2.1281788	1.4588279
28.75551639433665	2.208022	1.4859415
28.773610200824074	2.2439651	1.497987
28.791704740187793	2.2522402	1.5007465
28.80980001296809	2.1769543	1.4754505
28.827896019705413	2.1754198	1.4749304
28.845992760940433	2.2181158	1.489334
28.86409023721397	2.2371387	1.4957068
28.88218844906704	2.21122	1.4870172
28.900287397040845	2.2496314	1.4998771
28.918387081676755	2.2383542	1.4961131
28.936487503516343	2.2570515	1.5023487
28.954588663101365	2.2422974	1.4974303
28.97269056097374	2.252943	1.5009807
28.990793197675597	2.302853	1.5175154
29.00889657374923	2.410511	1.552582
29.027000689737125	2.4350793	1.560474
29.04510554618196	2.4360778	1.560794
29.06321114362659	2.4820006	1.5754366
29.08131748261405	2.487659	1.5772314
29.099424563687567	2.4588737	1.5680796
29.11753238739057	2.463329	1.5694996
29.13564095426663	2.555119	1.598474
29.15375026485954	2.5928051	1.610219
29.171860319713275	2.6044345	1.613826
29.18997111937199	2.6485238	1.6274285
29.20808266438002	2.7080448	1.6456138
29.226194955281898	2.7741344	1.6655732
29.244307992622335	2.8360505	1.6840577
29.26242177694624	2.876326	1.6959735
29.2805363087987	2.9542572	1.7187953
29.29865158872498	2.9564352	1.7194288
29.316767617270557	3.0002534	1.732124
29.334884394981064	3.1070242	1.7626753
29.353001922402367	3.2557504	1.8043698
29.37112020008047	3.3762841	1.8374667
29.389239228561596	3.6241436	1.9037184
29.407359008392152	4.162568	2.0402372
29.42547954011872	5.159173	2.2713814
29.44360082428809	6.613313	2.5716362
29.46172286144722	8.774209	2.962129
29.479845652143283	11.397013	3.3759463
29.497969196923606	14.316286	3.7836869
29.516093496335728	16.713402	4.088203
29.5342185509274	18.438652	4.294025
29.55234436124651	18.764833	4.3318396
29.570470927841175	17.552963	4.1896257
29.588598251259686	15.294372	3.910802
29.60672633205055	12.45547	3.5292308
29.624855170762405	9.556809	3.091409
29.642984767944146	6.9320984	2.6328878
29.66111512414481	5.29062	2.3001347
29.67924623991366	4.2578974	2.0634673
29.697378115800138	3.770337	1.9417356
29.71551075235387	3.5439234	1.8825312
29.733644150124675	3.4712954	1.8631413
29.751778309662576	3.4261982	1.8509992
29.769913231517766	3.3626997	1.8337666
29.78804891624066	3.3126957	1.8200812
29.806185364381818	3.2660415	1.8072193
29.82432257649206	3.2449164	1.8013651
29.842460553122333	3.2810602	1.8113697
29.86059929482382	3.3351145	1.8262296
29.878738802147872	3.3318822	1.8253444
29.896879075646048	3.306526	1.8183855
29.915020115870114	3.3532429	1.8311862
29.933161923371976	3.3472168	1.82954
29.951304498703777	3.3002794	1.8166671
29.969447842417857	3.3286543	1.82446
29.987591955066733	3.3489988	1.830027
30.005736837203123	3.359099	1.8327844
30.023882489379943	3.3261113	1.823763
30.04202891215028	3.2633805	1.8064829
30.060176106067455	3.2734888	1.8092785
30.078324071684946	3.2936928	1.8148534
30.09647280955646	3.2800786	1.8110987
30.114622320235863	3.2206879	1.7946275
30.132772604277257	3.2210042	1.7947156
30.1509236622349	3.1666934	1.7795205
30.16907549466328	3.1493533	1.7746418
30.18722810211705	3.1689813	1.7801633
30.205381485151097	3.1170208	1.7655087
30.22353564432045	3.1005492	1.7608377
30.241690580180403	3.13982	1.7719537
30.25984629328638	3.1291213	1.7689322
30.278002784194037	3.092038	1.7584192
30.296160053459246	3.0148897	1.7363437
30.314318101638033	2.968861	1.7230383
30.332476929286646	3.0118403	1.7354654
30.35063653696153	2.9865506	1.728164
30.368796925219307	2.9717035	1.723863
30.386958094616844	2.9992003	1.73182
30.40512004571115	2.9155407	1.7074955
30.423282779059463	2.8260694	1.6810917
30.441446295219233	2.905737	1.7046223
30.459610594748067	2.975172	1.7248687
30.47777567820382	2.959861	1.7204247
30.495941546144504	2.9265463	1.7107152
30.51410819912835	2.898832	1.7025957
30.532275637713795	2.8794549	1.6968956
30.55044386245946	2.86996	1.6940956
30.56861287392416	2.923636	1.7098643
30.586782672666956	2.958537	1.7200398
30.604953259247047	2.8755121	1.6957335
30.623124634223885	2.797695	1.6726311
30.641296798157075	2.88504	1.6985406
30.659469751606462	2.9152868	1.7074211
30.677643495132074	2.872447	1.6948295
30.695818029294152	2.8560243	1.6899776
30.713993354653116	2.8668656	1.6931821
30.73216947176962	2.825295	1.6808614
30.75034638120448	2.911736	1.706381
30.768524083518756	3.020442	1.7379419
30.786702579273673	3.0564106	1.7482593
30.80488186903069	3.1478868	1.7742285
30.82306195335144	3.4177537	1.8487167
30.841242832797782	3.814191	1.9529954
30.85942450793176	4.181296	2.0448217
30.877606979315637	4.611911	2.147536
30.895790247511883	4.9855146	2.2328267
30.913974313083134	5.1257124	2.2640035
30.932159176592283	4.8838615	2.2099462
30.95034483860237	4.4937644	2.1198502
30.968531299676698	4.074295	2.0184884
30.98671856037873	3.6493232	1.9103202
31.00490662127215	3.1332963	1.7701119
31.023095482920848	2.8394544	1.6850681
31.04128514588892	2.7127008	1.6470279
31.059475610740662	2.594872	1.6108606
31.07766687804056	2.5771778	1.6053591
31.09585894835335	2.5977192	1.6117442
31.11405182224393	2.497651	1.5803958
31.132245500277417	2.4290378	1.5585371
31.15043998301914	2.3794641	1.5425512
31.168635271034628	2.4074662	1.5516012
31.18683136488964	2.424975	1.5572331
31.20502826515008	2.3416204	1.5302354
31.223225972382135	2.3430316	1.5306965
31.241424487152155	2.3755686	1.541288
31.259623810026692	2.347751	1.5322372
31.27782394157253	2.3423946	1.5304884
31.296024882356644	2.3862505	1.5447494
31.314226632946237	2.4054155	1.5509402
31.332429193908684	2.500789	1.5813882
31.350632565811598	2.5707102	1.6033435
31.368836749222787	2.549807	1.5968115
31.387041744710295	2.4802911	1.574894
31.40524755284232	2.5376537	1.5930015
31.423454174187317	2.5836098	1.6073611
31.441661609313922	2.5851448	1.6078385
31.459869858791002	2.4815946	1.5753077
31.478078923187628	2.4000385	1.5492058
31.496288803073064	2.3652477	1.5379362
31.514499499016807	2.31537	1.521634
31.532711011588546	2.2537632	1.5012538
31.550923341358178	2.2502966	1.5000988
31.56913648889584	2.2949655	1.5149144
31.587350454771844	2.3701446	1.5395274
31.605565239556732	2.3790972	1.5424322
31.62378084382127	2.2918894	1.5138987
31.641997268136382	2.2791095	1.5096719
31.660214513073274	2.3382046	1.5291189
31.67843257920331	2.3464665	1.531818
31.6966514670981	2.3604434	1.5363735
31.71487117732944	2.3580904	1.5356075
31.733091710469346	2.372858	1.5404084
31.751313067090052	2.3286273	1.525984
31.769535247764008	2.3165634	1.5220261
31.787758253063878	2.3383381	1.5291625
31.805982083562526	2.3761618	1.5414804
31.824206739833024	2.3881538	1.5453652
31.84243222244869	2.3356373	1.5282792
31.860658531983013	2.2736142	1.5078509
31.878885669009737	2.27557	1.5084993
31.897113634102784	2.283263	1.511047
31.91534242783632	2.2950609	1.5149459
31.933572050784694	2.2450812	1.4983594
31.951802503522508	2.1906528	1.4800854
31.970033786624548	2.2140908	1.4879822
31.988265900665834	2.2656097	1.5051943
32.006498846221575	2.2871614	1.5123364
32.02473262386724	2.2274156	1.4924529
32.04296723417845	2.1981292	1.4826089
32.0612026777311	2.272893	1.5076116
32.07943895510129	2.2911675	1.5136603
32.097676066865304	2.281346	1.5104126
32.115914013599685	2.166204	1.471803
32.13415279588115	2.1333663	1.4606048
32.152392414286666	2.0782547	1.4416153
32.1706328693934	2.1246436	1.4576157
32.18887416177875	2.1674933	1.4722409
32.20711629202032	2.2232738	1.4910647
32.225359260695924	2.2130768	1.4876413
32.243603068383614	2.2112155	1.4870156
32.26184771566166	2.2308202	1.4935931
32.28009320310852	2.209832	1.4865503
32.2983395313029	2.1284435	1.4589186
32.31658670082372	2.0458505	1.4303323
32.33483471225012	2.0820646	1.4429361
32.35308356616143	2.0515187	1.4323124
32.371333263137245	2.0882363	1.4450731
32.38958380375734	2.1836762	1.4777267
32.407835188601744	2.2370546	1.4956787
32.42608741825067	2.203407	1.4843878
32.444340493284585	2.1795664	1.4763354
32.46259441428416	2.1274004	1.4585611
32.48084918183028	2.0766668	1.4410645
32.49910479650405	2.0276067	1.4239405
32.51736125888683	2.0529528	1.4328129
32.53561856956014	2.140835	1.4631593
32.5538767291058	2.104914	1.4508321
32.572135738105764	2.0397506	1.4281983
32.59039559714228	2.005692	1.4162246
32.608656306797776	2.0192719	1.4210109
32.62691786765491	2.0576115	1.4344376
32.645180280296586	2.0542748	1.4332741
32.663443545305896	2.0169086	1.4201791
32.68170766326619	1.9762466	1.4057903
32.69997263476099	2.0597434	1.4351807
32.7182384603741	2.0600057	1.435272
32.7365051406895	2.0584917	1.4347445
32.75477267629144	2.1220624	1.45673
32.77304106776434	2.1306903	1.4596884
32.79131031569289	2.0565083	1.4340531
32.809580420661966	2.0098896	1.4177058
32.827851383256714	2.0324721	1.425648
32.84612320406245	1.9932526	1.411826
32.86439588366476	1.9146286	1.3837011
32.88266942264945	1.9430404	1.3939298
32.9009438216025	1.9981282	1.4135516
32.9192190811102	2.007112	1.4167258
32.937495201758985	1.9983844	1.4136423
32.95577218413556	1.9635525	1.4012681
32.974050028826866	1.9291135	1.3889253
32.992328736420035	1.8986964	1.377932
33.010608307502444	1.9499938	1.3964218
33.02888874266169	1.9549954	1.3982115
33.047170042485604	1.9296372	1.3891138
33.06545220756225	2.003714	1.415526
33.083735238479896	2.0114663	1.4182616
33.10201913582707	2.011172	1.4181579
33.12030390019248	2.0231357	1.4223697
33.138589532165135	2.0626938	1.4362081
33.15687603233419	2.0527897	1.432756
33.17516340128909	2.0360608	1.426906
33.19345163961947	2.0663402	1.437477
33.211740747915215	1.9777073	1.4063098
33.23003072676643	1.921673	1.3862442
33.248321576763466	1.9670074	1.4025004
33.266613298496885	2.0696492	1.4386276
33.28490589255747	2.1292834	1.4592065
33.30319935953626	2.1420105	1.4635609
33.32149370002451	1.9934508	1.4118961
33.339788914613706	1.8573991	1.3628643
33.358085003895575	1.8167322	1.3478621
33.376381968462034	1.8904397	1.3749326
33.39467980890529	1.9973266	1.4132681
33.41297852581774	2.0874765	1.4448102
33.43127811979204	1.9997274	1.4141172
33.44957859142105	1.8894699	1.3745799
33.467879941297866	1.8381959	1.3558009
33.486182170015844	1.898918	1.3780123
33.50448527816853	1.9428428	1.393859
33.522789266349754	1.9336894	1.3905716
33.541094135153514	1.9351959	1.3911132
33.55939988517411	1.9013574	1.3788972
33.57770651700602	1.9258302	1.3877429
33.59601403124398	1.9039832	1.379849
33.61432242848296	1.9501277	1.3964697
33.632631709318154	1.9657565	1.4020544
33.650941874344994	1.9568791	1.398885
33.66925292415916	1.9205348	1.3858336
33.68756485935654	1.9670769	1.4025252
33.70587768053328	1.9502677	1.3965199
33.724191388285746	1.911425	1.382543
33.74250598321054	1.8790547	1.3707862
33.760821465904506	1.9053646	1.3803495
33.77913783696474	1.88776	1.3739578
33.79745509698852	1.8530496	1.3612677
33.815773246573414	1.877622	1.3702635
33.8340922863172	1.8592755	1.3635526
33.852412216817896	1.885057	1.3729738
33.87073303867377	1.8713601	1.3679767
33.889054752483304	1.8714395	1.3680056
33.907377358845245	1.8962845	1.3770565
33.92570085835853	1.8397225	1.3563637
33.94402525162239	1.8110985	1.3457706
33.96235053923627	1.9912639	1.4111215
33.980676721799824	2.112092	1.4533038
33.999003799912984	2.0673015	1.4378114
34.01733177417592	1.9586127	1.3995044
34.03566064518901	2.0008378	1.4145098
34.0539904135529	1.9925414	1.4115741
34.07232107986846	1.8278698	1.3519874
34.090652644736785	1.8431636	1.3576316
34.108985108759235	1.9661633	1.4021994
34.12731847253742	2.0261016	1.423412
34.14565273667313	1.9979644	1.4134936
34.16398790176847	2.0631545	1.4363685
34.18232396842574	2.0750992	1.4405205
34.20066093724749	2.0084128	1.4171848
34.21899880883651	2.0456183	1.4302511
34.23733758379583	2.1279535	1.4587507
34.25567726272874	2.2807653	1.5102203
34.27401784623872	2.2219555	1.4906225
34.29235933492957	1.9460639	1.3950139
34.31070172940526	1.8942671	1.3763237
34.32904503027003	1.9370233	1.3917699
34.347389238128386	2.0638497	1.4366105
34.36573435358502	2.0438716	1.4296404
34.38408037724492	1.9788269	1.4067078
34.402427309713296	1.9875016	1.4097878
34.42077515159559	1.9435762	1.394122
34.43912390349752	1.6979951	1.3030714
34.45747356602499	1.6595329	1.2882286
34.47582413978423	1.8010279	1.3420238
34.49417562538163	1.8793895	1.3709083
34.51252802342388	1.8328731	1.3538364
34.53088133451789	1.9069735	1.3809321
34.54923555927084	1.8783486	1.3705286
34.567590698290104	1.835395	1.3547674
34.58594675218336	1.7720182	1.3311718
34.6043037215585	1.7661918	1.3289815
34.62266160702365	1.8658589	1.3659644
34.641020409187234	2.0091136	1.4174321
34.65938012865785	1.9974165	1.4132999
34.677740766044394	1.9740653	1.4050144
34.69610232195598	1.9545634	1.398057
34.714464797002016	2.1409497	1.4631984
34.73282819179208	2.0467079	1.430632
34.751192506936064	2.0039783	1.4156194
34.76955774304408	2.0380578	1.4276056
34.7879239007265	2.0006838	1.4144553
34.80629098059391	1.9985387	1.4136969
34.824658983257194	1.9737635	1.4049069
34.843027909327446	1.9728149	1.4045693
34.86139775941603	1.9670873	1.4025289
34.879768534134534	1.9711035	1.40396
34.89814023409483	1.9550848	1.3982434
34.91651285990901	1.865273	1.36575
34.93488641218944	1.9216971	1.3862529
34.95326089154871	2.1081805	1.4519575
34.97163629859967	2.2280123	1.4926528
34.99001263395542	2.1511984	1.4666964
35.00838989822934	1.9636815	1.4013141
35.02676809203499	1.951927	1.3971138
35.04514721598624	1.9676158	1.4027174
35.063527270697215	2.015948	1.4198408
35.081908256782256	2.0593925	1.4350584
35.10029017485597	2.1038496	1.4504653
35.11867302553321	2.3601766	1.5362866
35.137056809429104	2.5585814	1.5995566
35.155441527159006	2.452026	1.5658946
35.173827179338524	2.423436	1.5567389
35.19221376658354	2.3784914	1.5422359
35.21060128951017	2.0388844	1.4278951
35.2289897487348	1.7428327	1.3201638
35.24737914487405	1.8693478	1.3672409
35.26576947854479	1.9751273	1.4053923
35.28416075036418	1.8922554	1.3755927
35.30255296094958	1.9302392	1.3893305
35.32094611091867	1.8117872	1.3460264
35.33934020088932	1.6261626	1.2752109
35.35773523147969	1.7692645	1.330137
35.3761312033082	2.1484864	1.4657716
35.394528116993506	2.288913	1.5129154
35.41292597315452	2.5096207	1.5841782
35.431324772410434	2.4657478	1.57027
35.449724515380666	2.2480652	1.499355
35.46812520268491	1.7878921	1.3371208
35.486526834943106	1.722022	1.3122584
35.504929412775454	1.7718114	1.331094
35.52333293680242	1.8123379	1.346231
35.54173740764471	2.076048	1.4408497
35.560142825923286	2.1536453	1.4675304
35.5785491922594	1.6388061	1.2801586
35.59695650727454	1.6940589	1.3015602
35.61536477159042	2.1007197	1.449386
