0.008763373481513119	0.0	0.0
0.026290120649546365	0.0	0.0
0.043816868432600686	0.0	0.0
0.06134361724069026	0.08848978	0.29747233
0.07887036748382949	0.22261184	0.47181758
0.0963971195720331	0.376594	0.61367255
0.11392387391531617	0.3107974	0.5574921
0.1314506309236943	0.20266876	0.45018747
0.1489773910071836	0.13064659	0.36145067
0.16650415457580078	0.10403228	0.32254034
0.18403092203956356	0.1301606	0.36077777
0.20155769380849	0.09109148	0.30181363
0.2190844702925996	0.08400043	0.28982827
0.2366112519019124	0.15992577	0.3999072
0.2541380390464497	0.15716995	0.39644665
0.27166483213623416	0.15067156	0.38816434
0.28919163158128947	0.08723216	0.2953509
0.3067184377916406	0.040576596	0.20143633
0.324245251177314	0.02023846	0.14226194
0.34177207214833777	0.07664008	0.27683944
0.3592989011147415	0.1088351	0.32990167
0.37682573848655654	0.103278086	0.32136908
0.39435258467381573	0.110534534	0.33246735
0.41187944008655414	0.118243545	0.3438656
0.42940630513480854	0.14841355	0.3852448
0.446933180228618	0.1300614	0.36064026
0.4644600657780234	0.15360138	0.39192012
0.48198696219306775	0.1673652	0.40910292
0.49951386988379676	0.21454683	0.463192
0.5170407892602581	0.1903107	0.43624616
0.5345677207325025	0.17631103	0.41989407
0.5520946647105822	0.15485607	0.39351755
0.5696216216045534	0.18131338	0.4258091
0.5871485918244737	0.22971833	0.4792894
0.6046755757804043	0.20682243	0.45477733
0.6222025738824094	0.19587348	0.44257596
0.6397295865405557	0.15128155	0.3889493
0.6572566141649129	0.18858166	0.4342599
0.6747836571655547	0.21775794	0.46664542
0.6923107159525568	0.23025791	0.47985196
0.7098377909359992	0.20539135	0.45320123
0.7273648825259653	0.15214618	0.3900592
0.7448919911325411	0.14929794	0.38639092
0.762419117165817	0.19374806	0.4401682
0.7799462610358868	0.22318748	0.47242722
0.7974734231528482	0.21860471	0.46755183
0.8150006039268024	0.13859147	0.37227875
0.8325278037678551	0.10115451	0.31804797
0.8500550230861152	0.09095426	0.30158624
0.8675822622916969	0.103258006	0.32133785
0.8851095217947171	0.15257174	0.39060432
0.9026368020052984	0.18488684	0.4299847
0.9201641033335665	0.18532021	0.43048835
0.9376914261896523	0.1782508	0.42219758
0.9552187709836915	0.13894884	0.37275842
0.9727461381258234	0.17257282	0.41541886
0.990273528026193	0.192045	0.43822938
1.0078009410949496	0.16781728	0.40965506
1.0253283777422473	0.15911989	0.39889833
1.0428558383782454	0.18463244	0.42968875
1.0603833234131086	0.19992074	0.447125
1.0779108332570058	0.25751203	0.5074564
1.0954383683201119	0.27061746	0.5202091
1.112965929012607	0.3384539	0.5817679
1.1304935157446763	0.45196563	0.6722839
1.1480211289265108	0.50846416	0.71306676
1.1655487689683062	1.3945765	1.1809219
1.1830764362802655	1.6767524	1.2948948
1.200604131272596	2.0671089	1.4377444
1.2181318543555117	2.360362	1.536347
1.235659605939232	2.413774	1.5536325
1.253187386433982	3.8704555	1.9673474
1.270715196249994	6.043077	2.458267
1.2882430357975057	11.337864	3.3671744
1.3057709054867608	16.251554	4.0313215
1.3232988057280106	22.39657	4.7325015
1.3408267369315112	27.380388	5.2326274
1.358354699507526	30.905682	5.559288
1.3758826938663256	34.57514	5.880063
1.3934107204181858	36.040653	6.003387
1.410938779573391	36.616764	6.051179
1.4284668717422309	37.30889	6.1081004
1.4459949973350033	37.211308	6.100107
1.4635231567620117	37.266582	6.104636
1.4810513504335687	36.49655	6.0412374
1.4985795787599925	35.81519	5.984579
1.5161078421516088	35.58513	5.9653273
1.5336361410187505	34.774704	5.897008
1.5511644757717598	34.564346	5.879145
1.5686928468209842	34.993664	5.915544
1.58622125457678	35.631813	5.9692388
1.6037496994495108	36.76255	6.063213
1.621278181849548	36.693947	6.057553
1.6388067021872719	37.221554	6.100947
1.6563352608730693	36.39745	6.03303
1.673863858317336	35.43241	5.952513
1.6913924949304753	34.704052	5.8910146
1.7089211711228998	33.913788	5.8235545
1.7264498873050296	33.31555	5.7719626
1.7439786438872935	32.419754	5.693835
1.7615074412801288	31.495428	5.6120787
1.779036279893981	30.83442	5.552875
1.796565160139305	30.228354	5.4980316
1.814094082426564	29.44718	5.4265256
1.8316230471662298	28.680079	5.3553786
1.849152054768784	27.753843	5.268192
1.8666811056447168	27.401625	5.2346563
1.8842102002045273	26.722794	5.1694093
1.901739338858724	26.052473	5.104162
1.9192685220178245	25.228016	5.02275
1.9367977500923557	24.322823	4.9318175
1.9543270234928547	23.727833	4.8711224
1.971856342629867	22.986826	4.794458
1.9893857079139496	22.684935	4.7628703
2.006915119755667	22.395866	4.732427
2.0244445785655945	22.01062	4.691548
2.0419740847543175	21.425562	4.6287756
2.0595036387324317	21.093138	4.5927267
2.0770332409105414	20.555996	4.533872
2.094562891699263	20.228638	4.497626
2.1120925915092217	19.624662	4.429973
2.129622340751053	19.238096	4.3861256
2.1471521398354043	187.5507	13.694916
2.1646819891729323	443.90796	21.069124
2.182211889174303	440.0964	20.978476
2.1997418402501974	452.55954	21.273447
2.2172718428113023	432.4469	20.795357
2.234801897268317	320.35437	17.898445
2.2523320040319548	16.76514	4.094526
2.269862163512935	16.402288	4.049974
2.287392376121992	16.231258	4.028804
2.304922642269869	15.981435	3.9976788
2.322452962367322	15.741236	3.9675226
2.3399833368251164	15.416328	3.9263632
2.357513766054032	15.149183	3.8921952
2.3750442504648586	14.742158	3.8395517
2.3925747904683963	14.448675	3.8011413
2.410105386475459	14.16343	3.7634332
2.4276360388968707	14.064157	3.7502208
2.445166748143469	13.948367	3.7347512
2.4626975146261025	13.754774	3.7087429
2.4802283387556323	13.505229	3.674946
2.4977592209429305	13.095055	3.618709
2.5152901615988825	12.914078	3.5936162
2.5328211611343865	12.772316	3.5738378
2.5503522199603523	12.686762	3.5618482
2.5678833384877024	12.552942	3.543013
2.5854145171273712	12.35756	3.5153322
2.6029457562903064	11.94044	3.4554942
2.620477056387469	11.54908	3.3983936
2.6380084178298326	11.2327175	3.3515246
2.655539841028383	11.056079	3.3250682
2.673071326394119	11.077158	3.3282366
2.6906028743380523	10.995831	3.3159962
2.708134485271211	10.896712	3.3010168
2.7256661596046325	10.823533	3.289914
2.743197897749369	10.6137705	3.2578783
2.760729700116486	10.483624	3.2378426
2.778261567117063	10.215292	3.196137
2.795793499162193	10.022314	3.165804
2.8133254966629817	9.686804	3.112363
2.830857560030551	9.423275	3.0697353
2.8483896896760337	9.371063	3.0612192
2.865921886010578	9.4836645	3.079556
2.883454149445347	9.438646	3.072238
2.9009864803915177	9.411226	3.0677722
2.91851887926028	9.23544	3.0389867
2.9360513464628384	9.028763	3.00479
2.953583882410413	8.84997	2.97489
2.9711164875142373	8.519752	2.9188614
2.9886491621855606	8.498127	2.9151547
3.0061819068356455	8.390896	2.8967042
3.023714721875769	8.478744	2.9118283
3.041247607717225	8.424899	2.9025676
3.0587805647713213	8.30932	2.882589
3.0763135934493806	8.246136	2.8716085
3.0938466941627407	8.0517435	2.8375595
3.1113798673227544	7.9845715	2.8256984
3.1289131133407904	7.9487915	2.81936
3.1464464326282315	7.8398757	2.7999778
3.1639798255964786	7.7572	2.785175
3.1815132926569443	7.5804896	2.753269
3.1990468342210603	7.3688383	2.7145605
3.216580450700272	7.1954393	2.6824317
3.2341141425060416	7.0738764	2.659676
3.251647910049847	7.070632	2.659066
3.2691817537431813	7.138936	2.6718788
3.286715673997555	7.133819	2.670921
3.3042496712244938	7.0159583	2.6487653
3.32178374583554	6.968814	2.639851
3.339317898242251	6.88734	2.6243742
3.3568521288562034	6.77897	2.6036456
3.3743864380889876	6.798142	2.6073246
3.3919208263522127	6.7168274	2.5916843
3.4094552940575023	6.7009535	2.58862
3.4269898416164972	6.6618924	2.5810642
3.444524469440858	6.643877	2.5775719
3.4620591779422587	6.620909	2.5731127
3.479593967532391	6.5476665	2.5588408
3.4971288386229658	6.3650565	2.5229063
3.5146637916257086	6.2466187	2.4993236
3.5321988269523628	6.1394897	2.4777994
3.5497339450146903	6.0923176	2.468262
3.5672691462244708	6.1476955	2.4794548
3.5848044309934988	6.1652966	2.4830015
3.60233979973359	6.15732	2.4813948
3.619875252856575	6.16997	2.4839425
3.6374107907743034	6.2027316	2.4905283
3.6549464138986427	6.2215047	2.4942944
3.6724821226414788	6.2383213	2.4976633
3.690017917414714	6.2363896	2.4972765
3.7075537986302702	6.238865	2.497772
3.7250897667000857	6.296643	2.5093112
3.7426258220361235	6.4201784	2.533807
3.7601619650503553	6.70756	2.5898957
3.777698196154779	7.3396797	2.7091844
3.7952345157614067	8.443571	2.9057825
3.8127709242822716	9.21362	3.0353947
3.830307422129425	11.15785	3.3403368
3.847844009714936	12.465384	3.530635
3.8653806874508954	15.909697	3.988696
3.882917455749409	15.4503	3.930687
3.900454315022606	15.63765	3.9544468
3.917991265682631	12.543879	3.5417337
3.9355283081416506	10.746093	3.2781234
3.9530654428118495	8.63572	2.9386597
3.970602670105433	7.3163843	2.7048817
3.9881399904346244	6.489557	2.5474608
4.005677404211669	6.4373126	2.537186
4.023214911848827	6.3988867	2.529602
4.0407525137583855	6.3862925	2.5271115
4.058290210352644	6.3624783	2.5223954
4.075828002043927	6.231745	2.4963462
4.0933658892445814	6.2190933	2.493811
4.110903872366966	6.2149105	2.4929721
4.128441951823468	6.148747	2.4796667
4.145980128026488	6.161427	2.482222
4.163518401388452	6.094024	2.4686077
4.181056772321807	6.074541	2.4646585
4.1985952412390155	6.0466733	2.4589984
4.216133808552567	6.005239	2.450559
4.233672474674966	6.1152368	2.4729004
4.251211240018741	6.348163	2.519556
4.268750104996445	6.5781326	2.5647871
4.286289070020643	7.607845	2.758232
4.303828135503928	9.329122	3.054361
4.3213673018589125	29.650944	5.445268
4.3389065694982305	90.66765	9.521956
4.356445938834537	165.87515	12.879252
4.3739854102805085	171.42906	13.093092
4.391524984248844	172.2784	13.125486
4.409064661152262	136.26572	11.673291
4.426604441403504	96.54639	9.825802
4.444144325415337	75.69216	8.700124
4.461684313600543	21.590939	4.646605
4.47922440637193	21.857933	4.6752467
4.496764604142329	20.063555	4.479236
4.5143049073245916	18.30832	4.278822
4.531845316331589	16.282969	4.035216
4.5493858315762195	13.358784	3.654967
4.566926453471405	11.025906	3.320528
4.584467182430081	9.165417	3.027444
4.602008018865218	8.107101	2.8472972
4.619548963189798	7.4741673	2.7338924
4.637090015816834	7.020243	2.649574
4.654631177159353	6.794655	2.6066558
4.672172447630417	6.5579796	2.5608552
4.689713827643102	6.319359	2.5138335
4.7072553176105085	6.0533576	2.4603572
4.724796917945764	5.836172	2.415817
4.742338629062015	5.7989893	2.4081092
4.759880451372434	5.7070894	2.3889515
4.777422385290215	5.656129	2.3782618
4.794964431228581	5.593077	2.3649688
4.812506589600768	5.6146235	2.3695197
4.830048860820047	5.6051416	2.367518
4.847591245299709	5.6217346	2.3710198
4.8651337434530655	5.5046306	2.346195
4.882676355693457	5.5481057	2.3554418
4.900219082434242	5.585604	2.3633883
4.917761924088813	5.679753	2.3832233
4.935304881070575	5.65225	2.3774462
4.952847953792969	5.549183	2.3556705
4.970391142669449	5.4980407	2.3447902
4.9879344481135055	5.525641	2.3506682
5.005477870538642	5.549857	2.3558135
5.023021410358394	5.5017657	2.3455844
5.040565067986324	5.472063	2.3392441
5.05810884383601	5.3887424	2.3213665
5.075652738321066	5.374377	2.3182702
5.09319675185512	5.325816	2.3077729
5.110740884851836	5.3355775	2.309887
5.128285137724894	5.281947	2.2982488
5.145829510888007	5.243842	2.2899437
5.163374004754908	5.2058187	2.2816262
5.1809186197393595	5.193916	2.2790165
5.198463356255145	5.312696	2.3049285
5.216008214716077	5.2993007	2.302021
5.233553195535998	5.1534963	2.2701313
5.251098299128764	5.1248918	2.2638223
5.268643525908272	5.07241	2.252201
5.286188876288432	5.163224	2.2722728
5.3037343506831895	5.1239986	2.2636251
5.32127994950651	5.1564064	2.2707722
5.3388256731723915	5.1336346	2.2657526
5.356371522094851	5.1545663	2.270367
5.373917496687938	5.0692043	2.2514894
5.391463597365729	5.0347295	2.2438202
5.40900982454232	4.987957	2.2333734
5.426556178631843	5.1000924	2.2583385
5.444102660048449	5.170414	2.2738545
5.4616492692063225	5.220072	2.2847476
5.479196006519669	5.199219	2.2801797
5.496742872402727	5.1335835	2.2657413
5.514289867269756	5.119461	2.2626226
5.531836991535049	5.1191072	2.2625444
5.549384245612924	5.0869823	2.255434
5.566931629917724	5.050363	2.2473013
5.584479144863822	5.0159273	2.2396266
5.6020267908656205	4.98727	2.2332196
5.619574568337545	4.932799	2.2209904
5.637122477694054	4.9558816	2.226181
5.654670519349629	5.0252438	2.2417057
5.672218693718784	5.001788	2.2364678
5.689767001216059	5.001822	2.2364755
5.707315442256021	5.0119753	2.238744
5.724864017253266	5.044915	2.246089
5.7424127266224225	5.066754	2.250945
5.75996157077814	5.0110335	2.2385337
5.777510550135105	5.0381713	2.2445872
5.795059665108022	5.0581846	2.2490408
5.812608916111639	5.085542	2.2551148
5.830158303560715	5.2161446	2.283888
5.847707827870055	5.2293487	2.286777
5.86525748945448	5.322238	2.3069975
5.8828072887288485	5.3504167	2.3130968
5.900357226108044	5.3814297	2.3197908
5.917907302006979	5.496145	2.3443859
5.9354575168406	6.100238	2.469866
5.9530078710238765	6.6418395	2.5771766
5.970558364971812	7.1756177	2.6787343
5.988108999099438	7.569026	2.7511864
6.005659773821818	8.110379	2.8478727
6.023210689554039	7.8686132	2.805105
6.040761746711227	8.185363	2.8610072
6.058312945708531	7.4857574	2.7360113
6.075864286961132	7.0395827	2.6532211
6.093415770884244	6.464665	2.5425706
6.1109673978931065	6.0320334	2.4560199
6.128519168402993	5.5147414	2.3483486
6.146071082829204	5.3662567	2.3165183
6.163623141587075	5.2355733	2.2881374
6.181175345091969	5.18788	2.2776918
6.198727693759281	5.1236873	2.2635562
6.216280188004435	5.0436945	2.2458172
6.233832828242885	4.9886856	2.2335365
6.251385614890126	4.989851	2.2337976
6.268938548361669	5.064607	2.2504683
6.286491629073067	5.015861	2.2396119
6.304044857439898	4.973875	2.2302186
6.321598233877777	4.864288	2.205513
6.339151758802344	4.886541	2.2105522
6.356705432629277	4.9698515	2.2293165
6.37425925577428	5.022089	2.2410018
6.391813228653095	5.012267	2.2388093
6.409367351681486	5.050052	2.2472322
6.426921625275259	5.0541186	2.2481368
6.44447604985025	5.083748	2.2547169
6.46203062582232	5.0114317	2.2386227
6.47958535360737	4.8978076	2.213099
6.497140233621328	4.8376656	2.1994693
6.514695266280161	4.833372	2.1984932
6.532250451999859	4.937693	2.2220922
6.549805791196454	4.965158	2.2282634
6.567361284286002	4.983765	2.2324347
6.584916931684597	4.961688	2.2274847
6.602472733808367	4.9315915	2.2207186
6.6200286910734665	4.937822	2.222121
6.637584803896092	4.8911138	2.2115862
6.655141072692462	4.8000484	2.1909013
6.672697497878842	4.773011	2.1847222
6.690254079871514	4.7775035	2.18575
6.707810819086808	4.8246875	2.1965172
6.725367715941078	4.8225274	2.1960254
6.742924770850719	4.791727	2.1890013
6.760481984232151	4.8054934	2.1921434
6.778039356501836	4.7933354	2.1893687
6.795596888076266	4.836712	2.1992526
6.813154579371963	4.873885	2.2076879
6.830712430805492	4.9401903	2.2226539
6.84827044279344	4.9772053	2.2309651
6.865828615752445	4.966561	2.2285783
6.883386950099159	4.992157	2.2343135
6.900945446250287	4.9712524	2.2296305
6.918504104622553	4.963862	2.2279725
6.936062925632727	4.9460254	2.2239661
6.953621909697607	4.9147286	2.2169187
6.971181057234028	4.962587	2.2276864
6.988740368658859	4.9463496	2.224039
7.006299844389007	4.978554	2.2312672
7.023859484841407	5.052635	2.2478068
7.041419290433036	5.176526	2.275198
7.058979261580902	5.4234724	2.328835
7.0765393987020495	5.6673703	2.3806238
7.094099702213559	6.0510654	2.4598913
7.111660172532549	6.3808784	2.52604
7.129220810076164	6.701505	2.5887265
7.146781615261595	7.302717	2.702354
7.16434258850606	7.519697	2.7422066
7.181903730226821	7.9625473	2.8217986
7.1994650408411704	8.04033	2.8355474
7.217026520766437	8.189598	2.8617473
7.234588170419983	8.481122	2.9122367
7.252149990219215	8.475431	2.9112594
7.269711980581568	8.364087	2.8920732
7.2872741419245175	8.105416	2.8470013
7.304836474665574	7.6450825	2.764974
7.322398979222286	7.3685713	2.7145112
7.339961656012233	7.1511145	2.6741567
7.357524505453039	6.8769574	2.6223953
7.375087527962357	6.5749474	2.564166
7.392650723957886	6.2529516	2.5005903
7.410214093857353	5.8657393	2.421929
7.427777638078528	5.661516	2.379394
7.445341357039213	5.487423	2.342525
7.4629052511572525	5.32046	2.3066123
7.480469320850524	5.187004	2.2774994
7.498033566536948	5.1274257	2.264382
7.5155979886344735	5.1096144	2.2604456
7.5331625875610975	5.03191	2.243192
7.550727363734844	5.0467973	2.246508
7.568292317573788	5.0186987	2.2402453
7.585857449496025	5.0711203	2.2519147
7.603422759919705	5.0989594	2.2580876
7.620988249263007	5.062967	2.2501037
7.638553917944147	5.027699	2.242253
7.656119766381391	5.0372005	2.244371
7.673685794993023	5.055256	2.2483897
7.691252004197388	5.1435795	2.267946
7.70881839441285	5.1580744	2.2711394
7.726384966057826	5.1686316	2.2734625
7.743951719550762	5.147175	2.2687385
7.761518655310149	5.1340404	2.2658422
7.779085773754511	5.153665	2.2701685
7.796653075302419	5.1868734	2.2774708
7.814220560372475	5.219328	2.2845848
7.831788229383323	5.209414	2.282414
7.8493560827536495	5.1747823	2.2748148
7.866924120902174	5.1937227	2.278974
7.884492344247663	5.204146	2.2812598
7.9020607532089135	5.1761165	2.275108
7.919629348204771	5.16014	2.271594
7.937198129654115	5.2089944	2.2823222
7.954767097975865	5.291003	2.300218
7.972336253588986	5.3224196	2.3070369
7.989905596912472	5.32101	2.3067315
8.007475128365371	5.4059963	2.32508
8.025044848366756	5.437402	2.3318236
8.042614757335754	5.5521555	2.3563013
8.060184855691523	5.536217	2.3529167
8.07775514385327	5.6592784	2.378924
8.095325622240228	5.706631	2.3888557
8.112896291271687	5.7203927	2.3917344
8.130467151366968	5.749716	2.3978565
8.148038202945436	5.8206043	2.412593
8.165609446426497	5.8997927	2.4289489
8.183180882229594	5.9874873	2.4469342
8.200752510774217	6.059419	2.4615889
8.218324332479893	6.1126485	2.472377
8.235896347766193	6.0574236	2.4611833
8.253468557052724	5.978185	2.4450328
8.27104096075914	5.935581	2.4363048
8.288613559305137	5.985736	2.4465764
8.306186353110448	6.0619736	2.4621077
8.32375934259485	6.1279526	2.47547
8.341332528178162	6.14261	2.4784288
8.358905910280246	6.199114	2.489802
8.376479489321003	6.179465	2.485853
8.394053265720377	6.1881237	2.487594
8.411627239898356	6.114802	2.4728127
8.42920141227497	6.0846252	2.4667034
8.44677578327029	6.094846	2.468774
8.464350353304427	6.088788	2.467547
8.48192512279754	6.0744686	2.4646437
8.499500092169827	6.0009933	2.4496925
8.51707526184153	5.989048	2.4472532
8.534650632232934	5.9762526	2.4446375
8.552226203764365	5.992482	2.4479547
8.569801976856192	5.9955387	2.4485788
8.587377951928834	6.091289	2.4680536
8.60495412940274	6.1572475	2.4813802
8.622530509698416	6.2808847	2.5061693
8.6401070932364	6.3017907	2.5103369
8.657683880437283	6.340156	2.5179667
8.675260871721695	6.3937893	2.5285943
8.692838067510303	6.5956883	2.5682073
8.710415468223834	6.772129	2.6023314
8.727993074283043	6.938714	2.6341438
8.745570886108737	6.9327283	2.6330075
8.763148904121765	6.9264755	2.6318197
8.78072712874302	6.9348536	2.633411
8.798305560393441	7.2085004	2.684865
8.815884199494006	7.474305	2.7339175
8.833463046465745	7.69642	2.7742422
8.851042101729728	7.8622985	2.8039792
8.86862136570707	8.103991	2.846751
8.886200838818924	8.263696	2.8746645
8.903780521486505	8.296867	2.8804283
8.921360414131055	8.40501	2.8991396
8.938940517173874	8.548253	2.9237397
8.956520831036297	8.666426	2.9438794
8.97410135613971	8.9315815	2.9885752
8.99168209290554	9.063286	3.0105293
9.009263041755265	9.3260565	3.0538592
9.026844203110405	9.564378	3.0926328
9.044425577392525	9.737337	3.1204708
9.062007165023239	9.841683	3.1371458
9.079588966424197	10.136572	3.1837983
9.097170982017108	10.27531	3.2055123
9.11475321222372	11.157105	3.3402255
9.132335657465825	11.998673	3.46391
9.149918318165264	12.084494	3.476276
9.167501194743924	12.650604	3.556769
9.18508428762374	12.392832	3.5203454
9.202667597226693	12.337878	3.5125315
9.220251123974803	11.964525	3.4589775
9.237834868290143	11.621604	3.4090474
9.255418830594836	11.528961	3.3954325
9.273003011311046	11.097194	3.3312452
9.290587410860985	10.830958	3.291042
9.308172029666911	10.175073	3.189839
9.32575686815113	10.038898	3.168422
9.343341926735997	8.801836	2.9667888
9.360927205843916	8.52419	2.9196215
9.378512705897327	8.160399	2.8566413
9.396098427318728	7.933294	2.8166103
9.413684370530664	7.8600116	2.8035712
9.431270535955722	7.803168	2.793415
9.448856924016539	7.7325253	2.780742
9.466443535135806	7.60267	2.757294
9.484030369736251	7.633049	2.7627974
9.501617428240658	7.6514416	2.766124
9.519204711071852	7.741803	2.7824097
9.536792218652714	7.8100214	2.7946415
9.55437995140617	7.810845	2.7947888
9.571967909755191	7.8534503	2.8024008
9.589556094122802	7.8443074	2.800769
9.60714450493207	7.904804	2.8115485
9.624733142606116	7.8682065	2.8050323
9.642322007568108	7.779939	2.7892542
9.659911100241267	7.8232093	2.7970002
9.677500421048851	7.8705616	2.805452
9.695089970414175	8.020476	2.8320446
9.712679748760609	8.0490885	2.8370914
9.730269756511557	8.027951	2.833364
9.747859994090492	8.061683	2.8393102
9.765450461920915	8.133158	2.851869
9.78304116042639	8.15529	2.8557467
9.800632090030527	8.141037	2.8532503
9.81822325115699	8.191766	2.862126
9.835814644229481	8.101313	2.8462806
9.853406269671762	8.042077	2.8358557
9.870998127907646	8.004817	2.8292785
9.888590219360985	8.025413	2.832916
9.906182544455698	8.182336	2.8604782
9.923775103615734	8.2162285	2.8663964
9.941367897265108	8.235103	2.8696868
9.958960925827878	8.259713	2.8739717
9.97655418972816	8.239701	2.870488
9.994147689390106	8.229926	2.8687847
10.011741425237934	8.092936	2.8448086
10.029335397695904	8.091768	2.8446033
10.04692960718833	8.048461	2.836981
10.06452405413958	8.041372	2.8357313
10.082118738974064	8.056117	2.83833
10.099713662116246	8.186208	2.861155
10.117308823990651	8.290009	2.8792374
10.134904225021844	8.29245	2.8796613
10.152499865634445	8.256023	2.8733296
10.170095746253125	8.106081	2.847118
10.18769186730261	8.028797	2.8335133
10.205288229207675	7.9652724	2.8222814
10.222884832393145	7.928425	2.8157458
10.2404816772839	7.940182	2.817833
10.258078764304868	8.013012	2.8307264
10.275676093881035	8.057151	2.8385122
10.293273666437438	8.103191	2.8466105
10.310871482399158	8.034847	2.8345807
10.32846954219134	7.9516683	2.8198702
10.346067846239173	8.026075	2.8330328
10.363666394967908	8.099992	2.8460484
10.38126518880283	8.138445	2.852796
10.398864228169298	8.156245	2.855914
10.416463513492713	8.144565	2.8538682
10.434063045198531	8.116254	2.848904
10.451662823712262	8.082893	2.843043
10.469262849459467	8.066593	2.840175
10.486863122865758	8.003628	2.8290684
10.504463644356806	7.9797707	2.824849
10.522064414358338	7.922986	2.81478
10.539665433296118	7.866344	2.8047004
10.557266701595987	7.8185096	2.7961597
10.574868219683818	7.7330737	2.7808404
10.592469987985552	7.6127696	2.7591248
10.610072006927185	7.5396132	2.7458355
10.627674276934751	7.464556	2.732134
10.64527679843435	7.2839384	2.6988773
10.662879571852143	7.153122	2.6745322
10.680482597614331	7.0504184	2.6552625
10.698085876147173	7.04925	2.6550424
10.715689407876988	6.951161	2.6365054
10.733293193230146	6.8131886	2.6102085
10.750897232633072	6.707003	2.5897882
10.76850152651225	6.6100836	2.5710082
10.786106075294207	6.521986	2.553818
10.803710879405534	6.420519	2.5338743
10.821315939272877	6.351317	2.520182
10.83892125532294	6.259501	2.5018995
10.856526827982472	6.1958413	2.4891448
10.874132657678285	6.177551	2.485468
10.891738744837243	6.180099	2.4859805
10.909345089886271	6.1354823	2.4769905
10.926951693252343	6.140314	2.4779658
10.944558555362494	6.022188	2.4540148
10.96216567664381	5.934277	2.436037
10.979773057523436	5.895466	2.4280581
10.997380698428573	5.8412476	2.4168673
11.014988599786477	5.763149	2.400656
11.032596762024461	5.7073646	2.389009
11.050205185569892	5.621566	2.370984
11.067813870850198	5.567646	2.359586
11.085422818292859	5.470676	2.3389475
11.10303202832541	5.3922663	2.3221254
11.120641501375454	5.349381	2.312873
11.138251237870636	5.2415543	2.2894442
11.155861238238671	5.1701283	2.2737916
11.173471502907317	5.1157794	2.2618089
11.191082032304402	5.113158	2.2612293
11.208692826857805	5.049789	2.2471735
11.226303886995465	4.982823	2.2322237
11.243915213145371	4.918429	2.2177532
11.261526805735578	4.8517265	2.2026634
11.279138665194196	4.7969933	2.190204
11.296750791949393	4.7899885	2.1886044
11.314363186429393	4.7795916	2.1862278
11.331975849062479	4.7032657	2.1687014
11.34958878027699	4.6135325	2.1479135
11.36720198050133	4.563005	2.1361191
11.384815450163948	4.539769	2.1306734
11.402429189693366	4.4680157	2.113768
11.420043199518153	4.4137053	2.100882
11.437657480066942	63.361176	7.9599733
11.455272031768422	85.07454	9.223586
11.472886855051353	107.49591	10.368024
11.490501950344528	99.13354	9.956583
11.508117318076819	84.52782	9.193901
11.52573295867715	45.918983	6.776355
11.543348872574514	4.239295	2.0589547
11.560965060197946	4.109612	2.0272179
11.57858152197655	3.986376	1.9965911
11.59619825833949	3.9207194	1.9800806
11.613815269715985	3.9116416	1.977787
11.631432556535323	38.476852	6.2029715
11.649050119226837	82.96657	9.108599
11.666667958219929	93.34053	9.66129
11.68428607394406	107.593445	10.372726
11.701904466828756	82.47398	9.081519
11.719523137303586	65.374405	8.085444
11.737142085798196	4.6350307	2.1529121
11.754761312742286	3.713045	1.9269263
11.772380818565619	3.6576622	1.9125016
11.790000603698015	3.6426578	1.9085748
11.80762066856935	3.628109	1.9047595
11.825241013609572	3.5822477	1.8926827
11.842861639248683	3.4968631	1.8699901
11.860482545916748	3.4339385	1.8530889
11.878103734043883	3.396611	1.8429897
11.895725204060282	3.3568544	1.832172
11.91334695639619	3.2962596	1.8155605
11.930968991481919	3.266501	1.8073463
11.948591309747824	3.2782948	1.8106062
11.966213911624347	3.278754	1.810733
11.98383679754198	3.2854526	1.8125818
12.001459967931268	3.2422876	1.8006353
12.019083423222835	3.24869	1.8024123
12.036707163847352	3.2182665	1.7939527
12.05433119023556	3.2032216	1.7897546
12.071955502818259	3.1734776	1.7814257
12.089580102026313	3.1342094	1.7703699
12.107204988290643	3.1232066	1.7672596
12.12483016204224	3.0971897	1.7598834
12.142455623712152	3.0855508	1.7565736
12.16008137373149	3.0858836	1.7566683
12.177707412531431	3.0597243	1.7492068
12.19533374054321	3.0597687	1.7492194
12.212960358198126	3.0466099	1.7454541
12.230587265927545	3.0248675	1.7392147
12.248214464162889	3.02132	1.7381945
12.265841953335649	2.9750643	1.7248374
12.283469733877375	2.9757578	1.7250385
12.301097806219685	2.9324791	1.7124482
12.31872617079425	2.9313936	1.7121313
12.336354828032825	2.9321613	1.7123555
12.353983778367205	2.8833523	1.6980437
12.371613022229262	2.8978262	1.7023003
12.389242560050928	2.8958054	1.7017066
12.406872392264201	2.8846328	1.6984206
12.424502519301143	2.9157815	1.7075659
12.442132941593874	2.8988707	1.702607
12.459763659574586	2.9200912	1.7088274
12.477394673675532	2.907138	1.7050332
12.49502598432903	2.9031708	1.7038693
12.51265759196746	2.881546	1.6975117
12.530289497023267	2.7950773	1.6718484
12.547921699928967	2.7341022	1.6535121
12.565554201117134	2.6775663	1.636327
12.583187001020404	2.7030008	1.6440805
12.600820100071486	2.738473	1.6548332
12.618453498703152	2.7624898	1.662074
12.636087197348235	2.738314	1.6547852
12.65372119643964	2.6955335	1.641808
12.671355496410326	2.7137122	1.6473349
12.68899009769333	2.770476	1.6644747
12.706625000721749	2.8114853	1.6767484
12.724260205928752	2.874395	1.695404
12.741895713747551	2.8909805	1.7002883
12.759531524611454	2.9477909	1.7169132
12.777167638953818	2.955802	1.7192446
12.794804057208072	2.9701087	1.7234004
12.812440779807702	3.0394583	1.7434043
12.830077807186271	3.1922004	1.786673
12.847715139777405	3.1842122	1.7844361
12.865352778014795	3.3750827	1.8371398
12.882990722332197	3.4601338	1.8601435
12.90062897316344	3.5171123	1.8753966
12.918267530942412	3.5847776	1.8933508
12.935906396103071	3.505685	1.8723475
12.953545569079449	3.6752672	1.9170986
12.971185050305628	3.5785296	1.8917001
12.988824840215775	3.5858226	1.8936268
13.006464939244115	3.54834	1.8837038
13.024105347824943	3.3625505	1.8337258
13.041746066392617	3.438243	1.85425
13.05938709538157	3.2863374	1.8128258
13.077028435226296	3.306642	1.8184174
13.094670086361363	3.205149	1.790293
13.112312049221401	3.1111503	1.7638453
13.129954324241112	3.0169415	1.7369345
13.147596911855258	2.8225274	1.680038
13.165239812498685	2.8070297	1.6754192
13.182883026606293	2.7668412	1.6633824
13.200526554613058	2.7531226	1.6592536
13.218170396954017	2.7119286	1.6467935
13.235814554064284	2.6763983	1.6359701
13.253459026379034	2.6537945	1.6290472
13.271103814333523	2.6266472	1.6206934
13.288748918363058	2.6413305	1.6252171
13.306394338903031	2.6724813	1.6347725
13.32404007638889	2.6524606	1.6286377
13.341686131256164	2.6462002	1.6267146
13.359332503940449	2.627229	1.6208729
13.376979194877402	2.6616137	1.6314453
13.394626204502751	2.7280517	1.6516814
13.412273533252307	2.7355454	1.6539484
13.429921181561937	2.6886203	1.6397012
13.447569149867581	2.670754	1.6342442
13.465217438605247	2.6886601	1.6397134
13.482866048211022	2.739231	1.6550623
13.500514979121052	2.7744205	1.6656592
13.518164231771568	2.721126	1.6495836
13.535813806598844	2.7062378	1.6450647
13.553463704039254	2.6409485	1.6250995
13.571113924529229	2.6242094	1.6199411
13.588764468505275	2.631679	1.6222451
13.606415336403956	2.683738	1.6382118
13.624066528661917	2.7387235	1.6549089
13.641718045715882	2.7902663	1.670409
13.659369888002635	2.851045	1.6885037
13.67702205595903	2.8760607	1.6958953
13.694674550021993	2.9411225	1.7149701
13.712327370628532	3.0090601	1.7346643
13.729980518215713	3.0739744	1.7532753
13.747633993220681	3.1228118	1.7671479
13.765287796080647	3.1262748	1.7681274
13.7829419272329	3.204662	1.790157
13.800596387114801	3.2478282	1.8021733
13.818251176163775	3.2900827	1.8138585
13.835906294817324	3.330726	1.8250277
13.853561743513023	3.3489864	1.8300236
13.871217522688525	3.371741	1.8362302
13.888873632781538	3.4030957	1.8447481
13.906530074229858	3.4644313	1.8612983
13.92418684747135	3.4785807	1.8650954
13.941843952943948	3.4419405	1.8552468
13.959501391085665	3.4256551	1.8508525
13.977159162334578	3.3736928	1.8367615
13.994817267128846	3.3595395	1.8329047
14.012475705906693	3.2590673	1.8052887
14.030134479106424	3.1819954	1.7838148
14.047793587166414	3.0538335	1.7475221
14.065453030525108	3.005251	1.7335659
14.083112809621026	2.964082	1.721651
14.100772924892766	2.9775476	1.7255572
14.118433376778997	2.9511733	1.7178979
14.136094165718458	2.889066	1.6997253
14.153755292149969	2.8094034	1.6761276
14.171416756512416	2.7223911	1.649967
14.189078559244768	2.6351192	1.6233051
14.20674070078606	2.5871465	1.6084609
14.224403181575408	2.5237992	1.588647
14.242066002051999	2.473672	1.5727911
14.259729162655093	2.409539	1.552269
14.277392663824022	2.4327717	1.5597345
14.295056505998208	2.4592712	1.5682063
14.312720689617128	2.4468327	1.5642354
14.330385215120348	2.4328387	1.5597559
14.348050082947497	2.4061425	1.5511745
14.3657152935383	2.375362	1.5412209
14.383380847332528	2.365524	1.538026
14.401046744770051	2.394399	1.5473845
14.418712986290798	2.397886	1.5485109
14.436379572334793	2.38552	1.5445129
14.454046503342123	2.3576646	1.5354688
14.471713779752946	2.3647442	1.5377724
14.489381402007504	2.3954792	1.5477335
14.507049370546113	2.3941636	1.5473086
14.524717685809168	2.3754416	1.5412468
14.542386348237134	2.345034	1.5313504
14.560055358270553	2.3489451	1.5326269
14.577724716350051	2.3901498	1.546011
14.595394422916325	2.4556644	1.567056
14.61306447841015	2.5197558	1.5873739
14.63073488327237	2.5354192	1.5922999
14.648405637943917	2.5411472	1.5940976
14.6660767428658	2.4682317	1.5710607
14.683748198479094	2.4653373	1.5701393
14.701420005224954	2.5128028	1.5851823
14.719092163544628	2.5966163	1.6114019
14.73676467387942	2.6384397	1.6243274
14.754437536670727	2.6394486	1.624638
14.772110752360014	2.6474085	1.6270859
14.78978432138882	2.6606698	1.631156
14.807458244198777	2.6694841	1.6338556
14.82513252123159	2.6646786	1.6323843
14.842807152929028	2.6826587	1.6378824
14.860482139732962	2.685444	1.6387324
14.87815748208531	2.665665	1.6326864
14.8958331804281	2.639311	1.6245956
14.91350923520342	2.5983787	1.6119487
14.931185646853438	2.6189065	1.6183035
14.948862415820408	2.6234257	1.6196992
14.966539542546656	2.6254346	1.6203192
14.98421702747459	2.6074948	1.6147739
15.001894871046696	2.6278448	1.6210629
15.019573073705542	2.6188276	1.6182792
15.037251635893766	2.6025712	1.6132487
15.054930558054092	2.6182988	1.6181158
15.072609840629323	2.6591547	1.6306914
15.090289484062351	2.7520568	1.6589324
15.107969488796124	2.872153	1.6947428
15.125649855273691	3.0939415	1.7589604
15.14333058393817	3.519384	1.8760021
15.161011675232768	4.13535	2.033556
15.17869312960076	4.782902	2.1869845
15.196374947485506	5.459502	2.3365579
15.214057129330447	6.799603	2.6076047
15.231739675579114	8.949405	2.9915555
15.249422586675102	13.367827	3.656204
15.267105863062092	17.779573	4.2165833
15.284789505183847	24.76089	4.9760313
15.302473513484218	29.49143	5.430601
15.320157888407127	33.445404	5.7832003
15.337842630396578	32.332275	5.6861477
15.355527739896656	29.563528	5.4372354
15.37321321735153	23.074924	4.8036366
15.39089906320545	15.826269	3.9782243
15.408585277902748	10.227886	3.1981068
15.42627186188783	6.387949	2.527439
15.443958815605198	4.6427794	2.154711
15.461646139499424	3.8486483	1.9617972
15.479333834015168	3.476692	1.864589
15.497021899597165	3.1357868	1.7708153
15.514710336690234	2.8875618	1.6992828
15.53239914573928	2.709188	1.6459612
15.550088327189297	2.6151886	1.6171545
15.567777881485336	2.5612752	1.6003984
15.58546780907256	2.5368004	1.5927336
15.6031581103962	2.5338483	1.5918067
15.620848785901568	2.5387754	1.5933535
15.638539836034063	2.555189	1.5984958
15.656231261239173	2.5348618	1.5921249
15.673923061962451	2.4739854	1.5728908
15.691615238649552	2.417613	1.5548675
15.709307791746202	2.3942368	1.5473322
15.727000721698221	2.380854	1.5430015
15.744694028951498	2.3872082	1.5450593
15.76238771395202	2.3672955	1.5386018
15.780081777145844	2.3997562	1.5491147
15.797776218979125	2.396167	1.5479558
15.815471039898094	2.4109366	1.5527191
15.833166240349064	2.387586	1.5451816
15.850861820778437	2.4023142	1.5499401
15.868557781632699	2.4149733	1.5540184
15.886254123358412	2.4214673	1.5561064
15.903950846402232	2.4348633	1.5604049
15.921647951210897	2.456579	1.5673478
15.939345438231225	2.4747157	1.5731229
15.957043307910133	2.4765053	1.5736916
15.974741560694602	2.4893029	1.5777525
15.992440197031714	2.4951558	1.5796062
16.01013921736862	2.497516	1.5803531
16.02783862215259	2.4602497	1.5685183
16.045538411830933	2.4745324	1.5730647
16.06323858685107	2.4559855	1.5671585
16.080939147660512	2.4507458	1.5654858
16.09864009470684	2.4385455	1.5615842
16.11634142843774	2.4309225	1.5591416
16.134043149300954	2.435529	1.5606182
16.15174525774433	2.424768	1.5571667
16.169447754215817	2.432056	1.559505
16.18715063916342	2.4168408	1.5546192
16.204853913035244	2.3915951	1.5464783
16.222557576279478	2.4175043	1.5548326
16.240261629344403	22.423075	4.735301
16.257966072678386	42.99877	6.557345
16.275670906729868	38.08107	6.170986
16.293376131947387	2.477834	1.5741137
16.31108174877957	2.466628	1.5705502
16.328787757675133	2.496142	1.5799183
16.34649415908287	2.5358403	1.5924321
16.364200953451657	2.5448341	1.5952536
16.38190814123048	2.5351667	1.5922207
16.39961572286839	2.5360947	1.592512
16.41732369881455	2.5843117	1.6075795
16.43503206951817	2.6989815	1.6428578
16.45274083542859	2.7743273	1.6656312
16.47044999699522	2.7815592	1.6678007
16.488159554667558	2.8182538	1.6787655
16.505869508895184	2.8452034	1.6867731
16.523579860127786	2.9339747	1.7128849
16.541290608815117	2.9652283	1.7219838
16.559001755407035	3.076682	1.7540474
16.57671330035348	3.177982	1.7826896
16.59442524410448	3.3015594	1.8170193
16.61213758711015	3.4430523	1.8555464
16.629850329820705	3.4790728	1.8652272
16.647563472686436	3.5335987	1.8797868
16.665277016157724	3.4707475	1.8629942
16.682990960685053	3.4720697	1.8633491
16.70070530671898	3.479547	1.8653544
16.718420054710155	3.5290623	1.8785799
16.736135205109335	3.5604296	1.8869101
16.753850758367335	3.5804267	1.8922015
16.771566714935087	3.6521103	1.9110495
16.789283075263597	3.7121615	1.926697
16.80699983980398	3.7737803	1.9426221
16.82471700900741	3.8093936	1.9517668
16.84243458332518	3.894186	1.9733692
16.860152563208665	3.9782817	1.9945631
16.87787094910932	4.0500107	2.0124638
16.89558974147871	4.0866547	2.0215476
16.913308940768466	4.1057553	2.0262663
16.931028547430333	4.1785984	2.044162
16.94874856191613	4.2430263	2.0598607
16.966468984677785	4.3277645	2.080328
16.98418981616729	4.3956347	2.096577
17.00191105683676	4.4594145	2.1117325
17.019632707138374	4.5003796	2.12141
17.03735476752442	4.491335	2.119277
17.05507723844728	4.522909	2.1267133
17.072800120359403	4.489292	2.118795
17.090523413713353	4.541484	2.1310759
17.108247118961785	4.577093	2.1394143
17.125971236557437	4.561094	2.1356719
17.143695766953133	4.619389	2.1492765
17.161420710601806	4.689428	2.1655087
17.179146067956477	4.7249727	2.1737003
17.19687183947025	4.728082	2.1744153
17.21459802559634	4.6983595	2.1675699
17.232324626788028	4.7050743	2.1691184
17.25005164349871	4.6595893	2.1586082
17.267779076181863	4.6354113	2.1530006
17.285506925291074	4.573901	2.138668
17.30323519127999	4.509459	2.1235487
17.320963874602384	4.4519105	2.109955
17.33869297571211	4.467343	2.113609
17.356422495063114	4.4965715	2.120512
17.37415243310944	4.496869	2.1205823
17.391882790305218	4.4875064	2.1183736
17.40961356710468	4.5034823	2.122141
17.42734476396215	4.516213	2.1251383
17.445076381332044	4.5727158	2.138391
17.462808419668868	4.6277747	2.1512263
17.48054087942723	4.7656136	2.1830285
17.498273761061835	4.892277	2.2118492
17.51600706502747	5.1753936	2.274949
17.533740791779024	5.7386146	2.3955405
17.551474941771485	6.659124	2.5805278
17.56920951545993	8.660313	2.9428408
17.586944513299528	9.984916	3.1598918
17.60467993574556	12.863298	3.586544
17.622415783253373	15.459005	3.9317942
17.64015205627843	18.131393	4.258097
17.657888755276293	20.303026	4.505888
17.675625880702604	21.737225	4.6623197
17.69336343301311	20.211378	4.4957066
17.71110141266366	18.118885	4.2566285
17.728839820110178	15.480573	3.934536
17.746578655808705	12.364688	3.5163457
17.764317920215372	10.275325	3.2055147
17.7820576137864	8.62889	2.9374971
17.79979773697811	7.3249006	2.7064555
17.81753829024692	6.0413513	2.457916
17.835279274049356	5.172228	2.2742534
17.85302068884201	4.460586	2.11201
17.870762535081607	4.053613	2.0133586
17.888504813224934	3.8392096	1.95939
17.90624752372891	3.73778	1.9333339
17.923990667050536	3.666964	1.9149319
17.941734243646895	3.5445256	1.882691
17.959478253975185	3.4763088	1.8644862
17.9772226984927	3.4364896	1.8537772
17.994967577656833	3.4488492	1.8571078
18.01271289192506	3.4174368	1.848631
18.030458641754965	3.394205	1.8423369
18.04820482760425	3.3523862	1.8309523
18.06595144993067	3.3394434	1.8274144
18.083698509192125	3.2823145	1.811716
18.101446005846576	3.2657087	1.8071272
18.119193940352105	3.247465	1.8020724
18.136942313166887	3.2014716	1.7892656
18.1546911247492	3.1602254	1.7777023
18.1724403755574	3.1583023	1.7771614
18.19019006604997	3.1842327	1.7844418
18.207940196685467	3.1523309	1.7754805
18.225690767922575	3.0913804	1.7582321
18.243441780220046	2.9990358	1.7317724
18.261193234036764	2.9923086	1.7298291
18.278945129831676	2.9890263	1.72888
18.29669746806386	2.9876494	1.7284819
18.314450249192483	2.974455	1.7246609
18.3322034736768	2.9995415	1.7319185
18.349957141976184	2.9929702	1.7300203
18.3677112545501	2.965172	1.7219675
18.385465811858108	2.9815736	1.7267233
18.403220814359884	3.0144632	1.736221
18.420976262515172	3.0554543	1.7479857
18.43873215678387	3.070552	1.7522991
18.456488497625923	3.1559649	1.7765036
18.474245285501407	3.2625766	1.8062603
18.492002520870486	3.3109813	1.8196102
18.50976020419343	3.37064	1.8359303
18.527518335930615	3.6589067	1.9128269
18.545276916542516	4.274167	2.067406
18.563035946489688	4.4398904	2.1071048
18.580795426232832	4.8253145	2.1966598
18.598555356232698	4.70209	2.1684303
18.616315736950185	5.0002546	2.236125
18.63407656884626	4.6922646	2.1661634
18.65183785238201	4.8748193	2.2078993
18.669599588018617	4.6484904	2.156036
18.68736177621737	4.623003	2.150117
18.705124417439652	4.609366	2.1469433
18.72288751214696	4.420103	2.102404
18.740651060800886	4.5157623	2.1250324
18.758415063863115	4.205982	2.0508492
18.77617952179546	4.4234796	2.1032069
18.793944435059814	4.2008	2.0495853
18.811709804118184	4.1892467	2.0467649
18.829475629432675	4.111805	2.0277586
18.8472419114655	3.9141383	1.9784181
18.86500865067897	4.0418	2.010423
18.88277584753551	3.6993666	1.9233737
18.90054350249763	3.7281587	1.9308441
18.918311616027957	3.4382753	1.8542587
18.936080188589226	3.3400214	1.8275726
18.953849220644265	3.0512793	1.7467911
18.971618712656007	2.8632462	1.6921129
18.9893886650875	2.796431	1.6722533
19.007159078401887	7.960973	2.8215196
19.024929953062408	32.873024	5.7335
19.042701289532435	32.842068	5.7308
19.060473088275405	25.386826	5.038534
19.07824534975489	2.6512587	1.6282686
19.096018074434568	2.6201932	1.6187011
19.113791262778197	2.5948281	1.610847
19.13156491524966	2.5944674	1.610735
19.149339032312945	2.570715	1.6033449
19.167113614432136	2.5804377	1.606374
19.184888662071433	2.5778208	1.6055593
19.202664175695123	2.5754783	1.6048297
19.220440155767623	2.5470219	1.5959392
19.238216602753447	2.5291667	1.5903354
19.2559935171172	2.5148904	1.5858406
19.27377089932361	2.5471194	1.5959697
19.291548749837514	2.5693014	1.6029041
19.309327069123835	2.5314302	1.5910469
19.32710585764763	2.5003462	1.5812483
19.344885115874032	2.4687204	1.5712162
19.362664844268313	2.4451532	1.5636985
19.380445043295822	2.4841588	1.5761214
19.39822571342203	2.5054371	1.5828573
19.41600685511252	2.5000186	1.5811447
19.43378846883297	2.4535592	1.5663841
19.451570555049173	2.4532428	1.5662831
19.469353114227037	2.4449792	1.563643
19.48713614683254	2.4358647	1.5607257
19.50491965333182	2.4236155	1.5567966
19.52270363419109	2.4373252	1.5611936
19.540488089876686	2.4398565	1.562004
19.55827302085503	2.4349966	1.5604476
19.576058427592674	2.4651377	1.5700758
19.593844310556282	2.4672737	1.5707557
19.611630670212598	2.4528399	1.5661545
19.629417507028506	2.4829872	1.5757498
19.64720482147098	2.4997947	1.5810739
19.6649926140071	2.496203	1.5799377
19.682780885104084	2.466909	1.5706396
19.70056963522921	2.4371676	1.561143
19.718358864849908	2.464152	1.5697618
19.7361485744337	2.4843957	1.5761966
19.753938764448215	2.499353	1.5809342
19.771729435361202	2.4627743	1.5693228
19.789520587640506	2.4555426	1.5670171
19.807312221754092	2.4458032	1.5639064
19.825104338170043	2.4800498	1.5748174
19.842896937356517	2.5217273	1.5879947
19.860690019781824	2.4860291	1.5767146
19.87848358591436	2.4639797	1.5697069
19.896277636222635	2.4450347	1.5636607
19.914072171175278	2.4439635	1.5633181
19.931867191241015	2.4534369	1.5663451
19.94966269688869	2.4707706	1.5718685
19.967458688587264	2.4522846	1.5659772
19.985255166805807	2.4657924	1.5702841
20.00305213201348	2.4701645	1.5716757
20.020849584679578	2.4699726	1.5716146
20.038647525273507	2.4440904	1.5633587
20.05644595426477	2.4334426	1.5599495
20.07424487212299	2.4237242	1.5568315
20.092044279317903	2.402251	1.5499197
20.109844176319353	2.3834867	1.5438545
20.127644563597304	2.3798218	1.5426672
20.145445441621817	2.4214137	1.5560892
20.16324681086307	2.4205399	1.5558084
20.181048671791373	2.41526	1.5541106
20.198851024877122	2.420725	1.5558679
20.216653870590836	2.4186518	1.5552015
20.234457209403146	2.3931258	1.5469731
20.252261041784802	2.3754284	1.5412425
20.270065368206662	2.3855453	1.5445211
20.287870189139685	2.4024832	1.5499946
20.305675505054968	2.364734	1.5377692
20.323481316423702	2.3279192	1.5257521
20.341287623717207	2.3364892	1.5285579
20.359094427406884	2.394773	1.5475054
20.376901727964288	2.385338	1.544454
20.39470952586107	2.3771186	1.5417907
20.41251782156899	2.3517218	1.5335325
20.430326615559935	2.3334384	1.5275596
20.448135908305886	2.3184671	1.5226513
20.465945700278965	2.3321123	1.5271255
20.483755991951384	2.341571	1.5302193
20.50156678379548	2.323267	1.5242267
20.519378076283708	2.3071382	1.5189266
20.537189869888635	2.3036418	1.5177753
20.55500216508294	2.3435438	1.5308638
20.572814962339415	2.375044	1.5411178
20.59062826213098	2.3766434	1.5416366
20.60844206493066	2.333638	1.527625
20.626256371211593	2.3027334	1.517476
20.644071181447032	2.3259358	1.5251019
20.66188649611036	2.3496192	1.5328467
20.67970231567506	2.3602836	1.5363214
20.697518640614742	2.3339293	1.5277203
20.715335471403122	2.3100748	1.519893
20.73315280851404	2.3195863	1.5230188
20.750970652421447	2.3088627	1.5194942
20.768789003599412	2.3278837	1.5257404
20.786607862522136	2.3191147	1.522864
20.8044272296639	2.3208718	1.5234408
20.82224710549913	2.3089688	1.5195291
20.84006749050237	2.2875533	1.512466
20.857888385148268	3.8329985	1.9578046
20.8757097899116	45.94333	6.778151
20.893531705267254	64.83076	8.051755
20.911354131690224	83.84188	9.156521
20.92917706965566	69.06719	8.310667
20.94700051963877	50.09151	7.0775356
20.96482448211493	29.349138	5.4174843
20.982648957559622	4.102567	2.0254796
21.00047394644843	2.2256637	1.4918659
21.01829944925707	2.210882	1.4869034
21.036125466461375	2.2094243	1.4864132
21.053951998537297	2.2076378	1.4858122
21.071779045960906	2.2022808	1.4840083
21.089606609208378	2.194036	1.4812279
21.10743468875603	2.2170324	1.4889703
21.12526328508028	2.2476957	1.4992317
21.143092398657675	2.246347	1.4987818
21.16092202996488	2.2380548	1.4960129
21.17875217947867	2.200733	1.4834868
21.19658284767596	2.1612782	1.4701287
21.21441403503377	2.1386156	1.4624007
21.232245742029225	2.1382482	1.462275
21.2500779691396	2.1826332	1.4773737
21.26791071684227	2.2249458	1.4916252
21.28574398561475	2.1766064	1.4753326
21.30357777593465	2.1572316	1.4687517
21.321412088279704	2.1476016	1.4654697
21.339246923127792	2.1280744	1.4587921
21.357082280956888	2.1124735	1.4534351
21.3749181622451	2.1421056	1.4635934
21.392754567470647	2.1551764	1.4680519
21.41059149711187	2.1733272	1.4742209
21.42842895164726	2.1661818	1.4717954
21.446266931555378	2.1824467	1.4773107
21.464105437314945	2.1634357	1.4708623
21.481944469404798	2.1132164	1.4536906
21.49978402830388	2.0753572	1.44061
21.51762411449127	2.0703764	1.4388802
21.53546472844617	2.058636	1.4347948
21.553305870647876	2.074578	1.4403396
21.571147541575865	2.0450017	1.4300356
21.58898974170967	2.0544252	1.4333266
21.60683247152899	2.0399606	1.4282719
21.62467573151363	2.0253518	1.4231485
21.642519522143523	2.0082269	1.4171193
21.660363843898722	2.0111363	1.4181454
21.6782086972594	2.0272262	1.4238069
21.696054082705864	2.0090964	1.417426
21.713900000718535	2.0158916	1.4198209
21.73174645177795	2.0282621	1.4241707
21.749593436364794	2.0630786	1.4363421
21.767440954959845	2.0462558	1.430474
21.785289008044032	2.0244348	1.4228263
21.803137596098388	2.0061018	1.4163692
21.820986719604086	2.0034444	1.4154308
21.838836379042412	1.9932823	1.4118365
21.85668657489478	2.0258496	1.4233234
21.87453730764273	2.0501666	1.4318403
21.892388577767914	2.0579972	1.4345721
21.91024038575213	2.029716	1.4246811
21.928092732077285	2.0014195	1.4147154
21.945945617225426	1.9988894	1.4138209
21.963799041678694	2.0002515	1.4143025
21.981653005919398	31.325829	5.596948
21.999507510429943	78.081085	8.83635
22.01736255569286	73.055954	8.547277
22.035218142190818	4.1892066	2.046755
22.05307427040661	2.0066688	1.4165694
22.07093094082315	2.0045047	1.4158053
22.088788153923474	1.9957328	1.4127041
22.106645910190746	1.9884537	1.4101255
22.12450421010827	1.9459742	1.3949819
22.142363054159464	1.9287711	1.388802
22.16022244282787	1.9306773	1.3894881
22.178082376597164	2.0086534	1.4172697
22.195942855951145	2.0330703	1.4258578
22.213803881373742	1.9956789	1.412685
22.231665453349002	1.9458891	1.3949513
22.24952757236111	1.9433651	1.3940463
22.26739023889438	1.9534276	1.3976507
22.28525345343323	1.9537756	1.3977753
22.30311721646225	1.9484222	1.395859
22.320981528466113	1.9615226	1.4005437
22.33884638992964	1.9955533	1.4126406
22.356711801337788	2.0022643	1.4150139
22.37457776317561	1.97237	1.404411
22.392444275928337	1.9520398	1.3971542
22.410311340081282	1.9580547	1.3993051
22.428178956119904	1.9694791	1.4033813
22.446047124529805	1.9851058	1.4089378
22.46391584579669	1.9833803	1.4083253
22.481785120406414	1.9832407	1.4082758
22.49965494884496	1.9676939	1.4027451
22.51752533159841	1.9702849	1.4036684
22.53539626915302	1.9520794	1.3971684
22.553267761995137	1.9374186	1.3919119
22.571139810611264	1.916109	1.3842359
22.589012415488025	1.8821312	1.3719078
22.60688557711216	1.859701	1.3637086
22.624759295970566	1.8918866	1.3754587
22.642633572550263	1.9488205	1.3960016
22.660508407338362	1.983433	1.408344
22.67838380082217	1.978195	1.4064832
22.696259753489077	1.9521524	1.3971945
22.714136265826614	1.925506	1.387626
22.73201333832246	1.9185828	1.3851292
22.74989097146439	1.9203721	1.385775
22.76776916574035	1.9329149	1.3902931
22.785647921638393	1.9287186	1.3887831
22.803527239646712	1.9462408	1.3950773
22.82140712025363	1.9495641	1.3962679
22.839287563947593	1.9462961	1.3950971
22.85716857121719	1.9087045	1.3815588
22.875050142551135	1.8675891	1.3665977
22.892932278438277	1.8290328	1.3524173
22.910814979367604	1.8498102	1.3600773
22.928698245828222	1.9032536	1.3795846
22.946582078309387	1.9373896	1.3919015
22.96446647730047	1.9357283	1.3913045
22.98235144329098	1.9384352	1.392277
23.000236976770562	1.9231983	1.3867942
23.018123078229	1.892019	1.3755069
23.03600974815619	1.9085602	1.3815064
23.053896987042194	1.9223933	1.3865039
23.071784795377173	1.9138956	1.3834362
23.08967317365145	1.9042606	1.3799495
23.10756212235546	1.9285895	1.3887366
23.125451641979787	1.9246558	1.3873197
23.143341733015134	1.8924451	1.3756617
23.161232395952357	1.9285207	1.3887119
23.179123631282426	1.9401704	1.3929
23.197015439496468	1.9601147	1.400041
23.214907821085717	1.9538008	1.3977842
23.23280077654157	1.9601485	1.400053
23.250694306355538	1.940516	1.3930241
23.268588411019277	1.9484489	1.3958685
23.28648309102458	1.9405931	1.3930517
23.304378346863356	1.9682683	1.4029498
23.322274179027676	1.9544187	1.3980052
23.340170588009723	1.9404609	1.3930043
23.358067574301852	1.919712	1.3855367
23.37596513839651	1.958076	1.3993127
23.39386328078629	1.9747806	1.4052689
23.411762001963947	1.975455	1.4055089
23.429661302422353	1.9424175	1.3937064
23.4475611826545	1.9225008	1.3865428
23.46546164315356	1.8920381	1.3755138
23.48336268441279	1.8957963	1.3768792
23.501264306925638	1.9044367	1.3800133
23.51916651118564	1.9218112	1.386294
23.537069297686497	1.9050467	1.3802342
23.554972666922037	1.8965924	1.3771683
23.57287661938623	1.882721	1.3721228
23.59078115557318	1.8840765	1.3726166
23.608686275977128	1.8898623	1.3747226
23.62659198109246	1.8771259	1.3700824
23.6444982714137	1.8641081	1.3653234
23.66240514743549	1.9024249	1.3792843
23.68031260965263	1.915574	1.3840426
23.698220658560068	1.88592	1.373288
23.716129294652845	1.8700356	1.3674924
23.7340385184262	1.910849	1.3823346
23.75194833037546	1.9231331	1.3867707
23.769858730996123	1.8917222	1.3753989
23.78776972078382	1.8875289	1.3738737
23.80568130023431	1.9323716	1.3900977
23.823593469843495	1.9489658	1.3960537
23.841506230107424	1.9218528	1.386309
23.859419581522275	1.8683579	1.3668789
23.87733352458438	1.8896309	1.3746384
23.89524805979019	1.9050229	1.3802257
23.913163187636318	1.902909	1.3794597
23.931078908619508	1.8948472	1.3765345
23.948995223236633	1.9420066	1.393559
23.966912131984735	1.94989	1.3963846
23.98482963536096	1.9941046	1.4121277
24.002747733862616	1.9844222	1.4086952
24.020666427987155	2.0029995	1.4152737
24.038585718232156	2.0316515	1.4253601
24.056505605095353	2.0104163	1.4178915
24.074426089074617	2.0151646	1.419565
24.092347170667946	1.9896613	1.4105536
24.110268850373515	2.0249674	1.4230134
24.128191128689586	2.0548873	1.4334878
24.146114006114626	2.03882	1.4278725
24.164037483147187	2.0487702	1.4313526
24.181961560286005	2.04285	1.429283
24.199886238029926	2.0295045	1.4246068
24.21781151687797	2.0520754	1.4325067
24.235737397329274	2.0604427	1.4354242
24.253663879883135	2.0497344	1.4316894
24.271590965038975	2.0704985	1.4389226
24.289518653296376	2.0382366	1.4276682
24.30744694515505	2.0550032	1.4335282
24.32537584111486	2.0585985	1.4347817
24.34330534167581	2.0681946	1.4381219
24.361235447338046	2.0863993	1.4444374
24.379166158601876	2.1094344	1.4523892
24.39709747596772	2.1139472	1.453942
24.41502939993615	2.0717237	1.4393483
24.432961931007917	2.0207686	1.4215374
24.450895069683856	1.9567302	1.3988317
24.468828816465	1.9739817	1.4049846
24.4867631718525	2.00716	1.4167427
24.504698136347656	2.0176988	1.4204572
24.52263371045192	2.0327344	1.42574
24.540569894666874	1.9920237	1.4113907
24.558506689494266	1.9420345	1.393569
24.57644409543597	1.9385902	1.3923327
24.594382112994012	1.9693824	1.4033469
24.61232074267057	1.9980229	1.4135144
24.630259984967953	1.9925264	1.4115688
24.64819984038863	1.9750464	1.4053634
24.66614030943522	1.9261883	1.3878719
24.684081392610462	1.953257	1.3975897
24.702023090417274	1.979051	1.4067875
24.7199654033587	2.0332158	1.4259088
24.737908331937927	2.0219145	1.4219404
24.755851876658305	2.0077453	1.4169493
24.773796038023324	2.0260797	1.4234042
24.79174081653661	2.0558488	1.4338231
24.809686212701962	2.0709777	1.4390892
24.827632227023294	2.0761812	1.4408959
24.8455788600047	2.1148975	1.4542687
24.8635261121504	2.0845351	1.4437919
24.88147398396475	2.0427277	1.4292402
24.899422475952303	2.0867364	1.4445541
24.917371588617698	2.1343412	1.4609385
24.935321322465768	2.1842294	1.4779139
24.953271678001478	2.2535188	1.5011724
24.97122265572994	2.4413218	1.5624729
24.989174256156414	2.8146124	1.6776806
25.00712647978632	3.4588177	1.8597897
25.02507932712521	4.4473314	2.1088698
25.043032798678798	5.86691	2.4221704
25.060986894952933	7.455755	2.7305229
25.078941616453637	8.914793	2.985765
25.096896963687055	9.785504	3.128179
25.114852937159508	10.492658	3.2392373
25.132809537377444	10.267494	3.204293
25.150766764847468	9.6836605	3.1118581
25.168724620076347	8.330018	2.886177
25.186683103570985	7.1068006	2.6658583
25.204642215838426	5.794923	2.4072647
25.222601957385894	4.8027806	2.1915247
25.24056232872074	3.7116022	1.9265519
25.25852333035048	2.925747	1.7104815
25.276484962782778	2.3809261	1.543025
25.294447226525435	2.093185	1.4467844
25.312410122086423	1.9722279	1.4043603
25.330373649973843	1.9405096	1.3930217
25.348337810695988	1.935377	1.3911783
25.366302604761245	1.935226	1.391124
25.384268032678207	1.9376323	1.3919886
25.40223409495558	1.9335835	1.3905336
25.420200792102257	1.9371842	1.3918277
25.438168124627246	1.8864136	1.3734677
25.45613609303974	1.8557345	1.3622534
25.474104697849057	1.8280039	1.352037
25.492073939564698	1.866525	1.3662083
25.510043818696285	1.8884912	1.3742238
25.528014335753614	1.8833865	1.3723652
25.54598549124664	1.8427211	1.3574686
25.56395728568544	1.8591944	1.3635228
25.58192971958028	1.8691236	1.3671589
25.59990279344156	1.8930666	1.3758876
25.617876507779833	1.904682	1.3801022
25.635850863105826	1.8969798	1.3773088
25.653825859930386	1.8387198	1.355994
25.671801498764548	1.8346584	1.3544956
25.68977778011949	1.8458232	1.3586107
25.707754704506524	1.8782109	1.3704784
25.725732272437153	1.8735139	1.3687637
25.743710484423012	1.8724458	1.3683734
25.761689340975888	1.8822764	1.3719608
25.77966884260774	1.840259	1.3565614
25.797648989830662	1.8076066	1.3444726
25.815629783156922	1.8198397	1.3490144
25.83361122309895	1.8152457	1.3473105
25.85159331016929	1.8256043	1.3511492
25.869576044880695	1.8584716	1.3632578
25.887559427746034	1.8419648	1.35719
25.90554345927836	1.888091	1.3740783
25.92352813999086	1.9047844	1.3801392
25.94151347039689	1.9104167	1.3821783
25.959499451009965	1.891239	1.3752233
25.97748608234374	1.90702	1.3809489
25.995473364912062	1.9042478	1.3799448
26.013461299228904	1.8590431	1.3634673
26.03144988580839	1.8324828	1.3536923
26.04943912516483	1.8221745	1.3498795
26.067429017812675	1.8601487	1.3638726
26.085419564266537	1.8640049	1.3652856
26.103410765041186	1.8620886	1.3645836
26.12140262065155	1.8847749	1.372871
26.139395131612723	1.8456407	1.3585436
26.157388298439948	1.8228742	1.3501385
26.17538212164861	1.7986387	1.3411334
26.193376601754295	1.7736049	1.3317676
26.211371739272714	1.7823293	1.335039
26.229367534719746	1.8459197	1.3586463
26.247363988611433	1.8472766	1.3591455
26.26536110146397	1.778199	1.3334913
26.283358873793727	1.7446645	1.3208575
26.301357306117204	1.7908268	1.3382177
26.319356398951104	1.8067642	1.3441594
26.33735615281224	1.8099387	1.3453397
26.35535656821762	1.8015878	1.3422323
26.373357645684404	1.803698	1.3430182
26.39135938572991	1.7917299	1.3385552
26.409361788871614	1.8025408	1.3425874
26.427364855627165	1.8183119	1.3484479
26.445368586514352	1.8198946	1.3490347
26.46337298205115	1.8056444	1.3437427
26.48137804275568	1.8120831	1.3461363
26.499383769146217	1.8157903	1.3475126
26.517390161741215	1.8705679	1.3676871
26.53539722105928	1.8561995	1.3624241
26.553404947619182	1.8780806	1.3704308
26.571413341939856	1.8882233	1.3741263
26.589422404540397	1.8593223	1.3635697
26.60743213594006	1.8225847	1.3500314
26.62544253665827	1.8497089	1.3600401
26.64345360721459	1.8743756	1.3690784
26.66146534812879	1.8572032	1.3627925
26.679477759920758	1.8718787	1.3681662
26.69749084311057	1.8866472	1.3735528
26.71550459821847	1.8746741	1.3691874
26.733519025764842	1.8236026	1.3504083
26.751534126270258	1.8469751	1.3590347
26.769549900255434	1.8836795	1.372472
26.787566348241267	1.8809502	1.3714774
26.80558347074881	1.834643	1.3544899
26.823601268299267	1.7852187	1.3361207
26.841619741414036	1.7784982	1.3336035
26.85963889061465	1.7511737	1.3233192
26.877658716422832	1.7912601	1.3383796
26.89567921936045	1.8416041	1.3570571
26.913700399949544	1.8856237	1.3731802
26.93172225871233	1.846232	1.3587612
26.949744796171174	1.8029127	1.3427259
26.967768012848605	1.8116772	1.3459857
26.98579190926733	1.7702069	1.3304912
27.003816485950225	1.7702463	1.330506
27.021841743420318	1.800515	1.3418328
27.039867682200814	1.8482684	1.3595103
27.057894302815072	1.8281755	1.3521004
27.07592160578664	1.7722604	1.3312627
27.0939495916392	1.7428298	1.3201628
27.111978260896635	1.7666976	1.3291718
27.13000761408296	1.8043323	1.3432543
27.148037651722397	1.8045915	1.3433509
27.166068374339304	1.7819872	1.334911
27.184099782458215	1.8045717	1.3433435
27.20213187660384	1.8184814	1.3485109
27.22016465730105	1.8026701	1.3426355
27.23819812507487	1.8382925	1.3558364
27.256232280450533	1.8327066	1.3537749
27.274267123953383	1.8852503	1.3730441
27.292302656108987	1.8743097	1.3690543
27.31033887744306	1.8082597	1.3447155
27.32837578848146	1.7362195	1.3176569
27.34641338975026	1.7614956	1.3272135
27.364451681775673	1.7855778	1.3362551
27.382490665084074	1.7929261	1.3390019
27.400530340202046	1.7936851	1.3392853
27.41857070765629	1.8419567	1.357187
27.436611767973726	1.8644998	1.3654668
27.454653521681404	1.8421088	1.3572431
27.472695969306564	1.8439996	1.3579395
27.490739111376627	1.8495858	1.3599948
27.508782948419153	1.8174239	1.3481187
27.526827480961902	1.7933589	1.3391635
27.54487270953279	1.81145	1.3459011
27.562918634659898	1.8292797	1.3525087
27.580965256871508	1.8490047	1.3597811
27.599012576696026	1.833167	1.353945
27.617060594662068	1.8479306	1.3593861
27.63510931129842	1.8930967	1.3758985
27.65315872713401	1.8797197	1.3710287
27.67120884269797	1.8046539	1.343374
27.68925965851958	1.8089672	1.3449786
27.707311175128307	1.8471142	1.3590858
27.725363393053787	1.86808	1.3667772
27.74341631282583	1.9161108	1.3842366
27.7614699349744	1.9396127	1.3926998
27.77952426002968	2.1287248	1.459015
27.797579288521973	2.196027	1.4818999
27.815635020981784	2.6848755	1.638559
27.83369145793979	2.7701728	1.6643836
27.85174859992682	2.609392	1.6153612
27.869806447473923	2.3973591	1.5483408
27.887865001112267	2.0304353	1.4249334
27.905924261373233	1.8983026	1.377789
27.92398422878836	1.9128497	1.3830581
27.94204490388936	1.8979404	1.3776575
27.96010628720813	1.8793169	1.3708818
27.978168379276728	1.8375218	1.3555522
27.9962311806274	1.8228514	1.3501302
28.014294691792568	1.858377	1.363223
28.0323589133048	1.8945723	1.3764346
28.050423845696887	1.8969942	1.3773141
28.068489489501758	1.8439358	1.357916
28.086555845252523	1.7924987	1.3388423
28.104622913482487	1.817066	1.3479859
28.122690694725115	1.83787	1.3556806
28.14075918951405	1.8936005	1.3760816
28.15882839838312	1.9681004	1.4028901
28.176898321866304	1.9400688	1.3928635
28.1949689604978	1.8860447	1.3733335
28.213040314811945	1.8875353	1.373876
28.23111238534327	1.8790933	1.3708003
28.249185172626493	1.8720068	1.3682129
28.267258677196473	1.8615235	1.3643765
28.285332899588294	1.8830711	1.3722503
28.303407840337172	1.8752546	1.3693993
28.321483499978545	1.8884078	1.3741935
28.33955987904799	1.9322046	1.3900377
28.357636978081285	1.9820007	1.4078355
28.37571479761439	2.0034797	1.4154433
28.393793338183425	1.9783745	1.406547
28.41187260032469	2.0260112	1.4233803
28.429952584574686	2.0728807	1.4397502
28.448033291470065	2.083857	1.4435571
28.46611472154769	2.0559933	1.4338735
28.484196875344566	2.05206	1.4325013
28.502279753397914	2.0397499	1.4281981
28.52036335624511	2.0238795	1.4226311
28.538447684423716	2.0197825	1.4211905
28.556532738471482	1.9923663	1.411512
28.574618518926325	1.960624	1.4002228
28.59270502632635	2.0044496	1.4157859
28.61079226120985	2.0980778	1.4484743
28.628880224115274	2.0412228	1.4287137
28.646968915581287	1.9986275	1.4137282
28.66505833614671	2.0025148	1.4151024
28.68314848635055	2.0638788	1.4366206
28.701239366732004	2.1143634	1.4540851
28.71933097783044	2.1317122	1.4600384
28.737423320185403	2.1339648	1.4608096
28.75551639433665	2.1386728	1.4624202
28.773610200824074	2.1343036	1.4609256
28.791704740187793	2.093955	1.4470505
28.80980001296809	2.0955331	1.4475956
28.827896019705413	2.1004577	1.4492955
28.845992760940433	2.1488724	1.4659033
28.86409023721397	2.2096915	1.4865031
28.88218844906704	2.2457702	1.4985894
28.900287397040845	2.2244704	1.4914658
28.918387081676755	2.2079535	1.4859184
28.936487503516343	2.2142482	1.488035
28.954588663101365	2.247591	1.4991968
28.97269056097374	2.3034134	1.5177001
28.990793197675597	2.298513	1.5160848
29.00889657374923	2.3210642	1.5235039
29.027000689737125	2.348675	1.5325388
29.04510554618196	2.337612	1.5289251
29.06321114362659	2.3643603	1.5376476
29.08131748261405	2.4417303	1.5626037
29.099424563687567	2.47959	1.5746714
29.11753238739057	2.5670788	1.6022106
29.13564095426663	2.5989177	1.6121159
29.15375026485954	2.5987077	1.6120508
29.171860319713275	2.6703508	1.6341208
29.18997111937199	2.6638234	1.6321224
29.20808266438002	2.6591084	1.6306772
29.226194955281898	2.7580712	1.6607442
29.244307992622335	2.8795092	1.6969117
29.26242177694624	2.9393823	1.7144626
29.2805363087987	2.9270792	1.7108709
29.29865158872498	2.908008	1.7052883
29.316767617270557	2.8927603	1.7008116
29.334884394981064	2.9037797	1.704048
29.353001922402367	2.9627402	1.7212613
29.37112020008047	2.9710803	1.7236822
29.389239228561596	3.0447412	1.7449187
29.407359008392152	3.2255895	1.7959926
29.42547954011872	3.5779903	1.8915577
29.44360082428809	4.1576595	2.039034
29.46172286144722	5.0079393	2.2378426
29.479845652143283	6.638777	2.5765824
29.497969196923606	9.459602	3.0756466
29.516093496335728	13.287122	3.6451504
29.5342185509274	16.8306	4.1025114
29.55234436124651	19.998215	4.471936
29.570470927841175	21.343033	4.619852
29.588598251259686	21.135952	4.5973854
29.60672633205055	19.401834	4.4047513
29.624855170762405	16.304298	4.037858
29.642984767944146	12.969458	3.6013134
29.66111512414481	9.604262	3.0990744
29.67924623991366	7.0095496	2.6475554
29.697378115800138	5.1622663	2.272062
29.71551075235387	4.255749	2.0629468
29.733644150124675	3.6823118	1.9189351
29.751778309662576	3.4968588	1.869989
29.769913231517766	3.4988482	1.8705208
29.78804891624066	3.4638712	1.8611479
29.806185364381818	3.3822773	1.8390969
29.82432257649206	3.337014	1.8267496
29.842460553122333	3.275209	1.8097539
29.86059929482382	3.2471619	1.8019884
29.878738802147872	3.2558157	1.8043879
29.896879075646048	3.3260772	1.8237536
29.915020115870114	3.3041098	1.817721
29.933161923371976	3.227454	1.7965117
29.951304498703777	3.1821756	1.7838653
29.969447842417857	3.1932285	1.7869607
29.987591955066733	3.1893322	1.7858702
30.005736837203123	3.1774564	1.7825421
30.023882489379943	3.1943328	1.7872697
30.04202891215028	3.1815553	1.7836915
30.060176106067455	3.1230745	1.7672223
30.078324071684946	3.1088133	1.7631828
30.09647280955646	3.1534843	1.7758052
30.114622320235863	3.1929352	1.7868786
30.132772604277257	3.180861	1.7834969
30.1509236622349	3.162159	1.778246
30.16907549466328	3.1369154	1.7711339
30.18722810211705	3.1674979	1.7797465
30.205381485151097	3.160589	1.7778045
30.22353564432045	3.147475	1.7741125
30.241690580180403	3.1166346	1.7653992
30.25984629328638	3.0663679	1.7511047
30.278002784194037	2.9833171	1.7272282
30.296160053459246	3.034817	1.7420726
30.314318101638033	3.0428917	1.7443887
30.332476929286646	3.0481608	1.7458982
30.35063653696153	3.0159345	1.7366446
30.368796925219307	3.022317	1.7384812
30.386958094616844	3.03253	1.7414161
30.40512004571115	2.9608033	1.7206985
30.423282779059463	2.8742788	1.6953698
30.441446295219233	2.8392363	1.6850034
30.459610594748067	2.8616338	1.6916364
30.47777567820382	2.8637242	1.6922542
30.495941546144504	2.8343315	1.6835473
30.51410819912835	2.7953222	1.6719217
30.532275637713795	2.7753959	1.665952
30.55044386245946	2.7310336	1.652584
30.56861287392416	2.7253187	1.6508539
30.586782672666956	2.759494	1.6611725
30.604953259247047	2.8519351	1.6887673
30.623124634223885	2.8563519	1.6900746
30.641296798157075	2.7920468	1.6709418
30.659469751606462	2.759729	1.6612432
30.677643495132074	2.751077	1.658637
30.695818029294152	2.7596755	1.6612271
30.713993354653116	2.7522624	1.6589944
30.73216947176962	2.7761483	1.6661777
30.75034638120448	2.7779236	1.6667104
30.768524083518756	2.7973604	1.6725311
30.786702579273673	2.8066337	1.6753011
30.80488186903069	2.8430083	1.6861223
30.82306195335144	2.98702	1.7282997
30.841242832797782	3.3105257	1.819485
30.85942450793176	3.6498258	1.9104518
30.877606979315637	3.9552705	1.9887862
30.895790247511883	4.3058653	2.075058
30.913974313083134	4.738436	2.176795
30.932159176592283	5.0757713	2.2529473
30.95034483860237	5.4564548	2.3359056
30.968531299676698	5.6247478	2.371655
30.98671856037873	5.326173	2.3078504
31.00490662127215	4.8200927	2.195471
31.023095482920848	4.346618	2.0848544
31.04128514588892	3.7935166	1.9476953
31.059475610740662	3.2476606	1.8021266
31.07766687804056	2.81818	1.6787436
31.09585894835335	2.6248643	1.6201433
31.11405182224393	2.5776706	1.6055125
31.132245500277417	2.5857165	1.6080164
31.15043998301914	2.5277092	1.5898771
31.168635271034628	2.4799852	1.5747969
31.18683136488964	2.4354436	1.5605907
31.20502826515008	2.4419458	1.5626726
31.223225972382135	2.4371579	1.56114
31.241424487152155	2.4857073	1.5766126
31.259623810026692	2.5067968	1.5832868
31.27782394157253	2.4545596	1.5667034
31.296024882356644	2.4412484	1.5624495
31.314226632946237	2.464421	1.5698475
31.332429193908684	2.3818343	1.5433192
31.350632565811598	2.4206116	1.5558314
31.368836749222787	2.4756653	1.5734247
31.387041744710295	2.498663	1.580716
31.40524755284232	2.5059366	1.5830151
31.423454174187317	2.5588615	1.5996442
31.441661609313922	2.579114	1.605962
31.459869858791002	2.5197856	1.5873833
31.478078923187628	2.5224092	1.5882094
31.496288803073064	2.528107	1.5900022
31.514499499016807	2.3983305	1.5486544
31.532711011588546	2.3742442	1.5408583
31.550923341358178	2.4036796	1.5503805
31.56913648889584	2.409853	1.5523701
31.587350454771844	2.3873322	1.5450994
31.605565239556732	2.37186	1.5400845
31.62378084382127	2.366563	1.5383638
31.641997268136382	2.3734605	1.540604
31.660214513073274	2.4117947	1.5529954
31.67843257920331	2.3749354	1.5410825
31.6966514670981	2.3449292	1.5313162
31.71487117732944	2.2976642	1.5158048
31.733091710469346	2.2842805	1.5113837
31.751313067090052	2.3553038	1.5346999
31.769535247764008	2.3621385	1.536925
31.787758253063878	2.3050518	1.5182397
31.805982083562526	2.3035595	1.5177482
31.824206739833024	2.2847047	1.511524
31.84243222244869	2.249802	1.4999341
31.860658531983013	2.2614322	1.5038059
31.878885669009737	2.3267908	1.5253822
31.897113634102784	2.3374834	1.5288831
31.91534242783632	2.2526624	1.5008872
31.933572050784694	2.2318697	1.4939443
31.951802503522508	2.2597346	1.5032414
31.970033786624548	2.2673297	1.5057654
31.988265900665834	2.2697783	1.5065783
32.006498846221575	2.3455691	1.5315251
32.02473262386724	2.3247342	1.5247079
32.04296723417845	2.2346716	1.4948817
32.0612026777311	2.203029	1.4842604
32.07943895510129	2.2149944	1.4882858
32.097676066865304	2.2007	1.4834757
32.115914013599685	2.2118816	1.4872396
32.13415279588115	2.1882885	1.4792864
32.152392414286666	2.2259245	1.4919533
32.1706328693934	2.2571843	1.5023929
32.18887416177875	2.2543268	1.5014416
32.20711629202032	2.224365	1.4914305
32.225359260695924	2.2264233	1.4921204
32.243603068383614	2.163306	1.4708182
32.26184771566166	2.1369052	1.4618157
32.28009320310852	2.1290286	1.4591191
32.2983395313029	2.1359472	1.461488
32.31658670082372	2.0877233	1.4448956
32.33483471225012	2.1432061	1.4639693
32.35308356616143	2.182377	1.477287
32.371333263137245	2.1199267	1.4559968
32.38958380375734	2.099342	1.4489107
32.407835188601744	2.1741	1.4744829
32.42608741825067	2.2187138	1.4895347
32.444340493284585	2.1526585	1.4671941
32.46259441428416	2.0582564	1.4346625
32.48084918183028	2.0111508	1.4181505
32.49910479650405	2.0742621	1.4402299
32.51736125888683	2.0635061	1.4364909
32.53561856956014	2.008749	1.4173034
32.5538767291058	1.994695	1.4123367
32.572135738105764	1.992796	1.4116642
32.59039559714228	1.9966033	1.4130121
32.608656306797776	2.0154676	1.4196717
32.62691786765491	2.0338392	1.4261273
32.645180280296586	2.0526488	1.4327068
32.663443545305896	2.0820885	1.4429444
32.68170766326619	1.9946588	1.412324
32.69997263476099	1.9600279	1.40001
32.7182384603741	2.0130265	1.4188117
32.7365051406895	2.035897	1.4268486
32.75477267629144	1.9980048	1.4135079
32.77304106776434	2.0668743	1.4376627
32.79131031569289	2.0609775	1.4356105
32.809580420661966	2.0520124	1.4324847
32.827851383256714	2.1114364	1.4530783
32.84612320406245	2.136588	1.4617072
32.86439588366476	2.0948384	1.4473556
32.88266942264945	2.0730221	1.4397993
32.9009438216025	2.0300634	1.4248029
32.9192190811102	1.9651353	1.4018328
32.937495201758985	1.8859291	1.3732914
32.95577218413556	1.8265833	1.3515115
32.974050028826866	1.8759084	1.3696381
32.992328736420035	1.9570717	1.3989538
33.010608307502444	1.9703377	1.4036872
33.02888874266169	1.9916186	1.4112471
33.047170042485604	2.0140388	1.4191684
33.06545220756225	2.0139377	1.4191327
33.083735238479896	1.9564073	1.3987163
33.10201913582707	1.9385377	1.3923138
33.12030390019248	1.9731944	1.4047043
33.138589532165135	2.0128467	1.4187483
33.15687603233419	1.9238104	1.3870149
33.17516340128909	1.9671147	1.4025387
33.19345163961947	2.090879	1.4459872
33.211740747915215	2.0743735	1.4402685
33.23003072676643	2.014594	1.419364
33.248321576763466	1.9073979	1.3810858
33.266613298496885	1.996097	1.412833
33.28490589255747	2.0949478	1.4473934
33.30319935953626	1.9510529	1.396801
33.32149370002451	1.8799385	1.3711085
33.339788914613706	1.9641912	1.401496
33.358085003895575	1.98155	1.4076754
33.376381968462034	1.940724	1.3930987
33.39467980890529	1.9016341	1.3789974
33.41297852581774	1.9064295	1.3807352
33.43127811979204	1.9416822	1.3934426
33.44957859142105	1.9620763	1.4007413
33.467879941297866	1.8084106	1.3447716
33.486182170015844	1.8582001	1.3631581
33.50448527816853	2.0413678	1.4287645
33.522789266349754	2.0401573	1.4283408
33.541094135153514	1.8337985	1.3541782
33.55939988517411	1.7767833	1.3329604
33.57770651700602	1.8008267	1.3419489
33.59601403124398	1.7907835	1.3382016
33.61432242848296	1.8088515	1.3449355
33.632631709318154	1.8772886	1.3701419
33.650941874344994	1.9576154	1.3991481
33.66925292415916	1.8974521	1.3774804
33.68756485935654	1.8857281	1.3732182
33.70587768053328	1.917895	1.3848809
33.724191388285746	1.8372082	1.3554366
33.74250598321054	1.7963133	1.3402661
33.760821465904506	1.8391674	1.3561591
33.77913783696474	1.7694468	1.3302056
33.79745509698852	1.8087875	1.3449117
33.815773246573414	1.8494173	1.3599328
33.8340922863172	1.955684	1.3984576
33.852412216817896	2.0678666	1.4380078
33.87073303867377	2.0621324	1.4360126
33.889054752483304	1.9578317	1.3992254
33.907377358845245	2.015247	1.419594
33.92570085835853	2.0212743	1.4217153
33.94402525162239	1.9294804	1.3890574
33.96235053923627	1.9231299	1.3867697
33.980676721799824	1.8943148	1.3763411
33.999003799912984	1.9147305	1.3837379
34.01733177417592	1.905636	1.3804477
34.03566064518901	1.9052794	1.3803186
34.0539904135529	1.937218	1.3918397
34.07232107986846	1.9129798	1.3831052
34.090652644736785	1.9630419	1.401086
34.108985108759235	2.0082495	1.4171273
34.12731847253742	1.9201262	1.3856862
34.14565273667313	1.8903756	1.3749093
34.16398790176847	2.0138474	1.4191009
34.18232396842574	2.1812406	1.4769024
34.20066093724749	2.096816	1.4480387
34.21899880883651	1.9883137	1.4100758
34.23733758379583	2.0182345	1.4206458
34.25567726272874	2.1131372	1.4536633
34.27401784623872	2.1433382	1.4640144
34.29235933492957	2.0057762	1.4162543
34.31070172940526	1.9010401	1.3787822
34.32904503027003	1.8285728	1.3522472
34.347389238128386	1.8472425	1.359133
34.36573435358502	1.9306222	1.3894683
34.38408037724492	2.0378323	1.4275266
34.402427309713296	2.0328612	1.4257845
34.42077515159559	1.929769	1.3891612
34.43912390349752	1.851221	1.3605958
34.45747356602499	1.883028	1.3722347
34.47582413978423	1.9742047	1.405064
34.49417562538163	2.0311494	1.425184
34.51252802342388	2.1391354	1.4625783
34.53088133451789	2.27453	1.5081545
34.54923555927084	2.1858447	1.4784602
34.567590698290104	1.9758204	1.4056388
34.58594675218336	1.9617864	1.4006379
34.6043037215585	1.8716621	1.368087
34.62266160702365	1.8442613	1.3580358
34.641020409187234	1.910896	1.3823516
34.65938012865785	1.95596	1.3985564
34.677740766044394	1.9392608	1.3925735
34.69610232195598	2.0645823	1.4368654
34.714464797002016	2.0382097	1.4276588
34.73282819179208	1.8235351	1.3503833
34.751192506936064	1.704337	1.3055025
34.76955774304408	1.8170071	1.347964
34.7879239007265	1.7966245	1.3403822
34.80629098059391	1.9145657	1.3836783
34.824658983257194	1.991782	1.4113051
34.843027909327446	2.0625055	1.4361426
34.86139775941603	2.0504391	1.4319354
34.879768534134534	1.9828513	1.4081376
34.89814023409483	1.902678	1.3793759
34.91651285990901	1.9085894	1.381517
34.93488641218944	2.066842	1.4376516
34.95326089154871	2.1292028	1.4591788
34.97163629859967	1.9608221	1.4002936
34.99001263395542	1.8821566	1.3719171
35.00838989822934	1.9152213	1.3839152
35.02676809203499	1.9603711	1.4001325
35.04514721598624	1.9306395	1.3894745
35.063527270697215	2.0401504	1.4283383
35.081908256782256	2.312882	1.5208162
35.10029017485597	2.329959	1.5264202
35.11867302553321	2.0703542	1.4388726
35.137056809429104	1.9168341	1.3844978
35.155441527159006	1.8518994	1.3608451
35.173827179338524	1.9154924	1.3840132
35.19221376658354	2.0759194	1.4408051
35.21060128951017	2.1523294	1.4670819
35.2289897487348	2.2220821	1.490665
35.24737914487405	2.1569986	1.4686724
35.26576947854479	1.9264772	1.3879759
35.28416075036418	1.7776473	1.3332844
35.30255296094958	1.811224	1.3458172
35.32094611091867	1.9676235	1.40272
35.33934020088932	2.0897615	1.4456007
35.35773523147969	1.7047032	1.3056428
35.3761312033082	1.54328	1.2422882
35.394528116993506	1.7119287	1.308407
35.41292597315452	1.7237202	1.3129052
35.431324772410434	1.9004135	1.3785548
35.449724515380666	1.9857323	1.4091601
35.46812520268491	1.8323234	1.3536334
35.486526834943106	1.890974	1.375127
35.504929412775454	1.9610277	1.400367
35.52333293680242	1.8345479	1.3544549
35.54173740764471	1.9821075	1.4078734
35.560142825923286	2.1889024	1.479494
35.5785491922594	2.3758197	1.5413694
35.59695650727454	2.986205	1.728064
35.61536477159042	3.9045455	1.9759923
