0.008763373481513119	0.43391317	0.65872085
0.026290120649546365	0.38063106	0.616953
0.043816868432600686	0.25542977	0.5054006
0.06134361724069026	0.10068898	0.31731528
0.07887036748382949	0.020615311	0.14358033
0.0963971195720331	0.055701267	0.23601116
0.11392387391531617	0.13136066	0.36243713
0.1314506309236943	0.20737611	0.45538566
0.1489773910071836	0.20438606	0.45209077
0.16650415457580078	0.18858998	0.4342695
0.18403092203956356	0.16472661	0.40586528
0.20155769380849	0.20035057	0.44760537
0.2190844702925996	0.27486962	0.5242801
0.2366112519019124	0.24260736	0.4925519
0.2541380390464497	0.17267357	0.4155401
0.27166483213623416	0.11261633	0.33558357
0.28919163158128947	0.11743729	0.34269124
0.3067184377916406	0.1457227	0.38173643
0.324245251177314	0.15252535	0.39054495
0.34177207214833777	0.14368783	0.3790618
0.3592989011147415	0.11363463	0.33709735
0.37682573848655654	0.101174824	0.3180799
0.39435258467381573	0.07208448	0.26848552
0.41187944008655414	0.075049385	0.27395144
0.42940630513480854	0.08999381	0.2999897
0.446933180228618	0.10612535	0.32576886
0.4644600657780234	0.1281834	0.3580271
0.48198696219306775	0.15641038	0.39548752
0.49951386988379676	0.22407852	0.47336933
0.5170407892602581	0.2491885	0.49918783
0.5345677207325025	0.24856412	0.49856207
0.5520946647105822	0.21454047	0.46318513
0.5696216216045534	0.22452216	0.4738377
0.5871485918244737	0.24952745	0.49952725
0.6046755757804043	0.2067959	0.45474818
0.6222025738824094	0.16610666	0.40756184
0.6397295865405557	0.12486966	0.35336903
0.6572566141649129	0.122391224	0.34984457
0.6747836571655547	0.12776753	0.35744584
0.6923107159525568	0.15827629	0.39783952
0.7098377909359992	0.17402823	0.41716692
0.7273648825259653	0.17282169	0.4157183
0.7448919911325411	0.17986482	0.42410472
0.762419117165817	0.18859339	0.4342734
0.7799462610358868	0.16617587	0.40764675
0.7974734231528482	0.17062259	0.41306487
0.8150006039268024	0.1359969	0.36877757
0.8325278037678551	0.17729048	0.42105877
0.8500550230861152	0.19199574	0.43817317
0.8675822622916969	0.20561247	0.4534451
0.8851095217947171	0.21052133	0.45882604
0.9026368020052984	0.18728371	0.4327629
0.9201641033335665	0.20479234	0.45253986
0.9376914261896523	0.23116115	0.4807922
0.9552187709836915	0.25069436	0.50069386
0.9727461381258234	0.27629083	0.52563375
0.990273528026193	0.3023874	0.5498976
1.0078009410949496	0.27535173	0.5247397
1.0253283777422473	0.2705832	0.5201761
1.0428558383782454	0.2447452	0.4947173
1.0603833234131086	0.24829651	0.4982936
1.0779108332570058	0.26451907	0.5143142
1.0954383683201119	0.2788292	0.5280428
1.112965929012607	0.31393647	0.56030035
1.1304935157446763	0.4654282	0.68222296
1.1480211289265108	0.5320312	0.7294047
1.1655487689683062	1.4341687	1.1975678
1.1830764362802655	1.6999824	1.3038337
1.200604131272596	2.1014516	1.4496385
1.2181318543555117	2.3680227	1.5388381
1.235659605939232	2.3982832	1.5486392
1.253187386433982	4.0838375	2.0208507
1.270715196249994	6.477971	2.5451858
1.2882430357975057	11.83805	3.4406466
1.3057709054867608	16.282784	4.035193
1.3232988057280106	22.206722	4.712401
1.3408267369315112	27.155754	5.211118
1.358354699507526	31.247307	5.589929
1.3758826938663256	35.003883	5.916408
1.3934107204181858	36.944405	6.078191
1.410938779573391	37.373653	6.1133995
1.4284668717422309	38.5468	6.2086067
1.4459949973350033	38.184387	6.179352
1.4635231567620117	38.11914	6.17407
1.4810513504335687	36.592617	6.0491834
1.4985795787599925	36.007645	6.000637
1.5161078421516088	35.300808	5.941448
1.5336361410187505	34.547974	5.8777523
1.5511644757717598	34.334713	5.859583
1.5686928468209842	35.31067	5.942278
1.58622125457678	36.09466	6.007883
1.6037496994495108	37.278915	6.105646
1.621278181849548	37.255928	6.1037636
1.6388067021872719	38.353683	6.193035
1.6563352608730693	37.83135	6.150719
1.673863858317336	37.064728	6.088081
1.6913924949304753	35.72534	5.977068
1.7089211711228998	34.332684	5.85941
1.7264498873050296	33.065125	5.7502284
1.7439786438872935	32.247414	5.6786804
1.7615074412801288	31.491488	5.6117277
1.779036279893981	31.07885	5.574841
1.796565160139305	30.240463	5.499133
1.814094082426564	29.697388	5.449531
1.8316230471662298	28.991522	5.3843775
1.849152054768784	28.030071	5.2943435
1.8666811056447168	27.655272	5.258828
1.8842102002045273	26.788803	5.1757903
1.901739338858724	26.252409	5.1237106
1.9192685220178245	25.830412	5.0823627
1.9367977500923557	25.289326	5.028849
1.9543270234928547	25.215569	5.0215106
1.971856342629867	24.338625	4.933419
1.9893857079139496	23.659138	4.864066
2.006915119755667	22.91759	4.787232
2.0244445785655945	22.368994	4.729587
2.0419740847543175	21.879473	4.67755
2.0595036387324317	21.521423	4.6391187
2.0770332409105414	21.091713	4.5925713
2.094562891699263	20.668638	4.5462775
2.1120925915092217	20.10377	4.4837227
2.129622340751053	19.648106	4.432618
2.1471521398354043	187.95525	13.709677
2.1646819891729323	444.31042	21.078672
2.182211889174303	440.5321	20.988857
2.1997418402501974	453.07855	21.285643
2.2172718428113023	432.81305	20.80416
2.234801897268317	320.78088	17.910357
2.2523320040319548	17.207516	4.1481943
2.269862163512935	16.91197	4.1124167
2.287392376121992	16.492321	4.061074
2.304922642269869	16.202272	4.0252047
2.322452962367322	15.9531	3.9941332
2.3399833368251164	15.817993	3.977184
2.357513766054032	15.634632	3.9540653
2.3750442504648586	15.330503	3.9154186
2.3925747904683963	15.081272	3.8834615
2.410105386475459	14.859723	3.8548312
2.4276360388968707	14.35547	3.7888613
2.445166748143469	14.146385	3.761168
2.4626975146261025	13.745116	3.7074406
2.4802283387556323	13.443132	3.6664877
2.4977592209429305	13.309102	3.6481643
2.5152901615988825	13.020787	3.6084328
2.5328211611343865	12.9431095	3.5976534
2.5503522199603523	12.719309	3.566414
2.5678833384877024	12.43342	3.5261056
2.5854145171273712	12.251787	3.5002553
2.6029457562903064	12.08334	3.4761097
2.620477056387469	11.854255	3.4430008
2.6380084178298326	11.653381	3.4137049
2.655539841028383	11.24915	3.3539753
2.673071326394119	11.011705	3.318389
2.6906028743380523	10.840448	3.2924836
2.708134485271211	10.752887	3.2791595
2.7256661596046325	10.675338	3.2673135
2.743197897749369	10.5711775	3.2513347
2.760729700116486	10.466627	3.2352166
2.778261567117063	10.252222	3.201909
2.795793499162193	10.044891	3.1693676
2.8133254966629817	10.016542	3.1648922
2.830857560030551	9.913036	3.1484976
2.8483896896760337	9.719532	3.1176164
2.865921886010578	9.456651	3.0751667
2.883454149445347	9.362638	3.0598428
2.9009864803915177	9.353592	3.0583642
2.91851887926028	9.308405	3.050968
2.9360513464628384	9.145083	3.0240839
2.953583882410413	8.931145	2.988502
2.9711164875142373	8.821409	2.9700856
2.9886491621855606	8.712774	2.951741
3.0061819068356455	8.543818	2.922981
3.023714721875769	8.438408	2.9048939
3.041247607717225	8.337171	2.887416
3.0587805647713213	8.252314	2.872684
3.0763135934493806	8.23666	2.8699582
3.0938466941627407	8.224299	2.867804
3.1113798673227544	8.198805	2.8633556
3.1289131133407904	8.121897	2.849894
3.1464464326282315	7.9491343	2.8194208
3.1639798255964786	7.9446316	2.8186224
3.1815132926569443	7.8238125	2.797108
3.1990468342210603	7.7086167	2.7764397
3.216580450700272	7.5431304	2.746476
3.2341141425060416	7.5513988	2.7479808
3.251647910049847	7.5026507	2.7390966
3.2691817537431813	7.4303436	2.7258656
3.286715673997555	7.330089	2.7074137
3.3042496712244938	7.0527925	2.6557095
3.32178374583554	6.9264135	2.631808
3.339317898242251	6.895734	2.625973
3.3568521288562034	6.7777586	2.6034129
3.3743864380889876	6.795841	2.6068835
3.3919208263522127	6.6996655	2.5883713
3.4094552940575023	6.618874	2.5727172
3.4269898416164972	6.5654936	2.562322
3.444524469440858	6.5755844	2.5642903
3.4620591779422587	6.5525537	2.5597956
3.479593967532391	6.520027	2.5534344
3.4971288386229658	6.5283613	2.5550659
3.5146637916257086	6.5339823	2.5561655
3.5321988269523628	6.518129	2.5530627
3.5497339450146903	6.4714594	2.5439062
3.5672691462244708	6.406955	2.5311964
3.5848044309934988	6.2977595	2.5095336
3.60233979973359	6.319511	2.5138638
3.619875252856575	6.334732	2.5168893
3.6374107907743034	6.3444924	2.5188277
3.6549464138986427	6.2960525	2.5091937
3.6724821226414788	6.279385	2.50587
3.690017917414714	6.283337	2.5066586
3.7075537986302702	6.2852407	2.507038
3.7250897667000857	6.437783	2.5372787
3.7426258220361235	6.612053	2.5713913
3.7601619650503553	6.9343925	2.6333234
3.777698196154779	7.331253	2.7076287
3.7952345157614067	8.348795	2.8894281
3.8127709242822716	9.077741	3.012929
3.830307422129425	11.21344	3.3486476
3.847844009714936	30.113258	5.487555
3.8653806874508954	97.71607	9.885144
3.882917455749409	97.058075	9.851806
3.900454315022606	96.70406	9.833822
3.917991265682631	41.204487	6.419072
3.9355283081416506	10.862117	3.2957726
3.9530654428118495	8.684885	2.947013
3.970602670105433	7.459654	2.7312367
3.9881399904346244	6.51364	2.5521834
4.005677404211669	6.435946	2.5369167
4.023214911848827	6.461705	2.5419884
4.0407525137583855	6.4735928	2.5443256
4.058290210352644	6.418512	2.5334783
4.075828002043927	6.2845373	2.506898
4.0933658892445814	6.2451873	2.4990373
4.110903872366966	6.154287	2.4807835
4.128441951823468	6.1019173	2.470206
4.145980128026488	6.040815	2.4578068
4.163518401388452	6.0763564	2.4650266
4.181056772321807	6.1612496	2.4821866
4.1985952412390155	6.2582774	2.5016549
4.216133808552567	6.285431	2.5070763
4.233672474674966	6.27257	2.50451
4.251211240018741	6.3856764	2.5269897
4.268750104996445	6.567283	2.5626712
4.286289070020643	7.598513	2.75654
4.303828135503928	9.295123	3.0487905
4.3213673018589125	29.63128	5.4434624
4.3389065694982305	90.84901	9.531474
4.356445938834537	166.03874	12.885602
4.3739854102805085	171.83014	13.108399
4.391524984248844	172.56686	13.136471
4.409064661152262	136.67157	11.690661
4.426604441403504	97.03425	9.850596
4.444144325415337	75.814	8.707124
4.461684313600543	21.781578	4.6670737
4.47922440637193	21.976084	4.6878657
4.496764604142329	20.144184	4.4882274
4.5143049073245916	18.516918	4.3031287
4.531845316331589	16.486265	4.060328
4.5493858315762195	13.748589	3.7079089
4.566926453471405	11.316103	3.3639417
4.584467182430081	9.387166	3.0638483
4.602008018865218	8.358759	2.891152
4.619548963189798	7.724699	2.7793343
4.637090015816834	7.256881	2.6938598
4.654631177159353	6.8069477	2.6090128
4.672172447630417	6.416381	2.5330577
4.689713827643102	6.1304226	2.475969
4.7072553176105085	5.963855	2.4421005
4.724796917945764	5.8431225	2.4172552
4.742338629062015	5.752962	2.3985333
4.759880451372434	5.783015	2.40479
4.777422385290215	5.7425885	2.39637
4.794964431228581	5.752002	2.398333
4.812506589600768	5.681297	2.383547
4.830048860820047	5.525488	2.3506355
4.847591245299709	5.4529276	2.3351505
4.8651337434530655	5.4458647	2.3336377
4.882676355693457	5.580095	2.3622224
4.900219082434242	5.6552896	2.3780854
4.917761924088813	5.61605	2.3698206
4.935304881070575	5.5122337	2.3478146
4.952847953792969	5.4105325	2.326055
4.970391142669449	5.371409	2.31763
4.9879344481135055	5.3536787	2.3138018
5.005477870538642	5.403812	2.32461
5.023021410358394	5.4415884	2.3327212
5.040565067986324	5.511721	2.3477056
5.05810884383601	5.4679656	2.3383682
5.075652738321066	5.460329	2.3367348
5.09319675185512	5.4503236	2.3345928
5.110740884851836	5.4608335	2.3368425
5.128285137724894	5.473797	2.3396146
5.145829510888007	5.4064274	2.3251727
5.163374004754908	5.3995934	2.3237026
5.1809186197393595	5.397795	2.3233156
5.198463356255145	5.3723993	2.3178437
5.216008214716077	5.3455324	2.3120408
5.233553195535998	5.3592906	2.3150141
5.251098299128764	5.370082	2.3173437
5.268643525908272	5.3043075	2.3031082
5.286188876288432	5.222057	2.285182
5.3037343506831895	5.1444445	2.2681367
5.32127994950651	5.132517	2.2655058
5.3388256731723915	5.2350183	2.2880163
5.356371522094851	5.1930017	2.2788157
5.373917496687938	5.1399913	2.267155
5.391463597365729	5.1201005	2.262764
5.40900982454232	5.1040664	2.259218
5.426556178631843	5.135025	2.2660594
5.444102660048449	5.1481667	2.2689571
5.4616492692063225	5.184274	2.2769
5.479196006519669	5.201145	2.280602
5.496742872402727	5.140632	2.2672963
5.514289867269756	5.132826	2.265574
5.531836991535049	5.088802	2.2558372
5.549384245612924	5.0931363	2.2567978
5.566931629917724	5.1211395	2.2629936
5.584479144863822	5.1645784	2.2725708
5.6020267908656205	5.2125535	2.2831018
5.619574568337545	5.1765532	2.275204
5.637122477694054	5.1478796	2.268894
5.654670519349629	5.1467204	2.2686384
5.672218693718784	5.0918565	2.2565143
5.689767001216059	5.0041986	2.2370067
5.707315442256021	4.9465656	2.2240875
5.724864017253266	5.0347047	2.2438147
5.7424127266224225	5.139193	2.2669787
5.75996157077814	5.2465887	2.2905433
5.777510550135105	5.199636	2.280271
5.795059665108022	5.1487527	2.2690864
5.812608916111639	5.14634	2.2685547
5.830158303560715	5.2344785	2.2878983
5.847707827870055	5.252396	2.2918108
5.86525748945448	5.288657	2.2997081
5.8828072887288485	5.4222336	2.328569
5.900357226108044	5.493742	2.3438733
5.917907302006979	5.641663	2.3752186
5.9354575168406	6.207675	2.4915206
5.9530078710238765	6.8113184	2.6098502
5.970558364971812	7.311445	2.7039685
5.988108999099438	7.6399918	2.7640536
6.005659773821818	8.151976	2.8551664
6.023210689554039	7.9653163	2.8222892
6.040761746711227	8.221514	2.8673182
6.058312945708531	7.5958	2.756048
6.075864286961132	7.126305	2.669514
6.093415770884244	6.545546	2.5584264
6.1109673978931065	6.108843	2.4716074
6.128519168402993	5.5352	2.3527007
6.146071082829204	5.439366	2.3322449
6.163623141587075	5.303913	2.3030226
6.181175345091969	5.264543	2.294459
6.198727693759281	5.218136	2.284324
6.216280188004435	5.1730523	2.2744346
6.233832828242885	5.129752	2.2648957
6.251385614890126	5.2025466	2.280909
6.268938548361669	5.1902623	2.2782147
6.286491629073067	5.1101236	2.2605584
6.304044857439898	5.044625	2.2460241
6.321598233877777	5.0057793	2.23736
6.339151758802344	5.0100403	2.238312
6.356705432629277	4.9840755	2.2325044
6.37425925577428	4.946514	2.224076
6.391813228653095	4.9582524	2.2267134
6.409367351681486	5.031215	2.243037
6.426921625275259	4.9931173	2.2345285
6.44447604985025	4.964904	2.2282064
6.46203062582232	4.978462	2.2312467
6.47958535360737	5.0308356	2.2429523
6.497140233621328	4.9707355	2.2295146
6.514695266280161	4.963803	2.2279594
6.532250451999859	4.9269586	2.2196753
6.549805791196454	4.978743	2.2313097
6.567361284286002	4.983836	2.2324507
6.584916931684597	4.957059	2.2264454
6.602472733808367	4.9182563	2.2177143
6.6200286910734665	4.8656693	2.2058263
6.637584803896092	4.9220266	2.218564
6.655141072692462	4.8990088	2.2133706
6.672697497878842	4.9018674	2.2140162
6.690254079871514	4.8977427	2.2130845
6.707810819086808	4.966241	2.2285063
6.725367715941078	4.9681697	2.228939
6.742924770850719	4.9912415	2.2341087
6.760481984232151	5.023236	2.2412577
6.778039356501836	4.991072	2.2340708
6.795596888076266	5.0368075	2.2442832
6.813154579371963	5.0700397	2.251675
6.830712430805492	5.1012664	2.2585983
6.84827044279344	5.073595	2.2524643
6.865828615752445	5.040985	2.2452137
6.883386950099159	5.0216565	2.2409053
6.900945446250287	4.974086	2.2302659
6.918504104622553	4.9971194	2.2354238
6.936062925632727	4.9977984	2.2355757
6.953621909697607	5.0473495	2.2466307
6.971181057234028	5.078807	2.2536209
6.988740368658859	5.1355667	2.2661788
7.006299844389007	5.228056	2.2864943
7.023859484841407	5.350637	2.3131444
7.041419290433036	5.4454384	2.3335464
7.058979261580902	5.5477986	2.3553765
7.0765393987020495	5.720258	2.3917062
7.094099702213559	6.1164355	2.4731429
7.111660172532549	6.437084	2.5371408
7.129220810076164	6.7924657	2.606236
7.146781615261595	7.4458365	2.7287061
7.16434258850606	7.676851	2.770713
7.181903730226821	8.174033	2.8590267
7.1994650408411704	8.152545	2.855266
7.217026520766437	8.249217	2.872145
7.234588170419983	8.511979	2.9175296
7.252149990219215	8.572144	2.9278224
7.269711980581568	8.52977	2.920577
7.2872741419245175	8.246224	2.871624
7.304836474665574	7.7950554	2.7919626
7.322398979222286	7.4448395	2.7285233
7.339961656012233	7.136766	2.6714725
7.357524505453039	6.7231503	2.5929039
7.375087527962357	6.427584	2.535268
7.392650723957886	6.2494826	2.4998965
7.410214093857353	6.0744467	2.4646392
7.427777638078528	5.8959346	2.4281545
7.445341357039213	5.719491	2.3915458
7.4629052511572525	5.547259	2.355262
7.480469320850524	5.4392323	2.3322163
7.498033566536948	5.3597484	2.315113
7.5155979886344735	5.2465286	2.2905302
7.5331625875610975	5.1662555	2.27294
7.550727363734844	5.1598544	2.2715313
7.568292317573788	5.183472	2.276724
7.585857449496025	5.1665244	2.272999
7.603422759919705	5.1260333	2.2640746
7.620988249263007	5.143561	2.267942
7.638553917944147	5.161241	2.2718365
7.656119766381391	5.166389	2.2729692
7.673685794993023	5.160609	2.2716973
7.691252004197388	5.234407	2.2878826
7.70881839441285	5.2545004	2.2922697
7.726384966057826	5.21122	2.2828097
7.743951719550762	5.155287	2.2705257
7.761518655310149	5.0957766	2.2573826
7.779085773754511	5.2031507	2.2810416
7.796653075302419	5.2942276	2.3009188
7.814220560372475	5.276658	2.2970977
7.831788229383323	5.26077	2.2936368
7.8493560827536495	5.2064314	2.2817607
7.866924120902174	5.273935	2.296505
7.884492344247663	5.300638	2.3023114
7.9020607532089135	5.3100176	2.3043475
7.919629348204771	5.27569	2.2968872
7.937198129654115	5.2854557	2.299012
7.954767097975865	5.329787	2.308633
7.972336253588986	5.3508124	2.3131824
7.989905596912472	5.3465095	2.312252
8.007475128365371	5.353988	2.3138688
8.025044848366756	5.3942146	2.3225448
8.042614757335754	5.5544596	2.35679
8.060184855691523	5.674002	2.3820164
8.07775514385327	5.8654566	2.4218705
8.095325622240228	5.9090114	2.4308457
8.112896291271687	5.918315	2.4327588
8.130467151366968	5.9188375	2.432866
8.148038202945436	5.91482	2.4320405
8.165609446426497	5.9381065	2.4368231
8.183180882229594	6.008924	2.4513106
8.200752510774217	6.0213084	2.4538355
8.218324332479893	6.022429	2.4540637
8.235896347766193	6.036982	2.457027
8.253468557052724	6.015637	2.4526796
8.27104096075914	5.9839673	2.446215
8.288613559305137	5.99941	2.4493694
8.306186353110448	6.083172	2.4664087
8.32375934259485	6.21663	2.4933171
8.341332528178162	6.266281	2.5032542
8.358905910280246	6.2858577	2.5071614
8.376479489321003	6.214149	2.4928195
8.394053265720377	6.185138	2.4869938
8.411627239898356	6.238498	2.4976985
8.42920141227497	6.3280063	2.5155528
8.44677578327029	6.407421	2.5312884
8.464350353304427	6.376321	2.525138
8.48192512279754	6.2973084	2.5094438
8.499500092169827	6.1920404	2.4883811
8.51707526184153	6.185573	2.4870813
8.534650632232934	6.1272187	2.475322
8.552226203764365	6.1697464	2.4838974
8.569801976856192	6.2049747	2.4909787
8.587377951928834	6.2690916	2.5038154
8.60495412940274	6.278114	2.5056164
8.622530509698416	6.267651	2.5035276
8.6401070932364	6.324664	2.5148885
8.657683880437283	6.444467	2.5385954
8.675260871721695	6.622203	2.573364
8.692838067510303	6.820248	2.6115606
8.710415468223834	7.030828	2.6515708
8.727993074283043	7.2425222	2.6911933
8.745570886108737	7.2278366	2.6884637
8.763148904121765	7.1757793	2.6787646
8.78072712874302	7.192819	2.6819432
8.798305560393441	7.4555836	2.7304914
8.815884199494006	7.6791058	2.7711198
8.833463046465745	7.8533716	2.8023868
8.851042101729728	7.8872147	2.8084185
8.86862136570707	8.17233	2.8587286
8.886200838818924	8.330367	2.8862376
8.903780521486505	8.413677	2.900634
8.921360414131055	8.472373	2.9107342
8.938940517173874	8.6311865	2.9378881
8.956520831036297	8.767978	2.9610772
8.97410135613971	8.997265	2.9995441
8.99168209290554	9.08743	3.0145364
9.009263041755265	9.436876	3.07195
9.026844203110405	9.728834	3.119108
9.044425577392525	9.983115	3.1596067
9.062007165023239	10.01666	3.1649108
9.079588966424197	10.217105	3.1964207
9.097170982017108	10.227873	3.1981046
9.11475321222372	11.22539	3.3504314
9.132335657465825	12.061946	3.4730313
9.149918318165264	12.161993	3.4874048
9.167501194743924	12.5601015	3.5440233
9.18508428762374	12.289527	3.5056422
9.202667597226693	12.266053	3.5022926
9.220251123974803	12.007302	3.4651554
9.237834868290143	11.734481	3.4255629
9.255418830594836	11.511968	3.392929
9.273003011311046	10.918962	3.3043852
9.290587410860985	10.708798	3.27243
9.308172029666911	10.163951	3.188095
9.32575686815113	9.935021	3.1519868
9.343341926735997	8.799212	2.9663467
9.360927205843916	8.476436	2.9114318
9.378512705897327	8.255338	2.8732104
9.396098427318728	8.051142	2.8374534
9.413684370530664	7.998451	2.8281534
9.431270535955722	7.840827	2.8001478
9.448856924016539	7.6855307	2.772279
9.466443535135806	7.57833	2.7528768
9.484030369736251	7.6284447	2.7619638
9.501617428240658	7.648447	2.7655826
9.519204711071852	7.709534	2.776605
9.536792218652714	7.746362	2.7832286
9.55437995140617	7.8373523	2.7995272
9.571967909755191	7.8821044	2.8075085
9.589556094122802	7.8822904	2.8075416
9.60714450493207	7.911245	2.8126936
9.624733142606116	7.841746	2.8003118
9.642322007568108	7.8999643	2.8106875
9.659911100241267	7.933827	2.816705
9.677500421048851	7.9652553	2.8222785
9.695089970414175	8.003281	2.829007
9.712679748760609	7.9744773	2.8239117
9.730269756511557	8.028015	2.8333752
9.747859994090492	8.00842	2.8299153
9.765450461920915	8.106068	2.8471158
9.78304116042639	8.139088	2.8529086
9.800632090030527	8.124927	2.8504257
9.81822325115699	8.220066	2.8670657
9.835814644229481	8.2484	2.8720028
9.853406269671762	8.250605	2.8723865
9.870998127907646	8.295903	2.880261
9.888590219360985	8.319674	2.8843844
9.906182544455698	8.314892	2.8835554
9.923775103615734	8.303928	2.8816538
9.941367897265108	8.327376	2.8857193
9.958960925827878	8.26298	2.87454
9.97655418972816	8.257845	2.8736467
9.994147689390106	8.2334795	2.869404
10.011741425237934	8.293005	2.879758
10.029335397695904	8.347431	2.889192
10.04692960718833	8.387366	2.896095
10.06452405413958	8.355207	2.8905375
10.082118738974064	8.317485	2.884005
10.099713662116246	8.258228	2.8737133
10.117308823990651	8.227284	2.8683243
10.134904225021844	8.264293	2.8747683
10.152499865634445	8.24121	2.8707507
10.170095746253125	8.217979	2.8667018
10.18769186730261	8.157775	2.8561819
10.205288229207675	8.108275	2.8475034
10.222884832393145	8.017462	2.8315122
10.2404816772839	8.024681	2.8327868
10.258078764304868	8.036637	2.8348963
10.275676093881035	8.0626545	2.8394814
10.293273666437438	8.043377	2.8360848
10.310871482399158	8.043589	2.836122
10.32846954219134	8.087744	2.843896
10.346067846239173	8.194632	2.8626268
10.363666394967908	8.22016	2.867082
10.38126518880283	8.212353	2.8657203
10.398864228169298	8.187742	2.861423
10.416463513492713	8.130452	2.851395
10.434063045198531	8.195316	2.8627462
10.451662823712262	8.191395	2.8620613
10.469262849459467	8.24479	2.8713741
10.486863122865758	8.039443	2.835391
10.504463644356806	7.96575	2.822366
10.522064414358338	7.9040856	2.8114207
10.539665433296118	7.9079313	2.8121045
10.557266701595987	7.9656377	2.8223462
10.574868219683818	7.868341	2.8050563
10.592469987985552	7.772749	2.787965
10.610072006927185	7.5760136	2.752456
10.627674276934751	7.4903417	2.7368488
10.64527679843435	7.340573	2.7093492
10.662879571852143	7.2445626	2.6915724
10.680482597614331	7.178477	2.679268
10.698085876147173	7.079245	2.660685
10.715689407876988	6.9258065	2.6316926
10.733293193230146	6.840715	2.6154761
10.750897232633072	6.78623	2.6050394
10.76850152651225	6.7416224	2.5964634
10.786106075294207	6.579631	2.5650792
10.803710879405534	6.436515	2.5370288
10.821315939272877	6.317575	2.5134788
10.83892125532294	6.282807	2.5065527
10.856526827982472	6.188274	2.4876242
10.874132657678285	6.18592	2.487151
10.891738744837243	6.1958413	2.4891448
10.909345089886271	6.166374	2.4832184
10.926951693252343	6.0673666	2.4632025
10.944558555362494	5.9630775	2.4419413
10.96216567664381	5.8406253	2.4167385
10.979773057523436	5.8164716	2.4117362
10.997380698428573	5.7390785	2.3956375
11.014988599786477	5.7200265	2.3916576
11.032596762024461	5.667686	2.3806903
11.050205185569892	5.6255655	2.3718274
11.067813870850198	5.531745	2.3519661
11.085422818292859	5.4032454	2.3244882
11.10303202832541	5.3751817	2.3184438
11.120641501375454	5.358983	2.3149478
11.138251237870636	5.3749228	2.318388
11.155861238238671	5.2950253	2.3010921
11.173471502907317	5.1488156	2.2691002
11.191082032304402	5.0617046	2.2498233
11.208692826857805	5.0181646	2.2401261
11.226303886995465	4.9791226	2.2313948
11.243915213145371	4.946545	2.224083
11.261526805735578	4.9548726	2.2259543
11.279138665194196	4.951394	2.2251728
11.296750791949393	4.8909087	2.21154
11.314363186429393	4.8422046	2.200501
11.331975849062479	4.7825656	2.1869078
11.34958878027699	4.673953	2.1619327
11.36720198050133	4.637226	2.1534219
11.384815450163948	4.5941567	2.1433985
11.402429189693366	4.5594587	2.135289
11.420043199518153	4.4318643	2.1051993
11.437657480066942	63.345688	7.9590006
11.455272031768422	85.06189	9.2229
11.472886855051353	107.503426	10.368386
11.490501950344528	99.11561	9.955682
11.508117318076819	84.45247	9.189802
11.52573295867715	45.83458	6.770124
11.543348872574514	4.125996	2.0312548
11.560965060197946	4.11156	2.0276983
11.57858152197655	4.0660043	2.0164335
11.59619825833949	4.0872746	2.0217009
11.613815269715985	4.0552096	2.013755
11.631432556535323	38.543865	6.2083707
11.649050119226837	83.0544	9.113419
11.666667958219929	93.448166	9.66686
11.68428607394406	107.73181	10.379394
11.701904466828756	82.5855	9.087657
11.719523137303586	65.447815	8.089982
11.737142085798196	4.6207604	2.1495955
11.754761312742286	3.7452538	1.9352658
11.772380818565619	3.6816347	1.9187586
11.790000603698015	3.6597247	1.9130408
11.80762066856935	3.5925634	1.8954059
11.825241013609572	3.5671194	1.8886819
11.842861639248683	3.533133	1.879663
11.860482545916748	3.5005307	1.8709705
11.878103734043883	3.428723	1.8516811
11.895725204060282	3.3759053	1.8373637
11.91334695639619	3.3641386	1.8341588
11.930968991481919	3.3660812	1.8346883
11.948591309747824	3.3373513	1.826842
11.966213911624347	3.276182	1.8100226
11.98383679754198	3.263547	1.8065289
12.001459967931268	3.2897854	1.8137766
12.019083423222835	3.3183932	1.8216457
12.036707163847352	3.2769685	1.8102399
12.05433119023556	3.223588	1.7954353
12.071955502818259	3.1891274	1.7858129
12.089580102026313	3.175463	1.7819829
12.107204988290643	3.179254	1.7830462
12.12483016204224	3.1515002	1.7752465
12.142455623712152	3.1072276	1.762733
12.16008137373149	3.0959375	1.7595277
12.177707412531431	3.087647	1.7571702
12.19533374054321	3.0833976	1.7559606
12.212960358198126	3.0851274	1.756453
12.230587265927545	3.074209	1.7533423
12.248214464162889	3.0431516	1.7444631
12.265841953335649	3.036691	1.7426103
12.283469733877375	3.0385141	1.7431334
12.301097806219685	3.0441945	1.7447621
12.31872617079425	3.0239248	1.7389436
12.336354828032825	2.9709368	1.7236406
12.353983778367205	2.930231	1.7117918
12.371613022229262	2.8938375	1.7011282
12.389242560050928	2.8961935	1.7018206
12.406872392264201	2.8715837	1.6945748
12.424502519301143	2.819373	1.6790988
12.442132941593874	2.8124938	1.6770492
12.459763659574586	2.8577664	1.690493
12.477394673675532	2.9181702	1.7082653
12.49502598432903	2.9015431	1.7033917
12.51265759196746	2.9173923	1.7080375
12.530289497023267	2.8734722	1.6951319
12.547921699928967	2.8290184	1.6819686
12.565554201117134	2.8116324	1.6767923
12.583187001020404	2.8075442	1.6755728
12.600820100071486	2.8362825	1.6841266
12.618453498703152	2.7947683	1.671756
12.636087197348235	2.7918994	1.6708978
12.65372119643964	2.7889214	1.6700064
12.671355496410326	2.7825513	1.6680981
12.68899009769333	2.8042765	1.6745974
12.706625000721749	2.8531642	1.6891311
12.724260205928752	2.9570286	1.7196013
12.741895713747551	2.9630678	1.7213564
12.759531524611454	2.9828532	1.7270938
12.777167638953818	3.005144	1.733535
12.794804057208072	3.048572	1.746016
12.812440779807702	3.1106088	1.7636918
12.830077807186271	3.2337234	1.7982557
12.847715139777405	3.2738075	1.8093666
12.865352778014795	3.474343	1.863959
12.882990722332197	3.5722718	1.8900454
12.90062897316344	3.6533623	1.9113771
12.918267530942412	3.7017653	1.9239972
12.935906396103071	3.5909827	1.8949888
12.953545569079449	3.7525554	1.9371513
12.971185050305628	3.538973	1.8812158
12.988824840215775	3.5324209	1.8794736
13.006464939244115	3.522449	1.8768189
13.024105347824943	3.39529	1.8426312
13.041746066392617	3.492873	1.868923
13.05938709538157	3.333597	1.825814
13.077028435226296	3.3736248	1.836743
13.094670086361363	3.2777135	1.8104457
13.112312049221401	3.1985846	1.7884587
13.129954324241112	3.1020021	1.7612501
13.147596911855258	2.9098125	1.7058172
13.165239812498685	2.8684309	1.6936443
13.182883026606293	2.791649	1.6708229
13.200526554613058	2.760726	1.6615433
13.218170396954017	2.7503607	1.6584212
13.235814554064284	2.7421033	1.6559298
13.253459026379034	2.7881234	1.6697675
13.271103814333523	2.7651298	1.6628679
13.288748918363058	2.752994	1.6592149
13.306394338903031	2.7053185	1.6447853
13.32404007638889	2.6410515	1.6251312
13.341686131256164	2.658293	1.6304272
13.359332503940449	2.6350968	1.6232982
13.376979194877402	2.6828103	1.6379286
13.394626204502751	2.7220542	1.6498649
13.412273533252307	2.726441	1.6511937
13.429921181561937	2.6847482	1.6385201
13.447569149867581	2.6855924	1.6387777
13.465217438605247	2.670359	1.6341233
13.482866048211022	2.6927073	1.6409471
13.500514979121052	2.6984272	1.642689
13.518164231771568	2.723094	1.65018
13.535813806598844	2.7387607	1.6549201
13.553463704039254	2.751295	1.6587029
13.571113924529229	2.7267773	1.6512957
13.588764468505275	2.7199442	1.6492254
13.606415336403956	2.6816158	1.637564
13.624066528661917	2.7145028	1.6475748
13.641718045715882	2.7844934	1.6686802
13.659369888002635	2.8486295	1.6877884
13.67702205595903	2.912929	1.7067305
13.694674550021993	2.9601877	1.7205195
13.712327370628532	3.007025	1.7340776
13.729980518215713	3.1093192	1.7633262
13.747633993220681	3.1711547	1.7807736
13.765287796080647	3.2373645	1.7992678
13.7829419272329	3.2477305	1.8021461
13.800596387114801	3.2403774	1.8001049
13.818251176163775	3.2410119	1.800281
13.835906294817324	3.3195753	1.8219702
13.853561743513023	3.3703868	1.8358613
13.871217522688525	3.4284978	1.8516203
13.888873632781538	3.4403062	1.8548062
13.906530074229858	3.4974928	1.8701584
13.92418684747135	3.5035145	1.8717678
13.941843952943948	3.4898055	1.8681021
13.959501391085665	3.4468951	1.8565816
13.977159162334578	3.3858283	1.840062
13.994817267128846	3.3496618	1.8302082
14.012475705906693	3.280433	1.8111966
14.030134479106424	3.2285664	1.7968212
14.047793587166414	3.1605089	1.777782
14.065453030525108	3.1099935	1.7635174
14.083112809621026	3.040375	1.7436671
14.100772924892766	2.9796238	1.7261587
14.118433376778997	2.9279952	1.7111386
14.136094165718458	2.8265738	1.6812418
14.153755292149969	2.7378156	1.6546346
14.171416756512416	2.6583517	1.6304452
14.189078559244768	2.619657	1.6185355
14.20674070078606	2.6123416	1.616274
14.224403181575408	2.5906787	1.6095586
14.242066002051999	2.5473988	1.5960573
14.259729162655093	2.5059822	1.5830294
14.277392663824022	2.4820495	1.5754521
14.295056505998208	2.4702747	1.5717107
14.312720689617128	2.4158263	1.5542929
14.330385215120348	2.3800473	1.5427402
14.348050082947497	2.3790917	1.5424305
14.3657152935383	2.379046	1.5424156
14.383380847332528	2.3852813	1.5444356
14.401046744770051	2.389678	1.5458584
14.418712986290798	2.3835402	1.5438718
14.436379572334793	2.3664932	1.538341
14.454046503342123	2.3431273	1.5307277
14.471713779752946	2.375717	1.541336
14.489381402007504	2.3904612	1.5461116
14.507049370546113	2.3742852	1.5408716
14.524717685809168	2.3629868	1.5372009
14.542386348237134	2.373824	1.5407219
14.560055358270553	2.3773725	1.5418731
14.577724716350051	2.3574996	1.5354152
14.595394422916325	2.3295805	1.5262964
14.61306447841015	2.369461	1.5393053
14.63073488327237	2.4218493	1.5562292
14.648405637943917	2.459794	1.5683731
14.6660767428658	2.4505239	1.5654149
14.683748198479094	2.489689	1.5778749
14.701420005224954	2.5557034	1.5986568
14.719092163544628	2.6646636	1.6323798
14.73676467387942	2.685918	1.638877
14.754437536670727	2.651461	1.6283307
14.772110752360014	2.5998476	1.6124042
14.78978432138882	2.6185246	1.6181855
14.807458244198777	2.695228	1.6417149
14.82513252123159	2.66976	1.63394
14.842807152929028	2.668973	1.6336992
14.860482139732962	2.6294746	1.6215655
14.87815748208531	2.6361458	1.6236212
14.8958331804281	2.6784556	1.6365988
14.91350923520342	2.6571996	1.6300919
14.931185646853438	2.696279	1.642035
14.948862415820408	2.6676924	1.6333072
14.966539542546656	2.7116318	1.6467034
14.98421702747459	2.6822977	1.6377722
15.001894871046696	2.6790264	1.6367731
15.019573073705542	2.6485715	1.6274432
15.037251635893766	2.6294847	1.6215686
15.054930558054092	2.6755135	1.6356997
15.072609840629323	2.7493522	1.658117
15.090289484062351	2.9212937	1.7091793
15.107969488796124	3.2547278	1.8040864
15.125649855273691	3.6879132	1.9203941
15.14333058393817	4.1704464	2.0421672
15.161011675232768	5.045629	2.2462478
15.17869312960076	6.4068704	2.5311797
15.196374947485506	8.251669	2.872572
15.214057129330447	11.235178	3.3518918
15.231739675579114	15.801175	3.9750693
15.249422586675102	20.629498	4.5419707
15.267105863062092	23.642189	4.8623233
15.284789505183847	23.74815	4.8732076
15.302473513484218	21.588633	4.646357
15.320157888407127	17.960821	4.238021
15.337842630396578	13.941456	3.733826
15.355527739896656	10.88486	3.299221
15.37321321735153	8.614547	2.9350548
15.39089906320545	6.409986	2.531795
15.408585277902748	4.870987	2.2070312
15.42627186188783	3.8119729	1.9524274
15.443958815605198	3.2809024	1.8113261
15.461646139499424	2.959385	1.7202863
15.479333834015168	2.8266366	1.6812603
15.497021899597165	2.765767	1.6630596
15.514710336690234	2.711925	1.6467923
15.53239914573928	2.6839247	1.6382688
15.550088327189297	2.6444125	1.6261649
15.567777881485336	2.5900657	1.6093681
15.58546780907256	2.527958	1.5899553
15.6031581103962	2.4992576	1.580904
15.620848785901568	2.468209	1.5710535
15.638539836034063	2.4359598	1.5607562
15.656231261239173	2.4361305	1.5608108
15.673923061962451	2.4616055	1.5689504
15.691615238649552	2.4757972	1.5734667
15.709307791746202	2.4655504	1.5702071
15.727000721698221	2.433684	1.560027
15.744694028951498	2.4455369	1.5638212
15.76238771395202	2.4262705	1.557649
15.780081777145844	2.4061108	1.5511643
15.797776218979125	2.3680148	1.5388355
15.815471039898094	2.3286788	1.526001
15.833166240349064	2.3377175	1.5289596
15.850861820778437	2.3624425	1.5370239
15.868557781632699	2.3976443	1.5484328
15.886254123358412	2.363991	1.5375276
15.903950846402232	2.3679464	1.5388134
15.921647951210897	2.3510792	1.5333229
15.939345438231225	2.34765	1.5322043
15.957043307910133	2.3334725	1.5275707
15.974741560694602	2.3646855	1.5377535
15.992440197031714	2.383377	1.543819
16.01013921736862	2.3933616	1.5470493
16.02783862215259	2.383633	1.5439018
16.045538411830933	2.3667397	1.5384212
16.06323858685107	2.391637	1.5464919
16.080939147660512	2.3906898	1.5461856
16.09864009470684	2.3966796	1.5481213
16.11634142843774	2.3789804	1.5423944
16.134043149300954	2.3919492	1.5465927
16.15174525774433	2.390506	1.5461261
16.169447754215817	2.3855112	1.54451
16.18715063916342	2.4254951	1.5574001
16.204853913035244	2.4642	1.569777
16.222557576279478	2.5361397	1.5925262
16.240261629344403	22.539072	4.7475333
16.257966072678386	43.02986	6.5597153
16.275670906729868	38.081097	6.170988
16.293376131947387	2.4640431	1.5697271
16.31108174877957	2.4949362	1.5795367
16.328787757675133	2.505766	1.5829611
16.34649415908287	2.5733173	1.6041563
16.364200953451657	2.6102858	1.6156379
16.38190814123048	2.6313443	1.6221418
16.39961572286839	2.592276	1.6100547
16.41732369881455	2.5871425	1.6084597
16.43503206951817	2.6405857	1.6249878
16.45274083542859	2.7274675	1.6515046
16.47044999699522	2.8248231	1.680721
16.488159554667558	2.855306	1.6897651
16.505869508895184	2.823256	1.6802547
16.523579860127786	2.8155262	1.677953
16.541290608815117	2.881028	1.6973591
16.559001755407035	2.946015	1.7163959
16.57671330035348	2.9951732	1.7306569
16.59442524410448	3.0498016	1.7463682
16.61213758711015	3.1155882	1.7651029
16.629850329820705	3.1884315	1.785618
16.647563472686436	3.2691262	1.8080724
16.665277016157724	3.327727	1.8242059
16.682990960685053	3.349383	1.830132
16.70070530671898	3.4064538	1.8456581
16.718420054710155	3.4312487	1.852363
16.736135205109335	3.5053294	1.8722525
16.753850758367335	3.5739872	1.8904992
16.771566714935087	3.6753907	1.9171308
16.789283075263597	3.7080882	1.9256396
16.80699983980398	3.7017822	1.9240016
16.82471700900741	3.7426176	1.9345846
16.84243458332518	3.8555872	1.963565
16.860152563208665	3.9463255	1.986536
16.87787094910932	3.9988048	1.9997011
16.89558974147871	4.026543	2.0066247
16.913308940768466	4.075415	2.0187657
16.931028547430333	4.15285	2.0378542
16.94874856191613	4.273156	2.0671613
16.966468984677785	4.3734026	2.091268
16.98418981616729	4.4409676	2.1073604
17.00191105683676	4.472364	2.1147964
17.019632707138374	4.460792	2.1120586
17.03735476752442	4.450543	2.109631
17.05507723844728	4.483647	2.1174624
17.072800120359403	4.555824	2.1344376
17.090523413713353	4.6485047	2.1560392
17.108247118961785	4.7180147	2.172099
17.125971236557437	4.7701235	2.1840613
17.143695766953133	4.7839303	2.1872199
17.161420710601806	4.785301	2.1875331
17.179146067956477	4.7629137	2.18241
17.19687183947025	4.7226076	2.173156
17.21459802559634	4.6406417	2.1542149
17.232324626788028	4.621801	2.1498375
17.25005164349871	4.6204095	2.1495137
17.267779076181863	4.6717196	2.161416
17.285506925291074	4.6325636	2.152339
17.30323519127999	4.5372643	2.1300855
17.320963874602384	4.487564	2.1183872
17.33869297571211	4.4930267	2.119676
17.356422495063114	4.535108	2.1295793
17.37415243310944	4.5224967	2.1266162
17.391882790305218	4.5041127	2.1222894
17.40961356710468	4.4799175	2.1165817
17.42734476396215	4.4657326	2.113228
17.445076381332044	4.4608836	2.1120803
17.462808419668868	4.5796914	2.1400213
17.48054087942723	4.7462087	2.1785796
17.498273761061835	4.982621	2.2321787
17.51600706502747	5.4281163	2.3298318
17.533740791779024	6.159828	2.4819002
17.551474941771485	7.6205006	2.7605255
17.56920951545993	8.665997	2.9438064
17.586944513299528	10.734397	3.276339
17.60467993574556	12.288546	3.5055022
17.622415783253373	13.786636	3.713036
17.64015205627843	14.93628	3.8647485
17.657888755276293	15.849986	3.981204
17.675625880702604	16.357222	4.0444064
17.69336343301311	16.120321	4.015012
17.71110141266366	15.434037	3.9286177
17.728839820110178	14.659093	3.8287194
17.746578655808705	13.994519	3.7409248
17.764317920215372	12.692972	3.5627198
17.7820576137864	11.306211	3.362471
17.79979773697811	9.421168	3.0693922
17.81753829024692	7.5931325	2.755564
17.835279274049356	5.9336686	2.4359124
17.85302068884201	4.8451977	2.201181
17.870762535081607	4.2409897	2.0593662
17.888504813224934	3.975155	1.9937791
17.90624752372891	3.8218975	1.9549674
17.923990667050536	3.6825378	1.918994
17.941734243646895	3.5238798	1.8772
17.959478253975185	3.405099	1.845291
17.9772226984927	3.3875163	1.8405206
17.994967577656833	3.3399868	1.827563
18.01271289192506	3.3220263	1.8226427
18.030458641754965	3.322932	1.8228911
18.04820482760425	3.3320076	1.8253788
18.06595144993067	3.3206992	1.8222786
18.083698509192125	3.2680924	1.8077866
18.101446005846576	3.2735074	1.8092836
18.119193940352105	3.2779903	1.8105221
18.136942313166887	3.2538426	1.8038411
18.1546911247492	3.183058	1.7841127
18.1724403755574	3.1369808	1.7711524
18.19019006604997	3.0846252	1.7563101
18.207940196685467	3.044129	1.7447432
18.225690767922575	3.014445	1.7362157
18.243441780220046	3.0632393	1.7502112
18.261193234036764	3.0433512	1.7445203
18.278945129831676	3.0388837	1.7432394
18.29669746806386	3.0210314	1.7381115
18.314450249192483	3.0472207	1.7456291
18.3322034736768	3.05986	1.7492455
18.349957141976184	3.0695236	1.7520056
18.3677112545501	3.0598073	1.7492305
18.385465811858108	3.0473855	1.7456762
18.403220814359884	3.0208762	1.7380668
18.420976262515172	3.0642812	1.7505089
18.43873215678387	3.0766652	1.7540425
18.456488497625923	3.1161044	1.7652491
18.474245285501407	3.2258358	1.7960612
18.492002520870486	3.2996595	1.8164965
18.50976020419343	3.379534	1.8383509
18.527518335930615	3.6607087	1.9132979
18.545276916542516	4.1859045	2.0459483
18.563035946489688	4.341359	2.083593
18.580795426232832	4.8361654	2.1991284
18.598555356232698	4.75011	2.1794748
18.616315736950185	5.076247	2.253053
18.63407656884626	4.691906	2.1660807
18.65183785238201	4.91608	2.2172234
18.669599588018617	4.6842685	2.1643171
18.68736177621737	4.6806955	2.1634915
18.705124417439652	4.713534	2.1710675
18.72288751214696	4.5381355	2.13029
18.740651060800886	4.677145	2.1626709
18.758415063863115	4.3845935	2.0939422
18.77617952179546	4.537331	2.1301012
18.793944435059814	4.2569056	2.063227
18.811709804118184	4.2544637	2.0626352
18.829475629432675	4.1790295	2.0442674
18.8472419114655	4.004725	2.001181
18.86500865067897	4.078618	2.019559
18.88277584753551	3.773608	1.9425777
18.90054350249763	3.787706	1.946203
18.918311616027957	3.4490054	1.8571498
18.936080188589226	3.3137934	1.8203827
18.953849220644265	2.9814787	1.7266959
18.971618712656007	2.8492746	1.6879795
18.9893886650875	2.8047473	1.674738
19.007159078401887	7.959173	2.8212006
19.024929953062408	32.820274	5.728898
19.042701289532435	32.76383	5.7239695
19.060473088275405	25.36455	5.036323
19.07824534975489	2.6386988	1.6244072
19.096018074434568	2.6107447	1.6157799
19.113791262778197	2.5695012	1.6029663
19.13156491524966	2.5944827	1.6107398
19.149339032312945	2.6137428	1.6167074
19.167113614432136	2.6127985	1.6164153
19.184888662071433	2.580283	1.6063259
19.202664175695123	2.5689704	1.6028008
19.220440155767623	2.5276344	1.5898535
19.238216602753447	2.517683	1.5867208
19.2559935171172	2.5066745	1.5832481
19.27377089932361	2.5178258	1.5867659
19.291548749837514	2.4834628	1.5759007
19.309327069123835	2.4496126	1.5651238
19.32710585764763	2.47021	1.5716902
19.344885115874032	2.4560812	1.567189
19.362664844268313	2.4702616	1.5717065
19.380445043295822	2.4700246	1.5716312
19.39822571342203	2.464077	1.5697379
19.41600685511252	2.463995	1.5697118
19.43378846883297	2.4908288	1.578236
19.451570555049173	2.5046427	1.5826063
19.469353114227037	2.4986808	1.5807216
19.48713614683254	2.4774833	1.5740023
19.50491965333182	2.4840782	1.5760958
19.52270363419109	2.463911	1.569685
19.540488089876686	2.4474216	1.5644237
19.55827302085503	2.4638655	1.5696706
19.576058427592674	2.4917974	1.5785428
19.593844310556282	2.4962866	1.5799642
19.611630670212598	2.4639199	1.5696878
19.629417507028506	2.4830658	1.5757747
19.64720482147098	2.4707282	1.571855
19.6649926140071	2.4570763	1.5675064
19.682780885104084	2.4599953	1.5684372
19.70056963522921	2.4844973	1.5762289
19.718358864849908	2.5109336	1.5845926
19.7361485744337	2.5240517	1.5887264
19.753938764448215	2.518335	1.5869263
19.771729435361202	2.5099537	1.5842834
19.789520587640506	2.5034919	1.5822427
19.807312221754092	2.5466893	1.595835
19.825104338170043	2.55317	1.5978642
19.842896937356517	2.5381453	1.5931557
19.860690019781824	2.5081303	1.5837078
19.87848358591436	2.4698718	1.5715826
19.896277636222635	2.4549384	1.5668243
19.914072171175278	2.4530182	1.5662115
19.931867191241015	2.4325573	1.5596658
19.94966269688869	2.4335122	1.5599718
19.967458688587264	2.419625	1.5555145
19.985255166805807	2.4303687	1.558964
20.00305213201348	2.4141722	1.5537606
20.020849584679578	2.4073129	1.5515518
20.038647525273507	2.410948	1.5527228
20.05644595426477	2.4458244	1.5639131
20.07424487212299	2.4422574	1.5627724
20.092044279317903	2.3984003	1.548677
20.109844176319353	2.389726	1.5458739
20.127644563597304	2.4053595	1.5509222
20.145445441621817	2.3985195	1.5487155
20.16324681086307	2.3640726	1.537554
20.181048671791373	2.3681123	1.5388672
20.198851024877122	2.3777852	1.5420069
20.216653870590836	2.38623	1.5447427
20.234457209403146	2.3583217	1.5356828
20.252261041784802	2.3299327	1.5264117
20.270065368206662	2.344859	1.5312932
20.287870189139685	2.3417785	1.530287
20.305675505054968	2.3314137	1.5268967
20.323481316423702	2.3357167	1.5283052
20.341287623717207	2.3748653	1.5410599
20.359094427406884	2.399401	1.549
20.376901727964288	2.3599126	1.5362008
20.39470952586107	2.3412743	1.5301223
20.41251782156899	2.3154452	1.5216587
20.430326615559935	2.3198686	1.5231115
20.448135908305886	2.3031566	1.5176154
20.465945700278965	2.315912	1.5218121
20.483755991951384	2.297856	1.5158681
20.50156678379548	2.329752	1.5263525
20.519378076283708	2.3329892	1.5274125
20.537189869888635	2.3306468	1.5266455
20.55500216508294	2.2959595	1.5152423
20.572814962339415	2.2703667	1.5067736
20.59062826213098	2.2709925	1.5069813
20.60844206493066	2.2580059	1.5026662
20.626256371211593	2.316182	1.5219008
20.644071181447032	2.3164866	1.5220009
20.66188649611036	2.3002672	1.5166632
20.67970231567506	2.2857113	1.5118569
20.697518640614742	2.276342	1.5087551
20.715335471403122	2.2922049	1.5140029
20.73315280851404	2.3114178	1.5203347
20.750970652421447	2.323623	1.5243435
20.768789003599412	2.3325279	1.5272616
20.786607862522136	2.315933	1.521819
20.8044272296639	2.2786658	1.5095251
20.82224710549913	2.2495282	1.4998428
20.84006749050237	2.2412193	1.4970702
20.857888385148268	3.7759893	1.9431905
20.8757097899116	45.891552	6.77433
20.893531705267254	64.74921	8.046689
20.911354131690224	83.76372	9.152252
20.92917706965566	69.02409	8.308074
20.94700051963877	50.145527	7.081351
20.96482448211493	29.426514	5.424621
20.982648957559622	4.179934	2.0444887
21.00047394644843	2.2502005	1.5000669
21.01829944925707	2.2206907	1.4901983
21.036125466461375	2.211768	1.4872013
21.053951998537297	2.2399943	1.4966611
21.071779045960906	2.2738755	1.5079374
21.089606609208378	2.2428358	1.49761
21.10743468875603	2.2243617	1.4914294
21.12526328508028	2.2177207	1.4892014
21.143092398657675	2.210308	1.4867104
21.16092202996488	2.192801	1.4808109
21.17875217947867	2.2217245	1.490545
21.19658284767596	2.2406673	1.4968859
21.21441403503377	2.227081	1.4923408
21.232245742029225	2.1712	1.4734993
21.2500779691396	2.1505532	1.4664764
21.26791071684227	2.1517825	1.4668956
21.28574398561475	2.183083	1.477526
21.30357777593465	2.1612663	1.4701246
21.321412088279704	2.123028	1.4570614
21.339246923127792	2.1075904	1.4517542
21.357082280956888	2.1138225	1.453899
21.3749181622451	2.1268678	1.4583784
21.392754567470647	2.125495	1.4579077
21.41059149711187	2.152169	1.4670273
21.42842895164726	2.152849	1.467259
21.446266931555378	2.135182	1.4612261
21.464105437314945	2.1162598	1.4547371
21.481944469404798	2.125237	1.4578192
21.49978402830388	2.123579	1.4572505
21.51762411449127	2.1105351	1.4527681
21.53546472844617	2.1129112	1.4535856
21.553305870647876	2.1108522	1.4528773
21.571147541575865	2.0878427	1.4449369
21.58898974170967	2.0591662	1.4349796
21.60683247152899	2.033547	1.4260249
21.62467573151363	2.035322	1.4266471
21.642519522143523	2.0630848	1.4363443
21.660363843898722	2.0702434	1.4388341
21.6782086972594	2.0565076	1.4340528
21.696054082705864	2.0068727	1.4166414
21.713900000718535	1.9843657	1.4086752
21.73174645177795	2.0085819	1.4172444
21.749593436364794	2.0353615	1.426661
21.767440954959845	2.0390255	1.4279445
21.785289008044032	2.0228763	1.4222785
21.803137596098388	2.0203168	1.4213785
21.820986719604086	2.0137246	1.4190576
21.838836379042412	2.0020442	1.4149361
21.85668657489478	2.0377533	1.4274989
21.87453730764273	2.0480685	1.4311074
21.892388577767914	2.0163705	1.4199896
21.91024038575213	2.004098	1.4156617
21.928092732077285	2.006727	1.4165899
21.945945617225426	2.0334022	1.4259741
21.963799041678694	2.0450397	1.4300488
21.981653005919398	31.340153	5.5982275
21.999507510429943	78.11368	8.838194
22.01736255569286	73.05934	8.547476
22.035218142190818	4.153733	2.038071
22.05307427040661	1.9671706	1.4025586
22.07093094082315	1.9529389	1.397476
22.088788153923474	1.971451	1.4040837
22.106645910190746	1.9786403	1.4066415
22.12450421010827	1.9648011	1.4017136
22.142363054159464	1.9409215	1.3931696
22.16022244282787	1.9322119	1.3900403
22.178082376597164	1.9345342	1.3908753
22.195942855951145	1.9439048	1.3942399
22.213803881373742	1.9580483	1.3993028
22.231665453349002	1.9669626	1.4024844
22.24952757236111	1.9721777	1.4043424
22.26739023889438	1.9766802	1.4059446
22.28525345343323	1.959643	1.3998725
22.30311721646225	1.9644885	1.4016021
22.320981528466113	1.9616643	1.4005942
22.33884638992964	1.9865	1.4094325
22.356711801337788	1.9917581	1.4112966
22.37457776317561	1.9803734	1.4072574
22.392444275928337	1.9883407	1.4100853
22.410311340081282	1.9822133	1.407911
22.428178956119904	1.951913	1.3971088
22.446047124529805	1.9298136	1.3891773
22.46391584579669	1.9253392	1.387566
22.481785120406414	1.9585612	1.3994861
22.49965494884496	1.9371643	1.3918205
22.51752533159841	1.9318497	1.38991
22.53539626915302	1.9085175	1.3814911
22.553267761995137	1.8938789	1.3761828
22.571139810611264	1.9009026	1.3787322
22.589012415488025	1.9042087	1.3799306
22.60688557711216	1.912611	1.3829718
22.624759295970566	1.9007672	1.3786831
22.642633572550263	1.9097604	1.3819408
22.660508407338362	1.9306115	1.3894645
22.67838380082217	1.9544913	1.3980312
22.696259753489077	1.9678752	1.4028097
22.714136265826614	1.9359393	1.3913803
22.73201333832246	1.9158404	1.3841388
22.74989097146439	1.9199235	1.3856131
22.76776916574035	1.937215	1.3918387
22.785647921638393	1.9134529	1.3832761
22.803527239646712	1.8831004	1.372261
22.82140712025363	1.8689115	1.3670814
22.839287563947593	1.8756694	1.3695508
22.85716857121719	1.8594116	1.3636024
22.875050142551135	1.8502516	1.3602395
22.892932278438277	1.8728578	1.368524
22.910814979367604	1.8883244	1.3741632
22.928698245828222	1.8608403	1.3641262
22.946582078309387	1.8417182	1.3570992
22.96446647730047	1.8415017	1.3570194
22.98235144329098	1.8629196	1.3648881
23.000236976770562	1.8694677	1.3672848
23.018123078229	1.9073567	1.3810709
23.03600974815619	1.930703	1.3894974
23.053896987042194	1.9537344	1.3977605
23.071784795377173	1.9575355	1.3991195
23.08967317365145	1.9704458	1.4037256
23.10756212235546	1.9400995	1.3928745
23.125451641979787	1.8995905	1.3782563
23.143341733015134	1.8816638	1.3717375
23.161232395952357	1.9278225	1.3884605
23.179123631282426	1.9473556	1.3954768
23.197015439496468	1.9775692	1.4062607
23.214907821085717	1.9853419	1.4090216
23.23280077654157	1.9698755	1.4035225
23.250694306355538	1.9233874	1.3868624
23.268588411019277	1.9576397	1.3991568
23.28648309102458	1.9649848	1.4017792
23.304378346863356	1.9382752	1.3922195
23.322274179027676	1.8709648	1.3678322
23.340170588009723	1.8642304	1.3653682
23.358067574301852	1.8726317	1.3684413
23.37596513839651	1.8562646	1.362448
23.39386328078629	1.8402897	1.3565727
23.411762001963947	1.8592856	1.3635563
23.429661302422353	1.9013592	1.3788978
23.4475611826545	1.925004	1.3874451
23.46546164315356	1.9223119	1.3864746
23.48336268441279	1.9099293	1.3820019
23.501264306925638	1.8848317	1.3728917
23.51916651118564	1.8397881	1.3563879
23.537069297686497	1.8311781	1.3532103
23.554972666922037	1.8513144	1.3606302
23.57287661938623	1.9035997	1.3797101
23.59078115557318	1.9341145	1.3907244
23.608686275977128	1.9316251	1.3898292
23.62659198109246	1.9048485	1.3801625
23.6444982714137	1.9052321	1.3803015
23.66240514743549	1.9297643	1.3891596
23.68031260965263	1.915251	1.3839259
23.698220658560068	1.9268116	1.3880963
23.716129294652845	1.9188702	1.3852329
23.7340385184262	1.9184365	1.3850764
23.75194833037546	1.9021268	1.3791761
23.769858730996123	1.8708853	1.3678031
23.78776972078382	1.8339198	1.3542229
23.80568130023431	1.8251336	1.350975
23.823593469843495	1.8106253	1.3455948
23.841506230107424	1.8819064	1.3718259
23.859419581522275	1.8824917	1.3720392
23.87733352458438	1.8704578	1.3676468
23.89524805979019	1.8379011	1.3556921
23.913163187636318	1.8288254	1.3523407
23.931078908619508	1.8241405	1.3506075
23.948995223236633	1.8815883	1.3717101
23.966912131984735	1.9654069	1.4019297
23.98482963536096	2.0299404	1.4247597
24.002747733862616	2.0239847	1.4226681
24.020666427987155	2.0020118	1.4149246
24.038585718232156	2.0026357	1.4151452
24.056505605095353	1.9936101	1.4119526
24.074426089074617	2.0284429	1.4242342
24.092347170667946	2.0280497	1.4240961
24.110268850373515	2.0647647	1.4369289
24.128191128689586	2.0856295	1.4441708
24.146114006114626	2.0224402	1.4221252
24.164037483147187	1.982741	1.4080983
24.181961560286005	1.9851015	1.4089363
24.199886238029926	1.9766647	1.4059391
24.21781151687797	2.0067403	1.4165946
24.235737397329274	2.0227191	1.4222233
24.253663879883135	1.9909949	1.4110262
24.271590965038975	1.9800147	1.40713
24.289518653296376	1.9955255	1.4126307
24.30744694515505	1.9937351	1.4119968
24.32537584111486	2.0094569	1.4175532
24.34330534167581	1.9859196	1.4092265
24.361235447338046	2.0000286	1.4142237
24.379166158601876	2.009318	1.4175042
24.39709747596772	2.0089266	1.4173661
24.41502939993615	2.0224416	1.4221257
24.432961931007917	1.9932967	1.4118416
24.450895069683856	1.9809012	1.407445
24.468828816465	1.9734805	1.4048063
24.4867631718525	1.965339	1.4019054
24.504698136347656	1.9469805	1.3953425
24.52263371045192	1.914136	1.3835231
24.540569894666874	1.8946921	1.3764782
24.558506689494266	1.8870976	1.3737167
24.57644409543597	1.9110018	1.3823899
24.594382112994012	1.8989418	1.378021
24.61232074267057	1.8855586	1.3731564
24.630259984967953	1.9029582	1.3794775
24.64819984038863	1.8938829	1.3761842
24.66614030943522	1.8856732	1.3731982
24.684081392610462	1.9146259	1.3837
24.702023090417274	1.9564009	1.3987141
24.7199654033587	2.0050104	1.4159839
24.737908331937927	2.0031414	1.4153237
24.755851876658305	2.0275314	1.4239141
24.773796038023324	2.0118492	1.4183967
24.79174081653661	2.0118632	1.4184016
24.809686212701962	1.999415	1.4140067
24.827632227023294	2.0625012	1.4361411
24.8455788600047	2.0737643	1.440057
24.8635261121504	2.096429	1.4479051
24.88147398396475	2.125981	1.4580745
24.899422475952303	2.17016	1.4731463
24.917371588617698	2.135077	1.4611902
24.935321322465768	2.1044338	1.4506667
24.953271678001478	2.2035406	1.4844327
24.97122265572994	2.43947	1.5618804
24.989174256156414	2.8074114	1.6755332
25.00712647978632	3.2212079	1.7947724
25.02507932712521	3.6761298	1.9173236
25.043032798678798	4.149958	2.0371447
25.060986894952933	4.707983	2.1697886
25.078941616453637	5.3540087	2.313873
25.096896963687055	6.167228	2.4833906
25.114852937159508	7.330466	2.7074833
25.132809537377444	7.830446	2.7982934
25.150766764847468	8.020662	2.8320773
25.168724620076347	7.5563745	2.748886
25.186683103570985	6.627895	2.5744698
25.204642215838426	5.5179653	2.349035
25.222601957385894	4.314611	2.0771642
25.24056232872074	3.3181932	1.8215909
25.25852333035048	2.6803718	1.6371841
25.276484962782778	2.2640371	1.5046718
25.294447226525435	2.0821536	1.4429669
25.312410122086423	2.0081708	1.4170995
25.330373649973843	1.9464365	1.3951474
25.348337810695988	1.9088204	1.3816006
25.366302604761245	1.8889973	1.374408
25.384268032678207	1.9492095	1.3961409
25.40223409495558	1.9482212	1.395787
25.420200792102257	1.9556847	1.398458
25.438168124627246	1.9192115	1.3853561
25.45613609303974	1.9296745	1.3891273
25.474104697849057	1.887303	1.3737915
25.492073939564698	1.874252	1.3690332
25.510043818696285	1.8829131	1.3721929
25.528014335753614	1.8841908	1.3726583
25.54598549124664	1.8915912	1.3753513
25.56395728568544	1.8829334	1.3722003
25.58192971958028	1.8575845	1.3629323
25.59990279344156	1.8324894	1.3536947
25.617876507779833	1.8238347	1.3504943
25.635850863105826	1.8294215	1.3525611
25.653825859930386	1.8432167	1.3576511
25.671801498764548	1.8628733	1.3648711
25.68977778011949	1.8778571	1.3703493
25.707754704506524	1.7961401	1.3402015
25.725732272437153	1.7567582	1.3254275
25.743710484423012	1.7914355	1.3384452
25.761689340975888	1.8571812	1.3627844
25.77966884260774	1.8862656	1.3734139
25.797648989830662	1.843256	1.3576657
25.815629783156922	1.849005	1.3597813
25.83361122309895	1.8702484	1.3675703
25.85159331016929	1.8626306	1.3647822
25.869576044880695	1.8221438	1.349868
25.887559427746034	1.8085654	1.3448291
25.90554345927836	1.804586	1.3433489
25.92352813999086	1.8280783	1.3520645
25.94151347039689	1.7954482	1.3399434
25.959499451009965	1.8304778	1.3529515
25.97748608234374	1.8578528	1.3630308
25.995473364912062	1.8654428	1.3658121
26.013461299228904	1.8207529	1.3493527
26.03144988580839	1.7850604	1.3360615
26.04943912516483	1.8114907	1.3459163
26.067429017812675	1.858245	1.3631746
26.085419564266537	1.8603364	1.3639416
26.103410765041186	1.8162119	1.3476691
26.12140262065155	1.8144734	1.3470238
26.139395131612723	1.8361647	1.3550515
26.157388298439948	1.8202654	1.3491721
26.17538212164861	1.8091226	1.3450363
26.193376601754295	1.7877297	1.3370601
26.211371739272714	1.7762421	1.3327574
26.229367534719746	1.7455928	1.3212088
26.247363988611433	1.7455131	1.3211787
26.26536110146397	1.7700006	1.3304137
26.283358873793727	1.7818974	1.3348773
26.301357306117204	1.7660844	1.3289411
26.319356398951104	1.8016869	1.3422693
26.33735615281224	1.8163533	1.3477216
26.35535656821762	1.8158842	1.3475475
26.373357645684404	1.7987725	1.3411832
26.39135938572991	1.8081968	1.3446921
26.409361788871614	1.8002156	1.3417212
26.427364855627165	1.8259321	1.3512706
26.445368586514352	1.7921436	1.3387097
26.46337298205115	1.8164493	1.3477571
26.48137804275568	1.8537294	1.3615173
26.499383769146217	1.8811212	1.3715397
26.517390161741215	1.9106566	1.382265
26.53539722105928	1.8582126	1.3631628
26.553404947619182	1.7480861	1.322152
26.571413341939856	1.7355869	1.3174168
26.589422404540397	1.817188	1.3480312
26.60743213594006	1.8539284	1.3615904
26.62544253665827	1.8346679	1.3544991
26.64345360721459	1.8384898	1.3559092
26.66146534812879	1.8212043	1.34952
26.679477759920758	1.8092693	1.3450909
26.69749084311057	1.791564	1.3384932
26.71550459821847	1.7605432	1.3268546
26.733519025764842	1.7438779	1.3205597
26.751534126270258	1.7432907	1.3203373
26.769549900255434	1.7349051	1.317158
26.787566348241267	1.7543437	1.3245164
26.80558347074881	1.786786	1.3367071
26.823601268299267	1.79676	1.3404328
26.841619741414036	1.8226999	1.350074
26.85963889061465	1.7799087	1.3341322
26.877658716422832	1.7646351	1.3283957
26.89567921936045	1.7680643	1.3296858
26.913700399949544	1.7961419	1.3402022
26.93172225871233	1.7640378	1.3281709
26.949744796171174	1.7959105	1.3401158
26.967768012848605	1.8511264	1.360561
26.98579190926733	1.8986228	1.3779052
27.003816485950225	1.856445	1.3625143
27.021841743420318	1.7848994	1.3360013
27.039867682200814	1.7801191	1.334211
27.057894302815072	1.797101	1.34056
27.07592160578664	1.8291694	1.3524679
27.0939495916392	1.8231571	1.3502433
27.111978260896635	1.7762519	1.332761
27.13000761408296	1.7332511	1.31653
27.148037651722397	1.7326885	1.3163162
27.166068374339304	1.7389258	1.3186834
27.184099782458215	1.7519878	1.3236268
27.20213187660384	1.7666738	1.3291628
27.22016465730105	1.789165	1.3375968
27.23819812507487	1.7585485	1.3261027
27.256232280450533	1.7873421	1.3369151
27.274267123953383	1.8105954	1.3455837
27.292302656108987	1.7934239	1.3391877
27.31033887744306	1.7324028	1.3162078
27.32837578848146	1.7460624	1.3213866
27.34641338975026	1.7481624	1.3221809
27.364451681775673	1.735043	1.3172103
27.382490665084074	1.7358397	1.3175128
27.400530340202046	1.8024557	1.3425556
27.41857070765629	1.8079077	1.3445846
27.436611767973726	1.7767285	1.3329397
27.454653521681404	1.8086258	1.3448516
27.472695969306564	1.8000679	1.3416661
27.490739111376627	1.7759194	1.3326362
27.508782948419153	1.799194	1.3413404
27.526827480961902	1.8310797	1.353174
27.54487270953279	1.8294597	1.3525752
27.562918634659898	1.8213757	1.3495835
27.580965256871508	1.7998872	1.3415987
27.599012576696026	1.7539952	1.3243848
27.617060594662068	1.7727737	1.3314555
27.63510931129842	1.8066391	1.3441128
27.65315872713401	1.8196856	1.3489572
27.67120884269797	1.7987554	1.3411769
27.68925965851958	1.7865607	1.3366228
27.707311175128307	1.82349	1.3503666
27.725363393053787	1.8354256	1.3547788
27.74341631282583	1.8456231	1.3585371
27.7614699349744	1.890108	1.374812
27.77952426002968	2.0586374	1.4347953
27.797579288521973	2.081769	1.4428337
27.815635020981784	2.5327027	1.5914468
27.83369145793979	2.631438	1.6221708
27.85174859992682	2.5453641	1.5954198
27.869806447473923	2.3842485	1.5441012
27.887865001112267	1.9841982	1.4086157
27.905924261373233	1.896566	1.3771586
27.92398422878836	1.8989643	1.3780291
27.94204490388936	1.846862	1.358993
27.96010628720813	1.8326421	1.3537511
27.978168379276728	1.8036554	1.3430023
27.9962311806274	1.7609981	1.327026
28.014294691792568	1.7782986	1.3335286
28.0323589133048	1.8301202	1.3528193
28.050423845696887	1.8396066	1.356321
28.068489489501758	1.7912924	1.3383918
28.086555845252523	1.8193098	1.348818
28.104622913482487	1.815943	1.3475693
28.122690694725115	1.8215249	1.3496388
28.14075918951405	1.8801771	1.3711956
28.15882839838312	1.9479854	1.3957025
28.176898321866304	1.93631	1.3915136
28.1949689604978	1.9495951	1.396279
28.213040314811945	1.9443505	1.3943996
28.23111238534327	1.8840635	1.3726119
28.249185172626493	1.8636204	1.3651448
28.267258677196473	1.8746147	1.3691657
28.285332899588294	1.9054209	1.3803698
28.303407840337172	1.9311649	1.3896636
28.321483499978545	1.9413149	1.3933108
28.33955987904799	1.89839	1.3778207
28.357636978081285	1.8871664	1.3737417
28.37571479761439	1.9092005	1.3817382
28.393793338183425	1.8836489	1.3724608
28.41187260032469	1.8887912	1.374333
28.429952584574686	1.9072522	1.3810331
28.448033291470065	1.8626559	1.3647915
28.46611472154769	1.8670211	1.3663898
28.484196875344566	1.9517466	1.3970492
28.502279753397914	2.0287807	1.4243528
28.52036335624511	1.9943253	1.4122058
28.538447684423716	1.9606482	1.4002315
28.556532738471482	1.9574277	1.399081
28.574618518926325	1.9847908	1.408826
28.59270502632635	1.9806805	1.4073665
28.61079226120985	1.9401824	1.3929043
28.628880224115274	1.9803585	1.4072521
28.646968915581287	1.9965591	1.4129965
28.66505833614671	2.008828	1.4173312
28.68314848635055	2.033836	1.4261262
28.701239366732004	2.0009432	1.414547
28.71933097783044	1.9796343	1.4069948
28.737423320185403	1.9618158	1.4006484
28.75551639433665	2.0011714	1.4146277
28.773610200824074	2.0419078	1.4289534
28.791704740187793	2.0958896	1.4477187
28.80980001296809	2.1303606	1.4595755
28.827896019705413	2.1859286	1.4784886
28.845992760940433	2.17768	1.4756964
28.86409023721397	2.1191852	1.4557421
28.88218844906704	2.141128	1.4632593
28.900287397040845	2.184623	1.478047
28.918387081676755	2.2341487	1.4947069
28.936487503516343	2.2571015	1.5023654
28.954588663101365	2.250978	1.5003259
28.97269056097374	2.280773	1.5102228
28.990793197675597	2.3157437	1.5217568
29.00889657374923	2.3291855	1.5261669
29.027000689737125	2.337625	1.5289294
29.04510554618196	2.371092	1.5398351
29.06321114362659	2.390552	1.546141
29.08131748261405	2.3997579	1.5491152
29.099424563687567	2.440008	1.5620525
29.11753238739057	2.4251263	1.5572817
29.13564095426663	2.4399016	1.5620184
29.15375026485954	2.522139	1.5881244
29.171860319713275	2.5753872	1.6048013
29.18997111937199	2.5724213	1.603877
29.20808266438002	2.6185448	1.6181918
29.226194955281898	2.7029457	1.6440638
29.244307992622335	2.727327	1.6514621
29.26242177694624	2.7598343	1.6612749
29.2805363087987	2.848917	1.6878735
29.29865158872498	2.861978	1.6917381
29.316767617270557	2.9022644	1.7036034
29.334884394981064	2.9243162	1.7100632
29.353001922402367	2.9623466	1.7211468
29.37112020008047	3.0128522	1.735757
29.389239228561596	3.0999117	1.7606566
29.407359008392152	3.289994	1.8138341
29.42547954011872	3.6305466	1.9053993
29.44360082428809	4.267234	2.0657284
29.46172286144722	5.3371477	2.3102267
29.479845652143283	6.827714	2.6129894
29.497969196923606	8.652996	2.9415975
29.516093496335728	10.887899	3.2996817
29.5342185509274	13.569276	3.6836498
29.55234436124651	15.846697	3.980791
29.570470927841175	17.12325	4.138025
29.588598251259686	16.830692	4.102523
29.60672633205055	15.521922	3.9397871
29.624855170762405	13.564365	3.6829832
29.642984767944146	11.133463	3.3366845
29.66111512414481	8.63906	2.9392278
29.67924623991366	6.5532537	2.5599325
29.697378115800138	5.115446	2.2617352
29.71551075235387	4.2051315	2.0506418
29.733644150124675	3.6845248	1.9195116
29.751778309662576	3.428055	1.8515007
29.769913231517766	3.2764316	1.8100916
29.78804891624066	3.162285	1.7782815
29.806185364381818	3.1938126	1.7871242
29.82432257649206	3.2914383	1.8142321
29.842460553122333	3.3313577	1.8252007
29.86059929482382	3.3052661	1.8180391
29.878738802147872	3.301649	1.817044
29.896879075646048	3.2922392	1.8144529
29.915020115870114	3.3120968	1.8199167
29.933161923371976	3.2885802	1.8134443
29.951304498703777	3.2600813	1.8055695
29.969447842417857	3.2524621	1.8034583
29.987591955066733	3.191403	1.7864498
30.005736837203123	3.090991	1.7581215
30.023882489379943	3.1351047	1.7706227
30.04202891215028	3.1135771	1.7645332
30.060176106067455	3.1360166	1.7708802
30.078324071684946	3.1191437	1.7661098
30.09647280955646	3.0879378	1.7572529
30.114622320235863	3.056119	1.7481759
30.132772604277257	3.0806935	1.7551905
30.1509236622349	3.0852973	1.7565014
30.16907549466328	3.133619	1.7702031
30.18722810211705	3.1217482	1.766847
30.205381485151097	3.0811753	1.7553277
30.22353564432045	3.0368605	1.742659
30.241690580180403	2.950466	1.717692
30.25984629328638	2.8552043	1.6897349
30.278002784194037	2.842755	1.6860472
30.296160053459246	2.9175565	1.7080857
30.314318101638033	2.9082978	1.7053732
30.332476929286646	2.8793972	1.6968787
30.35063653696153	2.8988795	1.7026097
30.368796925219307	2.8719425	1.6946807
30.386958094616844	2.844624	1.6866013
30.40512004571115	2.8370442	1.6843528
30.423282779059463	2.791272	1.67071
30.441446295219233	2.7413	1.6556872
30.459610594748067	2.768274	1.6638131
30.47777567820382	2.797816	1.6726674
30.495941546144504	2.8275244	1.6815244
30.51410819912835	2.8404124	1.6853523
30.532275637713795	2.8358383	1.6839948
30.55044386245946	2.8130531	1.6772159
30.56861287392416	2.8053293	1.6749117
30.586782672666956	2.813365	1.6773088
30.604953259247047	2.8309937	1.6825557
30.623124634223885	2.8071988	1.6754698
30.641296798157075	2.7763016	1.6662238
30.659469751606462	2.7799144	1.6673075
30.677643495132074	2.761434	1.6617563
30.695818029294152	2.6636667	1.6320744
30.713993354653116	2.5539064	1.5980946
30.73216947176962	2.5666764	1.602085
30.75034638120448	2.639409	1.6246258
30.768524083518756	2.7573614	1.6605304
30.786702579273673	2.8241735	1.6805277
30.80488186903069	2.8206975	1.6794932
30.82306195335144	2.866997	1.6932209
30.841242832797782	3.0631142	1.7501755
30.85942450793176	3.3205423	1.8222356
30.877606979315637	3.5923765	1.8953565
30.895790247511883	3.922173	1.9804476
30.913974313083134	4.3344126	2.0819252
30.932159176592283	4.6688695	2.1607566
30.95034483860237	4.812523	2.1937463
30.968531299676698	4.578452	2.139732
30.98671856037873	4.2468123	2.0607796
31.00490662127215	3.8505738	1.9622879
31.023095482920848	3.4514802	1.857816
31.04128514588892	3.030154	1.7407337
31.059475610740662	2.6949694	1.6416363
31.07766687804056	2.4767	1.5737535
31.09585894835335	2.4644213	1.5698476
31.11405182224393	2.4899974	1.5779725
31.132245500277417	2.4540675	1.5665463
31.15043998301914	2.4319656	1.559476
31.168635271034628	2.4689476	1.5712886
31.18683136488964	2.4832077	1.5758197
31.20502826515008	2.4829087	1.5757248
31.223225972382135	2.4785113	1.5743289
31.241424487152155	2.446493	1.5641268
31.259623810026692	2.4825373	1.575607
31.27782394157253	2.489946	1.5779562
31.296024882356644	2.4142416	1.5537829
31.314226632946237	2.3955586	1.5477592
31.332429193908684	2.4229302	1.5565765
31.350632565811598	2.467728	1.5709003
31.368836749222787	2.4522789	1.5659753
31.387041744710295	2.4527662	1.566131
31.40524755284232	2.4730706	1.5726
31.423454174187317	2.4428346	1.562957
31.441661609313922	2.4361572	1.5608194
31.459869858791002	2.4055686	1.5509895
31.478078923187628	2.4229803	1.5565926
31.496288803073064	2.3588116	1.5358423
31.514499499016807	2.3572743	1.5353417
31.532711011588546	2.2964	1.5153878
31.550923341358178	2.2592208	1.5030705
31.56913648889584	2.2423885	1.4974607
31.587350454771844	2.27986	1.5099205
31.605565239556732	2.273026	1.5076557
31.62378084382127	2.2590663	1.5030191
31.641997268136382	2.2615016	1.503829
31.660214513073274	2.3168168	1.5221093
31.67843257920331	2.326969	1.5254406
31.6966514670981	2.3296733	1.5263268
31.71487117732944	2.3100858	1.5198966
31.733091710469346	2.306674	1.5187738
31.751313067090052	2.2827966	1.5108926
31.769535247764008	2.3311732	1.526818
31.787758253063878	2.338063	1.5290726
31.805982083562526	2.2992337	1.5163224
31.824206739833024	2.2845197	1.5114628
31.84243222244869	2.2536807	1.5012264
31.860658531983013	2.174668	1.4746755
31.878885669009737	2.1602874	1.4697917
31.897113634102784	2.179441	1.476293
31.91534242783632	2.1550548	1.4680105
31.933572050784694	2.136817	1.4617856
31.951802503522508	2.129754	1.4593678
31.970033786624548	2.110069	1.4526076
31.988265900665834	2.155943	1.468313
32.006498846221575	2.314888	1.5214756
32.02473262386724	2.3300908	1.5264635
32.04296723417845	2.2633014	1.5044273
32.0612026777311	2.2334723	1.4944806
32.07943895510129	2.2952974	1.515024
32.097676066865304	2.2867467	1.5121993
32.115914013599685	2.1761317	1.4751718
32.13415279588115	2.1863818	1.4786419
32.152392414286666	2.13509	1.4611948
32.1706328693934	2.0837157	1.4435081
32.18887416177875	2.0575986	1.4344332
32.20711629202032	2.1028566	1.450123
32.225359260695924	2.1082745	1.4519898
32.243603068383614	2.094551	1.4472564
32.26184771566166	2.0976698	1.4483335
32.28009320310852	2.1452906	1.464681
32.2983395313029	2.2011566	1.4836296
32.31658670082372	2.167312	1.4721793
32.33483471225012	2.1474903	1.4654318
32.35308356616143	2.155166	1.4680483
32.371333263137245	2.1730433	1.4741246
32.38958380375734	2.112449	1.4534266
32.407835188601744	2.0038464	1.4155728
32.42608741825067	1.9750928	1.4053799
32.444340493284585	1.9549484	1.3981947
32.46259441428416	2.005371	1.4161112
32.48084918183028	2.008865	1.4173443
32.49910479650405	1.9574307	1.3990821
32.51736125888683	1.9076946	1.3811932
32.53561856956014	1.9566833	1.3988149
32.5538767291058	1.9237645	1.3869984
32.572135738105764	1.9248507	1.3873899
32.59039559714228	1.9997457	1.4141237
32.608656306797776	2.027519	1.4239098
32.62691786765491	1.9782335	1.4064969
32.645180280296586	1.9894354	1.4104735
32.663443545305896	2.0066726	1.4165708
32.68170766326619	1.9564719	1.3987395
32.69997263476099	1.9450461	1.394649
32.7182384603741	1.9729085	1.4046026
32.7365051406895	2.014252	1.4192435
32.75477267629144	1.9912007	1.4110991
32.77304106776434	2.0545564	1.4333724
32.79131031569289	2.1613894	1.4701664
32.809580420661966	2.0654743	1.4371758
32.827851383256714	1.9327261	1.3902252
32.84612320406245	1.954331	1.3979739
32.86439588366476	2.0485842	1.4312876
32.88266942264945	2.018009	1.4205664
32.9009438216025	1.9615309	1.4005467
32.9192190811102	1.9648025	1.4017141
32.937495201758985	1.9854649	1.4090652
32.95577218413556	1.9374609	1.391927
32.974050028826866	1.9983712	1.4136376
32.992328736420035	1.9862041	1.4093275
33.010608307502444	1.9115752	1.3825972
33.02888874266169	1.9915549	1.4112246
33.047170042485604	1.9798763	1.4070808
33.06545220756225	1.9512641	1.3968766
33.083735238479896	2.006846	1.4166319
33.10201913582707	2.0283644	1.4242066
33.12030390019248	1.9370123	1.391766
33.138589532165135	1.9004064	1.3785523
33.15687603233419	1.8406913	1.3567208
33.17516340128909	1.8582798	1.3631874
33.19345163961947	1.9264376	1.3879616
33.211740747915215	1.962376	1.4008483
33.23003072676643	1.9187878	1.3852031
33.248321576763466	1.8102607	1.3454592
33.266613298496885	1.8095561	1.3451974
33.28490589255747	1.8979427	1.3776584
33.30319935953626	1.9511865	1.3968488
33.32149370002451	1.9408021	1.3931267
33.339788914613706	1.9295123	1.3890688
33.358085003895575	1.9445014	1.3944538
33.376381968462034	1.8455758	1.3585197
33.39467980890529	1.8197799	1.3489922
33.41297852581774	1.8430711	1.3575976
33.43127811979204	1.896062	1.3769757
33.44957859142105	1.8731751	1.36864
33.467879941297866	1.9330096	1.3903272
33.486182170015844	1.9143679	1.3836068
33.50448527816853	1.9077842	1.3812256
33.522789266349754	1.8767463	1.3699439
33.541094135153514	1.9357117	1.3912985
33.55939988517411	1.9340762	1.3907107
33.57770651700602	1.9223068	1.3864728
33.59601403124398	1.8511696	1.360577
33.61432242848296	1.92964	1.3891149
33.632631709318154	2.0116324	1.4183203
33.650941874344994	2.0035768	1.4154775
33.66925292415916	1.9224064	1.3865087
33.68756485935654	1.9510195	1.396789
33.70587768053328	1.9511906	1.3968502
33.724191388285746	1.8883997	1.3741906
33.74250598321054	1.8516992	1.3607715
33.760821465904506	1.8576665	1.3629624
33.77913783696474	1.8242805	1.3506593
33.79745509698852	1.9289861	1.3888794
33.815773246573414	2.059036	1.4349341
33.8340922863172	1.9874378	1.4097651
33.852412216817896	1.9550737	1.3982395
33.87073303867377	1.864825	1.3655859
33.889054752483304	1.873289	1.3686814
33.907377358845245	1.9457005	1.3948838
33.92570085835853	2.0385902	1.4277921
33.94402525162239	1.9959948	1.4127969
33.96235053923627	2.0466437	1.4306096
33.980676721799824	2.0303001	1.424886
33.999003799912984	2.0016801	1.4148074
34.01733177417592	1.9098864	1.3819864
34.03566064518901	1.8750217	1.3693143
34.0539904135529	1.9762509	1.4057919
34.07232107986846	1.9999503	1.414196
34.090652644736785	2.0114684	1.4182625
34.108985108759235	2.0283234	1.4241922
34.12731847253742	2.003831	1.4155674
34.14565273667313	1.9162675	1.3842932
34.16398790176847	1.9140038	1.3834753
34.18232396842574	1.8989449	1.3780221
34.20066093724749	1.9457612	1.3949054
34.21899880883651	2.1157799	1.4545721
34.23733758379583	2.1102166	1.4526584
34.25567726272874	1.9704417	1.4037242
34.27401784623872	1.9904468	1.4108319
34.29235933492957	1.9566054	1.3987871
34.31070172940526	1.8474087	1.3591942
34.32904503027003	1.7856272	1.3362737
34.347389238128386	1.8418142	1.3571346
34.36573435358502	1.9299555	1.3892283
34.38408037724492	1.7871228	1.3368331
34.402427309713296	1.7820654	1.3349402
34.42077515159559	1.8029994	1.3427582
34.43912390349752	1.9729605	1.4046211
34.45747356602499	2.1069245	1.4515249
34.47582413978423	2.072001	1.4394447
34.49417562538163	1.9975677	1.4133533
34.51252802342388	1.8855964	1.3731703
34.53088133451789	1.859283	1.3635553
34.54923555927084	1.996388	1.412936
34.567590698290104	1.9849076	1.4088675
34.58594675218336	1.987252	1.4096992
34.6043037215585	1.9606569	1.4002346
34.62266160702365	1.8661004	1.3660529
34.641020409187234	2.0576694	1.4344579
34.65938012865785	2.175739	1.4750386
34.677740766044394	1.958642	1.3995149
34.69610232195598	1.8380976	1.3557646
34.714464797002016	2.0216818	1.4218585
34.73282819179208	2.1210735	1.4563906
34.751192506936064	2.1340451	1.4608371
34.76955774304408	2.1253831	1.4578694
34.7879239007265	2.074424	1.440286
34.80629098059391	1.951924	1.3971127
34.824658983257194	2.0046115	1.415843
34.843027909327446	2.196158	1.481944
34.86139775941603	2.1855738	1.4783686
34.879768534134534	2.01118	1.4181608
34.89814023409483	1.8845109	1.3727748
34.91651285990901	1.8608295	1.3641223
34.93488641218944	1.9233977	1.3868661
34.95326089154871	1.8502394	1.3602351
34.97163629859967	1.8890587	1.3744303
34.99001263395542	2.0004458	1.4143711
35.00838989822934	1.9474418	1.3955077
35.02676809203499	1.7331288	1.3164835
35.04514721598624	1.7734696	1.3317168
35.063527270697215	1.9551355	1.3982615
35.081908256782256	1.9717851	1.4042027
35.10029017485597	1.6789739	1.2957523
35.11867302553321	1.6410288	1.2810265
35.137056809429104	1.7988613	1.3412163
35.155441527159006	1.7810237	1.33455
35.173827179338524	1.7147838	1.3094975
35.19221376658354	1.8670381	1.3663961
35.21060128951017	2.0187054	1.4208115
35.2289897487348	1.9105057	1.3822104
35.24737914487405	1.9148265	1.3837726
35.26576947854479	1.9760109	1.4057065
35.28416075036418	2.036367	1.4270133
35.30255296094958	1.9943157	1.4122025
35.32094611091867	1.923341	1.3868457
35.33934020088932	2.0684843	1.4382226
35.35773523147969	2.459847	1.5683899
35.3761312033082	2.6615694	1.6314317
35.394528116993506	2.6687562	1.6336328
35.41292597315452	2.2245724	1.4915
35.431324772410434	2.1689413	1.4727325
35.449724515380666	2.4035318	1.5503328
35.46812520268491	2.5349057	1.5921388
35.486526834943106	2.4957733	1.5798017
35.504929412775454	2.4480472	1.5646236
35.52333293680242	2.1467266	1.4651712
35.54173740764471	1.8317088	1.3534063
35.560142825923286	2.0377076	1.427483
35.5785491922594	2.2201753	1.4900253
35.59695650727454	1.879642	1.3710004
35.61536477159042	1.3047297	1.1422477
