0.008763373481513119	0.3822274	0.6182454
0.026290120649546365	0.19633481	0.44309685
0.043816868432600686	0.13175425	0.36297968
0.06134361724069026	0.015320444	0.12377578
0.07887036748382949	0.046105098	0.21472098
0.0963971195720331	0.05331249	0.23089498
0.11392387391531617	0.09077582	0.30129024
0.1314506309236943	0.22861019	0.47813198
0.1489773910071836	0.30991346	0.55669874
0.16650415457580078	0.33334693	0.57736206
0.18403092203956356	0.22648388	0.4759032
0.20155769380849	0.12594593	0.35488862
0.2190844702925996	0.0696146	0.26384577
0.2366112519019124	0.065181606	0.2553069
0.2541380390464497	0.13004023	0.3606109
0.27166483213623416	0.116522774	0.3413543
0.28919163158128947	0.15217596	0.39009738
0.3067184377916406	0.13378525	0.36576664
0.324245251177314	0.15579961	0.3947146
0.34177207214833777	0.20394593	0.45160374
0.3592989011147415	0.2243515	0.47365758
0.37682573848655654	0.19917265	0.44628763
0.39435258467381573	0.13514619	0.36762235
0.41187944008655414	0.09027693	0.3004612
0.42940630513480854	0.099852055	0.31599376
0.446933180228618	0.113536865	0.33695233
0.4644600657780234	0.13641316	0.36934152
0.48198696219306775	0.129355	0.35965955
0.49951386988379676	0.13128315	0.36233017
0.5170407892602581	0.15283719	0.39094397
0.5345677207325025	0.16802993	0.40991455
0.5520946647105822	0.16238989	0.40297627
0.5696216216045534	0.17081355	0.41329595
0.5871485918244737	0.18707775	0.43252486
0.6046755757804043	0.209354	0.4575522
0.6222025738824094	0.20790817	0.45596948
0.6397295865405557	0.18285863	0.42761973
0.6572566141649129	0.1641566	0.40516242
0.6747836571655547	0.13894707	0.37275603
0.6923107159525568	0.13417587	0.36630026
0.7098377909359992	0.12329288	0.35113084
0.7273648825259653	0.13608861	0.3689019
0.7448919911325411	0.13155653	0.36270723
0.762419117165817	0.12895015	0.3590963
0.7799462610358868	0.14288421	0.3780003
0.7974734231528482	0.16316357	0.4039351
0.8150006039268024	0.17335601	0.41636044
0.8325278037678551	0.17184806	0.4145456
0.8500550230861152	0.16685982	0.4084848
0.8675822622916969	0.17047781	0.41288957
0.8851095217947171	0.18823938	0.43386564
0.9026368020052984	0.19220293	0.43840954
0.9201641033335665	0.19568934	0.44236788
0.9376914261896523	0.20017932	0.44741404
0.9552187709836915	0.21303426	0.46155635
0.9727461381258234	0.24795358	0.49794936
0.990273528026193	0.27966172	0.5288305
1.0078009410949496	0.29989573	0.5476274
1.0253283777422473	0.2653806	0.515151
1.0428558383782454	0.23760551	0.48744795
1.0603833234131086	0.23457795	0.48433247
1.0779108332570058	0.26088053	0.51076466
1.0954383683201119	0.3130079	0.5594711
1.112965929012607	0.3730673	0.61079234
1.1304935157446763	0.5355469	0.7318107
1.1480211289265108	0.634253	0.79640007
1.1655487689683062	1.3554806	1.1642511
1.1830764362802655	1.6269972	1.275538
1.200604131272596	2.0103316	1.4178616
1.2181318543555117	2.4043434	1.5505946
1.235659605939232	2.4755712	1.5733948
1.253187386433982	3.9857154	1.9964256
1.270715196249994	6.2700114	2.503999
1.2882430357975057	11.658732	3.4144886
1.3057709054867608	16.439646	4.054583
1.3232988057280106	22.246344	4.716603
1.3408267369315112	27.133211	5.208955
1.358354699507526	30.812515	5.5509024
1.3758826938663256	34.662785	5.887511
1.3934107204181858	36.694378	6.0575886
1.410938779573391	37.073795	6.088825
1.4284668717422309	37.805294	6.148601
1.4459949973350033	36.914352	6.0757184
1.4635231567620117	37.23294	6.10188
1.4810513504335687	36.75644	6.062709
1.4985795787599925	36.24065	6.020021
1.5161078421516088	35.508484	5.9588995
1.5336361410187505	34.748096	5.8947515
1.5511644757717598	35.310783	5.942288
1.5686928468209842	36.45985	6.0381994
1.58622125457678	36.78019	6.064667
1.6037496994495108	37.484848	6.122487
1.621278181849548	36.833866	6.069091
1.6388067021872719	37.66028	6.136797
1.6563352608730693	37.169304	6.0966635
1.673863858317336	36.37767	6.03139
1.6913924949304753	35.55159	5.9625154
1.7089211711228998	34.710255	5.891541
1.7264498873050296	34.350975	5.8609705
1.7439786438872935	33.465412	5.7849298
1.7615074412801288	32.47598	5.69877
1.779036279893981	31.525661	5.614772
1.796565160139305	30.356602	5.5096827
1.814094082426564	29.63777	5.4440584
1.8316230471662298	28.723389	5.359421
1.849152054768784	27.716185	5.2646165
1.8666811056447168	27.07247	5.203121
1.8842102002045273	26.23702	5.1222086
1.901739338858724	25.979465	5.0970054
1.9192685220178245	25.4959	5.0493464
1.9367977500923557	25.13056	5.013039
1.9543270234928547	24.755295	4.975469
1.971856342629867	24.249475	4.9243755
1.9893857079139496	23.325296	4.829627
2.006915119755667	22.646795	4.758865
2.0244445785655945	21.93777	4.6837773
2.0419740847543175	21.441729	4.6305213
2.0595036387324317	20.750694	4.555293
2.0770332409105414	20.181553	4.4923882
2.094562891699263	20.248144	4.499794
2.1120925915092217	19.980433	4.469948
2.129622340751053	19.85887	4.4563293
2.1471521398354043	187.87383	13.706707
2.1646819891729323	444.3179	21.07885
2.182211889174303	440.57166	20.9898
2.1997418402501974	452.94794	21.282574
2.2172718428113023	432.83707	20.804737
2.234801897268317	320.58777	17.904964
2.2523320040319548	17.062891	4.1307254
2.269862163512935	16.689407	4.085267
2.287392376121992	16.446552	4.0554347
2.304922642269869	16.103933	4.0129704
2.322452962367322	15.895313	3.9868927
2.3399833368251164	15.610528	3.9510162
2.357513766054032	15.445133	3.9300296
2.3750442504648586	15.097254	3.8855186
2.3925747904683963	14.769661	3.8431315
2.410105386475459	14.441638	3.8002155
2.4276360388968707	14.159856	3.7629583
2.445166748143469	13.991832	3.7405658
2.4626975146261025	13.698941	3.701208
2.4802283387556323	13.427489	3.6643538
2.4977592209429305	13.330769	3.6511326
2.5152901615988825	13.238267	3.638443
2.5328211611343865	13.165698	3.6284566
2.5503522199603523	12.88799	3.5899847
2.5678833384877024	12.660905	3.5582166
2.5854145171273712	12.435553	3.526408
2.6029457562903064	12.163207	3.4875789
2.620477056387469	11.86697	3.4448469
2.6380084178298326	11.616697	3.4083276
2.655539841028383	11.386518	3.3743913
2.673071326394119	11.226776	3.3506382
2.6906028743380523	11.010854	3.3182607
2.708134485271211	10.926363	3.305505
2.7256661596046325	10.802096	3.2866542
2.743197897749369	10.735597	3.276522
2.760729700116486	10.725806	3.2750278
2.778261567117063	10.538951	3.246375
2.795793499162193	10.352818	3.2175794
2.8133254966629817	10.155773	3.1868124
2.830857560030551	9.98708	3.1602342
2.8483896896760337	9.85504	3.1392736
2.865921886010578	9.689172	3.1127434
2.883454149445347	9.455161	3.0749245
2.9009864803915177	9.310204	3.0512626
2.91851887926028	9.128465	3.021335
2.9360513464628384	9.176189	3.0292225
2.953583882410413	9.106375	3.017677
2.9711164875142373	9.026079	3.0043433
2.9886491621855606	8.858959	2.9764004
3.0061819068356455	8.691947	2.9482107
3.023714721875769	8.548322	2.9237514
3.041247607717225	8.47705	2.9115374
3.0587805647713213	8.422611	2.9021735
3.0763135934493806	8.266931	2.875227
3.0938466941627407	8.163715	2.8572216
3.1113798673227544	8.052636	2.8377168
3.1289131133407904	7.9834104	2.8254929
3.1464464326282315	7.958208	2.8210297
3.1639798255964786	7.785871	2.7903173
3.1815132926569443	7.7254753	2.779474
3.1990468342210603	7.6952763	2.7740362
3.216580450700272	7.6609797	2.7678475
3.2341141425060416	7.60052	2.7569041
3.251647910049847	7.4452925	2.7286062
3.2691817537431813	7.292368	2.7004385
3.286715673997555	7.2518067	2.6929178
3.3042496712244938	7.1418166	2.6724176
3.32178374583554	7.1091313	2.6662955
3.339317898242251	7.0392685	2.653162
3.3568521288562034	6.9121165	2.6290905
3.3743864380889876	6.752328	2.598524
3.3919208263522127	6.6573124	2.5801768
3.4094552940575023	6.6136904	2.5717096
3.4269898416164972	6.6209254	2.5731158
3.444524469440858	6.554536	2.5601828
3.4620591779422587	6.555952	2.5604594
3.479593967532391	6.5283217	2.555058
3.4971288386229658	6.5291953	2.555229
3.5146637916257086	6.5442276	2.558169
3.5321988269523628	6.4467034	2.539036
3.5497339450146903	6.362175	2.5223353
3.5672691462244708	6.264394	2.502877
3.5848044309934988	6.236155	2.4972296
3.60233979973359	6.225641	2.4951234
3.619875252856575	6.309227	2.5118175
3.6374107907743034	6.364442	2.5227845
3.6549464138986427	6.384855	2.526827
3.6724821226414788	6.341986	2.51833
3.690017917414714	6.336126	2.5171661
3.7075537986302702	6.4131336	2.5324166
3.7250897667000857	6.5200415	2.5534372
3.7426258220361235	6.5248866	2.5543857
3.7601619650503553	6.782067	2.6042402
3.777698196154779	7.30883	2.7034848
3.7952345157614067	8.509197	2.9170527
3.8127709242822716	9.341409	3.056372
3.830307422129425	11.7206745	3.423547
3.847844009714936	30.507145	5.5233274
3.8653806874508954	97.98712	9.898845
3.882917455749409	97.144196	9.856175
3.900454315022606	96.959175	9.846785
3.917991265682631	41.437763	6.437217
3.9355283081416506	11.046138	3.323573
3.9530654428118495	8.728498	2.9544032
3.970602670105433	7.409664	2.7220697
3.9881399904346244	6.6287274	2.5746315
4.005677404211669	6.546405	2.5585942
4.023214911848827	6.4724746	2.5441058
4.0407525137583855	6.3915873	2.528159
4.058290210352644	6.341766	2.5182862
4.075828002043927	6.314733	2.5129132
4.0933658892445814	6.3012505	2.510229
4.110903872366966	6.3710093	2.5240858
4.128441951823468	6.3343587	2.5168152
4.145980128026488	6.1941543	2.4888058
4.163518401388452	6.1545777	2.480842
4.181056772321807	6.155663	2.481061
4.1985952412390155	6.184409	2.4868472
4.216133808552567	6.1771555	2.4853885
4.233672474674966	6.119193	2.4737003
4.251211240018741	6.3028755	2.510553
4.268750104996445	6.461707	2.5419888
4.286289070020643	7.362141	2.7133267
4.303828135503928	9.116117	3.0192907
4.3213673018589125	29.394928	5.421709
4.3389065694982305	90.67323	9.522249
4.356445938834537	165.89299	12.879945
4.3739854102805085	171.16493	13.083002
4.391524984248844	172.00127	13.114925
4.409064661152262	136.0085	11.662269
4.426604441403504	96.33896	9.815241
4.444144325415337	75.5132	8.689833
4.461684313600543	21.73739	4.6623373
4.47922440637193	22.356411	4.7282567
4.496764604142329	20.887892	4.5703273
4.5143049073245916	19.018963	4.3610735
4.531845316331589	16.705238	4.0872045
4.5493858315762195	13.555172	3.6817348
4.566926453471405	11.227169	3.3506968
4.584467182430081	9.095182	3.015822
4.602008018865218	8.029478	2.8336334
4.619548963189798	7.3202033	2.7055874
4.637090015816834	6.8861775	2.6241527
4.654631177159353	6.642476	2.5773
4.672172447630417	6.399173	2.5296586
4.689713827643102	6.326805	2.515314
4.7072553176105085	6.0971003	2.4692307
4.724796917945764	5.983027	2.4460227
4.742338629062015	5.9050217	2.430025
4.759880451372434	5.84823	2.4183114
4.777422385290215	5.780804	2.4043303
4.794964431228581	5.7174573	2.3911204
4.812506589600768	5.6572537	2.3784983
4.830048860820047	5.6384172	2.374535
4.847591245299709	5.6968026	2.3867977
4.8651337434530655	5.6901817	2.38541
4.882676355693457	5.6739817	2.3820121
4.900219082434242	5.6378894	2.374424
4.917761924088813	5.5690246	2.359878
4.935304881070575	5.4938445	2.3438952
4.952847953792969	5.4617925	2.3370478
4.970391142669449	5.4412255	2.3326435
4.9879344481135055	5.4722404	2.339282
5.005477870538642	5.467562	2.3382819
5.023021410358394	5.4655766	2.3378572
5.040565067986324	5.451651	2.334877
5.05810884383601	5.3799434	2.3194704
5.075652738321066	5.36392	2.3160138
5.09319675185512	5.356257	2.314359
5.110740884851836	5.378094	2.3190718
5.128285137724894	5.41733	2.3275158
5.145829510888007	5.429276	2.3300807
5.163374004754908	5.4017873	2.3241746
5.1809186197393595	5.300272	2.302232
5.198463356255145	5.279574	2.2977324
5.216008214716077	5.243911	2.2899587
5.233553195535998	5.233539	2.287693
5.251098299128764	5.2794657	2.2977087
5.268643525908272	5.2787848	2.2975607
5.286188876288432	5.2533727	2.2920237
5.3037343506831895	5.244267	2.2900364
5.32127994950651	5.238703	2.2888212
5.3388256731723915	5.2854643	2.2990139
5.356371522094851	5.2583036	2.2930992
5.373917496687938	5.2347083	2.2879486
5.391463597365729	5.2155447	2.2837567
5.40900982454232	5.188982	2.2779336
5.426556178631843	5.1518016	2.269758
5.444102660048449	5.1118817	2.260947
5.4616492692063225	5.097546	2.2577746
5.479196006519669	5.161984	2.272
5.496742872402727	5.219083	2.284531
5.514289867269756	5.2670565	2.2950068
5.531836991535049	5.2761374	2.2969844
5.549384245612924	5.232016	2.28736
5.566931629917724	5.228099	2.2865036
5.584479144863822	5.1776257	2.2754397
5.6020267908656205	5.1848993	2.2770374
5.619574568337545	5.2248774	2.285799
5.637122477694054	5.1868753	2.2774713
5.654670519349629	5.100237	2.2583704
5.672218693718784	5.1140027	2.2614162
5.689767001216059	5.1564584	2.2707837
5.707315442256021	5.179999	2.2759612
5.724864017253266	5.1669292	2.273088
5.7424127266224225	5.1419406	2.2675848
5.75996157077814	5.093556	2.2568908
5.777510550135105	5.1101055	2.2605543
5.795059665108022	5.11549	2.261745
5.812608916111639	5.189624	2.2780745
5.830158303560715	5.376803	2.3187935
5.847707827870055	5.4291964	2.3300636
5.86525748945448	5.532549	2.352137
5.8828072887288485	5.6340327	2.3736117
5.900357226108044	5.7421827	2.3962853
5.917907302006979	5.852463	2.4191864
5.9354575168406	6.4362035	2.5369673
5.9530078710238765	7.029319	2.6512864
5.970558364971812	7.5706196	2.7514758
5.988108999099438	7.988806	2.8264475
6.005659773821818	8.532371	2.9210222
6.023210689554039	8.196549	2.8629618
6.040761746711227	8.592515	2.9312992
6.058312945708531	7.844744	2.800847
6.075864286961132	7.4280815	2.7254508
6.093415770884244	6.721844	2.5926518
6.1109673978931065	6.127637	2.4754064
6.128519168402993	5.4813194	2.3412218
6.146071082829204	5.328658	2.3083887
6.163623141587075	5.310907	2.3045404
6.181175345091969	5.2545547	2.2922816
6.198727693759281	5.1930633	2.2788293
6.216280188004435	5.2152615	2.2836947
6.233832828242885	5.2120433	2.28299
6.251385614890126	5.25933	2.2933228
6.268938548361669	5.169175	2.273582
6.286491629073067	5.0596366	2.2493637
6.304044857439898	5.0032415	2.2367928
6.321598233877777	4.976365	2.2307768
6.339151758802344	4.9847255	2.2326498
6.356705432629277	4.9888444	2.233572
6.37425925577428	4.997642	2.2355406
6.391813228653095	5.0505548	2.247344
6.409367351681486	5.0890822	2.2558994
6.426921625275259	5.088682	2.2558107
6.44447604985025	5.1034913	2.259091
6.46203062582232	5.051844	2.2476308
6.47958535360737	5.029546	2.2426648
6.497140233621328	5.0593786	2.2493062
6.514695266280161	5.1082964	2.260154
6.532250451999859	5.123494	2.2635136
6.549805791196454	5.0483613	2.246856
6.567361284286002	4.9997187	2.236005
6.584916931684597	5.008853	2.2380466
6.602472733808367	5.06195	2.249878
6.6200286910734665	5.060781	2.249618
6.637584803896092	5.112377	2.2610567
6.655141072692462	5.0962734	2.2574928
6.672697497878842	5.0829234	2.254534
6.690254079871514	4.993839	2.23469
6.707810819086808	4.94017	2.2226493
6.725367715941078	4.916934	2.217416
6.742924770850719	4.919336	2.2179575
6.760481984232151	4.984849	2.2326775
6.778039356501836	5.023983	2.2414243
6.795596888076266	5.0305953	2.242899
6.813154579371963	4.9722476	2.2298536
6.830712430805492	4.947223	2.2242355
6.84827044279344	4.9450197	2.22374
6.865828615752445	5.0012093	2.2363384
6.883386950099159	4.962919	2.227761
6.900945446250287	5.0104284	2.2383986
6.918504104622553	5.022638	2.2411242
6.936062925632727	5.0365715	2.2442307
6.953621909697607	5.030629	2.2429063
6.971181057234028	5.049213	2.2470453
6.988740368658859	5.146917	2.2686818
7.006299844389007	5.2220078	2.2851713
7.023859484841407	5.3169327	2.3058474
7.041419290433036	5.3714523	2.3176394
7.058979261580902	5.4929676	2.343708
7.0765393987020495	5.679744	2.3832214
7.094099702213559	6.019956	2.4535599
7.111660172532549	6.373697	2.5246181
7.129220810076164	6.683634	2.5852726
7.146781615261595	7.239315	2.6905975
7.16434258850606	7.5729737	2.7519038
7.181903730226821	8.01264	2.8306606
7.1994650408411704	8.159378	2.8564625
7.217026520766437	8.246678	2.8717031
7.234588170419983	8.481567	2.912313
7.252149990219215	8.491798	2.914069
7.269711980581568	8.391773	2.8968558
7.2872741419245175	8.224299	2.867804
7.304836474665574	7.8107862	2.7947783
7.322398979222286	7.4359484	2.7268934
7.339961656012233	7.134626	2.671072
7.357524505453039	6.7578354	2.5995836
7.375087527962357	6.5313187	2.5556445
7.392650723957886	6.3198414	2.5139294
7.410214093857353	6.0407486	2.4577935
7.427777638078528	5.8428392	2.4171965
7.445341357039213	5.5890684	2.364121
7.4629052511572525	5.4219103	2.3284996
7.480469320850524	5.3624153	2.3156888
7.498033566536948	5.343508	2.3116028
7.5155979886344735	5.30251	2.302718
7.5331625875610975	5.2912474	2.300271
7.550727363734844	5.3011594	2.3024247
7.568292317573788	5.2842727	2.2987547
7.585857449496025	5.2243323	2.2856798
7.603422759919705	5.178338	2.2755961
7.620988249263007	5.162691	2.2721555
7.638553917944147	5.177683	2.2754521
7.656119766381391	5.191711	2.2785327
7.673685794993023	5.2123084	2.2830482
7.691252004197388	5.2542763	2.2922208
7.70881839441285	5.257851	2.2930005
7.726384966057826	5.2794046	2.2976954
7.743951719550762	5.2577868	2.2929864
7.761518655310149	5.2686324	2.29535
7.779085773754511	5.279462	2.297708
7.796653075302419	5.32588	2.307787
7.814220560372475	5.3632603	2.3158715
7.831788229383323	5.3383346	2.3104837
7.8493560827536495	5.3790736	2.319283
7.866924120902174	5.4259615	2.3293693
7.884492344247663	5.4254193	2.329253
7.9020607532089135	5.404638	2.3247876
7.919629348204771	5.386957	2.320982
7.937198129654115	5.3680806	2.316912
7.954767097975865	5.456334	2.3358798
7.972336253588986	5.4858966	2.342199
7.989905596912472	5.486424	2.3423116
8.007475128365371	5.5090117	2.3471284
8.025044848366756	5.4933715	2.3437943
8.042614757335754	5.5675926	2.3595746
8.060184855691523	5.641895	2.3752673
8.07775514385327	5.753962	2.3987417
8.095325622240228	5.819281	2.4123187
8.112896291271687	5.8638372	2.4215362
8.130467151366968	5.8997855	2.4289474
8.148038202945436	5.925446	2.434224
8.165609446426497	5.921349	2.4333823
8.183180882229594	5.9664674	2.4426353
8.200752510774217	5.939062	2.437019
8.218324332479893	5.9543986	2.4401636
8.235896347766193	5.930582	2.4352787
8.253468557052724	5.8988442	2.4287536
8.27104096075914	5.955117	2.440311
8.288613559305137	6.077665	2.465292
8.306186353110448	6.1829724	2.4865584
8.32375934259485	6.2890534	2.5077984
8.341332528178162	6.2841887	2.5068283
8.358905910280246	6.2887554	2.507739
8.376479489321003	6.153628	2.4806507
8.394053265720377	6.153965	2.4807186
8.411627239898356	6.1585455	2.4816418
8.42920141227497	6.2474813	2.4994962
8.44677578327029	6.2198505	2.4939628
8.464350353304427	6.180265	2.486014
8.48192512279754	6.1144147	2.4727342
8.499500092169827	6.1431627	2.4785404
8.51707526184153	6.1685753	2.4836617
8.534650632232934	6.179404	2.4858406
8.552226203764365	6.172825	2.484517
8.569801976856192	6.1486855	2.4796543
8.587377951928834	6.0974684	2.4693053
8.60495412940274	6.081901	2.466151
8.622530509698416	6.0857925	2.46694
8.6401070932364	6.284778	2.506946
8.657683880437283	6.4647746	2.542592
8.675260871721695	6.688756	2.586263
8.692838067510303	6.832339	2.6138742
8.710415468223834	6.940524	2.6344874
8.727993074283043	7.0990515	2.6644046
8.745570886108737	7.129827	2.6701736
8.763148904121765	7.225227	2.6879783
8.78072712874302	7.279017	2.6979654
8.798305560393441	7.521587	2.742551
8.815884199494006	7.619685	2.7603776
8.833463046465745	7.7535305	2.784516
8.851042101729728	7.840546	2.8000975
8.86862136570707	8.161416	2.8568192
8.886200838818924	8.280814	2.8776405
8.903780521486505	8.323328	2.8850179
8.921360414131055	8.437318	2.9047062
8.938940517173874	8.588681	2.9306452
8.956520831036297	8.8050165	2.9673247
8.97410135613971	9.026986	3.0044944
8.99168209290554	9.204959	3.0339675
9.009263041755265	9.485514	3.0798562
9.026844203110405	9.762699	3.1245317
9.044425577392525	9.8853655	3.1441002
9.062007165023239	9.919438	3.149514
9.079588966424197	10.158838	3.1872933
9.097170982017108	10.332288	3.2143877
9.11475321222372	11.518561	3.3939006
9.132335657465825	12.491405	3.5343182
9.149918318165264	12.562645	3.544382
9.167501194743924	13.154398	3.6268992
9.18508428762374	12.817841	3.5802011
9.202667597226693	12.826412	3.581398
9.220251123974803	12.519747	3.5383253
9.237834868290143	12.143109	3.4846964
9.255418830594836	12.000772	3.4642131
9.273003011311046	11.426523	3.380314
9.290587410860985	11.198155	3.3463645
9.308172029666911	10.533078	3.2454705
9.32575686815113	10.219382	3.1967769
9.343341926735997	8.883995	2.9806032
9.360927205843916	8.592508	2.931298
9.378512705897327	8.300883	2.8811255
9.396098427318728	8.050367	2.837317
9.413684370530664	7.8990793	2.8105302
9.431270535955722	7.850356	2.8018486
9.448856924016539	7.8324394	2.7986495
9.466443535135806	7.76157	2.7859595
9.484030369736251	7.7295575	2.780208
9.501617428240658	7.6899633	2.7730782
9.519204711071852	7.6765656	2.7706616
9.536792218652714	7.7058096	2.775934
9.55437995140617	7.788957	2.7908704
9.571967909755191	7.8335066	2.7988403
9.589556094122802	7.871616	2.80564
9.60714450493207	7.890705	2.8090398
9.624733142606116	7.916969	2.813711
9.642322007568108	7.9384155	2.8175194
9.659911100241267	7.9912667	2.8268828
9.677500421048851	7.9916916	2.826958
9.695089970414175	8.045639	2.8364835
9.712679748760609	8.084078	2.8432512
9.730269756511557	8.15812	2.8562424
9.747859994090492	8.198868	2.8633666
9.765450461920915	8.245961	2.8715782
9.78304116042639	8.257285	2.8735492
9.800632090030527	8.235717	2.869794
9.81822325115699	8.226192	2.868134
9.835814644229481	8.283579	2.8781207
9.853406269671762	8.320015	2.8844435
9.870998127907646	8.313922	2.8833873
9.888590219360985	8.246257	2.8716297
9.906182544455698	8.250718	2.8724062
9.923775103615734	8.242395	2.8709571
9.941367897265108	8.311075	2.8828936
9.958960925827878	8.347569	2.889216
9.97655418972816	8.308697	2.882481
9.994147689390106	8.345577	2.8888712
10.011741425237934	8.315788	2.8837109
10.029335397695904	8.351594	2.8899124
10.04692960718833	8.300183	2.8810039
10.06452405413958	8.288004	2.8788893
10.082118738974064	8.235398	2.8697383
10.099713662116246	8.266296	2.8751168
10.117308823990651	8.272215	2.8761458
10.134904225021844	8.384947	2.8956773
10.152499865634445	8.371416	2.8933399
10.170095746253125	8.33547	2.8871214
10.18769186730261	8.2641945	2.874751
10.205288229207675	8.234306	2.869548
10.222884832393145	8.168913	2.858131
10.2404816772839	8.163857	2.8572464
10.258078764304868	8.078506	2.8422713
10.275676093881035	8.086872	2.8437426
10.293273666437438	8.027164	2.833225
10.310871482399158	8.100082	2.8460643
10.32846954219134	8.134217	2.8520548
10.346067846239173	8.229722	2.8687491
10.363666394967908	8.226175	2.868131
10.38126518880283	8.189798	2.8617823
10.398864228169298	8.231588	2.8690746
10.416463513492713	8.252327	2.8726864
10.434063045198531	8.196598	2.86297
10.451662823712262	8.183219	2.8606327
10.469262849459467	8.146501	2.8542075
10.486863122865758	8.193905	2.8624997
10.504463644356806	8.173354	2.858908
10.522064414358338	8.036565	2.8348835
10.539665433296118	7.858832	2.8033607
10.557266701595987	7.7435412	2.782722
10.574868219683818	7.720926	2.7786553
10.592469987985552	7.6369734	2.7635074
10.610072006927185	7.554281	2.7485054
10.627674276934751	7.3899837	2.7184525
10.64527679843435	7.2925887	2.7004793
10.662879571852143	7.25151	2.6928627
10.680482597614331	7.134481	2.6710448
10.698085876147173	7.0600586	2.657077
10.715689407876988	6.917146	2.6300468
10.733293193230146	6.883124	2.623571
10.750897232633072	6.8585405	2.6188815
10.76850152651225	6.8940053	2.6256437
10.786106075294207	6.7516856	2.5984006
10.803710879405534	6.636727	2.5761845
10.821315939272877	6.469075	2.5434377
10.83892125532294	6.3876677	2.5273836
10.856526827982472	6.35013	2.5199463
10.874132657678285	6.2928514	2.5085557
10.891738744837243	6.2102566	2.4920387
10.909345089886271	6.1127524	2.472398
10.926951693252343	6.090284	2.46785
10.944558555362494	6.054666	2.460623
10.96216567664381	6.035954	2.4568179
10.979773057523436	6.006014	2.450717
10.997380698428573	5.9392977	2.4370675
11.014988599786477	5.8526754	2.4192302
11.032596762024461	5.7435927	2.3965793
11.050205185569892	5.6629086	2.3796866
11.067813870850198	5.5720935	2.3605282
11.085422818292859	5.558019	2.3575451
11.10303202832541	5.4961023	2.3443768
11.120641501375454	5.4571285	2.3360498
11.138251237870636	5.3738647	2.3181598
11.155861238238671	5.2699037	2.295627
11.173471502907317	5.229902	2.286898
11.191082032304402	5.166406	2.272973
11.208692826857805	5.1506677	2.2695084
11.226303886995465	5.113679	2.2613444
11.243915213145371	5.0686173	2.251359
11.261526805735578	4.9991555	2.2358792
11.279138665194196	4.911054	2.2160897
11.296750791949393	4.813733	2.1940222
11.314363186429393	4.7431026	2.1778665
11.331975849062479	4.7222943	2.173084
11.34958878027699	4.660221	2.1587546
11.36720198050133	4.6078563	2.1465917
11.384815450163948	4.600617	2.1449049
11.402429189693366	4.583426	2.1408937
11.420043199518153	4.5555315	2.1343691
11.437657480066942	63.500538	7.9687223
11.455272031768422	85.2056	9.230688
11.472886855051353	107.58257	10.372202
11.490501950344528	99.14495	9.957156
11.508117318076819	84.491455	9.191923
11.52573295867715	45.873943	6.7730308
11.543348872574514	4.208437	2.0514476
11.560965060197946	4.1420155	2.0351942
11.57858152197655	4.1344085	2.0333245
11.59619825833949	4.100846	2.0250545
11.613815269715985	4.0938954	2.0233376
11.631432556535323	38.613422	6.2139697
11.649050119226837	83.12111	9.117078
11.666667958219929	93.4664	9.667802
11.68428607394406	107.67966	10.376881
11.701904466828756	82.53947	9.085123
11.719523137303586	65.416245	8.088031
11.737142085798196	4.6640596	2.1596434
11.754761312742286	3.7744513	1.9427947
11.772380818565619	3.713648	1.9270828
11.790000603698015	3.6811068	1.9186211
11.80762066856935	3.6169987	1.9018408
11.825241013609572	3.5774589	1.8914171
11.842861639248683	3.536684	1.8806074
11.860482545916748	3.5243108	1.8773148
11.878103734043883	3.474809	1.8640839
11.895725204060282	3.435221	1.8534349
11.91334695639619	3.424959	1.8506645
11.930968991481919	3.400313	1.8439938
11.948591309747824	3.3558192	1.8318895
11.966213911624347	3.3182049	1.821594
11.98383679754198	3.2920158	1.8143913
12.001459967931268	3.3076398	1.8186918
12.019083423222835	3.2844522	1.8123058
12.036707163847352	3.3041222	1.8177245
12.05433119023556	3.2642827	1.8067327
12.071955502818259	3.2377071	1.799363
12.089580102026313	3.197282	1.7880945
12.107204988290643	3.1579866	1.7770725
12.12483016204224	3.153837	1.7759045
12.142455623712152	3.1301353	1.7692188
12.16008137373149	3.0987046	1.7603137
12.177707412531431	3.1023657	1.7613534
12.19533374054321	3.0833557	1.7559487
12.212960358198126	3.0686245	1.751749
12.230587265927545	3.009398	1.7347616
12.248214464162889	3.0008419	1.7322938
12.265841953335649	2.9583802	1.7199943
12.283469733877375	2.9818985	1.7268175
12.301097806219685	2.9450285	1.7161086
12.31872617079425	2.9076188	1.7051741
12.336354828032825	2.9003007	1.7030269
12.353983778367205	2.928747	1.7113582
12.371613022229262	2.9702072	1.723429
12.389242560050928	2.9289424	1.7114153
12.406872392264201	2.8609364	1.6914303
12.424502519301143	2.8504753	1.6883351
12.442132941593874	2.8485644	1.687769
12.459763659574586	2.8755634	1.6957486
12.477394673675532	2.8942928	1.7012621
12.49502598432903	2.916107	1.7076613
12.51265759196746	2.9172406	1.7079931
12.530289497023267	2.8923845	1.7007012
12.547921699928967	2.8450077	1.686715
12.565554201117134	2.8319674	1.682845
12.583187001020404	2.8244274	1.6806033
12.600820100071486	2.7916956	1.6708368
12.618453498703152	2.7905514	1.6704943
12.636087197348235	2.7821121	1.6679665
12.65372119643964	2.793314	1.671321
12.671355496410326	2.8137336	1.6774187
12.68899009769333	2.8587582	1.6907862
12.706625000721749	2.909291	1.7056644
12.724260205928752	2.9137173	1.7069614
12.741895713747551	2.9328783	1.7125648
12.759531524611454	2.9708912	1.7236273
12.777167638953818	3.0355623	1.7422866
12.794804057208072	3.0344596	1.7419701
12.812440779807702	3.0804791	1.7551293
12.830077807186271	3.2267394	1.7963127
12.847715139777405	3.282559	1.8117833
12.865352778014795	3.4670072	1.8619901
12.882990722332197	3.612599	1.9006838
12.90062897316344	3.701818	1.9240109
12.918267530942412	3.7963214	1.948415
12.935906396103071	3.6678813	1.9151714
12.953545569079449	3.8310401	1.9573044
12.971185050305628	3.6471114	1.9097412
12.988824840215775	3.673087	1.9165299
13.006464939244115	3.7058115	1.9250485
13.024105347824943	3.5651307	1.8881553
13.041746066392617	3.6277075	1.9046541
13.05938709538157	3.4397166	1.8546473
13.077028435226296	3.437162	1.8539585
13.094670086361363	3.3538058	1.8313398
13.112312049221401	3.253975	1.8038777
13.129954324241112	3.1110165	1.7638074
13.147596911855258	2.9190216	1.7085145
13.165239812498685	2.8898478	1.6999552
13.182883026606293	2.8206458	1.6794778
13.200526554613058	2.7100787	1.6462317
13.218170396954017	2.700302	1.6432595
13.235814554064284	2.6808584	1.6373327
13.253459026379034	2.6990204	1.6428696
13.271103814333523	2.6619105	1.6315362
13.288748918363058	2.6411123	1.62515
13.306394338903031	2.595399	1.6110241
13.32404007638889	2.599057	1.6121591
13.341686131256164	2.6322682	1.6224266
13.359332503940449	2.6302903	1.621817
13.376979194877402	2.6609766	1.63125
13.394626204502751	2.7286289	1.6518562
13.412273533252307	2.7632568	1.6623046
13.429921181561937	2.7777472	1.6666574
13.447569149867581	2.7631927	1.6622853
13.465217438605247	2.7252257	1.6508257
13.482866048211022	2.638765	1.6244277
13.500514979121052	2.6341143	1.6229955
13.518164231771568	2.6472158	1.6270267
13.535813806598844	2.6678889	1.6333673
13.553463704039254	2.6633067	1.6319641
13.571113924529229	2.683734	1.6382105
13.588764468505275	2.725039	1.6507692
13.606415336403956	2.770489	1.6644785
13.624066528661917	2.7610042	1.6616269
13.641718045715882	2.8256915	1.6809794
13.659369888002635	2.8686144	1.6936984
13.67702205595903	2.932407	1.7124271
13.694674550021993	3.000548	1.732209
13.712327370628532	3.0571947	1.7484835
13.729980518215713	3.1398563	1.771964
13.747633993220681	3.2350185	1.7986157
13.765287796080647	3.289367	1.8136612
13.7829419272329	3.3253944	1.8235664
13.800596387114801	3.3364992	1.8266087
13.818251176163775	3.3411896	1.8278922
13.835906294817324	3.35617	1.8319852
13.853561743513023	3.4032853	1.8447995
13.871217522688525	3.454448	1.8586146
13.888873632781538	3.5186446	1.875805
13.906530074229858	3.5760782	1.8910521
13.92418684747135	3.5796568	1.891998
13.941843952943948	3.5734127	1.8903472
13.959501391085665	3.534529	1.8800343
13.977159162334578	3.4605117	1.8602451
13.994817267128846	3.3953094	1.8426366
14.012475705906693	3.2726266	1.8090403
14.030134479106424	3.2164643	1.7934504
14.047793587166414	3.1627934	1.7784244
14.065453030525108	3.1169784	1.7654966
14.083112809621026	3.053268	1.7473602
14.100772924892766	2.9913945	1.7295648
14.118433376778997	2.9185944	1.7083894
14.136094165718458	2.853875	1.6893415
14.153755292149969	2.7857053	1.6690432
14.171416756512416	2.7289407	1.6519506
14.189078559244768	2.6752558	1.635621
14.20674070078606	2.5923698	1.6100838
14.224403181575408	2.5262237	1.5894098
14.242066002051999	2.4928377	1.5788723
14.259729162655093	2.4748166	1.5731549
14.277392663824022	2.4613369	1.5688648
14.295056505998208	2.4678583	1.5709418
14.312720689617128	2.4909928	1.578288
14.330385215120348	2.4712162	1.5720103
14.348050082947497	2.43601	1.5607722
14.3657152935383	2.3793492	1.542514
14.383380847332528	2.3669791	1.538499
14.401046744770051	2.4007087	1.549422
14.418712986290798	2.4169579	1.5546569
14.436379572334793	2.4210734	1.5559798
14.454046503342123	2.4037154	1.550392
14.471713779752946	2.4062843	1.5512203
14.489381402007504	2.4079754	1.5517653
14.507049370546113	2.425417	1.5573751
14.524717685809168	2.417089	1.554699
14.542386348237134	2.3912861	1.5463784
14.560055358270553	2.3911288	1.5463275
14.577724716350051	2.4119859	1.553057
14.595394422916325	2.408985	1.5520905
14.61306447841015	2.4466164	1.5641663
14.63073488327237	2.4443598	1.5634449
14.648405637943917	2.4999626	1.581127
14.6660767428658	2.4917731	1.5785351
14.683748198479094	2.5102954	1.5843911
14.701420005224954	2.5539043	1.598094
14.719092163544628	2.633927	1.6229378
14.73676467387942	2.7071548	1.6453433
14.754437536670727	2.756943	1.6604044
14.772110752360014	2.757674	1.6606246
14.78978432138882	2.7254376	1.65089
14.807458244198777	2.6827812	1.6379198
14.82513252123159	2.6587398	1.6305642
14.842807152929028	2.7166626	1.6482302
14.860482139732962	2.707969	1.6455908
14.87815748208531	2.6840298	1.6383009
14.8958331804281	2.6786838	1.6366684
14.91350923520342	2.6934998	1.6411885
14.931185646853438	2.724542	1.6506187
14.948862415820408	2.7132003	1.6471795
14.966539542546656	2.6854155	1.6387237
14.98421702747459	2.63807	1.6242137
15.001894871046696	2.6214302	1.6190832
15.019573073705542	2.6407793	1.6250474
15.037251635893766	2.664067	1.632197
15.054930558054092	2.7246907	1.6506637
15.072609840629323	2.7898064	1.6702714
15.090289484062351	2.8980565	1.7023679
15.107969488796124	3.160187	1.7776915
15.125649855273691	3.5089643	1.873223
15.14333058393817	3.977998	1.9944919
15.161011675232768	4.9048862	2.2146978
15.17869312960076	6.26464	2.5029263
15.196374947485506	8.108841	2.8476026
15.214057129330447	11.172383	3.3425114
15.231739675579114	15.947905	3.9934828
15.249422586675102	21.062353	4.589374
15.267105863062092	24.317327	4.93126
15.284789505183847	24.656122	4.965493
15.302473513484218	22.837563	4.7788663
15.320157888407127	19.396336	4.404127
15.337842630396578	15.294491	3.9108171
15.355527739896656	11.930118	3.4540002
15.37321321735153	9.194907	3.0323105
15.39089906320545	6.6069217	2.5703933
15.408585277902748	4.888192	2.2109256
15.42627186188783	3.780828	1.9444351
15.443958815605198	3.254268	1.803959
15.461646139499424	2.9564903	1.7194448
15.479333834015168	2.7477374	1.6576301
15.497021899597165	2.670457	1.6341532
15.514710336690234	2.6143563	1.6168971
15.53239914573928	2.6272726	1.6208863
15.550088327189297	2.5851111	1.6078281
15.567777881485336	2.5678914	1.6024642
15.58546780907256	2.5051112	1.5827543
15.6031581103962	2.4690924	1.5713346
15.620848785901568	2.433845	1.5600785
15.638539836034063	2.4325917	1.5596768
15.656231261239173	2.4186904	1.5552139
15.673923061962451	2.415029	1.5540364
15.691615238649552	2.4303226	1.5589492
15.709307791746202	2.45684	1.567431
15.727000721698221	2.4549277	1.5668209
15.744694028951498	2.4275365	1.5580554
15.76238771395202	2.392707	1.5468378
15.780081777145844	2.383846	1.5439708
15.797776218979125	2.3988702	1.5488287
15.815471039898094	2.415441	1.5541689
15.833166240349064	2.4104338	1.5525572
15.850861820778437	2.385254	1.5444267
15.868557781632699	2.385652	1.5445557
15.886254123358412	2.4143467	1.5538168
15.903950846402232	2.3953853	1.5477033
15.921647951210897	2.3459969	1.5316647
15.939345438231225	2.2957265	1.5151656
15.957043307910133	2.3477523	1.5322376
15.974741560694602	2.347106	1.5320268
15.992440197031714	2.3823605	1.5434897
16.01013921736862	2.371308	1.5399052
16.02783862215259	2.4072783	1.5515406
16.045538411830933	2.4278474	1.5581552
16.06323858685107	2.4333484	1.5599194
16.080939147660512	2.4353273	1.5605536
16.09864009470684	2.4073546	1.5515652
16.11634142843774	2.4014652	1.5496662
16.134043149300954	2.38663	1.5448722
16.15174525774433	2.4159966	1.5543476
16.169447754215817	2.4186227	1.5551922
16.18715063916342	2.4459543	1.5639547
16.204853913035244	2.4448993	1.5636173
16.222557576279478	2.42424	1.5569972
16.240261629344403	22.41248	4.734182
16.257966072678386	42.955906	6.5540757
16.275670906729868	38.08695	6.1714625
16.293376131947387	2.5384636	1.5932556
16.31108174877957	2.5818481	1.6068131
16.328787757675133	2.6066084	1.6144994
16.34649415908287	2.562181	1.6006814
16.364200953451657	2.5576544	1.5992668
16.38190814123048	2.5998852	1.6124159
16.39961572286839	2.6305382	1.6218934
16.41732369881455	2.6355999	1.623453
16.43503206951817	2.6702135	1.6340787
16.45274083542859	2.7491407	1.6580533
16.47044999699522	2.8177598	1.6786184
16.488159554667558	2.8275812	1.6815413
16.505869508895184	2.8604689	1.691292
16.523579860127786	2.9348223	1.7131323
16.541290608815117	3.0048501	1.7334504
16.559001755407035	2.995323	1.7307001
16.57671330035348	2.996332	1.7309916
16.59442524410448	3.0478673	1.7458142
16.61213758711015	3.1561441	1.776554
16.629850329820705	3.215619	1.7932147
16.647563472686436	3.303943	1.8176751
16.665277016157724	3.3592327	1.832821
16.682990960685053	3.423621	1.8503029
16.70070530671898	3.5103357	1.873589
16.718420054710155	3.574071	1.8905213
16.736135205109335	3.562368	1.8874236
16.753850758367335	3.5660226	1.8883915
16.771566714935087	3.5810432	1.8923645
16.789283075263597	3.6576164	1.9124895
16.80699983980398	3.722194	1.9292989
16.82471700900741	3.813295	1.952766
16.84243458332518	3.9361885	1.9839829
16.860152563208665	4.0341773	2.008526
16.87787094910932	4.0580525	2.0144608
16.89558974147871	4.042296	2.0105462
16.913308940768466	4.066916	2.0166595
16.931028547430333	4.177913	2.0439944
16.94874856191613	4.2489705	2.0613031
16.966468984677785	4.3269525	2.0801327
16.98418981616729	4.381696	2.0932503
17.00191105683676	4.408996	2.099761
17.019632707138374	4.489977	2.1189566
17.03735476752442	4.5269156	2.127655
17.05507723844728	4.545655	2.132054
17.072800120359403	4.5619426	2.1358705
17.090523413713353	4.568795	2.137474
17.108247118961785	4.629322	2.151586
17.125971236557437	4.6545587	2.1574426
17.143695766953133	4.728982	2.1746223
17.161420710601806	4.7455125	2.1784198
17.179146067956477	4.7443986	2.178164
17.19687183947025	4.730464	2.174963
17.21459802559634	4.666673	2.1602485
17.232324626788028	4.7027335	2.1685786
17.25005164349871	4.683928	2.1642385
17.267779076181863	4.6937428	2.1665046
17.285506925291074	4.648974	2.156148
17.30323519127999	4.648309	2.1559937
17.320963874602384	4.6065135	2.146279
17.33869297571211	4.5519204	2.133523
17.356422495063114	4.5012646	2.1216183
17.37415243310944	4.497867	2.1208177
17.391882790305218	4.554328	2.134087
17.40961356710468	4.577428	2.1394925
17.42734476396215	4.602979	2.1454554
17.445076381332044	4.593159	2.1431656
17.462808419668868	4.6280546	2.1512914
17.48054087942723	4.7505975	2.1795866
17.498273761061835	5.0260596	2.2418876
17.51600706502747	5.4797297	2.3408823
17.533740791779024	6.120596	2.4739838
17.551474941771485	7.4864154	2.7361314
17.56920951545993	8.6453285	2.940294
17.586944513299528	10.991036	3.3152733
17.60467993574556	12.6827965	3.5612915
17.622415783253373	14.507137	3.8088236
17.64015205627843	16.056778	4.007091
17.657888755276293	17.282911	4.157272
17.675625880702604	17.878159	4.228257
17.69336343301311	17.768978	4.215327
17.71110141266366	16.827877	4.1021795
17.728839820110178	15.695302	3.9617298
17.746578655808705	14.578844	3.8182251
17.764317920215372	12.95001	3.5986123
17.7820576137864	11.32218	3.3648448
17.79979773697811	9.332193	3.054864
17.81753829024692	7.399832	2.7202632
17.835279274049356	5.7912836	2.4065087
17.85302068884201	4.7800374	2.1863296
17.870762535081607	4.189921	2.0469296
17.888504813224934	3.8769722	1.9690028
17.90624752372891	3.7325752	1.9319874
17.923990667050536	3.6054633	1.8988057
17.941734243646895	3.5299623	1.8788193
17.959478253975185	3.478896	1.8651799
17.9772226984927	3.4690313	1.8625336
17.994967577656833	3.4641123	1.8612126
18.01271289192506	3.4444542	1.8559241
18.030458641754965	3.3604782	1.8331608
18.04820482760425	3.3117352	1.8198173
18.06595144993067	3.2941651	1.8149835
18.083698509192125	3.2787137	1.8107219
18.101446005846576	3.2573066	1.804801
18.119193940352105	3.2349079	1.7985849
18.136942313166887	3.2551315	1.8041983
18.1546911247492	3.2314916	1.797635
18.1724403755574	3.209615	1.7915398
18.19019006604997	3.1615882	1.7780856
18.207940196685467	3.1261103	1.768081
18.225690767922575	3.134938	1.7705756
18.243441780220046	3.1146433	1.7648352
18.261193234036764	3.073198	1.7530539
18.278945129831676	3.0379474	1.7429708
18.29669746806386	3.0819056	1.7555357
18.314450249192483	3.123458	1.7673308
18.3322034736768	3.081087	1.7553025
18.349957141976184	3.029848	1.7406459
18.3677112545501	3.0242116	1.7390261
18.385465811858108	3.067275	1.7513638
18.403220814359884	3.0727713	1.7529322
18.420976262515172	3.0915053	1.7582676
18.43873215678387	3.118272	1.765863
18.456488497625923	3.1545343	1.7761009
18.474245285501407	3.235603	1.7987782
18.492002520870486	3.2947512	1.8151449
18.50976020419343	3.3775465	1.8378103
18.527518335930615	3.6692455	1.9155275
18.545276916542516	4.3093185	2.0758898
18.563035946489688	4.498064	2.120864
18.580795426232832	4.920177	2.2181473
18.598555356232698	4.7807083	2.1864831
18.616315736950185	5.059337	2.2492971
18.63407656884626	4.7405214	2.1772738
18.65183785238201	4.9320374	2.220819
18.669599588018617	4.718757	2.17227
18.68736177621737	4.693785	2.1665146
18.705124417439652	4.692853	2.1662993
18.72288751214696	4.4773617	2.1159778
18.740651060800886	4.6127467	2.1477306
18.758415063863115	4.3915687	2.095607
18.77617952179546	4.549739	2.1330116
18.793944435059814	4.242052	2.0596242
18.811709804118184	4.2248673	2.0554483
18.829475629432675	4.1379366	2.0341918
18.8472419114655	3.91171	1.9778043
18.86500865067897	4.0163255	2.0040772
18.88277584753551	3.8052404	1.9507025
18.90054350249763	3.8692653	1.9670448
18.918311616027957	3.507836	1.8729218
18.936080188589226	3.3483052	1.8298374
18.953849220644265	3.0256782	1.7394477
18.971618712656007	2.9082382	1.7053558
18.9893886650875	2.8336484	1.6833444
19.007159078401887	8.015894	2.8312354
19.024929953062408	32.901604	5.735992
19.042701289532435	32.86448	5.7327547
19.060473088275405	25.39007	5.038856
19.07824534975489	2.6461334	1.626694
19.096018074434568	2.6286592	1.621314
19.113791262778197	2.6374598	1.6240258
19.13156491524966	2.63512	1.6233052
19.149339032312945	2.5978088	1.611772
19.167113614432136	2.5702875	1.6032116
19.184888662071433	2.5639818	1.6012439
19.202664175695123	2.5530834	1.5978371
19.220440155767623	2.5193958	1.5872605
19.238216602753447	2.4940941	1.5792701
19.2559935171172	2.5054772	1.5828699
19.27377089932361	2.5400662	1.5937586
19.291548749837514	2.522549	1.5882534
19.309327069123835	2.5092754	1.5840693
19.32710585764763	2.5005763	1.581321
19.344885115874032	2.491103	1.5783228
19.362664844268313	2.512708	1.5851524
19.380445043295822	2.5177393	1.5867386
19.39822571342203	2.5011935	1.5815163
19.41600685511252	2.4821987	1.5754995
19.43378846883297	2.4567473	1.5674014
19.451570555049173	2.457055	1.5674996
19.469353114227037	2.4696395	1.5715086
19.48713614683254	2.476392	1.5736556
19.50491965333182	2.472117	1.5722967
19.52270363419109	2.4656267	1.5702314
19.540488089876686	2.4812653	1.5752033
19.55827302085503	2.4625096	1.5692385
19.576058427592674	2.4433112	1.5631095
19.593844310556282	2.4469485	1.5642725
19.611630670212598	2.4776194	1.5740455
19.629417507028506	2.5363612	1.5925957
19.64720482147098	2.558557	1.599549
19.6649926140071	2.538947	1.5934074
19.682780885104084	2.4704175	1.5717561
19.70056963522921	2.4636457	1.5696005
19.718358864849908	2.488484	1.577493
19.7361485744337	2.5243769	1.5888288
19.753938764448215	2.5369313	1.5927747
19.771729435361202	2.553556	1.597985
19.789520587640506	2.5257804	1.5892704
19.807312221754092	2.511136	1.5846565
19.825104338170043	2.4879813	1.5773336
19.842896937356517	2.4985878	1.5806922
19.860690019781824	2.5234368	1.5885329
19.87848358591436	2.5536888	1.5980265
19.896277636222635	2.574719	1.604593
19.914072171175278	2.5919259	1.6099459
19.931867191241015	2.5658944	1.601841
19.94966269688869	2.5157523	1.5861124
19.967458688587264	2.5089676	1.5839721
19.985255166805807	2.4942515	1.57932
20.00305213201348	2.4945378	1.5794106
20.020849584679578	2.5101316	1.5843395
20.038647525273507	2.4989867	1.5808184
20.05644595426477	2.46068	1.5686555
20.07424487212299	2.4399788	1.5620432
20.092044279317903	2.455814	1.5671036
20.109844176319353	2.4659038	1.5703197
20.127644563597304	2.4438324	1.5632762
20.145445441621817	2.4523275	1.5659909
20.16324681086307	2.433102	1.5598403
20.181048671791373	2.4250174	1.5572467
20.198851024877122	2.4293745	1.5586451
20.216653870590836	2.432211	1.5595547
20.234457209403146	2.4178815	1.5549538
20.252261041784802	2.4088473	1.5520462
20.270065368206662	2.3814774	1.5432036
20.287870189139685	2.3330815	1.5274428
20.305675505054968	2.3173718	1.5222917
20.323481316423702	2.3507347	1.5332106
20.341287623717207	2.352735	1.5338628
20.359094427406884	2.375835	1.5413743
20.376901727964288	2.3773654	1.5418707
20.39470952586107	2.3697782	1.5394083
20.41251782156899	2.3607569	1.5364754
20.430326615559935	2.3777575	1.5419979
20.448135908305886	2.3777177	1.541985
20.465945700278965	2.362127	1.5369213
20.483755991951384	2.3530142	1.5339538
20.50156678379548	2.3803318	1.5428324
20.519378076283708	2.338216	1.5291226
20.537189869888635	2.3239255	1.5244427
20.55500216508294	2.30117	1.5169609
20.572814962339415	2.3047137	1.5181284
20.59062826213098	2.2961886	1.515318
20.60844206493066	2.3169384	1.5221493
20.626256371211593	2.3411574	1.5300841
20.644071181447032	2.3496761	1.5328653
20.66188649611036	2.3679073	1.5388006
20.67970231567506	2.34615	1.5317147
20.697518640614742	2.3501585	1.5330226
20.715335471403122	2.309863	1.5198234
20.73315280851404	2.2822526	1.5107126
20.750970652421447	2.3143575	1.5213013
20.768789003599412	2.3162315	1.521917
20.786607862522136	2.3029351	1.5175425
20.8044272296639	2.2969608	1.5155728
20.82224710549913	2.3248506	1.5247461
20.84006749050237	2.2991307	1.5162884
20.857888385148268	3.8490674	1.961904
20.8757097899116	45.96331	6.7796245
20.893531705267254	64.79377	8.049458
20.911354131690224	83.76579	9.152366
20.92917706965566	69.01954	8.3078
20.94700051963877	50.14027	7.0809793
20.96482448211493	29.440277	5.4258895
20.982648957559622	4.1702147	2.0421104
21.00047394644843	2.2258697	1.4919349
21.01829944925707	2.2238982	1.491274
21.036125466461375	2.2356875	1.4952215
21.053951998537297	2.2701745	1.5067098
21.071779045960906	2.2795646	1.5098227
21.089606609208378	2.2363508	1.4954433
21.10743468875603	2.2055006	1.4850928
21.12526328508028	2.210959	1.4869294
21.143092398657675	2.219332	1.4897423
21.16092202996488	2.1838577	1.4777881
21.17875217947867	2.156808	1.4686074
21.19658284767596	2.1832995	1.4775993
21.21441403503377	2.2316475	1.49387
21.232245742029225	2.2481093	1.4993696
21.2500779691396	2.2284968	1.492815
21.26791071684227	2.204942	1.4849048
21.28574398561475	2.1939616	1.4812027
21.30357777593465	2.1873467	1.4789681
21.321412088279704	2.1758175	1.4750652
21.339246923127792	2.1328828	1.4604392
21.357082280956888	2.102789	1.4500996
21.3749181622451	2.0934224	1.4468664
21.392754567470647	2.1005223	1.4493178
21.41059149711187	2.120188	1.4560865
21.42842895164726	2.104453	1.4506733
21.446266931555378	2.1183925	1.4554698
21.464105437314945	2.1117437	1.453184
21.481944469404798	2.1651893	1.4714582
21.49978402830388	2.2081325	1.4859786
21.51762411449127	2.227669	1.4925377
21.53546472844617	2.179094	1.4761755
21.553305870647876	2.1166236	1.4548621
21.571147541575865	2.1374533	1.4620032
21.58898974170967	2.158437	1.469162
21.60683247152899	2.137664	1.4620752
21.62467573151363	2.0959122	1.4477266
21.642519522143523	2.075986	1.4408282
21.660363843898722	2.0400698	1.4283102
21.6782086972594	2.0252254	1.4231042
21.696054082705864	2.0301077	1.4248185
21.713900000718535	2.0417166	1.4288865
21.73174645177795	2.0476463	1.4309599
21.749593436364794	2.0169113	1.42018
21.767440954959845	2.037801	1.4275156
21.785289008044032	2.0458384	1.430328
21.803137596098388	2.065977	1.4373507
21.820986719604086	2.0481992	1.431153
21.838836379042412	2.0241938	1.4227417
21.85668657489478	1.9828191	1.4081261
21.87453730764273	1.9804893	1.4072986
21.892388577767914	1.9828018	1.4081199
21.91024038575213	1.9873928	1.4097492
21.928092732077285	1.9911454	1.4110795
21.945945617225426	2.0010712	1.4145923
21.963799041678694	2.0091708	1.4174522
21.981653005919398	31.345737	5.5987263
21.999507510429943	78.166885	8.841204
22.01736255569286	73.129265	8.551565
22.035218142190818	4.2335496	2.0575593
22.05307427040661	2.0535648	1.4330264
22.07093094082315	2.0091758	1.417454
22.088788153923474	1.9788578	1.4067189
22.106645910190746	1.9509795	1.3967746
22.12450421010827	1.9357556	1.3913144
22.142363054159464	1.9642082	1.4015021
22.16022244282787	1.999281	1.4139594
22.178082376597164	2.0116665	1.4183323
22.195942855951145	2.0111954	1.4181662
22.213803881373742	2.037436	1.4273878
22.231665453349002	2.0328834	1.4257922
22.24952757236111	1.9942249	1.4121703
22.26739023889438	2.0002584	1.414305
22.28525345343323	2.0451214	1.4300774
22.30311721646225	2.0197628	1.4211836
22.320981528466113	1.9754593	1.4055103
22.33884638992964	1.917256	1.3846501
22.356711801337788	1.9149101	1.3838028
22.37457776317561	1.9261068	1.3878425
22.392444275928337	1.9609591	1.4003425
22.410311340081282	1.9823636	1.4079643
22.428178956119904	1.989066	1.4103425
22.446047124529805	1.9858896	1.4092159
22.46391584579669	1.9824911	1.4080096
22.481785120406414	2.013758	1.4190694
22.49965494884496	1.9997077	1.4141102
22.51752533159841	1.9805623	1.4073246
22.53539626915302	1.9533578	1.3976258
22.553267761995137	1.9310446	1.3896203
22.571139810611264	1.902465	1.3792987
22.589012415488025	1.9035492	1.3796917
22.60688557711216	1.9055935	1.3804324
22.624759295970566	1.9028289	1.3794307
22.642633572550263	1.9269319	1.3881397
22.660508407338362	1.941224	1.3932781
22.67838380082217	1.9211124	1.386042
22.696259753489077	1.8956561	1.3768283
22.714136265826614	1.9195547	1.3854799
22.73201333832246	1.9071242	1.3809867
22.74989097146439	1.9176315	1.3847858
22.76776916574035	1.8776879	1.3702875
22.785647921638393	1.9071213	1.3809856
22.803527239646712	1.9012688	1.378865
22.82140712025363	1.9133551	1.3832408
22.839287563947593	1.8971827	1.3773825
22.85716857121719	1.8347282	1.3545214
22.875050142551135	1.8451939	1.3583791
22.892932278438277	1.8580744	1.3631121
22.910814979367604	1.8684471	1.3669115
22.928698245828222	1.8827766	1.372143
22.946582078309387	1.8865088	1.3735024
22.96446647730047	1.8948798	1.3765464
22.98235144329098	1.906399	1.3807241
23.000236976770562	1.9170004	1.3845578
23.018123078229	1.9062737	1.3806788
23.03600974815619	1.921506	1.386184
23.053896987042194	1.8951583	1.3766475
23.071784795377173	1.8802451	1.3712204
23.08967317365145	1.8860524	1.3733362
23.10756212235546	1.9414924	1.3933744
23.125451641979787	1.9546559	1.3980901
23.143341733015134	1.9270182	1.3881708
23.161232395952357	1.945685	1.3948781
23.179123631282426	1.9395759	1.3926866
23.197015439496468	1.9301891	1.3893125
23.214907821085717	1.9462632	1.3950853
23.23280077654157	1.9784946	1.4065897
23.250694306355538	1.9643888	1.4015666
23.268588411019277	1.9649267	1.4017584
23.28648309102458	1.9906658	1.4109095
23.304378346863356	2.0012043	1.4146392
23.322274179027676	1.9862446	1.4093419
23.340170588009723	1.9548641	1.3981645
23.358067574301852	1.9894431	1.4104762
23.37596513839651	1.9831798	1.4082541
23.39386328078629	1.9565473	1.3987663
23.411762001963947	1.9098188	1.381962
23.429661302422353	1.9057086	1.3804741
23.4475611826545	1.8801855	1.3711985
23.46546164315356	1.8744137	1.3690923
23.48336268441279	1.8863188	1.3734332
23.501264306925638	1.9317354	1.3898689
23.51916651118564	1.93055	1.3894423
23.537069297686497	1.9477543	1.3956196
23.554972666922037	1.942349	1.3936818
23.57287661938623	1.9276818	1.3884099
23.59078115557318	1.9125134	1.3829365
23.608686275977128	1.933045	1.3903399
23.62659198109246	1.9396061	1.3926975
23.6444982714137	1.9310675	1.3896285
23.66240514743549	1.9115676	1.3825945
23.68031260965263	1.8851429	1.373005
23.698220658560068	1.8999938	1.3784026
23.716129294652845	1.94255	1.3937539
23.7340385184262	1.916116	1.3842384
23.75194833037546	1.8934058	1.3760108
23.769858730996123	1.894558	1.3764294
23.78776972078382	1.9083155	1.381418
23.80568130023431	1.9539549	1.3978394
23.823593469843495	1.9601022	1.4000365
23.841506230107424	1.9638224	1.4013644
23.859419581522275	1.9459742	1.3949819
23.87733352458438	1.9077263	1.3812046
23.89524805979019	1.8882961	1.3741529
23.913163187636318	1.8870187	1.373688
23.931078908619508	1.9247706	1.387361
23.948995223236633	2.0107727	1.4180171
23.966912131984735	2.0278432	1.4240236
23.98482963536096	2.0157037	1.4197547
24.002747733862616	2.0094843	1.4175628
24.020666427987155	2.0120094	1.4184532
24.038585718232156	2.0843532	1.4437289
24.056505605095353	2.0718691	1.4393989
24.074426089074617	2.0465593	1.43058
24.092347170667946	2.0396576	1.4281658
24.110268850373515	2.0960128	1.4477613
24.128191128689586	2.138664	1.4624171
24.146114006114626	2.1030514	1.4501902
24.164037483147187	2.0356765	1.4267714
24.181961560286005	2.0206575	1.4214983
24.199886238029926	2.037021	1.4272424
24.21781151687797	2.1183405	1.455452
24.235737397329274	2.138162	1.4622455
24.253663879883135	2.0739982	1.4401382
24.271590965038975	2.063174	1.4363753
24.289518653296376	2.0758407	1.4407778
24.30744694515505	2.0816946	1.4428079
24.32537584111486	2.0414174	1.4287817
24.34330534167581	2.0102952	1.4178488
24.361235447338046	2.0335176	1.4260145
24.379166158601876	2.0413315	1.4287517
24.39709747596772	2.0296283	1.4246502
24.41502939993615	2.0023787	1.4150543
24.432961931007917	1.94246	1.3937216
24.450895069683856	1.9368513	1.391708
24.468828816465	1.9437644	1.3941895
24.4867631718525	2.0103111	1.4178544
24.504698136347656	1.9942757	1.4121883
24.52263371045192	1.9857945	1.4091822
24.540569894666874	1.9353695	1.3911756
24.558506689494266	1.9080002	1.3813038
24.57644409543597	1.9118087	1.3826817
24.594382112994012	1.9218985	1.3863255
24.61232074267057	1.8967354	1.3772202
24.630259984967953	1.9161263	1.3842422
24.64819984038863	1.9355052	1.3912244
24.66614030943522	1.9933842	1.4118726
24.684081392610462	2.0268917	1.4236895
24.702023090417274	2.074812	1.4404207
24.7199654033587	2.0199358	1.4212445
24.737908331937927	1.9414667	1.3933653
24.755851876658305	1.9730223	1.4046432
24.773796038023324	2.0717201	1.4393471
24.79174081653661	2.0976665	1.4483323
24.809686212701962	2.080801	1.4424982
24.827632227023294	2.109476	1.4524035
24.8455788600047	2.1438785	1.464199
24.8635261121504	2.1125407	1.4534582
24.88147398396475	2.128655	1.458991
24.899422475952303	2.1222696	1.4568012
24.917371588617698	2.1540477	1.4676675
24.935321322465768	2.1546123	1.4678597
24.953271678001478	2.280124	1.510008
24.97122265572994	2.48191	1.5754079
24.989174256156414	2.804805	1.6747552
25.00712647978632	3.300074	1.8166106
25.02507932712521	3.895099	1.9736005
25.043032798678798	4.460017	2.1118753
25.060986894952933	5.0976634	2.2578006
25.078941616453637	5.85182	2.4190536
25.096896963687055	6.832222	2.613852
25.114852937159508	8.021563	2.8322363
25.132809537377444	8.5728035	2.9279351
25.150766764847468	8.553914	2.9247074
25.168724620076347	7.892239	2.8093128
25.186683103570985	6.80104	2.6078804
25.204642215838426	5.640418	2.3749564
25.222601957385894	4.23488	2.0578823
25.24056232872074	3.2014554	1.7892611
25.25852333035048	2.6252055	1.6202486
25.276484962782778	2.2744904	1.5081414
25.294447226525435	2.1045632	1.4507113
25.312410122086423	2.0741878	1.440204
25.330373649973843	2.0576172	1.4344397
25.348337810695988	1.9996103	1.4140757
25.366302604761245	1.9622906	1.4008179
25.384268032678207	1.9509839	1.3967762
25.40223409495558	1.939009	1.392483
25.420200792102257	1.905442	1.3803775
25.438168124627246	1.8888687	1.3743612
25.45613609303974	1.8501596	1.3602058
25.474104697849057	1.8258219	1.3512298
25.492073939564698	1.8532453	1.3613394
25.510043818696285	1.8830256	1.3722339
25.528014335753614	1.8810177	1.3715019
25.54598549124664	1.8582604	1.3631803
25.56395728568544	1.8704054	1.3676276
25.58192971958028	1.8867381	1.3735858
25.59990279344156	1.8554335	1.3621429
25.617876507779833	1.8677231	1.3666466
25.635850863105826	1.8954779	1.3767636
25.653825859930386	1.8922287	1.375583
25.671801498764548	1.8942916	1.3763326
25.68977778011949	1.9099455	1.3820077
25.707754704506524	1.9085602	1.3815064
25.725732272437153	1.9021995	1.3792025
25.743710484423012	1.9348369	1.3909842
25.761689340975888	1.946733	1.3952538
25.77966884260774	1.8993347	1.3781635
25.797648989830662	1.8452513	1.3584002
25.815629783156922	1.8591597	1.36351
25.83361122309895	1.8502482	1.3602383
25.85159331016929	1.8582327	1.3631701
25.869576044880695	1.8627925	1.3648416
25.887559427746034	1.8370343	1.3553724
25.90554345927836	1.7983682	1.3410325
25.92352813999086	1.8156263	1.3474518
25.94151347039689	1.8519139	1.3608505
25.959499451009965	1.8497347	1.3600495
25.97748608234374	1.8527646	1.361163
25.995473364912062	1.8378907	1.3556883
26.013461299228904	1.8612283	1.3642684
26.03144988580839	1.8778921	1.370362
26.04943912516483	1.8319827	1.3535075
26.067429017812675	1.7873168	1.3369057
26.085419564266537	1.8252344	1.3510123
26.103410765041186	1.8818618	1.3718097
26.12140262065155	1.8918245	1.3754361
26.139395131612723	1.8623574	1.3646822
26.157388298439948	1.8162879	1.3476973
26.17538212164861	1.7998445	1.3415829
26.193376601754295	1.8408538	1.3567806
26.211371739272714	1.8572628	1.3628143
26.229367534719746	1.8200201	1.3490812
26.247363988611433	1.78985	1.3378527
26.26536110146397	1.824219	1.3506365
26.283358873793727	1.8179694	1.348321
26.301357306117204	1.8189261	1.3486757
26.319356398951104	1.7997961	1.3415648
26.33735615281224	1.8145984	1.3470703
26.35535656821762	1.8379081	1.3556947
26.373357645684404	1.8332925	1.3539913
26.39135938572991	1.8380889	1.3557614
26.409361788871614	1.8267097	1.3515582
26.427364855627165	1.8254336	1.3510861
26.445368586514352	1.8890244	1.3744178
26.46337298205115	1.9124576	1.3829163
26.48137804275568	1.8941566	1.3762836
26.499383769146217	1.8211102	1.3494852
26.517390161741215	1.8207952	1.3493685
26.53539722105928	1.8182936	1.3484411
26.553404947619182	1.8203441	1.3492013
26.571413341939856	1.8212131	1.3495233
26.589422404540397	1.8143121	1.346964
26.60743213594006	1.7879046	1.3371255
26.62544253665827	1.8015239	1.3422086
26.64345360721459	1.8137151	1.3467424
26.66146534812879	1.8465487	1.3588778
26.679477759920758	1.8555104	1.3621712
26.69749084311057	1.8459264	1.3586488
26.71550459821847	1.822493	1.3499974
26.733519025764842	1.8049431	1.3434817
26.751534126270258	1.7884575	1.3373322
26.769549900255434	1.8104103	1.3455149
26.787566348241267	1.8124474	1.3462716
26.80558347074881	1.7822049	1.3349924
26.823601268299267	1.7654154	1.3286893
26.841619741414036	1.7557896	1.3250622
26.85963889061465	1.788494	1.3373458
26.877658716422832	1.8392923	1.3562051
26.89567921936045	1.8278291	1.3519723
26.913700399949544	1.8075991	1.3444698
26.93172225871233	1.8170549	1.3479818
26.949744796171174	1.868989	1.3671098
26.967768012848605	1.855233	1.3620694
26.98579190926733	1.8323864	1.3536566
27.003816485950225	1.8282757	1.3521374
27.021841743420318	1.8495913	1.3599968
27.039867682200814	1.7722837	1.3312714
27.057894302815072	1.7108282	1.3079863
27.07592160578664	1.6920583	1.3007914
27.0939495916392	1.7390827	1.3187429
27.111978260896635	1.7923127	1.3387729
27.13000761408296	1.8332443	1.3539735
27.148037651722397	1.8340449	1.3542691
27.166068374339304	1.8174385	1.348124
27.184099782458215	1.8064196	1.3440311
27.20213187660384	1.7770028	1.3330427
27.22016465730105	1.7721255	1.331212
27.23819812507487	1.7420126	1.3198533
27.256232280450533	1.7476369	1.3219821
27.274267123953383	1.7774304	1.3332031
27.292302656108987	1.8337957	1.3541771
27.31033887744306	1.8471981	1.3591167
27.32837578848146	1.838328	1.3558495
27.34641338975026	1.814426	1.3470063
27.364451681775673	1.801214	1.3420931
27.382490665084074	1.7653738	1.3286737
27.400530340202046	1.760829	1.3269624
27.41857070765629	1.7634221	1.327939
27.436611767973726	1.8193971	1.3488503
27.454653521681404	1.8336388	1.3541192
27.472695969306564	1.8822894	1.3719655
27.490739111376627	1.8998512	1.3783509
27.508782948419153	1.8692175	1.3671933
27.526827480961902	1.8375514	1.3555632
27.54487270953279	1.7966927	1.3404077
27.562918634659898	1.8069203	1.3442173
27.580965256871508	1.832424	1.3536706
27.599012576696026	1.8151976	1.3472927
27.617060594662068	1.7541726	1.3244518
27.63510931129842	1.7926127	1.3388848
27.65315872713401	1.8262341	1.3513823
27.67120884269797	1.8283889	1.3521793
27.68925965851958	1.8122648	1.3462038
27.707311175128307	1.7946367	1.3396405
27.725363393053787	1.8400863	1.3564978
27.74341631282583	1.8521225	1.3609271
27.7614699349744	1.8818451	1.3718036
27.77952426002968	2.0397217	1.4281883
27.797579288521973	2.1454554	1.4647373
27.815635020981784	2.5246704	1.5889212
27.83369145793979	2.5667286	1.6021013
27.85174859992682	2.4122756	1.5531502
27.869806447473923	2.296361	1.5153749
27.887865001112267	2.0548635	1.4334795
27.905924261373233	1.9522452	1.3972276
27.92398422878836	1.8790302	1.3707772
27.94204490388936	1.8219475	1.3497953
27.96010628720813	1.833554	1.354088
27.978168379276728	1.8630558	1.364938
27.9962311806274	1.8606445	1.3640544
28.014294691792568	1.8363552	1.3551219
28.0323589133048	1.8459761	1.358667
28.050423845696887	1.9065694	1.3807858
28.068489489501758	1.9054406	1.3803769
28.086555845252523	1.87239	1.368353
28.104622913482487	1.879066	1.3707902
28.122690694725115	1.8907788	1.3750559
28.14075918951405	1.8731099	1.3686161
28.15882839838312	1.861188	1.3642536
28.176898321866304	1.8626196	1.3647783
28.1949689604978	1.8735213	1.3687663
28.213040314811945	1.9033502	1.3796196
28.23111238534327	1.9234444	1.386883
28.249185172626493	1.9197166	1.3855383
28.267258677196473	1.8762733	1.3697712
28.285332899588294	1.9046795	1.3801013
28.303407840337172	1.8896632	1.3746502
28.321483499978545	1.8984319	1.377836
28.33955987904799	1.88098	1.3714882
28.357636978081285	1.917181	1.384623
28.37571479761439	1.9854035	1.4090434
28.393793338183425	1.9808319	1.4074203
28.41187260032469	1.9424951	1.3937342
28.429952584574686	1.9187325	1.3851832
28.448033291470065	1.9671695	1.4025582
28.46611472154769	1.985672	1.4091388
28.484196875344566	1.9950095	1.412448
28.502279753397914	1.9709669	1.4039114
28.52036335624511	1.9390582	1.3925006
28.538447684423716	1.9432346	1.3939995
28.556532738471482	1.995324	1.4125594
28.574618518926325	2.0290215	1.4244373
28.59270502632635	2.0590873	1.434952
28.61079226120985	1.9850687	1.4089247
28.628880224115274	2.0220451	1.4219863
28.646968915581287	2.0581236	1.4346162
28.66505833614671	2.0534935	1.4330015
28.68314848635055	2.0258117	1.4233102
28.701239366732004	2.027939	1.4240572
28.71933097783044	2.0784228	1.4416736
28.737423320185403	2.0654905	1.4371815
28.75551639433665	2.1165724	1.4548445
28.773610200824074	2.13599	1.4615027
28.791704740187793	2.1202085	1.4560935
28.80980001296809	2.1199534	1.4560059
28.827896019705413	2.1517766	1.4668936
28.845992760940433	2.1866984	1.4787489
28.86409023721397	2.165698	1.471631
28.88218844906704	2.1771312	1.4755105
28.900287397040845	2.224624	1.4915173
28.918387081676755	2.2588353	1.5029422
28.936487503516343	2.2831557	1.5110115
28.954588663101365	2.2699766	1.5066441
28.97269056097374	2.2759104	1.508612
28.990793197675597	2.3366838	1.5286216
29.00889657374923	2.4201393	1.5556797
29.027000689737125	2.3762581	1.5415117
29.04510554618196	2.3107858	1.5201269
29.06321114362659	2.338196	1.5291162
29.08131748261405	2.386273	1.5447565
29.099424563687567	2.4444416	1.563471
29.11753238739057	2.5134792	1.5853956
29.13564095426663	2.556238	1.5988239
29.15375026485954	2.5633245	1.6010386
29.171860319713275	2.5932865	1.6103685
29.18997111937199	2.632565	1.6225181
29.20808266438002	2.7119095	1.6467876
29.226194955281898	2.7670343	1.6634405
29.244307992622335	2.8440142	1.6864206
29.26242177694624	2.9126437	1.7066469
29.2805363087987	2.8637855	1.6922723
29.29865158872498	2.8579438	1.6905454
29.316767617270557	2.9178855	1.708182
29.334884394981064	2.9975162	1.7313336
29.353001922402367	3.0019002	1.7325993
29.37112020008047	3.0297704	1.7406236
29.389239228561596	3.1788332	1.7829282
29.407359008392152	3.4195607	1.8492054
29.42547954011872	3.7071667	1.9254004
29.44360082428809	4.2913094	2.0715475
29.46172286144722	5.3708844	2.3175168
29.479845652143283	6.844602	2.616219
29.497969196923606	8.940716	2.990103
29.516093496335728	11.658711	3.4144855
29.5342185509274	14.7088995	3.8352184
29.55234436124651	17.099344	4.135135
29.570470927841175	18.543793	4.3062506
29.588598251259686	18.234018	4.270131
29.60672633205055	16.74065	4.091534
29.624855170762405	14.596043	3.8204768
29.642984767944146	11.817399	3.4376445
29.66111512414481	8.914995	2.9857988
29.67924623991366	6.6067476	2.5703595
29.697378115800138	5.0745087	2.252667
29.71551075235387	4.1726832	2.0427146
29.733644150124675	3.7441876	1.9349903
29.751778309662576	3.5560243	1.8857424
29.769913231517766	3.3974054	1.8432052
29.78804891624066	3.2891026	1.8135883
29.806185364381818	3.3067038	1.8184345
29.82432257649206	3.3654554	1.8345177
29.842460553122333	3.3687992	1.8354288
29.86059929482382	3.2798502	1.8110356
29.878738802147872	3.2514775	1.8031853
29.896879075646048	3.31757	1.8214197
29.915020115870114	3.3119326	1.8198715
29.933161923371976	3.2414408	1.8004001
29.951304498703777	3.264459	1.8067814
29.969447842417857	3.2997952	1.8165338
29.987591955066733	3.2290926	1.7969676
30.005736837203123	3.279527	1.8109465
30.023882489379943	3.3927617	1.841945
30.04202891215028	3.3497567	1.830234
30.060176106067455	3.281556	1.8115065
30.078324071684946	3.1792784	1.7830532
30.09647280955646	3.1360226	1.7708819
30.114622320235863	3.1756227	1.7820277
30.132772604277257	3.1470232	1.7739851
30.1509236622349	3.1239827	1.7674792
30.16907549466328	3.0653412	1.7508116
30.18722810211705	3.0807817	1.7552155
30.205381485151097	3.075132	1.7536054
30.22353564432045	3.0722332	1.7527786
30.241690580180403	3.0191722	1.7375765
30.25984629328638	2.9916077	1.7296264
30.278002784194037	3.0039475	1.73319
30.296160053459246	2.9959295	1.7308754
30.314318101638033	2.9836054	1.7273116
30.332476929286646	2.9651983	1.7219751
30.35063653696153	2.9502923	1.7176415
30.368796925219307	2.9191926	1.7085645
30.386958094616844	2.9261808	1.7106084
30.40512004571115	2.87952	1.6969148
30.423282779059463	2.8330107	1.683155
30.441446295219233	2.8700907	1.6941342
30.459610594748067	2.8558314	1.6899205
30.47777567820382	2.8068154	1.6753553
30.495941546144504	2.7771554	1.66648
30.51410819912835	2.7768774	1.6663965
30.532275637713795	2.826194	1.6811289
30.55044386245946	2.8619092	1.6917179
30.56861287392416	2.9163268	1.7077256
30.586782672666956	2.8338258	1.683397
30.604953259247047	2.75117	1.6586651
30.623124634223885	2.7702136	1.6643958
30.641296798157075	2.8061295	1.6751506
30.659469751606462	2.7730763	1.6652557
30.677643495132074	2.7823894	1.6680496
30.695818029294152	2.76916	1.6640793
30.713993354653116	2.69133	1.6405274
30.73216947176962	2.7069988	1.645296
30.75034638120448	2.7345161	1.6536373
30.768524083518756	2.737706	1.6546015
30.786702579273673	2.710818	1.6464562
30.80488186903069	2.7767527	1.6663591
30.82306195335144	2.9017856	1.7034628
30.841242832797782	3.1163745	1.7653255
30.85942450793176	3.4636235	1.8610812
30.877606979315637	3.8172982	1.9537907
30.895790247511883	4.1377654	2.03415
30.913974313083134	4.577817	2.1395833
30.932159176592283	4.9218383	2.2185216
30.95034483860237	4.9695635	2.2292519
30.968531299676698	4.677901	2.1628456
30.98671856037873	4.4066854	2.0992107
31.00490662127215	4.095013	2.023614
31.023095482920848	3.6934688	1.92184
31.04128514588892	3.223424	1.7953897
31.059475610740662	2.87771	1.6963814
31.07766687804056	2.6660273	1.6327974
31.09585894835335	2.5198343	1.5873986
31.11405182224393	2.508117	1.5837035
31.132245500277417	2.432831	1.5597535
31.15043998301914	2.401215	1.5495855
31.168635271034628	2.4331837	1.5598665
31.18683136488964	2.3838139	1.5439605
31.20502826515008	2.3559592	1.5349134
31.223225972382135	2.374826	1.541047
31.241424487152155	2.385427	1.5444827
31.259623810026692	2.360713	1.5364612
31.27782394157253	2.3587716	1.5358293
31.296024882356644	2.3571756	1.5353096
31.314226632946237	2.3530848	1.5339768
31.332429193908684	2.377656	1.541965
31.350632565811598	2.3603258	1.5363352
31.368836749222787	2.3284645	1.5259306
31.387041744710295	2.4009686	1.549506
31.40524755284232	2.4843223	1.5761733
31.423454174187317	2.5943246	1.6106907
31.441661609313922	2.595816	1.6111536
31.459869858791002	2.5652153	1.601629
31.478078923187628	2.5050502	1.5827351
31.496288803073064	2.4877114	1.5772481
31.514499499016807	2.4341638	1.5601807
31.532711011588546	2.3738499	1.5407304
31.550923341358178	2.3977673	1.5484725
31.56913648889584	2.4270306	1.557893
31.587350454771844	2.3905733	1.5461478
31.605565239556732	2.359609	1.5361018
31.62378084382127	2.3373258	1.5288315
31.641997268136382	2.3176687	1.5223892
31.660214513073274	2.285642	1.5118339
31.67843257920331	2.3496187	1.5328466
31.6966514670981	2.3429713	1.5306767
31.71487117732944	2.2970867	1.5156143
31.733091710469346	2.2567484	1.5022478
31.751313067090052	2.3523746	1.5337453
31.769535247764008	2.4336069	1.5600022
31.787758253063878	2.3472257	1.5320659
31.805982083562526	2.2534091	1.501136
31.824206739833024	2.211717	1.4871842
31.84243222244869	2.2353806	1.495119
31.860658531983013	2.2681866	1.50605
31.878885669009737	2.2597554	1.5032482
31.897113634102784	2.2076552	1.485818
31.91534242783632	2.1402137	1.4629469
31.933572050784694	2.1376913	1.4620845
31.951802503522508	2.183638	1.4777138
31.970033786624548	2.2798724	1.5099247
31.988265900665834	2.2909079	1.5135745
32.006498846221575	2.1687615	1.4726715
32.02473262386724	2.109589	1.4524424
32.04296723417845	2.1631823	1.4707761
32.0612026777311	2.2161927	1.4886882
32.07943895510129	2.2243395	1.4914219
32.097676066865304	2.161841	1.47032
32.115914013599685	2.1106806	1.4528182
32.13415279588115	2.0781655	1.4415843
32.152392414286666	2.156486	1.4684979
32.1706328693934	2.226863	1.4922677
32.18887416177875	2.192486	1.4807045
32.20711629202032	2.1540744	1.4676765
32.225359260695924	2.1915522	1.4803892
32.243603068383614	2.172766	1.4740305
32.26184771566166	2.049388	1.4315684
32.28009320310852	2.043674	1.4295713
32.2983395313029	2.0637043	1.4365599
32.31658670082372	2.184007	1.4778386
32.33483471225012	2.2026718	1.48414
32.35308356616143	2.1075678	1.4517465
32.371333263137245	2.0927906	1.446648
32.38958380375734	2.1823633	1.4772824
32.407835188601744	2.2590506	1.5030138
32.42608741825067	2.2837007	1.5111918
32.444340493284585	2.292311	1.514038
32.46259441428416	2.2659664	1.5053127
32.48084918183028	2.1366081	1.4617141
32.49910479650405	2.0212915	1.4217213
32.51736125888683	2.0048983	1.4159443
32.53561856956014	1.9248294	1.3873821
32.5538767291058	1.9705467	1.4037616
32.572135738105764	2.0003726	1.4143453
32.59039559714228	1.9941776	1.4121535
32.608656306797776	2.0274072	1.4238704
32.62691786765491	1.9926088	1.411598
32.645180280296586	1.9817307	1.4077395
32.663443545305896	1.9905392	1.4108647
32.68170766326619	2.068733	1.4383091
32.69997263476099	2.0769432	1.4411603
32.7182384603741	2.0382988	1.42769
32.7365051406895	2.0098047	1.4176759
32.75477267629144	2.0171118	1.4202507
32.77304106776434	1.9862772	1.4093535
32.79131031569289	1.9515947	1.3969948
32.809580420661966	2.012067	1.4184735
32.827851383256714	2.0603802	1.4354025
32.84612320406245	2.021762	1.4218867
32.86439588366476	2.0233188	1.4224341
32.88266942264945	2.0326624	1.4257147
32.9009438216025	2.050914	1.4321012
32.9192190811102	2.0579154	1.4345436
32.937495201758985	1.989929	1.4106485
32.95577218413556	1.905673	1.3804612
32.974050028826866	1.9064174	1.3807307
32.992328736420035	1.9204205	1.3857924
33.010608307502444	1.9823415	1.4079565
33.02888874266169	1.9635074	1.401252
33.047170042485604	1.9247075	1.3873383
33.06545220756225	1.9297228	1.3891447
33.083735238479896	1.9627523	1.4009826
33.10201913582707	1.9379852	1.3921154
33.12030390019248	1.9770907	1.4060906
33.138589532165135	2.0685997	1.4382627
33.15687603233419	2.1692245	1.4728287
33.17516340128909	2.1134531	1.4537721
33.19345163961947	1.9651504	1.4018382
33.211740747915215	1.9775252	1.4062451
33.23003072676643	1.976811	1.4059911
33.248321576763466	1.9710219	1.4039309
33.266613298496885	2.0342903	1.4262855
33.28490589255747	1.9882828	1.4100648
33.30319935953626	1.8485513	1.3596144
33.32149370002451	1.7992085	1.3413458
33.339788914613706	1.923057	1.3867433
33.358085003895575	1.9943603	1.4122182
33.376381968462034	1.9184543	1.3850827
33.39467980890529	1.9219581	1.386347
33.41297852581774	1.9855326	1.4090893
33.43127811979204	1.9793266	1.4068854
33.44957859142105	1.9342978	1.3907903
33.467879941297866	1.9072727	1.3810405
33.486182170015844	1.9925183	1.4115659
33.50448527816853	1.9655383	1.4019766
33.522789266349754	1.9536791	1.3977407
33.541094135153514	2.0310924	1.425164
33.55939988517411	2.0712025	1.4391673
33.57770651700602	2.0752442	1.4405708
33.59601403124398	2.0760424	1.4408478
33.61432242848296	2.00909	1.4174237
33.632631709318154	1.8694545	1.36728
33.650941874344994	1.9552063	1.3982869
33.66925292415916	2.0451546	1.430089
33.68756485935654	1.8780489	1.3704193
33.70587768053328	1.7190886	1.3111402
33.724191388285746	1.829289	1.3525121
33.74250598321054	1.9656994	1.402034
33.760821465904506	1.8554223	1.3621389
33.77913783696474	1.7280056	1.3145363
33.79745509698852	1.8277488	1.3519425
33.815773246573414	1.9949193	1.4124161
33.8340922863172	2.010302	1.4178512
33.852412216817896	2.0793037	1.441979
33.87073303867377	2.0170622	1.4202331
33.889054752483304	1.9557079	1.3984662
33.907377358845245	2.0401018	1.4283214
33.92570085835853	2.1598017	1.4696264
33.94402525162239	1.9915818	1.4112341
33.96235053923627	1.8765022	1.3698548
33.980676721799824	1.8675894	1.3665978
33.999003799912984	1.9457071	1.394886
34.01733177417592	1.9442966	1.3943803
34.03566064518901	1.8589634	1.3634381
34.0539904135529	1.8269653	1.3516529
34.07232107986846	1.8493571	1.3599107
34.090652644736785	1.8860275	1.3733271
34.108985108759235	1.9675906	1.4027083
34.12731847253742	2.1097066	1.4524829
34.14565273667313	2.1385717	1.4623857
34.16398790176847	2.0236154	1.4225384
34.18232396842574	1.9350616	1.3910649
34.20066093724749	1.9171463	1.3846105
34.21899880883651	1.8934783	1.3760371
34.23733758379583	1.8514825	1.3606919
34.25567726272874	1.8647989	1.3655764
34.27401784623872	1.975683	1.4055899
34.29235933492957	2.1175566	1.4551827
34.31070172940526	2.2135084	1.4877864
34.32904503027003	2.0741181	1.44018
34.347389238128386	1.893562	1.3760675
34.36573435358502	2.0329053	1.4257998
34.38408037724492	2.1708248	1.4733719
34.402427309713296	2.1931818	1.4809395
34.42077515159559	2.028832	1.4243708
34.43912390349752	1.9189903	1.3852762
34.45747356602499	1.990274	1.4107707
34.47582413978423	2.1496842	1.4661801
34.49417562538163	2.2373266	1.4957696
34.51252802342388	2.01624	1.4199436
34.53088133451789	1.8842589	1.372683
34.54923555927084	2.0297842	1.4247049
34.567590698290104	2.0413558	1.4287603
34.58594675218336	2.014723	1.4194094
34.6043037215585	2.0514185	1.4322774
34.62266160702365	2.0696776	1.4386374
34.641020409187234	1.9104096	1.3821757
34.65938012865785	1.8411164	1.3568774
34.677740766044394	1.9285772	1.3887322
34.69610232195598	2.0727441	1.4397027
34.714464797002016	2.100415	1.4492809
34.73282819179208	2.0456452	1.4302605
34.751192506936064	1.973677	1.4048761
34.76955774304408	1.8986865	1.3779284
34.7879239007265	1.8037028	1.3430201
34.80629098059391	1.7552376	1.3248538
34.824658983257194	1.7146645	1.3094519
34.843027909327446	1.7837551	1.335573
34.86139775941603	1.8972301	1.3773998
34.879768534134534	2.1214883	1.456533
34.89814023409483	2.133533	1.4606619
34.91651285990901	2.021489	1.4217907
34.93488641218944	1.8766804	1.3699199
34.95326089154871	1.9258692	1.387757
34.97163629859967	1.9996494	1.4140896
34.99001263395542	2.0116837	1.4183384
35.00838989822934	1.9925967	1.4115937
35.02676809203499	1.939668	1.3927196
35.04514721598624	2.1046438	1.450739
35.063527270697215	2.1334789	1.4606433
35.081908256782256	2.0996706	1.4490241
35.10029017485597	2.0172753	1.4203082
35.11867302553321	1.9400697	1.3928639
35.137056809429104	1.789033	1.3375474
35.155441527159006	1.7978716	1.3408474
35.173827179338524	1.8464645	1.3588468
35.19221376658354	1.8345988	1.3544736
35.21060128951017	1.6044761	1.2666792
35.2289897487348	1.6971819	1.3027594
35.24737914487405	2.2043195	1.4846951
35.26576947854479	2.1108932	1.4528913
35.28416075036418	1.7831136	1.3353328
35.30255296094958	1.7057843	1.3060567
35.32094611091867	1.7574414	1.3256853
35.33934020088932	1.929265	1.3889798
35.35773523147969	2.2184486	1.4894458
35.3761312033082	2.5849857	1.607789
35.394528116993506	2.697527	1.6424149
35.41292597315452	2.3500712	1.5329942
35.431324772410434	2.01027	1.41784
35.449724515380666	2.0615816	1.4358209
35.46812520268491	2.010701	1.4179919
35.486526834943106	1.7965477	1.3403536
35.504929412775454	1.9516101	1.3970004
35.52333293680242	2.1537864	1.4675784
35.54173740764471	2.03821	1.4276589
35.560142825923286	1.9190458	1.3852963
35.5785491922594	1.9415672	1.3934013
35.59695650727454	1.9959855	1.4127935
35.61536477159042	1.8569168	1.3626873
