0.008763373481513119	0.61777776	0.7859884
0.026290120649546365	0.373186	0.6108895
0.043816868432600686	0.3462486	0.5884289
0.06134361724069026	0.18456003	0.4296045
0.07887036748382949	0.10512289	0.3242266
0.0963971195720331	0.11246481	0.33535773
0.11392387391531617	0.22777137	0.477254
0.1314506309236943	0.27250677	0.52202183
0.1489773910071836	0.24332236	0.49327716
0.16650415457580078	0.15767282	0.39708036
0.18403092203956356	0.13374746	0.365715
0.20155769380849	0.14842288	0.38525692
0.2190844702925996	0.2077507	0.45579678
0.2366112519019124	0.17271997	0.41559592
0.2541380390464497	0.12693879	0.3562847
0.27166483213623416	0.08464633	0.29094043
0.28919163158128947	0.05525355	0.23506074
0.3067184377916406	0.06099985	0.24698149
0.324245251177314	0.09277264	0.30458602
0.34177207214833777	0.13209455	0.36344814
0.3592989011147415	0.16403727	0.40501514
0.37682573848655654	0.27146074	0.5210189
0.39435258467381573	0.25431013	0.5042917
0.41187944008655414	0.21401075	0.46261296
0.42940630513480854	0.12342334	0.35131657
0.446933180228618	0.084139764	0.29006854
0.4644600657780234	0.116550334	0.3413947
0.48198696219306775	0.119223736	0.3452879
0.49951386988379676	0.14400218	0.3794762
0.5170407892602581	0.12953287	0.35990676
0.5345677207325025	0.12250026	0.35000038
0.5520946647105822	0.12614337	0.35516667
0.5696216216045534	0.12875007	0.3588176
0.5871485918244737	0.14227745	0.37719682
0.6046755757804043	0.15242581	0.3904175
0.6222025738824094	0.17103684	0.413566
0.6397295865405557	0.1938806	0.44031876
0.6572566141649129	0.18766055	0.43319803
0.6747836571655547	0.18321367	0.42803466
0.6923107159525568	0.18620524	0.43151504
0.7098377909359992	0.19094788	0.43697584
0.7273648825259653	0.1907336	0.43673056
0.7448919911325411	0.21355963	0.46212512
0.762419117165817	0.1786762	0.4227011
0.7799462610358868	0.18788865	0.43346125
0.7974734231528482	0.19734417	0.44423437
0.8150006039268024	0.1842068	0.4291932
0.8325278037678551	0.17942807	0.4235895
0.8500550230861152	0.16430284	0.40534288
0.8675822622916969	0.18255146	0.4272604
0.8851095217947171	0.17373542	0.41681582
0.9026368020052984	0.17973846	0.42395574
0.9201641033335665	0.1830037	0.4277893
0.9376914261896523	0.2100452	0.45830688
0.9552187709836915	0.23769777	0.48754257
0.9727461381258234	0.24139915	0.4913239
0.990273528026193	0.23510611	0.4848774
1.0078009410949496	0.25378194	0.5037677
1.0253283777422473	0.27573663	0.5251063
1.0428558383782454	0.2561588	0.50612134
1.0603833234131086	0.2273727	0.47683614
1.0779108332570058	0.20297453	0.45052695
1.0954383683201119	0.2219198	0.47108364
1.112965929012607	0.29189977	0.5402775
1.1304935157446763	0.49687073	0.70489055
1.1480211289265108	0.5674071	0.75326425
1.1655487689683062	1.3651512	1.1683968
1.1830764362802655	1.6634353	1.2897424
1.200604131272596	2.1107106	1.4528285
1.2181318543555117	2.4946387	1.5794425
1.235659605939232	2.4573426	1.5675913
1.253187386433982	3.951504	1.987839
1.270715196249994	6.3599224	2.5218887
1.2882430357975057	11.839743	3.4408927
1.3057709054867608	16.464537	4.0576515
1.3232988057280106	22.172462	4.7087646
1.3408267369315112	26.577963	5.155382
1.358354699507526	30.28266	5.5029683
1.3758826938663256	34.434715	5.86811
1.3934107204181858	36.499313	6.041466
1.410938779573391	36.423595	6.0351963
1.4284668717422309	36.808872	6.0670314
1.4459949973350033	36.482113	6.0400424
1.4635231567620117	36.959816	6.0794587
1.4810513504335687	36.53472	6.044396
1.4985795787599925	36.165276	6.013757
1.5161078421516088	36.124123	6.0103345
1.5336361410187505	35.549187	5.9623137
1.5511644757717598	35.216732	5.9343686
1.5686928468209842	35.46538	5.9552817
1.58622125457678	35.913822	5.992814
1.6037496994495108	37.53964	6.12696
1.621278181849548	37.69515	6.1396375
1.6388067021872719	38.522984	6.2066884
1.6563352608730693	37.58465	6.130632
1.673863858317336	36.152786	6.0127187
1.6913924949304753	34.765236	5.8962054
1.7089211711228998	33.5131	5.78905
1.7264498873050296	33.197315	5.761711
1.7439786438872935	32.903446	5.7361526
1.7615074412801288	32.37038	5.6894975
1.779036279893981	31.77774	5.637175
1.796565160139305	30.76364	5.546498
1.814094082426564	30.449957	5.518148
1.8316230471662298	29.745577	5.4539504
1.849152054768784	28.796104	5.3662
1.8666811056447168	27.775282	5.270226
1.8842102002045273	26.956106	5.191927
1.901739338858724	26.5538	5.153038
1.9192685220178245	26.227743	5.121303
1.9367977500923557	25.64995	5.064578
1.9543270234928547	25.139074	5.0138884
1.971856342629867	24.164202	4.9157095
1.9893857079139496	23.242714	4.8210697
2.006915119755667	22.5105	4.744523
2.0244445785655945	21.703415	4.6586924
2.0419740847543175	21.384624	4.624351
2.0595036387324317	20.833809	4.564407
2.0770332409105414	20.575768	4.5360518
2.094562891699263	20.194231	4.493799
2.1120925915092217	19.835041	4.453655
2.129622340751053	19.67226	4.4353423
2.1471521398354043	187.84401	13.70562
2.1646819891729323	444.19766	21.075996
2.182211889174303	440.18594	20.980608
2.1997418402501974	452.68997	21.276512
2.2172718428113023	432.6076	20.799221
2.234801897268317	320.6067	17.905493
2.2523320040319548	17.027992	4.1264987
2.269862163512935	16.74421	4.091969
2.287392376121992	16.668016	4.0826483
2.304922642269869	16.531042	4.0658383
2.322452962367322	16.120611	4.015048
2.3399833368251164	15.583984	3.9476554
2.357513766054032	15.244724	3.9044492
2.3750442504648586	14.873999	3.8566823
2.3925747904683963	14.848891	3.853426
2.410105386475459	14.576431	3.8179092
2.4276360388968707	14.289816	3.7801874
2.445166748143469	14.124433	3.7582486
2.4626975146261025	13.87307	3.724657
2.4802283387556323	13.577729	3.684797
2.4977592209429305	13.256932	3.641007
2.5152901615988825	12.940092	3.597234
2.5328211611343865	13.096002	3.6188397
2.5503522199603523	13.017437	3.6079686
2.5678833384877024	12.889905	3.5902514
2.5854145171273712	12.598736	3.5494697
2.6029457562903064	12.244946	3.4992778
2.620477056387469	12.015687	3.466365
2.6380084178298326	11.871597	3.4455185
2.655539841028383	11.5799885	3.4029381
2.673071326394119	11.50111	3.3913286
2.6906028743380523	11.31496	3.3637717
2.708134485271211	11.169848	3.3421323
2.7256661596046325	11.009906	3.3181179
2.743197897749369	10.73069	3.2757733
2.760729700116486	10.542076	3.2468565
2.778261567117063	10.161876	3.1877697
2.795793499162193	9.922407	3.1499853
2.8133254966629817	9.877063	3.1427796
2.830857560030551	9.841348	3.1370924
2.8483896896760337	9.750458	3.1225722
2.865921886010578	9.5366955	3.088154
2.883454149445347	9.331093	3.0546837
2.9009864803915177	9.233493	3.0386662
2.91851887926028	9.24191	3.040051
2.9360513464628384	9.17358	3.028792
2.953583882410413	8.98608	2.9976792
2.9711164875142373	8.800897	2.9666305
2.9886491621855606	8.746212	2.9573996
3.0061819068356455	8.640628	2.9394946
3.023714721875769	8.472236	2.9107106
3.041247607717225	8.301466	2.8812265
3.0587805647713213	8.282714	2.8779705
3.0763135934493806	8.3483715	2.889355
3.0938466941627407	8.213935	2.8659964
3.1113798673227544	8.052743	2.8377354
3.1289131133407904	7.878992	2.8069541
3.1464464326282315	7.887769	2.8085172
3.1639798255964786	7.8187065	2.796195
3.1815132926569443	7.708999	2.7765083
3.1990468342210603	7.59448	2.7558084
3.216580450700272	7.393117	2.7190287
3.2341141425060416	7.282324	2.6985781
3.251647910049847	7.292051	2.7003798
3.2691817537431813	7.3464575	2.710435
3.286715673997555	7.366758	2.7141771
3.3042496712244938	7.1336994	2.6708987
3.32178374583554	7.0072308	2.6471174
3.339317898242251	6.9573183	2.637673
3.3568521288562034	6.879529	2.6228857
3.3743864380889876	6.7744365	2.6027749
3.3919208263522127	6.689155	2.5863402
3.4094552940575023	6.6221356	2.5733511
3.4269898416164972	6.564301	2.5620892
3.444524469440858	6.529557	2.5552998
3.4620591779422587	6.478017	2.5451949
3.479593967532391	6.411299	2.5320544
3.4971288386229658	6.4107876	2.5319533
3.5146637916257086	6.397287	2.529286
3.5321988269523628	6.4819403	2.5459654
3.5497339450146903	6.4447923	2.5386596
3.5672691462244708	6.320208	2.5140023
3.5848044309934988	6.233809	2.4967597
3.60233979973359	6.1906033	2.4880922
3.619875252856575	6.2563624	2.5012722
3.6374107907743034	6.3225017	2.5144584
3.6549464138986427	6.3807125	2.5260072
3.6724821226414788	6.3551273	2.5209377
3.690017917414714	6.3736606	2.524611
3.7075537986302702	6.3258476	2.5151238
3.7250897667000857	6.370579	2.5240006
3.7426258220361235	6.5094776	2.5513678
3.7601619650503553	6.810277	2.6096509
3.777698196154779	7.326885	2.706822
3.7952345157614067	8.339977	2.8879018
3.8127709242822716	9.177532	3.0294442
3.830307422129425	11.569818	3.4014435
3.847844009714936	30.507168	5.5233293
3.8653806874508954	97.97037	9.897998
3.882917455749409	97.26206	9.862153
3.900454315022606	97.00096	9.8489065
3.917991265682631	41.57705	6.4480267
3.9355283081416506	11.286958	3.3596067
3.9530654428118495	8.853492	2.9754817
3.970602670105433	7.4088974	2.721929
3.9881399904346244	6.4108114	2.531958
4.005677404211669	6.2899647	2.50798
4.023214911848827	6.3765583	2.5251849
4.0407525137583855	6.4089656	2.5315936
4.058290210352644	6.4721785	2.5440476
4.075828002043927	6.4646754	2.5425725
4.0933658892445814	6.447499	2.5391924
4.110903872366966	6.3906083	2.5279653
4.128441951823468	6.2606835	2.5021358
4.145980128026488	6.1569824	2.4813268
4.163518401388452	6.1972647	2.4894307
4.181056772321807	6.1456947	2.479051
4.1985952412390155	6.0437365	2.4584012
4.216133808552567	6.04401	2.4584568
4.233672474674966	6.043627	2.4583788
4.251211240018741	6.355558	2.5210233
4.268750104996445	6.5974236	2.568545
4.286289070020643	7.6247697	2.7612987
4.303828135503928	9.299225	3.049463
4.3213673018589125	29.621647	5.4425774
4.3389065694982305	90.75828	9.526714
4.356445938834537	165.93326	12.881509
4.3739854102805085	171.26852	13.08696
4.391524984248844	172.18954	13.122102
4.409064661152262	136.41487	11.679678
4.426604441403504	96.73472	9.835381
4.444144325415337	75.64401	8.697356
4.461684313600543	21.409355	4.6270247
4.47922440637193	21.772577	4.6661096
4.496764604142329	20.312502	4.5069394
4.5143049073245916	18.611141	4.314063
4.531845316331589	16.467812	4.058055
4.5493858315762195	13.479761	3.6714795
4.566926453471405	11.216537	3.34911
4.584467182430081	9.234488	3.03883
4.602008018865218	8.231333	2.86903
4.619548963189798	7.586214	2.7543082
4.637090015816834	7.1390314	2.6718967
4.654631177159353	6.9100018	2.6286883
4.672172447630417	6.5610337	2.5614514
4.689713827643102	6.291638	2.5083137
4.7072553176105085	6.001625	2.4498215
4.724796917945764	5.876098	2.4240665
4.742338629062015	5.823189	2.4131284
4.759880451372434	5.746362	2.3971572
4.777422385290215	5.613939	2.3693752
4.794964431228581	5.614874	2.3695724
4.812506589600768	5.5525775	2.3563907
4.830048860820047	5.5650625	2.3590386
4.847591245299709	5.590169	2.364354
4.8651337434530655	5.619727	2.3705964
4.882676355693457	5.6156187	2.3697298
4.900219082434242	5.58471	2.3631992
4.917761924088813	5.5826116	2.362755
4.935304881070575	5.5643873	2.3588953
4.952847953792969	5.5625925	2.3585148
4.970391142669449	5.4848046	2.341966
4.9879344481135055	5.502337	2.345706
5.005477870538642	5.4231367	2.328763
5.023021410358394	5.3931403	2.3223135
5.040565067986324	5.3364873	2.3100839
5.05810884383601	5.266215	2.2948234
5.075652738321066	5.2484837	2.290957
5.09319675185512	5.1871037	2.2775214
5.110740884851836	5.181285	2.2762437
5.128285137724894	5.2867827	2.2993004
5.145829510888007	5.4199905	2.3280873
5.163374004754908	5.4721913	2.3392715
5.1809186197393595	5.3760214	2.318625
5.198463356255145	5.3028946	2.3028014
5.216008214716077	5.278473	2.2974927
5.233553195535998	5.326888	2.3080053
5.251098299128764	5.3257866	2.3077667
5.268643525908272	5.2950106	2.301089
5.286188876288432	5.254309	2.292228
5.3037343506831895	5.2743607	2.2965977
5.32127994950651	5.2883453	2.2996402
5.3388256731723915	5.2957454	2.3012486
5.356371522094851	5.2573853	2.292899
5.373917496687938	5.1881814	2.277758
5.391463597365729	5.2234697	2.2854912
5.40900982454232	5.214994	2.283636
5.426556178631843	5.3421087	2.3113003
5.444102660048449	5.2861643	2.299166
5.4616492692063225	5.235277	2.2880728
5.479196006519669	5.1663055	2.272951
5.496742872402727	5.1440997	2.2680607
5.514289867269756	5.2069993	2.2818851
5.531836991535049	5.221571	2.2850757
5.549384245612924	5.178544	2.2756414
5.566931629917724	5.0902586	2.2561603
5.584479144863822	5.0997944	2.2582724
5.6020267908656205	5.1057296	2.259586
5.619574568337545	5.1447425	2.2682025
5.637122477694054	5.0916123	2.2564602
5.654670519349629	5.1079783	2.2600837
5.672218693718784	5.117924	2.2622828
5.689767001216059	5.1816688	2.2763278
5.707315442256021	5.188653	2.2778616
5.724864017253266	5.160104	2.2715862
5.7424127266224225	5.1916184	2.2785122
5.75996157077814	5.2137322	2.2833598
5.777510550135105	5.183208	2.276666
5.795059665108022	5.085483	2.2551017
5.812608916111639	5.1327925	2.2655666
5.830158303560715	5.301887	2.3025827
5.847707827870055	5.414846	2.3269823
5.86525748945448	5.5161586	2.3486505
5.8828072887288485	5.6101265	2.3685706
5.900357226108044	5.658494	2.378759
5.917907302006979	5.78203	2.4045851
5.9354575168406	6.3874207	2.5273347
5.9530078710238765	7.028003	2.6510382
5.970558364971812	7.5494213	2.747621
5.988108999099438	7.8474703	2.8013337
6.005659773821818	8.276661	2.8769186
6.023210689554039	7.9766808	2.8243017
6.040761746711227	8.426576	2.9028563
6.058312945708531	7.7848525	2.790135
6.075864286961132	7.3404913	2.7093341
6.093415770884244	6.6660633	2.581872
6.1109673978931065	6.0864835	2.4670799
6.128519168402993	5.512856	2.3479471
6.146071082829204	5.3613825	2.315466
6.163623141587075	5.2642837	2.2944026
6.181175345091969	5.123963	2.2636173
6.198727693759281	5.1441426	2.2680702
6.216280188004435	5.2046666	2.2813737
6.233832828242885	5.214503	2.2835286
6.251385614890126	5.1631985	2.2722673
6.268938548361669	5.1259665	2.2640598
6.286491629073067	5.0675664	2.2511256
6.304044857439898	5.104414	2.259295
6.321598233877777	5.0639143	2.2503142
6.339151758802344	4.9989157	2.2358255
6.356705432629277	4.949097	2.2246566
6.37425925577428	4.9395204	2.2225032
6.391813228653095	4.9610825	2.2273488
6.409367351681486	5.0234847	2.2413132
6.426921625275259	5.0903378	2.2561777
6.44447604985025	5.1293545	2.264808
6.46203062582232	5.1536746	2.2701707
6.47958535360737	5.073131	2.2523613
6.497140233621328	5.020276	2.2405972
6.514695266280161	4.9550896	2.226003
6.532250451999859	4.980242	2.2316456
6.549805791196454	4.998249	2.2356765
6.567361284286002	5.065055	2.2505677
6.584916931684597	5.0748034	2.2527325
6.602472733808367	5.0354066	2.243971
6.6200286910734665	5.056316	2.2486253
6.637584803896092	5.0455227	2.2462242
6.655141072692462	5.014231	2.2392478
6.672697497878842	4.9924045	2.2343688
6.690254079871514	5.00357	2.2368662
6.707810819086808	4.950112	2.2248847
6.725367715941078	4.99787	2.2355917
6.742924770850719	5.010152	2.2383368
6.760481984232151	5.054509	2.2482235
6.778039356501836	5.054869	2.2483037
6.795596888076266	5.00993	2.2382872
6.813154579371963	4.9454246	2.223831
6.830712430805492	4.8897314	2.2112737
6.84827044279344	4.9131823	2.21657
6.865828615752445	4.9825034	2.2321522
6.883386950099159	5.058535	2.2491188
6.900945446250287	5.006044	2.2374191
6.918504104622553	4.924855	2.2192016
6.936062925632727	4.964328	2.2280772
6.953621909697607	5.0155034	2.239532
6.971181057234028	5.1343393	2.265908
6.988740368658859	5.22116	2.2849858
7.006299844389007	5.249526	2.2911844
7.023859484841407	5.24131	2.2893908
7.041419290433036	5.24181	2.2895
7.058979261580902	5.3773212	2.318905
7.0765393987020495	5.6117916	2.368922
7.094099702213559	6.057219	2.4611418
7.111660172532549	6.4158154	2.5329459
7.129220810076164	6.728522	2.5939395
7.146781615261595	7.326328	2.706719
7.16434258850606	7.590486	2.7550836
7.181903730226821	8.086282	2.843639
7.1994650408411704	8.178035	2.8597264
7.217026520766437	8.249912	2.872266
7.234588170419983	8.5141325	2.9178987
7.252149990219215	8.570503	2.9275422
7.269711980581568	8.510235	2.9172306
7.2872741419245175	8.326304	2.8855336
7.304836474665574	7.848306	2.801483
7.322398979222286	7.5090914	2.740272
7.339961656012233	7.2478566	2.6921844
7.357524505453039	6.922896	2.6311398
7.375087527962357	6.636629	2.5761657
7.392650723957886	6.2784967	2.505693
7.410214093857353	5.910802	2.431214
7.427777638078528	5.7300167	2.3937454
7.445341357039213	5.5706444	2.3602211
7.4629052511572525	5.424669	2.3290918
7.480469320850524	5.373027	2.317979
7.498033566536948	5.3397083	2.310781
7.5155979886344735	5.2624974	2.2940135
7.5331625875610975	5.186974	2.277493
7.550727363734844	5.154261	2.2702997
7.568292317573788	5.1677995	2.2732794
7.585857449496025	5.191623	2.2785134
7.603422759919705	5.1993065	2.2801988
7.620988249263007	5.1629543	2.2722135
7.638553917944147	5.169983	2.2737596
7.656119766381391	5.1630487	2.2722342
7.673685794993023	5.244398	2.290065
7.691252004197388	5.248972	2.2910635
7.70881839441285	5.199807	2.2803085
7.726384966057826	5.151452	2.269681
7.743951719550762	5.181162	2.2762165
7.761518655310149	5.239412	2.2889762
7.779085773754511	5.2012215	2.2806187
7.796653075302419	5.1961813	2.2795134
7.814220560372475	5.2037997	2.281184
7.831788229383323	5.257155	2.2928486
7.8493560827536495	5.216993	2.2840738
7.866924120902174	5.2133503	2.2832763
7.884492344247663	5.2581096	2.2930567
7.9020607532089135	5.3509045	2.3132021
7.919629348204771	5.360187	2.3152077
7.937198129654115	5.4059973	2.3250802
7.954767097975865	5.3626556	2.3157408
7.972336253588986	5.373663	2.3181162
7.989905596912472	5.3318005	2.3090692
8.007475128365371	5.3887596	2.3213701
8.025044848366756	5.393094	2.3223035
8.042614757335754	5.473329	2.3395147
8.060184855691523	5.5130305	2.3479843
8.07775514385327	5.6907167	2.3855224
8.095325622240228	5.778287	2.4038067
8.112896291271687	5.8544817	2.4196036
8.130467151366968	5.8706923	2.4229512
8.148038202945436	5.842939	2.4172173
8.165609446426497	5.8344903	2.415469
8.183180882229594	5.914812	2.4320388
8.200752510774217	5.9369407	2.4365838
8.218324332479893	5.9402924	2.4372716
8.235896347766193	5.897589	2.4284952
8.253468557052724	5.9210567	2.4333222
8.27104096075914	5.9261575	2.43437
8.288613559305137	6.057049	2.4611073
8.306186353110448	6.1842694	2.486819
8.32375934259485	6.265521	2.5031023
8.341332528178162	6.2311554	2.4962282
8.358905910280246	6.245311	2.499062
8.376479489321003	6.3021245	2.5104032
8.394053265720377	6.311183	2.5122068
8.411627239898356	6.31703	2.5133703
8.42920141227497	6.2742953	2.5048544
8.44677578327029	6.335365	2.517015
8.464350353304427	6.295818	2.509147
8.48192512279754	6.287472	2.5074832
8.499500092169827	6.201748	2.490331
8.51707526184153	6.206867	2.4913585
8.534650632232934	6.196689	2.489315
8.552226203764365	6.1859202	2.4871511
8.569801976856192	6.1456347	2.479039
8.587377951928834	6.116221	2.4730995
8.60495412940274	6.1364098	2.4771779
8.622530509698416	6.2456737	2.4991345
8.6401070932364	6.4283624	2.5354216
8.657683880437283	6.5611405	2.5614724
8.675260871721695	6.6544423	2.5796206
8.692838067510303	6.8169374	2.6109266
8.710415468223834	7.0175724	2.64907
8.727993074283043	7.174251	2.6784792
8.745570886108737	7.129515	2.6701152
8.763148904121765	7.099236	2.6644392
8.78072712874302	7.1149473	2.6673858
8.798305560393441	7.3473816	2.7106054
8.815884199494006	7.591301	2.7552316
8.833463046465745	7.729912	2.780272
8.851042101729728	7.85024	2.801828
8.86862136570707	8.086062	2.8436003
8.886200838818924	8.249655	2.8722212
8.903780521486505	8.388125	2.8962262
8.921360414131055	8.498609	2.9152374
8.938940517173874	8.616454	2.9353797
8.956520831036297	8.732049	2.955004
8.97410135613971	8.979667	2.9966092
8.99168209290554	9.210575	3.034893
9.009263041755265	9.518822	3.0852587
9.026844203110405	9.759063	3.1239498
9.044425577392525	9.876005	3.1426113
9.062007165023239	9.942972	3.1532478
9.079588966424197	10.231515	3.198674
9.097170982017108	10.335952	3.2149575
9.11475321222372	11.449906	3.383771
9.132335657465825	12.366686	3.51663
9.149918318165264	12.544868	3.5418737
9.167501194743924	13.066771	3.6147988
9.18508428762374	12.660903	3.5582163
9.202667597226693	12.584591	3.5474768
9.220251123974803	12.332469	3.5117614
9.237834868290143	12.003594	3.4646204
9.255418830594836	11.736636	3.4258773
9.273003011311046	11.243553	3.3531408
9.290587410860985	11.011689	3.3183866
9.308172029666911	10.397195	3.2244682
9.32575686815113	10.116883	3.1807048
9.343341926735997	8.810279	2.9682114
9.360927205843916	8.512068	2.9175448
9.378512705897327	8.282947	2.878011
9.396098427318728	8.115967	2.8488536
9.413684370530664	8.042878	2.8359969
9.431270535955722	7.959014	2.8211725
9.448856924016539	7.817239	2.7959325
9.466443535135806	7.6867323	2.7724957
9.484030369736251	7.6541505	2.7666135
9.501617428240658	7.6950464	2.7739947
9.519204711071852	7.710182	2.7767215
9.536792218652714	7.781891	2.7896042
9.55437995140617	7.8639297	2.80427
9.571967909755191	7.847256	2.8012955
9.589556094122802	7.8824315	2.807567
9.60714450493207	7.9120126	2.81283
9.624733142606116	7.9622855	2.8217523
9.642322007568108	7.998068	2.8280857
9.659911100241267	8.004192	2.829168
9.677500421048851	7.989331	2.8265405
9.695089970414175	7.980701	2.8250134
9.712679748760609	7.9955335	2.8276374
9.730269756511557	8.049721	2.837203
9.747859994090492	8.107942	2.8474448
9.765450461920915	8.18984	2.8617897
9.78304116042639	8.237692	2.870138
9.800632090030527	8.322068	2.8847995
9.81822325115699	8.293344	2.8798165
9.835814644229481	8.263368	2.8746073
9.853406269671762	8.216204	2.8663921
9.870998127907646	8.253083	2.872818
9.888590219360985	8.2693615	2.8756497
9.906182544455698	8.300162	2.8810003
9.923775103615734	8.307005	2.8821876
9.941367897265108	8.282444	2.8779235
9.958960925827878	8.284328	2.8782508
9.97655418972816	8.271861	2.8760843
9.994147689390106	8.269484	2.875671
10.011741425237934	8.189438	2.8617194
10.029335397695904	8.165345	2.8575068
10.04692960718833	8.196031	2.862871
10.06452405413958	8.24933	2.8721647
10.082118738974064	8.29923	2.8808384
10.099713662116246	8.207355	2.8648481
10.117308823990651	8.141124	2.8532655
10.134904225021844	8.11425	2.8485522
10.152499865634445	8.116448	2.8489382
10.170095746253125	8.152992	2.8553445
10.18769186730261	8.174467	2.8591025
10.205288229207675	8.176648	2.859484
10.222884832393145	8.160574	2.8566718
10.2404816772839	8.130614	2.8514233
10.258078764304868	8.043349	2.8360798
10.275676093881035	7.997268	2.8279443
10.293273666437438	8.00837	2.8299065
10.310871482399158	8.099482	2.8459587
10.32846954219134	8.124483	2.850348
10.346067846239173	8.14155	2.8533401
10.363666394967908	8.108519	2.847546
10.38126518880283	8.132712	2.8517911
10.398864228169298	8.2002	2.863599
10.416463513492713	8.229218	2.8686612
10.434063045198531	8.245413	2.8714826
10.451662823712262	8.2231455	2.8676028
10.469262849459467	8.177479	2.8596292
10.486863122865758	8.101753	2.8463578
10.504463644356806	8.158883	2.856376
10.522064414358338	8.086764	2.8437238
10.539665433296118	7.9900093	2.8266604
10.557266701595987	7.831961	2.7985642
10.574868219683818	7.748459	2.7836053
10.592469987985552	7.6686754	2.7692373
10.610072006927185	7.6208773	2.7605937
10.627674276934751	7.553281	2.7483232
10.64527679843435	7.5000854	2.7386284
10.662879571852143	7.3645635	2.713773
10.680482597614331	7.1890244	2.6812356
10.698085876147173	7.0822973	2.6612587
10.715689407876988	6.9274764	2.63201
10.733293193230146	6.880768	2.6231217
10.750897232633072	6.6961455	2.587691
10.76850152651225	6.5996537	2.568979
10.786106075294207	6.5265713	2.5547154
10.803710879405534	6.486536	2.5468678
10.821315939272877	6.4613113	2.541911
10.83892125532294	6.4280663	2.5353632
10.856526827982472	6.3961425	2.5290596
10.874132657678285	6.3287225	2.5156953
10.891738744837243	6.254882	2.500976
10.909345089886271	6.2234616	2.4946866
10.926951693252343	6.101657	2.4701533
10.944558555362494	6.0767446	2.4651053
10.96216567664381	6.063349	2.4623868
10.979773057523436	5.9882145	2.4470828
10.997380698428573	5.8870616	2.4263268
11.014988599786477	5.78797	2.4058201
11.032596762024461	5.6677084	2.3806949
11.050205185569892	5.642937	2.3754866
11.067813870850198	5.666028	2.380342
11.085422818292859	5.6075087	2.368018
11.10303202832541	5.4626074	2.337222
11.120641501375454	5.3153777	2.3055103
11.138251237870636	5.2234693	2.285491
11.155861238238671	5.2015777	2.2806966
11.173471502907317	5.16308	2.272241
11.191082032304402	5.0866694	2.2553647
11.208692826857805	5.0103736	2.2383864
11.226303886995465	4.9512854	2.2251484
11.243915213145371	4.9062686	2.21501
11.261526805735578	4.8972063	2.2129633
11.279138665194196	4.885791	2.2103825
11.296750791949393	4.8634453	2.205322
11.314363186429393	4.804524	2.1919224
11.331975849062479	4.7490435	2.17923
11.34958878027699	4.636306	2.1532083
11.36720198050133	4.572435	2.1383252
11.384815450163948	4.5362067	2.1298373
11.402429189693366	4.5185323	2.125684
11.420043199518153	4.5029564	2.1220171
11.437657480066942	63.489475	7.9680285
11.455272031768422	85.245	9.232822
11.472886855051353	107.65899	10.375885
11.490501950344528	99.21264	9.960554
11.508117318076819	84.522514	9.193613
11.52573295867715	45.851837	6.7713985
11.543348872574514	4.1344666	2.0333388
11.560965060197946	4.0584307	2.0145547
11.57858152197655	4.0622754	2.0155087
11.59619825833949	4.02847	2.0071049
11.613815269715985	3.9944186	1.9986042
11.631432556535323	38.498726	6.2047343
11.649050119226837	83.07152	9.114358
11.666667958219929	93.47439	9.668216
11.68428607394406	107.701294	10.377923
11.701904466828756	82.48306	9.082019
11.719523137303586	65.33973	8.0833
11.737142085798196	4.630916	2.1519563
11.754761312742286	3.7328947	1.93207
11.772380818565619	3.7237318	1.9296973
11.790000603698015	3.7038465	1.924538
11.80762066856935	3.6403036	1.9079579
11.825241013609572	3.6035678	1.8983066
11.842861639248683	3.5806606	1.8922633
11.860482545916748	3.55437	1.8853036
11.878103734043883	3.5459943	1.8830811
11.895725204060282	3.5041637	1.8719412
11.91334695639619	3.4860814	1.8671051
11.930968991481919	3.4236848	1.8503202
11.948591309747824	3.391326	1.8415554
11.966213911624347	3.3480268	1.8297614
11.98383679754198	3.3242671	1.8232573
12.001459967931268	3.27543	1.8098149
12.019083423222835	3.2838361	1.8121358
12.036707163847352	3.2486453	1.8023999
12.05433119023556	3.2405493	1.8001525
12.071955502818259	3.1666875	1.7795188
12.089580102026313	3.142566	1.7727284
12.107204988290643	3.0964875	1.759684
12.12483016204224	3.075114	1.7536004
12.142455623712152	3.026673	1.7397336
12.16008137373149	3.0278842	1.7400817
12.177707412531431	3.0427427	1.7443459
12.19533374054321	3.086268	1.7567778
12.212960358198126	3.112794	1.7643112
12.230587265927545	3.089491	1.7576947
12.248214464162889	3.0084057	1.7344756
12.265841953335649	2.9734902	1.7243811
12.283469733877375	2.9150758	1.7073593
12.301097806219685	2.9592307	1.7202414
12.31872617079425	2.9702063	1.7234286
12.336354828032825	2.9621325	1.7210847
12.353983778367205	2.9393625	1.7144569
12.371613022229262	2.9181933	1.708272
12.389242560050928	2.9070141	1.7049968
12.406872392264201	2.9001708	1.7029887
12.424502519301143	2.8984213	1.7024751
12.442132941593874	2.9191196	1.7085431
12.459763659574586	2.9015222	1.7033855
12.477394673675532	2.8938763	1.7011397
12.49502598432903	2.8276637	1.6815659
12.51265759196746	2.8173487	1.678496
12.530289497023267	2.7878482	1.6696851
12.547921699928967	2.7969666	1.6724133
12.565554201117134	2.7858267	1.6690795
12.583187001020404	2.7801683	1.6673837
12.600820100071486	2.7793114	1.6671267
12.618453498703152	2.7576816	1.6606269
12.636087197348235	2.7543092	1.6596111
12.65372119643964	2.7642488	1.662603
12.671355496410326	2.7947001	1.6717356
12.68899009769333	2.8210204	1.6795894
12.706625000721749	2.8530545	1.6890987
12.724260205928752	2.911626	1.7063488
12.741895713747551	2.9365587	1.713639
12.759531524611454	2.963486	1.7214779
12.777167638953818	2.9905834	1.7293303
12.794804057208072	3.029311	1.7404916
12.812440779807702	3.0206056	1.737989
12.830077807186271	3.1721444	1.7810515
12.847715139777405	3.2024856	1.789549
12.865352778014795	3.4775133	1.8648092
12.882990722332197	3.5957136	1.8962367
12.90062897316344	3.6873336	1.9202431
12.918267530942412	3.7519653	1.9369991
12.935906396103071	3.6582654	1.9126593
12.953545569079449	3.816163	1.9535002
12.971185050305628	3.6063406	1.8990368
12.988824840215775	3.5563474	1.885828
13.006464939244115	3.5644963	1.8879874
13.024105347824943	3.439466	1.8545797
13.041746066392617	3.5814285	1.8924663
13.05938709538157	3.3712802	1.8361046
13.077028435226296	3.363771	1.8340586
13.094670086361363	3.2369845	1.7991621
13.112312049221401	3.1655903	1.7792106
13.129954324241112	3.0687675	1.7517898
13.147596911855258	2.8640738	1.6923574
13.165239812498685	2.8390794	1.6849568
13.182883026606293	2.7635705	1.662399
13.200526554613058	2.713921	1.6473982
13.218170396954017	2.6881404	1.639555
13.235814554064284	2.7172503	1.6484084
13.253459026379034	2.7118828	1.6467795
13.271103814333523	2.7042434	1.6444584
13.288748918363058	2.6805842	1.637249
13.306394338903031	2.6922526	1.6408086
13.32404007638889	2.704066	1.6444044
13.341686131256164	2.6809409	1.637358
13.359332503940449	2.6468828	1.6269243
13.376979194877402	2.6235304	1.6197315
13.394626204502751	2.659895	1.6309184
13.412273533252307	2.6913385	1.64053
13.429921181561937	2.6968882	1.6422205
13.447569149867581	2.722573	1.6500221
13.465217438605247	2.7731743	1.665285
13.482866048211022	2.7676697	1.6636314
13.500514979121052	2.7463524	1.6572123
13.518164231771568	2.7019384	1.6437573
13.535813806598844	2.7211635	1.6495949
13.553463704039254	2.7176673	1.6485349
13.571113924529229	2.7050078	1.6446908
13.588764468505275	2.6754267	1.6356732
13.606415336403956	2.7144935	1.647572
13.624066528661917	2.7143288	1.647522
13.641718045715882	2.768246	1.6638047
13.659369888002635	2.8157575	1.6780219
13.67702205595903	2.895574	1.7016387
13.694674550021993	2.9304004	1.7118412
13.712327370628532	2.9649365	1.7218992
13.729980518215713	3.0308123	1.7409228
13.747633993220681	3.1372	1.7712142
13.765287796080647	3.2165396	1.7934713
13.7829419272329	3.293812	1.8148862
13.800596387114801	3.3331332	1.825687
13.818251176163775	3.3311963	1.8251566
13.835906294817324	3.362787	1.8337903
13.853561743513023	3.388717	1.8408468
13.871217522688525	3.4127285	1.8473572
13.888873632781538	3.4727764	1.8635386
13.906530074229858	3.471955	1.8633183
13.92418684747135	3.4974065	1.8701354
13.941843952943948	3.4546561	1.8586705
13.959501391085665	3.4484065	1.8569885
13.977159162334578	3.4072978	1.8458867
13.994817267128846	3.4293683	1.8518554
14.012475705906693	3.3457434	1.8291373
14.030134479106424	3.239961	1.7999891
14.047793587166414	3.143243	1.7729194
14.065453030525108	3.1061144	1.7624172
14.083112809621026	3.047399	1.7456801
14.100772924892766	2.9639585	1.7216151
14.118433376778997	2.887918	1.6993876
14.136094165718458	2.8368375	1.6842914
14.153755292149969	2.8028088	1.6741592
14.171416756512416	2.7568374	1.6603726
14.189078559244768	2.700853	1.6434273
14.20674070078606	2.625354	1.6202945
14.224403181575408	2.5505698	1.5970503
14.242066002051999	2.502978	1.5820802
14.259729162655093	2.4842875	1.5761622
14.277392663824022	2.4718335	1.5722066
14.295056505998208	2.4592316	1.5681938
14.312720689617128	2.3991086	1.5489056
14.330385215120348	2.41238	1.5531838
14.348050082947497	2.3902082	1.5460298
14.3657152935383	2.3938005	1.5471911
14.383380847332528	2.3647518	1.5377749
14.401046744770051	2.3975322	1.5483967
14.418712986290798	2.4050288	1.5508156
14.436379572334793	2.4444835	1.5634844
14.454046503342123	2.398278	1.5486375
14.471713779752946	2.3908417	1.5462347
14.489381402007504	2.3673167	1.5386087
14.507049370546113	2.4187891	1.5552456
14.524717685809168	2.4093783	1.5522172
14.542386348237134	2.3892095	1.5457067
14.560055358270553	2.3533864	1.5340751
14.577724716350051	2.3933659	1.5470507
14.595394422916325	2.4064252	1.5512657
14.61306447841015	2.4737194	1.5728062
14.63073488327237	2.5151057	1.5859085
14.648405637943917	2.545508	1.5954648
14.6660767428658	2.5182755	1.5869075
14.683748198479094	2.5175426	1.5866766
14.701420005224954	2.5435176	1.5948409
14.719092163544628	2.5765586	1.6051662
14.73676467387942	2.6252172	1.6202523
14.754437536670727	2.6300516	1.6217434
14.772110752360014	2.6588595	1.6306009
14.78978432138882	2.6350498	1.6232836
14.807458244198777	2.6265457	1.6206621
14.82513252123159	2.6305537	1.6218982
14.842807152929028	2.6795576	1.6369355
14.860482139732962	2.68975	1.6400458
14.87815748208531	2.671099	1.6343497
14.8958331804281	2.6911473	1.6404717
14.91350923520342	2.6529617	1.6287915
14.931185646853438	2.698039	1.6425709
14.948862415820408	2.6771653	1.6362045
14.966539542546656	2.7030385	1.644092
14.98421702747459	2.6524484	1.6286339
15.001894871046696	2.622306	1.6193537
15.019573073705542	2.572665	1.6039529
15.037251635893766	2.5836875	1.6073853
15.054930558054092	2.6412842	1.6252028
15.072609840629323	2.7433639	1.6563103
15.090289484062351	2.870115	1.6941414
15.107969488796124	3.0792444	1.7547776
15.125649855273691	3.454075	1.8585142
15.14333058393817	3.9636424	1.9908898
15.161011675232768	5.0594077	2.2493126
15.17869312960076	6.555551	2.560381
15.196374947485506	8.432911	2.9039474
15.214057129330447	11.613049	3.4077923
15.231739675579114	16.416468	4.051724
15.249422586675102	21.551525	4.642362
15.267105863062092	24.550999	4.9548965
15.284789505183847	24.804203	4.980382
15.302473513484218	22.72564	4.767142
15.320157888407127	19.227745	4.3849454
15.337842630396578	15.024729	3.8761744
15.355527739896656	11.679007	3.4174562
15.37321321735153	9.085835	3.014272
15.39089906320545	6.544858	2.558292
15.408585277902748	4.900596	2.213729
15.42627186188783	3.7804506	1.9443381
15.443958815605198	3.2673805	1.8075897
15.461646139499424	2.9405832	1.7148129
15.479333834015168	2.782829	1.6681813
15.497021899597165	2.7208471	1.649499
15.514710336690234	2.6441681	1.6260898
15.53239914573928	2.587068	1.6084366
15.550088327189297	2.5226643	1.5882897
15.567777881485336	2.520964	1.5877544
15.58546780907256	2.5156207	1.5860709
15.6031581103962	2.4996824	1.5810384
15.620848785901568	2.5234385	1.5885334
15.638539836034063	2.518583	1.5870044
15.656231261239173	2.5319302	1.591204
15.673923061962451	2.4909942	1.5782884
15.691615238649552	2.4662447	1.5704281
15.709307791746202	2.4168572	1.5546244
15.727000721698221	2.3803728	1.5428457
15.744694028951498	2.3742623	1.5408641
15.76238771395202	2.3514595	1.5334469
15.780081777145844	2.3428676	1.5306429
15.797776218979125	2.3275642	1.5256357
15.815471039898094	2.3136287	1.5210617
15.833166240349064	2.315198	1.5215775
15.850861820778437	2.327937	1.5257578
15.868557781632699	2.3535492	1.5341282
15.886254123358412	2.4161084	1.5543836
15.903950846402232	2.4064324	1.551268
15.921647951210897	2.385438	1.5444863
15.939345438231225	2.3722029	1.5401957
15.957043307910133	2.3818054	1.5433099
15.974741560694602	2.4171393	1.5547152
15.992440197031714	2.409628	1.5522976
16.01013921736862	2.4100225	1.5524247
16.02783862215259	2.4153929	1.5541534
16.045538411830933	2.4221337	1.5563205
16.06323858685107	2.4261239	1.5576019
16.080939147660512	2.3837473	1.5439389
16.09864009470684	2.3577023	1.5354811
16.11634142843774	2.3552291	1.5346756
16.134043149300954	2.3991485	1.5489185
16.15174525774433	2.4469578	1.5642755
16.169447754215817	2.4875653	1.5772017
16.18715063916342	2.4374688	1.5612395
16.204853913035244	2.4245288	1.5570898
16.222557576279478	2.3944225	1.5473921
16.240261629344403	22.398727	4.7327294
16.257966072678386	42.949505	6.553587
16.275670906729868	38.0609	6.1693516
16.293376131947387	2.4810543	1.5751363
16.31108174877957	2.511481	1.5847653
16.328787757675133	2.5212	1.5878286
16.34649415908287	2.5283208	1.5900694
16.364200953451657	2.5570095	1.5990652
16.38190814123048	2.5902982	1.6094403
16.39961572286839	2.645309	1.6264405
16.41732369881455	2.723736	1.6503745
16.43503206951817	2.773131	1.665272
16.45274083542859	2.81694	1.6783743
16.47044999699522	2.8304453	1.6823927
16.488159554667558	2.8618884	1.6917117
16.505869508895184	2.8727825	1.6949284
16.523579860127786	2.8981335	1.7023906
16.541290608815117	2.9250944	1.7102907
16.559001755407035	2.984637	1.7276102
16.57671330035348	3.0275552	1.7399871
16.59442524410448	3.099683	1.7605916
16.61213758711015	3.1368325	1.7711105
16.629850329820705	3.1735566	1.7814479
16.647563472686436	3.2537682	1.8038205
16.665277016157724	3.3318896	1.8253465
16.682990960685053	3.3847487	1.8397686
16.70070530671898	3.440205	1.854779
16.718420054710155	3.530051	1.878843
16.736135205109335	3.5745175	1.8906394
16.753850758367335	3.655134	1.9118404
16.771566714935087	3.6870713	1.9201748
16.789283075263597	3.7863364	1.9458511
16.80699983980398	3.793207	1.9476157
16.82471700900741	3.861581	1.9650906
16.84243458332518	3.9072309	1.9766717
16.860152563208665	4.0080366	2.0020082
16.87787094910932	4.0716176	2.017825
16.89558974147871	4.106525	2.0264564
16.913308940768466	4.1088557	2.0270312
16.931028547430333	4.1599827	2.0396035
16.94874856191613	4.2287173	2.0563846
16.966468984677785	4.3382535	2.0828474
16.98418981616729	4.402383	2.0981855
17.00191105683676	4.433675	2.1056292
17.019632707138374	4.415183	2.1012337
17.03735476752442	4.411074	2.1002557
17.05507723844728	4.4838066	2.1175
17.072800120359403	4.5898356	2.1423903
17.090523413713353	4.5995097	2.1446466
17.108247118961785	4.5931883	2.1431725
17.125971236557437	4.600445	2.1448648
17.143695766953133	4.6324615	2.1523154
17.161420710601806	4.6566854	2.1579354
17.179146067956477	4.677051	2.1626492
17.19687183947025	4.723111	2.173272
17.21459802559634	4.7334456	2.1756482
17.232324626788028	4.696146	2.1670592
17.25005164349871	4.672302	2.1615508
17.267779076181863	4.6000924	2.1447825
17.285506925291074	4.550797	2.1332598
17.30323519127999	4.532224	2.1289022
17.320963874602384	4.5222034	2.1265473
17.33869297571211	4.543052	2.1314437
17.356422495063114	4.535852	2.129754
17.37415243310944	4.484428	2.1176467
17.391882790305218	4.4590464	2.1116455
17.40961356710468	4.4515305	2.109865
17.42734476396215	4.5186515	2.125712
17.445076381332044	4.575225	2.1389775
17.462808419668868	4.674027	2.1619499
17.48054087942723	4.787648	2.1880696
17.498273761061835	5.087275	2.255499
17.51600706502747	5.5229344	2.3500924
17.533740791779024	6.2254434	2.4950838
17.551474941771485	7.626041	2.7615287
17.56920951545993	8.847826	2.9745295
17.586944513299528	11.217873	3.3493092
17.60467993574556	13.045749	3.6118898
17.622415783253373	14.834785	3.8515952
17.64015205627843	16.242857	4.030243
17.657888755276293	17.314854	4.1611123
17.675625880702604	17.744455	4.2124166
17.69336343301311	17.507322	4.184175
17.71110141266366	16.557913	4.0691414
17.728839820110178	15.533354	3.9412377
17.746578655808705	14.523944	3.8110292
17.764317920215372	13.039148	3.610976
17.7820576137864	11.461744	3.3855197
17.79979773697811	9.429674	3.0707774
17.81753829024692	7.4981713	2.7382789
17.835279274049356	5.8397455	2.4165566
17.85302068884201	4.7863073	2.187763
17.870762535081607	4.156804	2.038824
17.888504813224934	3.8467877	1.9613229
17.90624752372891	3.6628568	1.9138591
17.923990667050536	3.5797997	1.8920358
17.941734243646895	3.5257008	1.877685
17.959478253975185	3.480182	1.8655245
17.9772226984927	3.4313152	1.852381
17.994967577656833	3.3910744	1.841487
18.01271289192506	3.3953974	1.8426604
18.030458641754965	3.4133623	1.8475287
18.04820482760425	3.4064112	1.8456465
18.06595144993067	3.37376	1.8367798
18.083698509192125	3.3000658	1.8166083
18.101446005846576	3.2816014	1.8115191
18.119193940352105	3.2541125	1.8039159
18.136942313166887	3.2611818	1.8058742
18.1546911247492	3.2028406	1.7896482
18.1724403755574	3.1453161	1.7735039
18.19019006604997	3.1159728	1.7652118
18.207940196685467	3.1528432	1.7756248
18.225690767922575	3.1587546	1.7772886
18.243441780220046	3.1264915	1.7681888
18.261193234036764	3.1029289	1.7615132
18.278945129831676	3.0956316	1.7594407
18.29669746806386	3.0728035	1.7529414
18.314450249192483	3.050289	1.7465076
18.3322034736768	3.0143576	1.7361906
18.349957141976184	3.0038478	1.7331612
18.3677112545501	3.0359375	1.7423942
18.385465811858108	3.0838435	1.7560875
18.403220814359884	3.1026325	1.7614291
18.420976262515172	3.1013951	1.7610779
18.43873215678387	3.107448	1.7627956
18.456488497625923	3.1499782	1.7748178
18.474245285501407	3.238016	1.7994487
18.492002520870486	3.3200376	1.8220971
18.50976020419343	3.379528	1.8383492
18.527518335930615	3.6825488	1.9189968
18.545276916542516	4.2271338	2.0559995
18.563035946489688	4.3811655	2.0931234
18.580795426232832	4.8197713	2.1953979
18.598555356232698	4.6892962	2.1654782
18.616315736950185	5.021608	2.2408943
18.63407656884626	4.6990957	2.1677399
18.65183785238201	4.9289756	2.2201297
18.669599588018617	4.678382	2.1629567
18.68736177621737	4.63772	2.1535366
18.705124417439652	4.5709376	2.1379752
18.72288751214696	4.375248	2.0917094
18.740651060800886	4.466657	2.1134467
18.758415063863115	4.2173657	2.0536225
18.77617952179546	4.405703	2.0989766
18.793944435059814	4.196789	2.0486066
18.811709804118184	4.226615	2.0558734
18.829475629432675	4.191609	2.0473418
18.8472419114655	4.0436525	2.0108836
18.86500865067897	4.1069813	2.026569
18.88277584753551	3.8223505	1.9550833
18.90054350249763	3.8068044	1.9511033
18.918311616027957	3.4899297	1.8681353
18.936080188589226	3.3843493	1.8396602
18.953849220644265	3.093892	1.7589463
18.971618712656007	2.894303	1.7012651
18.9893886650875	2.8046606	1.6747121
19.007159078401887	7.9520717	2.8199418
19.024929953062408	32.83356	5.7300577
19.042701289532435	32.82998	5.729745
19.060473088275405	25.401518	5.039992
19.07824534975489	2.679338	1.6368684
19.096018074434568	2.660303	1.6310436
19.113791262778197	2.639621	1.624691
19.13156491524966	2.6136975	1.6166934
19.149339032312945	2.565133	1.6016033
19.167113614432136	2.5531425	1.5978556
19.184888662071433	2.5818124	1.6068019
19.202664175695123	2.6046665	1.6138979
19.220440155767623	2.5889008	1.6090062
19.238216602753447	2.543503	1.5948364
19.2559935171172	2.527063	1.5896739
19.27377089932361	2.5218604	1.5880367
19.291548749837514	2.5539508	1.5981085
19.309327069123835	2.4985955	1.5806947
19.32710585764763	2.4805677	1.5749818
19.344885115874032	2.4515784	1.5657517
19.362664844268313	2.475356	1.5733265
19.380445043295822	2.5030763	1.5821114
19.39822571342203	2.5437558	1.5949156
19.41600685511252	2.5373442	1.5929043
19.43378846883297	2.4767425	1.573767
19.451570555049173	2.436161	1.5608206
19.469353114227037	2.4729972	1.5725766
19.48713614683254	2.4683228	1.5710896
19.50491965333182	2.451985	1.5658815
19.52270363419109	2.4123282	1.5531672
19.540488089876686	2.433051	1.5598241
19.55827302085503	2.460495	1.5685965
19.576058427592674	2.4656515	1.5702393
19.593844310556282	2.472495	1.5724169
19.611630670212598	2.4741771	1.5729517
19.629417507028506	2.4840527	1.5760877
19.64720482147098	2.4768963	1.5738158
19.6649926140071	2.473305	1.5726745
19.682780885104084	2.4897268	1.5778868
19.70056963522921	2.4762454	1.573609
19.718358864849908	2.488683	1.577556
19.7361485744337	2.4909878	1.5782863
19.753938764448215	2.4861906	1.5767659
19.771729435361202	2.4628444	1.5693452
19.789520587640506	2.4087613	1.5520184
19.807312221754092	2.3962476	1.5479817
19.825104338170043	2.4106486	1.5526264
19.842896937356517	2.4498243	1.5651915
19.860690019781824	2.4715075	1.5721029
19.87848358591436	2.507551	1.5835248
19.896277636222635	2.5100288	1.5843071
19.914072171175278	2.49213	1.5786482
19.931867191241015	2.4932158	1.578992
19.94966269688869	2.512568	1.5851082
19.967458688587264	2.5136034	1.5854348
19.985255166805807	2.4792404	1.5745604
20.00305213201348	2.4613535	1.5688702
20.020849584679578	2.4720788	1.5722846
20.038647525273507	2.5124207	1.5850617
20.05644595426477	2.505989	1.5830317
20.07424487212299	2.482345	1.575546
20.092044279317903	2.4384513	1.5615541
20.109844176319353	2.467165	1.5707211
20.127644563597304	2.4692817	1.5713948
20.145445441621817	2.4708219	1.5718848
20.16324681086307	2.412965	1.5533721
20.181048671791373	2.3984752	1.5487012
20.198851024877122	2.412104	1.553095
20.216653870590836	2.4344332	1.5602671
20.234457209403146	2.4284296	1.558342
20.252261041784802	2.388137	1.5453598
20.270065368206662	2.3498263	1.5329143
20.287870189139685	2.3415499	1.5302124
20.305675505054968	2.3444295	1.531153
20.323481316423702	2.3378797	1.5290127
20.341287623717207	2.3588548	1.5358564
20.359094427406884	2.3611085	1.5365899
20.376901727964288	2.3737104	1.540685
20.39470952586107	2.3621833	1.5369396
20.41251782156899	2.3478978	1.5322851
20.430326615559935	2.3253083	1.5248961
20.448135908305886	2.3457136	1.5315722
20.465945700278965	2.3594954	1.5360649
20.483755991951384	2.3349996	1.5280706
20.50156678379548	2.3411012	1.5300658
20.519378076283708	2.3623695	1.5370002
20.537189869888635	2.354031	1.5342852
20.55500216508294	2.3214328	1.5236249
20.572814962339415	2.3388927	1.5293438
20.59062826213098	2.3829834	1.5436915
20.60844206493066	2.3914778	1.5464404
20.626256371211593	2.354091	1.5343047
20.644071181447032	2.2984576	1.5160666
20.66188649611036	2.3008032	1.5168399
20.67970231567506	2.321241	1.523562
20.697518640614742	2.3484023	1.5324497
20.715335471403122	2.3480628	1.532339
20.73315280851404	2.330272	1.5265229
20.750970652421447	2.2738082	1.5079151
20.768789003599412	2.2724879	1.5074773
20.786607862522136	2.2671602	1.5057092
20.8044272296639	2.2740538	1.5079967
20.82224710549913	2.2620447	1.5040095
20.84006749050237	2.2808652	1.5102533
20.857888385148268	3.8412573	1.9599125
20.8757097899116	45.96191	6.7795215
20.893531705267254	64.8302	8.051721
20.911354131690224	83.87482	9.158319
20.92917706965566	69.130875	8.314498
20.94700051963877	50.14114	7.081041
20.96482448211493	29.399385	5.42212
20.982648957559622	4.152291	2.037717
21.00047394644843	2.2625182	1.504167
21.01829944925707	2.2439702	1.4979887
21.036125466461375	2.2230928	1.491004
21.053951998537297	2.2043288	1.4846982
21.071779045960906	2.2125492	1.4874641
21.089606609208378	2.2223637	1.4907595
21.10743468875603	2.226204	1.4920468
21.12526328508028	2.2006755	1.4834673
21.143092398657675	2.182701	1.4773967
21.16092202996488	2.178847	1.4760919
21.17875217947867	2.1962197	1.4819648
21.19658284767596	2.1920714	1.4805646
21.21441403503377	2.1596124	1.4695619
21.232245742029225	2.1470408	1.4652784
21.2500779691396	2.1659863	1.471729
21.26791071684227	2.1847858	1.4781021
21.28574398561475	2.2156003	1.4884893
21.30357777593465	2.2199192	1.4899393
21.321412088279704	2.17972	1.4763875
21.339246923127792	2.1725605	1.4739608
21.357082280956888	2.1632597	1.4708024
21.3749181622451	2.15571	1.4682336
21.392754567470647	2.1179552	1.4553196
21.41059149711187	2.1149623	1.454291
21.42842895164726	2.1132686	1.4537085
21.446266931555378	2.1307821	1.4597199
21.464105437314945	2.1209474	1.4563472
21.481944469404798	2.090724	1.4459336
21.49978402830388	2.082692	1.4431535
21.51762411449127	2.0740972	1.4401727
21.53546472844617	2.1182797	1.4554311
21.553305870647876	2.083082	1.4432886
21.571147541575865	2.07136	1.4392221
21.58898974170967	2.0533142	1.432939
21.60683247152899	2.0858195	1.4442366
21.62467573151363	2.089219	1.4454131
21.642519522143523	2.08251	1.4430904
21.660363843898722	2.0727162	1.4396931
21.6782086972594	2.0472822	1.4308327
21.696054082705864	2.0311532	1.4251853
21.713900000718535	2.0400486	1.4283026
21.73174645177795	2.040837	1.4285787
21.749593436364794	2.0090234	1.4174002
21.767440954959845	1.9945155	1.4122732
21.785289008044032	2.0046015	1.4158396
21.803137596098388	2.0258033	1.4233072
21.820986719604086	2.0174937	1.420385
21.838836379042412	2.0019531	1.4149039
21.85668657489478	2.0025651	1.4151202
21.87453730764273	2.0014112	1.4147124
21.892388577767914	1.9850307	1.4089111
21.91024038575213	1.9314073	1.3897508
21.928092732077285	1.9349998	1.3910427
21.945945617225426	1.9382914	1.3922254
21.963799041678694	1.9759561	1.4056871
21.981653005919398	31.34424	5.5985928
21.999507510429943	78.15381	8.840465
22.01736255569286	73.07981	8.548673
22.035218142190818	4.1522226	2.0377004
22.05307427040661	1.9669131	1.4024668
22.07093094082315	1.9850413	1.4089149
22.088788153923474	1.9904206	1.4108226
22.106645910190746	1.9800794	1.4071529
22.12450421010827	1.9714196	1.4040725
22.142363054159464	1.9575558	1.3991268
22.16022244282787	1.9846462	1.4087747
22.178082376597164	1.9738251	1.4049288
22.195942855951145	1.9516658	1.3970203
22.213803881373742	1.9417892	1.3934809
22.231665453349002	1.9606315	1.4002255
22.24952757236111	2.0114985	1.4182731
22.26739023889438	2.0293272	1.4245446
22.28525345343323	2.0176852	1.4204525
22.30311721646225	2.0141332	1.4192016
22.320981528466113	2.0287104	1.4243281
22.33884638992964	2.0003579	1.4143401
22.356711801337788	1.9824841	1.4080071
22.37457776317561	1.945585	1.3948423
22.392444275928337	1.9426109	1.3937757
22.410311340081282	1.9527701	1.3974155
22.428178956119904	1.9728639	1.4045868
22.446047124529805	1.9725246	1.4044659
22.46391584579669	1.9239671	1.3870714
22.481785120406414	1.8982799	1.3777808
22.49965494884496	1.8689756	1.3671049
22.51752533159841	1.8943267	1.3763454
22.53539626915302	1.9318063	1.3898944
22.553267761995137	1.942059	1.3935778
22.571139810611264	1.9294978	1.3890636
22.589012415488025	1.9284276	1.3886783
22.60688557711216	1.9494848	1.3962395
22.624759295970566	1.9565059	1.3987515
22.642633572550263	1.9342318	1.3907666
22.660508407338362	1.906086	1.3806107
22.67838380082217	1.9188536	1.385227
22.696259753489077	1.9483808	1.3958441
22.714136265826614	1.9371669	1.3918214
22.73201333832246	1.9371313	1.3918086
22.74989097146439	1.9493864	1.3962042
22.76776916574035	1.9257097	1.3876995
22.785647921638393	1.9147846	1.3837574
22.803527239646712	1.8794409	1.370927
22.82140712025363	1.8685343	1.3669435
22.839287563947593	1.8385286	1.3559235
22.85716857121719	1.8858371	1.3732579
22.875050142551135	1.8963758	1.3770896
22.892932278438277	1.8957163	1.3768501
22.910814979367604	1.9147234	1.3837353
22.928698245828222	1.9412892	1.3933015
22.946582078309387	1.9714496	1.4040833
22.96446647730047	1.9606408	1.4002289
22.98235144329098	1.9219794	1.3863547
23.000236976770562	1.9155365	1.384029
23.018123078229	1.9082202	1.3813834
23.03600974815619	1.9372547	1.391853
23.053896987042194	1.9340965	1.390718
23.071784795377173	1.9267067	1.3880585
23.08967317365145	1.9316473	1.3898371
23.10756212235546	1.9472342	1.3954333
23.125451641979787	1.9478422	1.3956512
23.143341733015134	1.9529134	1.3974668
23.161232395952357	1.9325873	1.3901752
23.179123631282426	1.9394258	1.3926327
23.197015439496468	1.9546716	1.3980957
23.214907821085717	1.954495	1.3980325
23.23280077654157	1.9586502	1.3995179
23.250694306355538	1.9544921	1.3980315
23.268588411019277	1.9774354	1.4062132
23.28648309102458	1.9809848	1.4074746
23.304378346863356	1.9829311	1.4081659
23.322274179027676	1.9617598	1.4006283
23.340170588009723	1.9537	1.3977481
23.358067574301852	1.9710152	1.4039285
23.37596513839651	1.9635189	1.4012562
23.39386328078629	1.9217526	1.3862729
23.411762001963947	1.9206843	1.3858875
23.429661302422353	1.923368	1.3868555
23.4475611826545	1.9297199	1.3891436
23.46546164315356	1.9365945	1.3916157
23.48336268441279	1.9356557	1.3912784
23.501264306925638	1.934046	1.3906999
23.51916651118564	1.946096	1.3950254
23.537069297686497	1.9319408	1.3899428
23.554972666922037	1.8981609	1.3777376
23.57287661938623	1.9129527	1.3830953
23.59078115557318	1.9334477	1.3904847
23.608686275977128	1.9355923	1.3912556
23.62659198109246	1.9221458	1.3864148
23.6444982714137	1.8905923	1.3749881
23.66240514743549	1.8625264	1.3647441
23.68031260965263	1.8727106	1.3684702
23.698220658560068	1.8772644	1.3701329
23.716129294652845	1.8689394	1.3670915
23.7340385184262	1.8779309	1.3703762
23.75194833037546	1.882922	1.3721961
23.769858730996123	1.869608	1.3673362
23.78776972078382	1.9020923	1.3791636
23.80568130023431	1.905296	1.3803246
23.823593469843495	1.8817023	1.3717515
23.841506230107424	1.8845198	1.3727782
23.859419581522275	1.8917084	1.3753939
23.87733352458438	1.9011484	1.3788214
23.89524805979019	1.8584646	1.3632551
23.913163187636318	1.8992772	1.3781427
23.931078908619508	1.9523208	1.3972547
23.948995223236633	1.9812347	1.4075633
23.966912131984735	1.9669545	1.4024816
23.98482963536096	2.0017247	1.4148232
24.002747733862616	2.0191047	1.4209521
24.020666427987155	2.0434167	1.4294813
24.038585718232156	2.0423903	1.4291222
24.056505605095353	2.0539255	1.4331523
24.074426089074617	2.0448039	1.4299663
24.092347170667946	2.0295842	1.4246347
24.110268850373515	2.057524	1.4344072
24.128191128689586	2.0297472	1.424692
24.146114006114626	2.0283124	1.4241884
24.164037483147187	2.0431514	1.4293884
24.181961560286005	2.0701652	1.4388069
24.199886238029926	2.0295234	1.4246134
24.21781151687797	2.0335155	1.4260138
24.235737397329274	2.0253694	1.4231547
24.253663879883135	2.0127614	1.4187182
24.271590965038975	1.9737165	1.4048902
24.289518653296376	1.939383	1.3926173
24.30744694515505	1.9704226	1.4037174
24.32537584111486	2.0134087	1.4189463
24.34330534167581	2.047765	1.4310014
24.361235447338046	2.0635407	1.4365029
24.379166158601876	2.0741925	1.4402057
24.39709747596772	2.0413702	1.4287653
24.41502939993615	2.0245695	1.4228737
24.432961931007917	2.0031595	1.4153302
24.450895069683856	2.0144188	1.4193022
24.468828816465	1.9990032	1.413861
24.4867631718525	2.008612	1.417255
24.504698136347656	1.979794	1.4070516
24.52263371045192	1.9589021	1.3996079
24.540569894666874	1.9224501	1.3865244
24.558506689494266	1.9041994	1.3799273
24.57644409543597	1.8837794	1.3725084
24.594382112994012	1.9194514	1.3854426
24.61232074267057	1.956443	1.3987291
24.630259984967953	1.974681	1.4052334
24.64819984038863	1.9269649	1.3881516
24.66614030943522	1.8803883	1.3712724
24.684081392610462	1.8932806	1.3759654
24.702023090417274	1.9059367	1.3805567
24.7199654033587	1.9447016	1.3945255
24.737908331937927	1.9697472	1.4034768
24.755851876658305	1.9836664	1.4084269
24.773796038023324	2.0086577	1.4172713
24.79174081653661	2.0951648	1.4474684
24.809686212701962	2.1218007	1.4566402
24.827632227023294	2.147711	1.4655071
24.8455788600047	2.12836	1.45889
24.8635261121504	2.1019733	1.4498184
24.88147398396475	2.0455196	1.4302167
24.899422475952303	2.088203	1.4450616
24.917371588617698	2.0585287	1.4347574
24.935321322465768	2.097735	1.4483559
24.953271678001478	2.2678747	1.5059464
24.97122265572994	2.5199113	1.5874228
24.989174256156414	2.8433177	1.686214
25.00712647978632	3.3242433	1.8232508
25.02507932712521	3.9375918	1.9843366
25.043032798678798	4.483706	2.1174762
25.060986894952933	5.1198564	2.2627099
25.078941616453637	5.912719	2.4316082
25.096896963687055	6.859246	2.6190162
25.114852937159508	8.046676	2.8366663
25.132809537377444	8.440713	2.9052906
25.150766764847468	8.445665	2.9061427
25.168724620076347	7.7267604	2.779705
25.186683103570985	6.70534	2.589467
25.204642215838426	5.530165	2.3516302
25.222601957385894	4.1642838	2.0406578
25.24056232872074	3.1120865	1.7641107
25.25852333035048	2.563578	1.6011177
25.276484962782778	2.2400925	1.4966938
25.294447226525435	2.1135685	1.4538118
25.312410122086423	1.9874791	1.4097798
25.330373649973843	1.966482	1.4023131
25.348337810695988	1.9445606	1.3944751
25.366302604761245	1.9213237	1.3861182
25.384268032678207	1.8876687	1.3739246
25.40223409495558	1.9218547	1.3863097
25.420200792102257	1.9470216	1.3953571
25.438168124627246	1.9020889	1.3791624
25.45613609303974	1.9068581	1.3808904
25.474104697849057	1.8963826	1.3770921
25.492073939564698	1.886144	1.3733696
25.510043818696285	1.8984475	1.3778416
25.528014335753614	1.9006134	1.3786274
25.54598549124664	1.8902302	1.3748565
25.56395728568544	1.8864464	1.3734796
25.58192971958028	1.8724637	1.36838
25.59990279344156	1.8499485	1.3601282
25.617876507779833	1.8109009	1.3456972
25.635850863105826	1.7940178	1.3394095
25.653825859930386	1.7457795	1.3212795
25.671801498764548	1.7878175	1.3370929
25.68977778011949	1.8003631	1.3417761
25.707754704506524	1.865536	1.3658463
25.725732272437153	1.8513983	1.360661
25.743710484423012	1.8553107	1.3620979
25.761689340975888	1.8544084	1.3617667
25.77966884260774	1.845883	1.3586328
25.797648989830662	1.8349339	1.3545973
25.815629783156922	1.8949884	1.3765858
25.83361122309895	1.8966609	1.3771931
25.85159331016929	1.867247	1.3664725
25.869576044880695	1.848384	1.3595529
25.887559427746034	1.8430463	1.3575884
25.90554345927836	1.8151394	1.3472711
25.92352813999086	1.7990408	1.3412833
25.94151347039689	1.8160627	1.3476137
25.959499451009965	1.8214084	1.3495957
25.97748608234374	1.818313	1.3484484
25.995473364912062	1.8419139	1.3571713
26.013461299228904	1.8538839	1.361574
26.03144988580839	1.8547462	1.3618907
26.04943912516483	1.8278265	1.3519714
26.067429017812675	1.8348798	1.3545773
26.085419564266537	1.8200666	1.3490984
26.103410765041186	1.8088031	1.3449175
26.12140262065155	1.8276564	1.3519084
26.139395131612723	1.8291483	1.3524601
26.157388298439948	1.8160667	1.3476152
26.17538212164861	1.7915952	1.3385048
26.193376601754295	1.8361479	1.3550453
26.211371739272714	1.8229084	1.3501513
26.229367534719746	1.8549523	1.3619664
26.247363988611433	1.8257912	1.3512185
26.26536110146397	1.8479774	1.3594034
26.283358873793727	1.8352562	1.3547163
26.301357306117204	1.8562974	1.36246
26.319356398951104	1.8350976	1.3546578
26.33735615281224	1.8179991	1.3483319
26.35535656821762	1.8255972	1.3511466
26.373357645684404	1.8592352	1.3635378
26.39135938572991	1.8319862	1.3535088
26.409361788871614	1.8212894	1.3495516
26.427364855627165	1.8172034	1.3480369
26.445368586514352	1.8246818	1.3508078
26.46337298205115	1.8140125	1.3468528
26.48137804275568	1.7907115	1.3381747
26.499383769146217	1.7909153	1.3382509
26.517390161741215	1.7962996	1.340261
26.53539722105928	1.8335767	1.3540963
26.553404947619182	1.8342038	1.3543278
26.571413341939856	1.8552718	1.3620837
26.589422404540397	1.8486992	1.3596687
26.60743213594006	1.8349627	1.3546079
26.62544253665827	1.82159	1.3496629
26.64345360721459	1.8144193	1.3470038
26.66146534812879	1.8206947	1.3493311
26.679477759920758	1.8516475	1.3607526
26.69749084311057	1.8395618	1.3563045
26.71550459821847	1.8316512	1.3533851
26.733519025764842	1.7964824	1.3403292
26.751534126270258	1.7947595	1.3396864
26.769549900255434	1.7678581	1.3296083
26.787566348241267	1.7959569	1.3401332
26.80558347074881	1.8305798	1.3529892
26.823601268299267	1.8216157	1.3496724
26.841619741414036	1.7717022	1.331053
26.85963889061465	1.7276741	1.3144102
26.877658716422832	1.7526748	1.3238863
26.89567921936045	1.7765477	1.3328719
26.913700399949544	1.8458906	1.3586355
26.93172225871233	1.8664175	1.366169
26.949744796171174	1.9106756	1.3822719
26.967768012848605	1.9408458	1.3931425
26.98579190926733	1.9071974	1.3810132
27.003816485950225	1.822675	1.3500648
27.021841743420318	1.8604127	1.3639694
27.039867682200814	1.915372	1.3839697
27.057894302815072	1.898526	1.3778701
27.07592160578664	1.837612	1.3555855
27.0939495916392	1.8124993	1.346291
27.111978260896635	1.8391325	1.3561462
27.13000761408296	1.8303939	1.3529205
27.148037651722397	1.7941232	1.3394488
27.166068374339304	1.769756	1.3303218
27.184099782458215	1.7925769	1.3388715
27.20213187660384	1.8368578	1.3553072
27.22016465730105	1.8424644	1.3573741
27.23819812507487	1.844233	1.3580254
27.256232280450533	1.8103573	1.3454952
27.274267123953383	1.7897048	1.3377985
27.292302656108987	1.8019722	1.3423755
27.31033887744306	1.8067116	1.3441397
27.32837578848146	1.7643969	1.3283061
27.34641338975026	1.7400817	1.3191216
27.364451681775673	1.7442881	1.320715
27.382490665084074	1.7974322	1.3406835
27.400530340202046	1.8165948	1.3478111
27.41857070765629	1.8239613	1.3505411
27.436611767973726	1.7824621	1.3350888
27.454653521681404	1.7707301	1.3306879
27.472695969306564	1.7601265	1.3266976
27.490739111376627	1.7990978	1.3413045
27.508782948419153	1.8577095	1.3629782
27.526827480961902	1.8652574	1.3657442
27.54487270953279	1.903018	1.3794992
27.562918634659898	1.8734187	1.3687289
27.580965256871508	1.845507	1.3584944
27.599012576696026	1.8219689	1.3498033
27.617060594662068	1.8466759	1.3589245
27.63510931129842	1.825242	1.3510152
27.65315872713401	1.8153201	1.3473382
27.67120884269797	1.8162259	1.3476743
27.68925965851958	1.8005563	1.3418481
27.707311175128307	1.7566754	1.3253963
27.725363393053787	1.7739387	1.3318928
27.74341631282583	1.8466092	1.3589
27.7614699349744	1.8882201	1.3741252
27.77952426002968	2.0427682	1.4292544
27.797579288521973	2.1007369	1.4493918
27.815635020981784	2.47667	1.5737439
27.83369145793979	2.4736037	1.5727694
27.85174859992682	2.3320627	1.5271093
27.869806447473923	2.2661417	1.505371
27.887865001112267	2.0242329	1.4227554
27.905924261373233	1.9321108	1.3900039
27.92398422878836	1.9080166	1.3813097
27.94204490388936	1.9023011	1.3792393
27.96010628720813	1.8600919	1.3638519
27.978168379276728	1.7784792	1.3335963
27.9962311806274	1.7766691	1.3329176
28.014294691792568	1.8288134	1.3523363
28.0323589133048	1.8674322	1.3665402
28.050423845696887	1.8978435	1.3776224
28.068489489501758	1.8726426	1.3684453
28.086555845252523	1.819446	1.3488684
28.104622913482487	1.8384172	1.3558824
28.122690694725115	1.9214815	1.3861752
28.14075918951405	1.964247	1.401516
28.15882839838312	1.9271406	1.388215
28.176898321866304	1.870148	1.3675336
28.1949689604978	1.8783276	1.370521
28.213040314811945	1.9021116	1.3791707
28.23111238534327	1.8820741	1.3718871
28.249185172626493	1.8934164	1.3760147
28.267258677196473	1.8631781	1.3649828
28.285332899588294	1.8706692	1.3677241
28.303407840337172	1.9152559	1.3839277
28.321483499978545	1.9432296	1.3939977
28.33955987904799	1.9458824	1.394949
28.357636978081285	1.9205981	1.3858565
28.37571479761439	1.8994535	1.3782066
28.393793338183425	1.9320416	1.389979
28.41187260032469	1.9831403	1.4082402
28.429952584574686	2.0078187	1.4169751
28.448033291470065	1.9706386	1.4037944
28.46611472154769	1.9902353	1.4107571
28.484196875344566	2.008859	1.4173422
28.502279753397914	1.9784979	1.4065908
28.52036335624511	1.9501008	1.39646
28.538447684423716	1.9856951	1.4091469
28.556532738471482	1.9923934	1.4115217
28.574618518926325	2.047321	1.4308463
28.59270502632635	2.0495503	1.431625
28.61079226120985	2.01021	1.4178188
28.628880224115274	1.9967912	1.4130787
28.646968915581287	1.9934894	1.4119098
28.66505833614671	1.9960022	1.4127995
28.68314848635055	2.0223136	1.4220808
28.701239366732004	2.0080297	1.4170496
28.71933097783044	2.0383801	1.4277185
28.737423320185403	2.0338044	1.4261152
28.75551639433665	2.0926106	1.4465859
28.773610200824074	2.0830967	1.4432937
28.791704740187793	2.0887911	1.445265
28.80980001296809	2.1307304	1.4597021
28.827896019705413	2.1417358	1.463467
28.845992760940433	2.1164756	1.4548112
28.86409023721397	2.1283545	1.4588882
28.88218844906704	2.1601322	1.4697388
28.900287397040845	2.1695166	1.4729279
28.918387081676755	2.173763	1.4743687
28.936487503516343	2.2277775	1.4925741
28.954588663101365	2.2683387	1.5061005
28.97269056097374	2.28854	1.5127921
28.990793197675597	2.3580832	1.5356052
29.00889657374923	2.3703427	1.5395918
29.027000689737125	2.35529	1.5346954
29.04510554618196	2.361813	1.5368191
29.06321114362659	2.4190695	1.5553359
29.08131748261405	2.4573894	1.5676062
29.099424563687567	2.472844	1.5725279
29.11753238739057	2.5424259	1.5944986
29.13564095426663	2.605729	1.614227
29.15375026485954	2.6250536	1.6202017
29.171860319713275	2.6043556	1.6138016
29.18997111937199	2.6466553	1.6268544
29.20808266438002	2.6980464	1.6425731
29.226194955281898	2.7860565	1.6691484
29.244307992622335	2.8601258	1.6911906
29.26242177694624	2.8658142	1.6928716
29.2805363087987	2.843992	1.686414
29.29865158872498	2.8911176	1.7003287
29.316767617270557	2.956761	1.7195234
29.334884394981064	2.91211	1.7064906
29.353001922402367	2.9219773	1.7093792
29.37112020008047	3.008356	1.7344613
29.389239228561596	3.140872	1.7722505
29.407359008392152	3.3285859	1.8244412
29.42547954011872	3.729191	1.9311113
29.44360082428809	4.423072	2.10311
29.46172286144722	5.4860716	2.3422365
29.479845652143283	7.1687665	2.6774552
29.497969196923606	9.41829	3.0689232
29.516093496335728	12.049065	3.4711761
29.5342185509274	14.962614	3.8681538
29.55234436124651	17.289907	4.1581135
29.570470927841175	18.469543	4.297621
29.588598251259686	18.098345	4.254215
29.60672633205055	16.770796	4.0952163
29.624855170762405	14.507424	3.8088613
29.642984767944146	11.654941	3.4139333
29.66111512414481	8.75453	2.9588056
29.67924623991366	6.449368	2.5395606
29.697378115800138	5.014419	2.2392898
29.71551075235387	4.1793985	2.0443578
29.733644150124675	3.7484176	1.9360831
29.751778309662576	3.5291827	1.8786119
29.769913231517766	3.4615636	1.8605278
29.78804891624066	3.436062	1.8536618
29.806185364381818	3.3898857	1.8411642
29.82432257649206	3.2977464	1.8159698
29.842460553122333	3.258483	1.8051269
29.86059929482382	3.2826688	1.8118137
29.878738802147872	3.3255868	1.8236191
29.896879075646048	3.3481712	1.8298008
29.915020115870114	3.3065517	1.8183926
29.933161923371976	3.2250402	1.7958397
29.951304498703777	3.199414	1.7886906
29.969447842417857	3.231945	1.7977611
29.987591955066733	3.3033185	1.8175033
30.005736837203123	3.2480545	1.802236
30.023882489379943	3.2141576	1.7928072
30.04202891215028	3.2859452	1.8127177
30.060176106067455	3.2276468	1.7965653
30.078324071684946	3.1174488	1.7656299
30.09647280955646	3.1450844	1.7734386
30.114622320235863	3.1621287	1.7782376
30.132772604277257	3.1227818	1.7671394
30.1509236622349	3.0426793	1.7443278
30.16907549466328	3.0426903	1.7443309
30.18722810211705	3.0872233	1.7570496
30.205381485151097	3.1340518	1.7703253
30.22353564432045	3.0838394	1.7560863
30.241690580180403	3.024428	1.7390882
30.25984629328638	3.0444577	1.7448374
30.278002784194037	3.1031322	1.7615709
30.296160053459246	3.0522468	1.747068
30.314318101638033	3.0449631	1.7449822
30.332476929286646	2.9661753	1.7222588
30.35063653696153	2.8910434	1.7003069
30.368796925219307	2.953685	1.7186289
30.386958094616844	3.007388	1.7341822
30.40512004571115	2.9655135	1.7220666
30.423282779059463	2.952985	1.7184252
30.441446295219233	2.9295642	1.711597
30.459610594748067	2.850391	1.68831
30.47777567820382	2.8840427	1.698247
30.495941546144504	2.8535187	1.6892362
30.51410819912835	2.840634	1.6854181
30.532275637713795	2.8534641	1.68922
30.55044386245946	2.8559089	1.6899434
30.56861287392416	2.8205516	1.6794498
30.586782672666956	2.7892597	1.6701077
30.604953259247047	2.8025033	1.6740679
30.623124634223885	2.8419685	1.6858139
30.641296798157075	2.866669	1.693124
30.659469751606462	2.8440316	1.6864257
30.677643495132074	2.7789164	1.6670082
30.695818029294152	2.7356434	1.653978
30.713993354653116	2.7250316	1.650767
30.73216947176962	2.6991374	1.6429052
30.75034638120448	2.7070293	1.6453053
30.768524083518756	2.7739496	1.6655178
30.786702579273673	2.838728	1.6848525
30.80488186903069	2.8656323	1.6928178
30.82306195335144	3.0224495	1.7385193
30.841242832797782	3.2049565	1.7902392
30.85942450793176	3.3895586	1.8410754
30.877606979315637	3.6829617	1.9191045
30.895790247511883	4.073951	2.018403
30.913974313083134	4.5065937	2.122874
30.932159176592283	4.8104377	2.193271
30.95034483860237	4.8920164	2.2117903
30.968531299676698	4.655723	2.1577125
30.98671856037873	4.3318224	2.0813031
31.00490662127215	3.9219244	1.980385
31.023095482920848	3.4807365	1.8656732
31.04128514588892	3.1024086	1.7613655
31.059475610740662	2.7794068	1.6671553
31.07766687804056	2.5472486	1.5960102
31.09585894835335	2.3984473	1.5486921
31.11405182224393	2.4029665	1.5501505
31.132245500277417	2.4224763	1.5564306
31.15043998301914	2.3669796	1.5384991
31.168635271034628	2.3253295	1.5249032
31.18683136488964	2.403708	1.5503896
31.20502826515008	2.4188218	1.5552562
31.223225972382135	2.415109	1.5540621
31.241424487152155	2.425031	1.5572511
31.259623810026692	2.400838	1.5494637
31.27782394157253	2.4256747	1.5574578
31.296024882356644	2.4280417	1.5582175
31.314226632946237	2.402438	1.5499799
31.332429193908684	2.4309897	1.5591632
31.350632565811598	2.5011537	1.5815036
31.368836749222787	2.450738	1.5654833
31.387041744710295	2.4176552	1.5548811
31.40524755284232	2.5320492	1.5912414
31.423454174187317	2.5608158	1.6002549
31.441661609313922	2.4824724	1.5755863
31.459869858791002	2.3780897	1.5421056
31.478078923187628	2.3228905	1.5241032
31.496288803073064	2.3045802	1.5180844
31.514499499016807	2.3750558	1.5411216
31.532711011588546	2.385985	1.5446633
31.550923341358178	2.3515954	1.5334913
31.56913648889584	2.3372223	1.5287976
31.587350454771844	2.2888343	1.5128894
31.605565239556732	2.297215	1.5156566
31.62378084382127	2.3956804	1.5477986
31.641997268136382	2.4610906	1.5687864
31.660214513073274	2.3703434	1.539592
31.67843257920331	2.2878456	1.5125626
31.6966514670981	2.3463624	1.531784
31.71487117732944	2.313575	1.521044
31.733091710469346	2.3016212	1.5171095
31.751313067090052	2.3517585	1.5335444
31.769535247764008	2.3832014	1.5437621
31.787758253063878	2.3349338	1.528049
31.805982083562526	2.3156915	1.5217396
31.824206739833024	2.343495	1.5308478
31.84243222244869	2.3801093	1.5427603
31.860658531983013	2.3662822	1.5382725
31.878885669009737	2.3315995	1.5269576
31.897113634102784	2.3129907	1.520852
31.91534242783632	2.2631795	1.5043868
31.933572050784694	2.137526	1.462028
31.951802503522508	2.1190858	1.455708
31.970033786624548	2.1167479	1.4549048
31.988265900665834	2.1156728	1.4545352
32.006498846221575	2.0978978	1.4484122
32.02473262386724	2.1680262	1.4724219
32.04296723417845	2.234976	1.4949837
32.0612026777311	2.2636676	1.5045489
32.07943895510129	2.234573	1.4948487
32.097676066865304	2.2207522	1.4902189
32.115914013599685	2.2292194	1.4930571
32.13415279588115	2.1579447	1.4689945
32.152392414286666	2.105834	1.4511492
32.1706328693934	2.1271465	1.458474
32.18887416177875	2.163251	1.4707994
32.20711629202032	2.1555605	1.4681827
32.225359260695924	2.0693204	1.4385133
32.243603068383614	2.0766282	1.4410511
32.26184771566166	2.129697	1.4593482
32.28009320310852	2.1777208	1.4757103
32.2983395313029	2.1385012	1.4623615
32.31658670082372	2.1825383	1.4773417
32.33483471225012	2.1200304	1.4560324
32.35308356616143	2.0659502	1.4373413
32.371333263137245	2.139008	1.4625348
32.38958380375734	2.1883311	1.4793009
32.407835188601744	2.1409545	1.4632001
32.42608741825067	2.0570986	1.4342589
32.444340493284585	2.1072197	1.4516265
32.46259441428416	2.1010847	1.4495119
32.48084918183028	2.0513837	1.4322653
32.49910479650405	2.0392578	1.4280258
32.51736125888683	2.1238072	1.4573288
32.53561856956014	2.2270648	1.4923353
32.5538767291058	2.1242168	1.4574693
32.572135738105764	1.9854366	1.4090552
32.59039559714228	2.009473	1.4175588
32.608656306797776	2.1545446	1.4678367
32.62691786765491	2.1585848	1.4692123
32.645180280296586	2.0937064	1.4469645
32.663443545305896	1.9339596	1.3906687
32.68170766326619	1.9692806	1.4033105
32.69997263476099	2.049104	1.4314692
32.7182384603741	2.0532963	1.4329327
32.7365051406895	2.038976	1.4279271
32.75477267629144	2.0642896	1.4367635
32.77304106776434	2.0564756	1.4340417
32.79131031569289	2.0219607	1.4219567
32.809580420661966	1.9504126	1.3965718
32.827851383256714	1.9364034	1.3915471
32.84612320406245	1.9906712	1.4109114
32.86439588366476	1.9406399	1.3930686
32.88266942264945	1.9176863	1.3848056
32.9009438216025	1.9586564	1.39952
32.9192190811102	2.0331678	1.425892
32.937495201758985	2.0231626	1.4223793
32.95577218413556	1.9770209	1.4060657
32.974050028826866	1.8825301	1.3720533
32.992328736420035	1.8789034	1.370731
33.010608307502444	2.0167112	1.4201096
33.02888874266169	2.053633	1.4330503
33.047170042485604	1.9882385	1.4100491
33.06545220756225	1.9517202	1.3970398
33.083735238479896	2.0096948	1.4176371
33.10201913582707	2.03772	1.4274873
33.12030390019248	2.0753648	1.4406127
33.138589532165135	2.1190856	1.4557079
33.15687603233419	2.0217028	1.4218659
33.17516340128909	1.9166011	1.3844136
33.19345163961947	1.9166539	1.3844327
33.211740747915215	1.8844613	1.3727568
33.23003072676643	1.8783848	1.3705418
33.248321576763466	1.9650723	1.4018104
33.266613298496885	1.9961963	1.4128681
33.28490589255747	1.9032507	1.3795835
33.30319935953626	1.8724364	1.3683699
33.32149370002451	1.9022121	1.379207
33.339788914613706	1.9096977	1.3819181
33.358085003895575	1.9297568	1.3891568
33.376381968462034	1.955071	1.3982385
33.39467980890529	1.9001491	1.378459
33.41297852581774	1.9089026	1.3816304
33.43127811979204	1.9042794	1.3799562
33.44957859142105	1.8473103	1.3591579
33.467879941297866	1.8560258	1.3623604
33.486182170015844	2.0250993	1.4230598
33.50448527816853	2.1797683	1.4764038
33.522789266349754	2.1075552	1.451742
33.541094135153514	1.84742	1.3591983
33.55939988517411	1.8120067	1.346108
33.57770651700602	1.9081403	1.3813546
33.59601403124398	1.9919264	1.4113562
33.61432242848296	2.0168877	1.4201717
33.632631709318154	2.0316617	1.4253638
33.650941874344994	2.0380893	1.4276166
33.66925292415916	1.9980186	1.4135128
33.68756485935654	2.0405252	1.4284695
33.70587768053328	1.9886322	1.4101887
33.724191388285746	1.8585181	1.3632748
33.74250598321054	1.8331914	1.353954
33.760821465904506	1.8896965	1.3746623
33.77913783696474	1.8644388	1.3654445
33.79745509698852	1.790925	1.3382545
33.815773246573414	1.8532397	1.3613374
33.8340922863172	1.9315431	1.3897997
33.852412216817896	1.8913552	1.3752655
33.87073303867377	1.847557	1.3592486
33.889054752483304	1.917265	1.3846534
33.907377358845245	2.0812063	1.4426386
33.92570085835853	2.0920904	1.446406
33.94402525162239	2.045434	1.4301867
33.96235053923627	1.9939646	1.4120781
33.980676721799824	1.9789609	1.4067554
33.999003799912984	1.9268018	1.3880929
34.01733177417592	1.9863243	1.4093702
34.03566064518901	1.9047501	1.3801268
34.0539904135529	1.7829854	1.3352848
34.07232107986846	1.7436293	1.3204656
34.090652644736785	1.789819	1.3378412
34.108985108759235	1.8595501	1.3636532
34.12731847253742	1.8673928	1.3665258
34.14565273667313	1.8517051	1.3607737
34.16398790176847	1.9099427	1.3820068
34.18232396842574	1.9165735	1.3844037
34.20066093724749	2.0178316	1.420504
34.21899880883651	1.965213	1.4018605
34.23733758379583	1.8240436	1.3505716
34.25567726272874	1.8615782	1.3643967
34.27401784623872	2.097244	1.4481865
34.29235933492957	2.134382	1.4609524
34.31070172940526	1.9855447	1.4090936
34.32904503027003	2.0008473	1.4145131
34.347389238128386	2.0984972	1.448619
34.36573435358502	2.025849	1.4233233
34.38408037724492	1.8976662	1.3775581
34.402427309713296	1.8929274	1.375837
34.42077515159559	1.933346	1.3904481
34.43912390349752	1.9484603	1.3958726
34.45747356602499	1.9446814	1.3945184
34.47582413978423	1.9105148	1.3822137
34.49417562538163	1.8924382	1.3756592
34.51252802342388	2.0684743	1.4382192
34.53088133451789	2.0098145	1.4176793
34.54923555927084	1.9995277	1.4140465
34.567590698290104	2.1062694	1.4512992
34.58594675218336	2.2061121	1.4852986
34.6043037215585	2.0768342	1.4411225
34.62266160702365	1.8927398	1.3757688
34.641020409187234	1.792774	1.3389452
34.65938012865785	1.8570422	1.3627334
34.677740766044394	1.9027094	1.3793873
34.69610232195598	1.9876277	1.4098325
34.714464797002016	2.16892	1.4727254
34.73282819179208	2.2523222	1.5007739
34.751192506936064	2.0849066	1.4439206
34.76955774304408	2.0203207	1.4213798
34.7879239007265	1.9794275	1.4069213
34.80629098059391	1.9538323	1.3977956
34.824658983257194	2.019468	1.4210799
34.843027909327446	2.23368	1.4945501
34.86139775941603	2.3740919	1.5408088
34.879768534134534	2.082102	1.442949
34.89814023409483	1.8380988	1.355765
34.91651285990901	1.8031868	1.3428279
34.93488641218944	1.7078662	1.3068535
34.95326089154871	1.7228466	1.3125725
34.97163629859967	1.9122547	1.382843
34.99001263395542	1.9469	1.3953136
35.00838989822934	1.9417142	1.3934541
35.02676809203499	2.0478573	1.4310336
35.04514721598624	2.0325682	1.4256817
35.063527270697215	1.9489623	1.3960524
35.081908256782256	1.9268138	1.3880972
35.10029017485597	1.884693	1.3728412
35.11867302553321	1.9624571	1.4008772
35.137056809429104	2.096863	1.4480549
35.155441527159006	1.9476259	1.3955736
35.173827179338524	1.721081	1.3118998
35.19221376658354	1.8955499	1.3767897
35.21060128951017	2.0050611	1.4160018
35.2289897487348	1.8813151	1.3716104
35.24737914487405	2.039807	1.4282181
35.26576947854479	2.0714905	1.4392674
35.28416075036418	2.040765	1.4285535
35.30255296094958	2.0178106	1.4204966
35.32094611091867	1.9493548	1.3961929
35.33934020088932	2.0879874	1.4449869
35.35773523147969	2.3010194	1.5169111
35.3761312033082	2.0542743	1.433274
35.394528116993506	1.7560952	1.3251774
35.41292597315452	1.9874083	1.4097546
35.431324772410434	2.2122817	1.4873741
35.449724515380666	2.0461593	1.4304402
35.46812520268491	1.6533338	1.2858202
35.486526834943106	1.5479618	1.2441711
35.504929412775454	2.183756	1.4777538
35.52333293680242	2.7568111	1.6603647
35.54173740764471	3.1296618	1.769085
35.560142825923286	2.8018436	1.6738708
35.5785491922594	2.016919	1.4201827
35.59695650727454	0.9433419	0.9712579
35.61536477159042	0.42420965	0.6513138
