0.008763373481513119	0.0	0.0
0.026290120649546365	0.0	0.0
0.043816868432600686	0.0	0.0
0.06134361724069026	0.07129023	0.2670023
0.07887036748382949	0.06477356	0.2545065
0.0963971195720331	0.0535538	0.23141694
0.11392387391531617	0.10732622	0.3276068
0.1314506309236943	0.118343085	0.3440103
0.1489773910071836	0.12310165	0.35085845
0.16650415457580078	0.14048827	0.37481764
0.18403092203956356	0.0664827	0.2578424
0.20155769380849	0.06500085	0.25495264
0.2190844702925996	0.038169198	0.1953694
0.2366112519019124	0.07448896	0.27292666
0.2541380390464497	0.10008608	0.31636384
0.27166483213623416	0.16767505	0.40948144
0.28919163158128947	0.16756174	0.40934306
0.3067184377916406	0.15578203	0.39469233
0.324245251177314	0.19226712	0.43848276
0.34177207214833777	0.1850556	0.43018088
0.3592989011147415	0.17357439	0.4166226
0.37682573848655654	0.17843823	0.4224195
0.39435258467381573	0.18190122	0.4264988
0.41187944008655414	0.174961	0.4182834
0.42940630513480854	0.17325939	0.4162444
0.446933180228618	0.15538989	0.39419523
0.4644600657780234	0.18225445	0.4269127
0.48198696219306775	0.16757892	0.40936404
0.49951386988379676	0.15650266	0.39560416
0.5170407892602581	0.11538255	0.33968008
0.5345677207325025	0.0982717	0.31348318
0.5520946647105822	0.12149056	0.34855497
0.5696216216045534	0.114883184	0.33894423
0.5871485918244737	0.13604124	0.36883768
0.6046755757804043	0.10244633	0.32007238
0.6222025738824094	0.104620524	0.32345095
0.6397295865405557	0.10034205	0.31676814
0.6572566141649129	0.17587392	0.41937324
0.6747836571655547	0.19757275	0.44449157
0.6923107159525568	0.21304771	0.46157092
0.7098377909359992	0.19108853	0.43713674
0.7273648825259653	0.18775009	0.4333014
0.7448919911325411	0.1708085	0.41328984
0.762419117165817	0.16894199	0.41102552
0.7799462610358868	0.15346786	0.39174974
0.7974734231528482	0.16629282	0.40779015
0.8150006039268024	0.19183086	0.437985
0.8325278037678551	0.17914028	0.42324966
0.8500550230861152	0.16710024	0.40877897
0.8675822622916969	0.20570971	0.45355234
0.8851095217947171	0.24953239	0.49953216
0.9026368020052984	0.2776153	0.5268921
0.9201641033335665	0.2750326	0.5244355
0.9376914261896523	0.27799094	0.52724844
0.9552187709836915	0.28230777	0.5313264
0.9727461381258234	0.25644124	0.5064003
0.990273528026193	0.26374045	0.51355666
1.0078009410949496	0.26217598	0.5120312
1.0253283777422473	0.3308167	0.57516664
1.0428558383782454	0.36400127	0.6033252
1.0603833234131086	0.331738	0.575967
1.0779108332570058	0.34713814	0.5891843
1.0954383683201119	0.3622904	0.60190564
1.112965929012607	0.42257276	0.65005594
1.1304935157446763	0.51876897	0.7202562
1.1480211289265108	0.5109792	0.7148281
1.1655487689683062	1.3853261	1.1769987
1.1830764362802655	1.677847	1.2953173
1.200604131272596	2.0755956	1.4406928
1.2181318543555117	2.4053383	1.5509154
1.235659605939232	2.4555774	1.5670282
1.253187386433982	4.2860174	2.0702698
1.270715196249994	6.7194014	2.5921807
1.2882430357975057	12.358898	3.5155225
1.3057709054867608	16.980244	4.120709
1.3232988057280106	22.927643	4.788282
1.3408267369315112	27.434618	5.237807
1.358354699507526	30.993372	5.567169
1.3758826938663256	34.767117	5.8963647
1.3934107204181858	36.999477	6.08272
1.410938779573391	37.65588	6.136439
1.4284668717422309	38.490246	6.2040505
1.4459949973350033	38.21313	6.181677
1.4635231567620117	38.328175	6.190975
1.4810513504335687	37.67994	6.1383986
1.4985795787599925	36.78981	6.06546
1.5161078421516088	35.95753	5.99646
1.5336361410187505	34.77768	5.89726
1.5511644757717598	34.85083	5.903459
1.5686928468209842	35.43157	5.952442
1.58622125457678	36.07375	6.0061426
1.6037496994495108	36.818268	6.067806
1.621278181849548	36.93615	6.077512
1.6388067021872719	37.866055	6.15354
1.6563352608730693	37.50485	6.12412
1.673863858317336	36.690983	6.057308
1.6913924949304753	35.92911	5.9940896
1.7089211711228998	34.92279	5.9095507
1.7264498873050296	34.427685	5.867511
1.7439786438872935	33.316338	5.772031
1.7615074412801288	32.125504	5.6679363
1.779036279893981	31.727407	5.6327085
1.796565160139305	30.56817	5.528849
1.814094082426564	30.022371	5.4792676
1.8316230471662298	29.204876	5.4041533
1.849152054768784	28.539581	5.342245
1.8666811056447168	28.087679	5.299781
1.8842102002045273	27.226276	5.2178802
1.901739338858724	26.592348	5.156777
1.9192685220178245	26.11271	5.1100597
1.9367977500923557	25.5432	5.054028
1.9543270234928547	25.031881	5.003187
1.971856342629867	24.260973	4.925543
1.9893857079139496	23.478838	4.8454967
2.006915119755667	23.038107	4.799803
2.0244445785655945	22.485416	4.741879
2.0419740847543175	21.933372	4.6833076
2.0595036387324317	21.69223	4.6574917
2.0770332409105414	21.231514	4.6077666
2.094562891699263	20.938618	4.5758734
2.1120925915092217	20.407698	4.517488
2.129622340751053	20.126787	4.486289
2.1471521398354043	188.27737	13.72142
2.1646819891729323	444.48166	21.082733
2.182211889174303	440.29892	20.983301
2.1997418402501974	452.62393	21.27496
2.2172718428113023	432.72058	20.801937
2.234801897268317	320.98434	17.916037
2.2523320040319548	17.474901	4.1802993
2.269862163512935	17.219503	4.149639
2.287392376121992	16.856075	4.105615
2.304922642269869	16.488005	4.0605426
2.322452962367322	16.15325	4.0191107
2.3399833368251164	15.510247	3.9383051
2.357513766054032	15.353946	3.918411
2.3750442504648586	15.046215	3.878945
2.3925747904683963	15.06568	3.8814533
2.410105386475459	14.860465	3.8549273
2.4276360388968707	14.5616665	3.8159752
2.445166748143469	14.303683	3.782021
2.4626975146261025	14.062692	3.7500255
2.4802283387556323	13.774904	3.7114558
2.4977592209429305	13.556374	3.681898
2.5152901615988825	13.369345	3.6564114
2.5328211611343865	13.062725	3.6142392
2.5503522199603523	12.766897	3.5730796
2.5678833384877024	12.445687	3.5278447
2.5854145171273712	12.201086	3.4930053
2.6029457562903064	11.909085	3.4509542
2.620477056387469	11.876415	3.4462175
2.6380084178298326	11.836652	3.4404435
2.655539841028383	11.747812	3.427508
2.673071326394119	11.670662	3.416235
2.6906028743380523	11.462235	3.3855922
2.708134485271211	11.162211	3.3409896
2.7256661596046325	10.922459	3.3049142
2.743197897749369	10.811874	3.2881415
2.760729700116486	10.720077	3.2741528
2.778261567117063	10.494324	3.2394943
2.795793499162193	10.221403	3.197093
2.8133254966629817	9.947778	3.1540098
2.830857560030551	9.867775	3.1413014
2.8483896896760337	9.827718	3.1349192
2.865921886010578	9.617033	3.101134
2.883454149445347	9.562177	3.092277
2.9009864803915177	9.4312935	3.071041
2.91851887926028	9.293921	3.0485933
2.9360513464628384	9.080728	3.0134246
2.953583882410413	8.974202	2.9956973
2.9711164875142373	8.842648	2.973659
2.9886491621855606	8.7878475	2.9644303
3.0061819068356455	8.599462	2.932484
3.023714721875769	8.423922	2.9023993
3.041247607717225	8.318546	2.8841891
3.0587805647713213	8.267099	2.8752563
3.0763135934493806	8.261699	2.8743172
3.0938466941627407	8.086701	2.8437126
3.1113798673227544	7.9749775	2.8240004
3.1289131133407904	7.8272457	2.7977216
3.1464464326282315	7.911225	2.81269
3.1639798255964786	7.9497294	2.8195264
3.1815132926569443	7.7783127	2.7889626
3.1990468342210603	7.682613	2.7717526
3.216580450700272	7.4844604	2.7357743
3.2341141425060416	7.478024	2.7345977
3.251647910049847	7.3468995	2.7105165
3.2691817537431813	7.265447	2.6954494
3.286715673997555	7.1799207	2.6795373
3.3042496712244938	7.1806006	2.6796644
3.32178374583554	7.123563	2.6690004
3.339317898242251	7.0844035	2.6616542
3.3568521288562034	6.9816756	2.642286
3.3743864380889876	6.865358	2.6201828
3.3919208263522127	6.720074	2.5923107
3.4094552940575023	6.63033	2.5749428
3.4269898416164972	6.5705123	2.563301
3.444524469440858	6.6213126	2.5731912
3.4620591779422587	6.55576	2.5604217
3.479593967532391	6.5599155	2.5612333
3.4971288386229658	6.4827075	2.546116
3.5146637916257086	6.5050626	2.5505023
3.5321988269523628	6.4071026	2.5312254
3.5497339450146903	6.3081465	2.5116024
3.5672691462244708	6.289181	2.507824
3.5848044309934988	6.254957	2.5009913
3.60233979973359	6.268353	2.5036678
3.619875252856575	6.2617197	2.502343
3.6374107907743034	6.148729	2.4796631
3.6549464138986427	6.174025	2.4847586
3.6724821226414788	6.1395597	2.4778135
3.690017917414714	6.2731514	2.504626
3.7075537986302702	6.4479785	2.539287
3.7250897667000857	6.608827	2.5707638
3.7426258220361235	6.7976356	2.6072276
3.7601619650503553	7.071972	2.659318
3.777698196154779	7.6274242	2.761779
3.7952345157614067	8.605171	2.9334571
3.8127709242822716	9.324698	3.053637
3.830307422129425	11.31409	3.3636425
3.847844009714936	12.609911	3.5510437
3.8653806874508954	15.906324	3.9882734
3.882917455749409	15.62778	3.9531987
3.900454315022606	15.834595	3.9792707
3.917991265682631	12.873458	3.5879602
3.9355283081416506	10.972551	3.3124843
3.9530654428118495	8.662226	2.943166
3.970602670105433	7.292243	2.7004154
3.9881399904346244	6.332391	2.5164242
4.005677404211669	6.3012524	2.5102296
4.023214911848827	6.4183407	2.5334444
4.0407525137583855	6.550642	2.5594223
4.058290210352644	6.6327887	2.5754201
4.075828002043927	6.482906	2.5461552
4.0933658892445814	6.3391714	2.517771
4.110903872366966	6.274904	2.5049758
4.128441951823468	6.1668606	2.4833164
4.145980128026488	6.169298	2.483807
4.163518401388452	6.1250687	2.4748876
4.181056772321807	6.255864	2.5011725
4.1985952412390155	6.3840294	2.5266638
4.216133808552567	6.413902	2.5325682
4.233672474674966	6.4209275	2.5339549
4.251211240018741	6.680474	2.5846612
4.268750104996445	6.9395146	2.634296
4.286289070020643	7.908961	2.8122876
4.303828135503928	9.588321	3.0965014
4.3213673018589125	29.950993	5.47275
4.3389065694982305	91.04846	9.541932
4.356445938834537	166.19118	12.891516
4.3739854102805085	171.64656	13.101396
4.391524984248844	172.42458	13.131054
4.409064661152262	136.43655	11.680606
4.426604441403504	96.770645	9.837207
4.444144325415337	75.658	8.69816
4.461684313600543	21.575226	4.644914
4.47922440637193	21.75871	4.6646233
4.496764604142329	20.165848	4.49064
4.5143049073245916	18.542835	4.3061395
4.531845316331589	16.48385	4.060031
4.5493858315762195	13.682246	3.698952
4.566926453471405	11.367442	3.3715637
4.584467182430081	9.410442	3.0676444
4.602008018865218	8.16326	2.857142
4.619548963189798	7.326761	2.706799
4.637090015816834	6.7742934	2.6027472
4.654631177159353	6.603705	2.5697675
4.672172447630417	6.456322	2.5409293
4.689713827643102	6.3348956	2.5169218
4.7072553176105085	6.1902113	2.4880135
4.724796917945764	6.036273	2.4568827
4.742338629062015	5.8886037	2.4266446
4.759880451372434	5.8399944	2.416608
4.777422385290215	5.7157683	2.3907673
4.794964431228581	5.7120967	2.3899994
4.812506589600768	5.6904774	2.385472
4.830048860820047	5.6954722	2.386519
4.847591245299709	5.7040033	2.3883054
4.8651337434530655	5.7269526	2.3931053
4.882676355693457	5.715262	2.3906615
4.900219082434242	5.6782365	2.382905
4.917761924088813	5.690665	2.3855114
4.935304881070575	5.6003957	2.3665154
4.952847953792969	5.5030947	2.3458676
4.970391142669449	5.453473	2.3352673
4.9879344481135055	5.4819417	2.3413546
5.005477870538642	5.5087457	2.3470716
5.023021410358394	5.4152045	2.3270593
5.040565067986324	5.3788986	2.3192453
5.05810884383601	5.382722	2.3200693
5.075652738321066	5.448004	2.334096
5.09319675185512	5.528954	2.3513727
5.110740884851836	5.524066	2.3503332
5.128285137724894	5.4368696	2.3317096
5.145829510888007	5.301343	2.3024645
5.163374004754908	5.281397	2.298129
5.1809186197393595	5.3301873	2.3087199
5.198463356255145	5.4354987	2.3314157
5.216008214716077	5.4175663	2.3275666
5.233553195535998	5.3525715	2.3135624
5.251098299128764	5.339556	2.3107479
5.268643525908272	5.3051786	2.3032973
5.286188876288432	5.3123603	2.3048558
5.3037343506831895	5.322325	2.3070166
5.32127994950651	5.3096485	2.3042674
5.3388256731723915	5.2924814	2.3005395
5.356371522094851	5.344185	2.3117492
5.373917496687938	5.345251	2.31198
5.391463597365729	5.366638	2.3166006
5.40900982454232	5.317709	2.3060157
5.426556178631843	5.24239	2.2896266
5.444102660048449	5.187714	2.2776554
5.4616492692063225	5.2231326	2.2854173
5.479196006519669	5.237097	2.2884705
5.496742872402727	5.238634	2.2888062
5.514289867269756	5.171878	2.2741764
5.531836991535049	5.018251	2.2401452
5.549384245612924	5.0600286	2.2494507
5.566931629917724	5.1172185	2.262127
5.584479144863822	5.2141013	2.2834406
5.6020267908656205	5.2781863	2.2974303
5.619574568337545	5.2798014	2.297782
5.637122477694054	5.295755	2.3012507
5.654670519349629	5.231193	2.2871802
5.672218693718784	5.0989966	2.2580957
5.689767001216059	5.038063	2.244563
5.707315442256021	5.094138	2.2570198
5.724864017253266	5.212234	2.2830317
5.7424127266224225	5.24543	2.2902904
5.75996157077814	5.194409	2.2791245
5.777510550135105	5.149714	2.269298
5.795059665108022	5.156584	2.2708113
5.812608916111639	5.2347956	2.2879677
5.830158303560715	5.3346987	2.3096967
5.847707827870055	5.3721356	2.3177867
5.86525748945448	5.463522	2.3374178
5.8828072887288485	5.589251	2.3641596
5.900357226108044	5.656869	2.3784173
5.917907302006979	5.6670833	2.3805637
5.9354575168406	6.2492213	2.4998443
5.9530078710238765	6.84706	2.6166887
5.970558364971812	7.4114785	2.722403
5.988108999099438	7.703491	2.7755163
6.005659773821818	8.152135	2.8551943
6.023210689554039	7.9649444	2.8222232
6.040761746711227	8.424799	2.9025505
6.058312945708531	7.780699	2.7893903
6.075864286961132	7.3861103	2.7177398
6.093415770884244	6.7939057	2.606512
6.1109673978931065	6.2355866	2.4971156
6.128519168402993	5.640118	2.3748932
6.146071082829204	5.399558	2.323695
6.163623141587075	5.2384305	2.2887619
6.181175345091969	5.1947756	2.279205
6.198727693759281	5.2830815	2.2984955
6.216280188004435	5.334701	2.3096972
6.233832828242885	5.2688694	2.2954018
6.251385614890126	5.2253366	2.2858994
6.268938548361669	5.118167	2.2623365
6.286491629073067	5.0411644	2.2452538
6.304044857439898	5.031595	2.2431219
6.321598233877777	5.0498905	2.2471962
6.339151758802344	5.080072	2.2539015
6.356705432629277	5.1467986	2.2686558
6.37425925577428	5.206304	2.2817328
6.391813228653095	5.1523933	2.2698884
6.409367351681486	5.084605	2.254907
6.426921625275259	5.061505	2.2497787
6.44447604985025	5.131484	2.2652779
6.46203062582232	5.1080194	2.2600927
6.47958535360737	5.026712	2.242033
6.497140233621328	5.0088134	2.2380378
6.514695266280161	5.016066	2.2396576
6.532250451999859	5.0817533	2.2542744
6.549805791196454	5.0522637	2.247724
6.567361284286002	5.010646	2.2384472
6.584916931684597	5.0372386	2.2443793
6.602472733808367	5.04558	2.2462368
6.6200286910734665	5.1067557	2.2598133
6.637584803896092	5.2161403	2.2838871
6.655141072692462	5.1187363	2.2624624
6.672697497878842	5.029473	2.2426486
6.690254079871514	4.8821983	2.2095697
6.707810819086808	4.8335586	2.1985354
6.725367715941078	4.8692656	2.2066412
6.742924770850719	4.958409	2.2267485
6.760481984232151	4.9617224	2.2274923
6.778039356501836	4.9532104	2.225581
6.795596888076266	4.9311776	2.2206254
6.813154579371963	4.928282	2.2199733
6.830712430805492	4.908679	2.215554
6.84827044279344	4.8806376	2.2092166
6.865828615752445	4.868972	2.2065747
6.883386950099159	4.947533	2.2243052
6.900945446250287	5.0468793	2.246526
6.918504104622553	5.1326528	2.2655358
6.936062925632727	5.085666	2.2551422
6.953621909697607	5.0608406	2.2496312
6.971181057234028	5.0421042	2.2454631
6.988740368658859	5.0713377	2.2519631
7.006299844389007	5.1562247	2.2707322
7.023859484841407	5.269932	2.2956333
7.041419290433036	5.380088	2.3195016
7.058979261580902	5.4764867	2.3401895
7.0765393987020495	5.7018104	2.3878465
7.094099702213559	6.0325837	2.456132
7.111660172532549	6.3615947	2.5222201
7.129220810076164	6.7024765	2.5889142
7.146781615261595	7.3160477	2.7048194
7.16434258850606	7.5954566	2.7559855
7.181903730226821	8.08494	2.8434029
7.1994650408411704	8.127466	2.850871
7.217026520766437	8.272728	2.876235
7.234588170419983	8.506612	2.9166098
7.252149990219215	8.543313	2.9228947
7.269711980581568	8.441462	2.9054193
7.2872741419245175	8.248977	2.8721032
7.304836474665574	7.8610086	2.803749
7.322398979222286	7.6362863	2.7633832
7.339961656012233	7.358138	2.7125888
7.357524505453039	6.9094324	2.6285799
7.375087527962357	6.6181335	2.5725734
7.392650723957886	6.30883	2.5117383
7.410214093857353	6.0055914	2.450631
7.427777638078528	5.7280107	2.3933263
7.445341357039213	5.5140877	2.3482094
7.4629052511572525	5.380385	2.3195658
7.480469320850524	5.311107	2.304584
7.498033566536948	5.2823095	2.2983274
7.5155979886344735	5.2085524	2.2822254
7.5331625875610975	5.118596	2.2624314
7.550727363734844	5.1490197	2.2691453
7.568292317573788	5.166333	2.2729568
7.585857449496025	5.177525	2.2754176
7.603422759919705	5.1769094	2.2752824
7.620988249263007	5.1923304	2.2786686
7.638553917944147	5.186273	2.277339
7.656119766381391	5.191239	2.278429
7.673685794993023	5.2021117	2.280814
7.691252004197388	5.2024145	2.2808802
7.70881839441285	5.2198763	2.284705
7.726384966057826	5.2029576	2.2809992
7.743951719550762	5.169881	2.2737372
7.761518655310149	5.2190433	2.2845225
7.779085773754511	5.268048	2.2952228
7.796653075302419	5.310417	2.3044343
7.814220560372475	5.3308053	2.3088536
7.831788229383323	5.3055043	2.303368
7.8493560827536495	5.273486	2.2964072
7.866924120902174	5.259549	2.2933707
7.884492344247663	5.323905	2.307359
7.9020607532089135	5.4121585	2.3264046
7.919629348204771	5.4392533	2.3322208
7.937198129654115	5.418266	2.3277168
7.954767097975865	5.3551784	2.3141258
7.972336253588986	5.3612213	2.315431
7.989905596912472	5.455918	2.3357906
8.007475128365371	5.4869814	2.3424306
8.025044848366756	5.5216594	2.349821
8.042614757335754	5.620751	2.3708122
8.060184855691523	5.607983	2.368118
8.07775514385327	5.7098846	2.3895364
8.095325622240228	5.7671857	2.4014966
8.112896291271687	5.857608	2.4202495
8.130467151366968	5.9532537	2.439929
8.148038202945436	5.9788327	2.4451652
8.165609446426497	5.9814763	2.4457057
8.183180882229594	6.026173	2.4548266
8.200752510774217	6.011097	2.4517539
8.218324332479893	5.913121	2.431691
8.235896347766193	5.9114146	2.43134
8.253468557052724	6.0100226	2.4515347
8.27104096075914	6.0892215	2.4676347
8.288613559305137	6.164911	2.4829237
8.306186353110448	6.1660013	2.4831433
8.32375934259485	6.223382	2.4946706
8.341332528178162	6.285641	2.507118
8.358905910280246	6.2729783	2.5045915
8.376479489321003	6.2605042	2.5021
8.394053265720377	6.3123755	2.512444
8.411627239898356	6.3440375	2.5187373
8.42920141227497	6.3336225	2.516669
8.44677578327029	6.3153715	2.5130403
8.464350353304427	6.2904735	2.5080817
8.48192512279754	6.2265663	2.4953089
8.499500092169827	6.1463633	2.479186
8.51707526184153	6.1632214	2.4825835
8.534650632232934	6.2075276	2.491491
8.552226203764365	6.274842	2.5049634
8.569801976856192	6.2720265	2.5044014
8.587377951928834	6.29402	2.5087886
8.60495412940274	6.3301973	2.5159883
8.622530509698416	6.386866	2.527225
8.6401070932364	6.496971	2.5489156
8.657683880437283	6.5829997	2.5657358
8.675260871721695	6.753353	2.5987215
8.692838067510303	6.91827	2.6302605
8.710415468223834	7.0969095	2.6640027
8.727993074283043	7.1941133	2.6821845
8.745570886108737	7.178302	2.6792352
8.763148904121765	7.193025	2.6819816
8.78072712874302	7.2429976	2.6912818
8.798305560393441	7.485853	2.7360287
8.815884199494006	7.6754947	2.7704682
8.833463046465745	7.7991877	2.7927027
8.851042101729728	7.971501	2.8233848
8.86862136570707	8.291195	2.8794434
8.886200838818924	8.397965	2.8979244
8.903780521486505	8.432958	2.9039555
8.921360414131055	8.481828	2.9123578
8.938940517173874	8.641297	2.9396083
8.956520831036297	8.826793	2.9709918
8.97410135613971	9.157646	3.0261602
8.99168209290554	9.28917	3.0478141
9.009263041755265	9.484435	3.079681
9.026844203110405	9.670363	3.1097207
9.044425577392525	9.908643	3.1477997
9.062007165023239	10.034295	3.1676955
9.079588966424197	10.292849	3.208247
9.097170982017108	10.329705	3.213986
9.11475321222372	11.184695	3.3443527
9.132335657465825	12.041726	3.470119
9.149918318165264	12.180822	3.4901035
9.167501194743924	12.848393	3.5844655
9.18508428762374	12.565358	3.544765
9.202667597226693	12.533127	3.5402157
9.220251123974803	12.098796	3.4783323
9.237834868290143	11.82139	3.4382248
9.255418830594836	11.663433	3.4151769
9.273003011311046	11.228166	3.3508456
9.290587410860985	10.983549	3.314144
9.308172029666911	10.416396	3.2274442
9.32575686815113	10.079676	3.1748505
9.343341926735997	8.890909	2.9817626
9.360927205843916	8.590344	2.930929
9.378512705897327	8.411171	2.9002018
9.396098427318728	8.165398	2.857516
9.413684370530664	8.096816	2.8454905
9.431270535955722	8.038568	2.8352368
9.448856924016539	7.975109	2.8240235
9.466443535135806	7.832386	2.79864
9.484030369736251	7.771601	2.787759
9.501617428240658	7.725611	2.7794983
9.519204711071852	7.7266965	2.7796936
9.536792218652714	7.784099	2.7899997
9.55437995140617	7.8784842	2.8068638
9.571967909755191	7.9870834	2.8261428
9.589556094122802	7.9786654	2.8246531
9.60714450493207	7.9451537	2.8187149
9.624733142606116	7.894445	2.8097055
9.642322007568108	7.9041686	2.8114352
9.659911100241267	7.9661784	2.8224418
9.677500421048851	8.040074	2.8355024
9.695089970414175	8.105608	2.847035
9.712679748760609	8.089176	2.8441477
9.730269756511557	8.1354885	2.8522778
9.747859994090492	8.184493	2.8608553
9.765450461920915	8.244789	2.8713741
9.78304116042639	8.292227	2.8796227
9.800632090030527	8.305073	2.8818524
9.81822325115699	8.384064	2.8955247
9.835814644229481	8.311652	2.8829937
9.853406269671762	8.292347	2.8796434
9.870998127907646	8.3072815	2.8822355
9.888590219360985	8.344206	2.888634
9.906182544455698	8.363819	2.892027
9.923775103615734	8.378521	2.8945675
9.941367897265108	8.371489	2.8933525
9.958960925827878	8.371053	2.8932772
9.97655418972816	8.397236	2.8977985
9.994147689390106	8.366665	2.8925188
10.011741425237934	8.39882	2.8980718
10.029335397695904	8.335127	2.887062
10.04692960718833	8.325797	2.8854458
10.06452405413958	8.287215	2.8787525
10.082118738974064	8.273685	2.8764014
10.099713662116246	8.256369	2.8733897
10.117308823990651	8.273405	2.8763528
10.134904225021844	8.306538	2.8821065
10.152499865634445	8.294587	2.8800325
10.170095746253125	8.28432	2.8782494
10.18769186730261	8.297468	2.8805325
10.205288229207675	8.3488035	2.8894296
10.222884832393145	8.297027	2.880456
10.2404816772839	8.245167	2.87144
10.258078764304868	8.136438	2.8524442
10.275676093881035	8.085049	2.843422
10.293273666437438	8.042827	2.8359878
10.310871482399158	8.060449	2.839093
10.32846954219134	8.017877	2.8315856
10.346067846239173	8.01461	2.8310087
10.363666394967908	8.035626	2.834718
10.38126518880283	8.077	2.8420062
10.398864228169298	8.285766	2.8785007
10.416463513492713	8.274513	2.8765454
10.434063045198531	8.25952	2.873938
10.451662823712262	8.257402	2.8735697
10.469262849459467	8.348019	2.889294
10.486863122865758	8.237512	2.8701065
10.504463644356806	8.165639	2.8575583
10.522064414358338	8.056797	2.8384497
10.539665433296118	7.990595	2.826764
10.557266701595987	7.992322	2.8270695
10.574868219683818	7.873574	2.805989
10.592469987985552	7.7896767	2.7909992
10.610072006927185	7.6068397	2.75805
10.627674276934751	7.5222425	2.7426708
10.64527679843435	7.47646	2.7343116
10.662879571852143	7.3892236	2.7183127
10.680482597614331	7.289778	2.699959
10.698085876147173	7.0906987	2.6628366
10.715689407876988	6.9964423	2.645079
10.733293193230146	6.8636146	2.6198502
10.750897232633072	6.7699294	2.6019087
10.76850152651225	6.6648803	2.5816429
10.786106075294207	6.585504	2.5662236
10.803710879405534	6.4706535	2.543748
10.821315939272877	6.409012	2.5316026
10.83892125532294	6.3850284	2.5268614
10.856526827982472	6.3520737	2.520332
10.874132657678285	6.2912264	2.5082316
10.891738744837243	6.2698784	2.5039725
10.909345089886271	6.2962074	2.5092244
10.926951693252343	6.2306457	2.4961262
10.944558555362494	6.162086	2.4823549
10.96216567664381	5.983254	2.446069
10.979773057523436	5.9074583	2.4305263
10.997380698428573	5.86502	2.4217803
11.014988599786477	5.8520117	2.4190931
11.032596762024461	5.7522564	2.3983862
11.050205185569892	5.6907887	2.3855374
11.067813870850198	5.6575623	2.3785632
11.085422818292859	5.613126	2.3692036
11.10303202832541	5.548052	2.3554304
11.120641501375454	5.464446	2.3376155
11.138251237870636	5.364594	2.3161592
11.155861238238671	5.3052487	2.3033125
11.173471502907317	5.2161655	2.2838926
11.191082032304402	5.207824	2.2820659
11.208692826857805	5.1043286	2.2592762
11.226303886995465	5.0769424	2.2532072
11.243915213145371	4.9963546	2.2352526
11.261526805735578	4.9797883	2.231544
11.279138665194196	4.9501376	2.2248905
11.296750791949393	4.9061923	2.2149925
11.314363186429393	4.8318267	2.1981416
11.331975849062479	4.756939	2.1810408
11.34958878027699	4.719551	2.1724527
11.36720198050133	4.667787	2.1605062
11.384815450163948	4.626628	2.1509597
11.402429189693366	4.5562944	2.134548
11.420043199518153	4.509282	2.123507
11.437657480066942	63.4761	7.967189
11.455272031768422	85.196526	9.230196
11.472886855051353	107.599365	10.373012
11.490501950344528	99.14435	9.957126
11.508117318076819	84.43426	9.188811
11.52573295867715	45.7808	6.766151
11.543348872574514	4.1209016	2.0300004
11.560965060197946	4.1347227	2.0334017
11.57858152197655	4.1411495	2.0349815
11.59619825833949	4.139478	2.0345707
11.613815269715985	4.0948625	2.0235767
11.631432556535323	38.58858	6.211971
11.649050119226837	83.06774	9.114151
11.666667958219929	93.46718	9.667843
11.68428607394406	107.77468	10.381458
11.701904466828756	82.624275	9.089789
11.719523137303586	65.45735	8.090571
11.737142085798196	4.689256	2.165469
11.754761312742286	3.7968683	1.9485555
11.772380818565619	3.7398872	1.9338788
11.790000603698015	3.6740754	1.9167877
11.80762066856935	3.6530168	1.9112867
11.825241013609572	3.6717796	1.9161888
11.842861639248683	3.6617765	1.9135768
11.860482545916748	3.6129026	1.9007638
11.878103734043883	3.5827901	1.892826
11.895725204060282	3.46682	1.8619399
11.91334695639619	3.4055684	1.8454182
11.930968991481919	3.3578343	1.8324394
11.948591309747824	3.3702867	1.835834
11.966213911624347	3.3893914	1.84103
11.98383679754198	3.3699281	1.8357364
12.001459967931268	3.2959816	1.8154838
12.019083423222835	3.2327304	1.7979795
12.036707163847352	3.187147	1.7852582
12.05433119023556	3.2012463	1.7892027
12.071955502818259	3.1651614	1.77909
12.089580102026313	3.1786745	1.7828838
12.107204988290643	3.1699123	1.7804247
12.12483016204224	3.1906	1.7862251
12.142455623712152	3.1971076	1.7880458
12.16008137373149	3.1801577	1.7832997
12.177707412531431	3.1429932	1.7728488
12.19533374054321	3.0830276	1.7558552
12.212960358198126	3.0373495	1.7427993
12.230587265927545	2.9947584	1.730537
12.248214464162889	3.0150747	1.736397
12.265841953335649	2.991183	1.7295038
12.283469733877375	2.9993658	1.7318677
12.301097806219685	2.993119	1.7300633
12.31872617079425	2.997098	1.7312129
12.336354828032825	2.9896953	1.7290735
12.353983778367205	2.9768271	1.7253484
12.371613022229262	2.9269156	1.710823
12.389242560050928	2.902632	1.7037113
12.406872392264201	2.8793955	1.6968782
12.424502519301143	2.9090889	1.7056051
12.442132941593874	2.9260404	1.7105672
12.459763659574586	2.9048796	1.7043707
12.477394673675532	2.847136	1.6873459
12.49502598432903	2.8335211	1.6833066
12.51265759196746	2.807443	1.6755426
12.530289497023267	2.801483	1.6737632
12.547921699928967	2.797007	1.6724255
12.565554201117134	2.8208883	1.67955
12.583187001020404	2.8382819	1.6847202
12.600820100071486	2.8315353	1.6827166
12.618453498703152	2.7940326	1.671536
12.636087197348235	2.7652938	1.6629173
12.65372119643964	2.7562757	1.6602035
12.671355496410326	2.7820377	1.6679442
12.68899009769333	2.8015926	1.6737958
12.706625000721749	2.868626	1.6937019
12.724260205928752	2.8672638	1.6932997
12.741895713747551	2.8877985	1.6993524
12.759531524611454	2.9410844	1.714959
12.777167638953818	3.0425737	1.7442975
12.794804057208072	3.072372	1.7528183
12.812440779807702	3.0956724	1.7594523
12.830077807186271	3.2305832	1.7973824
12.847715139777405	3.2928712	1.814627
12.865352778014795	3.5507908	1.8843542
12.882990722332197	3.623075	1.9034377
12.90062897316344	3.6848664	1.9196006
12.918267530942412	3.7912226	1.9471062
12.935906396103071	3.6851003	1.9196615
12.953545569079449	3.8618684	1.9651637
12.971185050305628	3.6447625	1.9091262
12.988824840215775	3.5967011	1.8964971
13.006464939244115	3.519247	1.8759656
13.024105347824943	3.401984	1.8444468
13.041746066392617	3.5211072	1.8764614
13.05938709538157	3.4029825	1.8447175
13.077028435226296	3.4264743	1.8510739
13.094670086361363	3.3289878	1.8245515
13.112312049221401	3.21946	1.7942854
13.129954324241112	3.07656	1.7540126
13.147596911855258	2.8599496	1.6911385
13.165239812498685	2.8208199	1.6795297
13.182883026606293	2.7962992	1.6722139
13.200526554613058	2.7431705	1.6562519
13.218170396954017	2.705734	1.6449115
13.235814554064284	2.6946301	1.6415329
13.253459026379034	2.7268617	1.6513212
13.271103814333523	2.734238	1.6535531
13.288748918363058	2.743578	1.6563749
13.306394338903031	2.693343	1.6411407
13.32404007638889	2.6393669	1.6246128
13.341686131256164	2.6540377	1.6291218
13.359332503940449	2.6436124	1.625919
13.376979194877402	2.6921544	1.6407785
13.394626204502751	2.74652	1.6572628
13.412273533252307	2.8283875	1.681781
13.429921181561937	2.8185759	1.6788615
13.447569149867581	2.7967517	1.6723492
13.465217438605247	2.7488873	1.6579769
13.482866048211022	2.7226737	1.6500527
13.500514979121052	2.7053056	1.6447814
13.518164231771568	2.6828797	1.6379498
13.535813806598844	2.6860006	1.6389023
13.553463704039254	2.6797445	1.6369925
13.571113924529229	2.6559527	1.6297094
13.588764468505275	2.6793818	1.6368817
13.606415336403956	2.697975	1.6425513
13.624066528661917	2.7158551	1.6479852
13.641718045715882	2.7477863	1.6576447
13.659369888002635	2.8037577	1.6744425
13.67702205595903	2.857908	1.6905348
13.694674550021993	2.939056	1.7143675
13.712327370628532	3.0140078	1.7360898
13.729980518215713	3.109652	1.7634206
13.747633993220681	3.2433262	1.8009237
13.765287796080647	3.3042946	1.8177719
13.7829419272329	3.3658125	1.8346151
13.800596387114801	3.359231	1.8328205
13.818251176163775	3.3663108	1.8347509
13.835906294817324	3.4099529	1.8466058
13.853561743513023	3.4497762	1.8573573
13.871217522688525	3.512487	1.874163
13.888873632781538	3.4998412	1.8707863
13.906530074229858	3.5315564	1.8792436
13.92418684747135	3.4981866	1.8703439
13.941843952943948	3.5088148	1.873183
13.959501391085665	3.4881022	1.8676462
13.977159162334578	3.4361181	1.8536769
13.994817267128846	3.3963337	1.8429145
14.012475705906693	3.2865973	1.8128974
14.030134479106424	3.215603	1.7932103
14.047793587166414	3.1420622	1.7725863
14.065453030525108	3.0605526	1.7494435
14.083112809621026	2.9502542	1.7176304
14.100772924892766	2.9053714	1.704515
14.118433376778997	2.8904595	1.7001351
14.136094165718458	2.8242283	1.680544
14.153755292149969	2.7740777	1.6655563
14.171416756512416	2.6857328	1.6388205
14.189078559244768	2.6616538	1.6314576
14.20674070078606	2.592129	1.610009
14.224403181575408	2.5394137	1.5935538
14.242066002051999	2.4729319	1.5725558
14.259729162655093	2.4489005	1.5648963
14.277392663824022	2.4295933	1.5587152
14.295056505998208	2.4277275	1.5581167
14.312720689617128	2.3971078	1.5482596
14.330385215120348	2.3822021	1.5434384
14.348050082947497	2.380365	1.5428431
14.3657152935383	2.371879	1.5400906
14.383380847332528	2.3836386	1.5439037
14.401046744770051	2.4103081	1.5525167
14.418712986290798	2.4290922	1.5585545
14.436379572334793	2.4115	1.5529006
14.454046503342123	2.372397	1.5402588
14.471713779752946	2.363824	1.5374732
14.489381402007504	2.3808286	1.5429934
14.507049370546113	2.4189906	1.5553105
14.524717685809168	2.4090774	1.5521203
14.542386348237134	2.4189758	1.5553057
14.560055358270553	2.4060998	1.5511608
14.577724716350051	2.431417	1.5593002
14.595394422916325	2.4165137	1.5545139
14.61306447841015	2.4679463	1.5709698
14.63073488327237	2.4815152	1.5752826
14.648405637943917	2.4730065	1.5725796
14.6660767428658	2.4728382	1.5725261
14.683748198479094	2.5068805	1.5833131
14.701420005224954	2.6037087	1.6136012
14.719092163544628	2.7016623	1.6436734
14.73676467387942	2.7197626	1.6491703
14.754437536670727	2.7189157	1.6489135
14.772110752360014	2.714362	1.6475321
14.78978432138882	2.7104766	1.6463525
14.807458244198777	2.6650772	1.6325064
14.82513252123159	2.6326258	1.6225369
14.842807152929028	2.6697612	1.6339403
14.860482139732962	2.6892827	1.6399032
14.87815748208531	2.7147965	1.647664
14.8958331804281	2.7315586	1.6527427
14.91350923520342	2.690525	1.640282
14.931185646853438	2.6955934	1.6418263
14.948862415820408	2.7052586	1.644767
14.966539542546656	2.7244763	1.6505988
14.98421702747459	2.72395	1.6504393
15.001894871046696	2.7132893	1.6472065
15.019573073705542	2.7142882	1.6475097
15.037251635893766	2.685172	1.6386495
15.054930558054092	2.7040799	1.6444087
15.072609840629323	2.709895	1.6461759
15.090289484062351	2.828108	1.681698
15.107969488796124	3.1045146	1.7619632
15.125649855273691	3.5205822	1.8763214
15.14333058393817	4.0563784	2.0140452
15.161011675232768	5.095675	2.2573602
15.17869312960076	6.444893	2.5386794
15.196374947485506	8.287788	2.878852
15.214057129330447	11.31928	3.3644137
15.231739675579114	15.954128	3.994262
15.249422586675102	20.814905	4.5623355
15.267105863062092	23.981373	4.897078
15.284789505183847	24.248901	4.9243174
15.302473513484218	22.166916	4.7081757
15.320157888407127	18.569862	4.309276
15.337842630396578	14.553392	3.8148909
15.355527739896656	11.447451	3.383408
15.37321321735153	8.975136	2.9958532
15.39089906320545	6.570721	2.5633419
15.408585277902748	4.906847	2.2151403
15.42627186188783	3.7818575	1.9446999
15.443958815605198	3.2299094	1.7971948
15.461646139499424	2.9782844	1.7257707
15.479333834015168	2.8271933	1.6814259
15.497021899597165	2.7674527	1.6635662
15.514710336690234	2.7092936	1.6459932
15.53239914573928	2.6679924	1.633399
15.550088327189297	2.6053424	1.6141073
15.567777881485336	2.5403802	1.593857
15.58546780907256	2.5038033	1.5823411
15.6031581103962	2.5236382	1.5885963
15.620848785901568	2.5337446	1.591774
15.638539836034063	2.5332372	1.5916146
15.656231261239173	2.4983573	1.5806193
15.673923061962451	2.4288871	1.5584887
15.691615238649552	2.4376323	1.5612919
15.709307791746202	2.4509776	1.5655599
15.727000721698221	2.4638546	1.569667
15.744694028951498	2.4332287	1.559881
15.76238771395202	2.4076326	1.5516548
15.780081777145844	2.3794131	1.5425346
15.797776218979125	2.3515334	1.533471
15.815471039898094	2.3408346	1.5299786
15.833166240349064	2.3564632	1.5350776
15.850861820778437	2.380591	1.5429164
15.868557781632699	2.3972502	1.5483056
15.886254123358412	2.38621	1.5447363
15.903950846402232	2.3707438	1.539722
15.921647951210897	2.3774176	1.5418876
15.939345438231225	2.3990085	1.5488733
15.957043307910133	2.4080603	1.5517926
15.974741560694602	2.3899128	1.5459343
15.992440197031714	2.376467	1.5415794
16.01013921736862	2.3828185	1.5436381
16.02783862215259	2.415474	1.5541795
16.045538411830933	2.4099505	1.5524015
16.06323858685107	2.3576696	1.5354705
16.080939147660512	2.3494146	1.53278
16.09864009470684	2.3919318	1.5465871
16.11634142843774	2.4381888	1.56147
16.134043149300954	2.4408698	1.5623283
16.15174525774433	2.3984416	1.5486903
16.169447754215817	2.3896756	1.5458575
16.18715063916342	2.4190986	1.5553452
16.204853913035244	2.467362	1.5707839
16.222557576279478	2.517357	1.5866182
16.240261629344403	22.493176	4.7426972
16.257966072678386	43.029068	6.5596547
16.275670906729868	38.12417	6.174477
16.293376131947387	2.5546987	1.5983425
16.31108174877957	2.5622942	1.6007168
16.328787757675133	2.5692852	1.602899
16.34649415908287	2.5978682	1.6117904
16.364200953451657	2.633764	1.6228876
16.38190814123048	2.681027	1.6373842
16.39961572286839	2.6809227	1.6373523
16.41732369881455	2.668427	1.633532
16.43503206951817	2.6905885	1.6403013
16.45274083542859	2.7188292	1.6488873
16.47044999699522	2.7923589	1.6710353
16.488159554667558	2.8388186	1.6848794
16.505869508895184	2.8584328	1.69069
16.523579860127786	2.8533008	1.6891717
16.541290608815117	2.8808537	1.6973078
16.559001755407035	2.9439676	1.7157995
16.57671330035348	3.0517173	1.7469165
16.59442524410448	3.1678462	1.7798444
16.61213758711015	3.2619824	1.806096
16.629850329820705	3.2986379	1.8162153
16.647563472686436	3.3717763	1.8362397
16.665277016157724	3.4220858	1.8498881
16.682990960685053	3.4365344	1.8537892
16.70070530671898	3.4653285	1.8615392
16.718420054710155	3.5330377	1.8796376
16.736135205109335	3.5772338	1.8913577
16.753850758367335	3.6111104	1.9002922
16.771566714935087	3.6539347	1.9115268
16.789283075263597	3.7391913	1.9336989
16.80699983980398	3.812454	1.9525506
16.82471700900741	3.8716953	1.9676623
16.84243458332518	3.947744	1.986893
16.860152563208665	4.0077696	2.0019414
16.87787094910932	4.067447	2.0167913
16.89558974147871	4.171079	2.042322
16.913308940768466	4.216618	2.0534406
16.931028547430333	4.260155	2.0640144
16.94874856191613	4.273609	2.067271
16.966468984677785	4.3412986	2.0835783
16.98418981616729	4.3816676	2.0932434
17.00191105683676	4.424134	2.1033626
17.019632707138374	4.4330773	2.1054873
17.03735476752442	4.451241	2.1097965
17.05507723844728	4.495613	2.120286
17.072800120359403	4.5886784	2.1421201
17.090523413713353	4.629865	2.1517122
17.108247118961785	4.641192	2.1543427
17.125971236557437	4.636009	2.1531394
17.143695766953133	4.6646743	2.1597857
17.161420710601806	4.680722	2.1634977
17.179146067956477	4.675803	2.1623607
17.19687183947025	4.704573	2.1690028
17.21459802559634	4.6978874	2.1674612
17.232324626788028	4.693539	2.1664577
17.25005164349871	4.6729226	2.1616943
17.267779076181863	4.7074747	2.1696715
17.285506925291074	4.7003856	2.1680372
17.30323519127999	4.6602077	2.1587515
17.320963874602384	4.6120577	2.1475701
17.33869297571211	4.5744424	2.1387947
17.356422495063114	4.6050463	2.1459372
17.37415243310944	4.5949006	2.1435719
17.391882790305218	4.568685	2.1374483
17.40961356710468	4.5324116	2.128946
17.42734476396215	4.4987574	2.1210275
17.445076381332044	4.527757	2.1278527
17.462808419668868	4.620557	2.149548
17.48054087942723	4.7779036	2.1858416
17.498273761061835	5.02488	2.2416244
17.51600706502747	5.5478554	2.3553886
17.533740791779024	6.3269596	2.5153449
17.551474941771485	7.7967777	2.7922711
17.56920951545993	8.867021	2.9777544
17.586944513299528	10.997309	3.316219
17.60467993574556	12.560245	3.5440435
17.622415783253373	14.028511	3.7454655
17.64015205627843	15.337614	3.9163265
17.657888755276293	16.437857	4.054363
17.675625880702604	16.958675	4.118091
17.69336343301311	16.793081	4.097936
17.71110141266366	15.963683	3.995458
17.728839820110178	14.989154	3.8715827
17.746578655808705	14.173925	3.7648275
17.764317920215372	12.782687	3.5752883
17.7820576137864	11.3872795	3.3745043
17.79979773697811	9.38855	3.064074
17.81753829024692	7.533754	2.7447684
17.835279274049356	5.866897	2.4221678
17.85302068884201	4.859247	2.20437
17.870762535081607	4.245392	2.0604348
17.888504813224934	3.9321654	1.9829688
17.90624752372891	3.74698	1.9357117
17.923990667050536	3.6232085	1.9034728
17.941734243646895	3.5197687	1.8761047
17.959478253975185	3.4436517	1.8557079
17.9772226984927	3.4033504	1.8448172
17.994967577656833	3.405481	1.8453946
18.01271289192506	3.3780293	1.8379416
18.030458641754965	3.3695889	1.835644
18.04820482760425	3.3495784	1.8301853
18.06595144993067	3.3265035	1.8238704
18.083698509192125	3.3141925	1.8204924
18.101446005846576	3.2727857	1.8090842
18.119193940352105	3.2547588	1.804095
18.136942313166887	3.2489328	1.8024796
18.1546911247492	3.2466257	1.8018395
18.1724403755574	3.2132523	1.7925547
18.19019006604997	3.170834	1.7806836
18.207940196685467	3.125058	1.7677833
18.225690767922575	3.097558	1.7599881
18.243441780220046	3.1176705	1.7656926
18.261193234036764	3.1248875	1.7677351
18.278945129831676	3.0884986	1.7574124
18.29669746806386	3.0663097	1.7510881
18.314450249192483	3.0203261	1.7379086
18.3322034736768	3.046879	1.7455312
18.349957141976184	3.0298874	1.7406572
18.3677112545501	3.076861	1.7540983
18.385465811858108	3.1342187	1.7703725
18.403220814359884	3.120813	1.7665823
18.420976262515172	3.0866985	1.7569003
18.43873215678387	3.0782692	1.7544997
18.456488497625923	3.1170797	1.7655253
18.474245285501407	3.2282372	1.7967296
18.492002520870486	3.3305244	1.8249724
18.50976020419343	3.405095	1.84529
18.527518335930615	3.6568677	1.9122938
18.545276916542516	4.2204227	2.0543668
18.563035946489688	4.463435	2.1126842
18.580795426232832	4.8858223	2.2103896
18.598555356232698	4.762592	2.1823363
18.616315736950185	5.053916	2.2480917
18.63407656884626	4.7226577	2.1731677
18.65183785238201	4.9249287	2.219218
18.669599588018617	4.703837	2.168833
18.68736177621737	4.722246	2.173073
18.705124417439652	4.714904	2.171383
18.72288751214696	4.5114603	2.1240199
18.740651060800886	4.671766	2.1614268
18.758415063863115	4.3822856	2.093391
18.77617952179546	4.5487766	2.132786
18.793944435059814	4.251006	2.061797
18.811709804118184	4.293887	2.0721698
18.829475629432675	4.301752	2.0740666
18.8472419114655	4.0762315	2.0189679
18.86500865067897	4.1462536	2.036235
18.88277584753551	3.8066976	1.951076
18.90054350249763	3.8780427	1.9692746
18.918311616027957	3.5244133	1.8773421
18.936080188589226	3.4133158	1.8475161
18.953849220644265	3.072508	1.7528571
18.971618712656007	2.8580048	1.6905634
18.9893886650875	2.7717376	1.6648536
19.007159078401887	7.9513907	2.8198211
19.024929953062408	32.876797	5.733829
19.042701289532435	32.8327	5.7299824
19.060473088275405	25.383099	5.038164
19.07824534975489	2.6494257	1.6277057
19.096018074434568	2.624402	1.6200006
19.113791262778197	2.5911129	1.6096934
19.13156491524966	2.579396	1.6060498
19.149339032312945	2.593838	1.6105397
19.167113614432136	2.578353	1.605725
19.184888662071433	2.5371337	1.5928383
19.202664175695123	2.5195882	1.587321
19.220440155767623	2.5198371	1.5873995
19.238216602753447	2.5213451	1.5878744
19.2559935171172	2.518014	1.5868251
19.27377089932361	2.5078294	1.5836128
19.291548749837514	2.5155864	1.58606
19.309327069123835	2.5339317	1.5918329
19.32710585764763	2.5370042	1.5927976
19.344885115874032	2.5337543	1.5917771
19.362664844268313	2.5356565	1.5923744
19.380445043295822	2.5244687	1.5888577
19.39822571342203	2.5359216	1.5924578
19.41600685511252	2.5234783	1.5885459
19.43378846883297	2.5581517	1.5994223
19.451570555049173	2.560842	1.6002631
19.469353114227037	2.5602727	1.6000853
19.48713614683254	2.515087	1.5859026
19.50491965333182	2.4978929	1.5804724
19.52270363419109	2.454079	1.56655
19.540488089876686	2.4594266	1.5682559
19.55827302085503	2.4525833	1.5660726
19.576058427592674	2.4729037	1.5725468
19.593844310556282	2.51429	1.5856513
19.611630670212598	2.5163019	1.5862856
19.629417507028506	2.4855604	1.576566
19.64720482147098	2.4613392	1.5688655
19.6649926140071	2.493284	1.5790136
19.682780885104084	2.5115561	1.584789
19.70056963522921	2.4856668	1.5765997
19.718358864849908	2.4886034	1.5775307
19.7361485744337	2.4864838	1.5768589
19.753938764448215	2.5250037	1.589026
19.771729435361202	2.510126	1.5843377
19.789520587640506	2.5013182	1.5815556
19.807312221754092	2.4885106	1.5775014
19.825104338170043	2.4992423	1.5808992
19.842896937356517	2.5083535	1.5837783
19.860690019781824	2.5075684	1.5835303
19.87848358591436	2.5181427	1.5868657
19.896277636222635	2.510248	1.5843762
19.914072171175278	2.5104926	1.5844533
19.931867191241015	2.510226	1.5843693
19.94966269688869	2.5516298	1.5973822
19.967458688587264	2.5318534	1.5911798
19.985255166805807	2.544341	1.5950991
20.00305213201348	2.551401	1.5973105
20.020849584679578	2.550754	1.597108
20.038647525273507	2.49571	1.5797817
20.05644595426477	2.4687612	1.5712292
20.07424487212299	2.4637685	1.5696396
20.092044279317903	2.4788878	1.5744485
20.109844176319353	2.4652138	1.5701
20.127644563597304	2.4402046	1.5621154
20.145445441621817	2.4373283	1.5611945
20.16324681086307	2.4772837	1.573939
20.181048671791373	2.4914017	1.5784174
20.198851024877122	2.4213731	1.5560762
20.216653870590836	2.3617125	1.5367864
20.234457209403146	2.374642	1.5409873
20.252261041784802	2.372932	1.5404323
20.270065368206662	2.3756292	1.5413076
20.287870189139685	2.3554184	1.5347372
20.305675505054968	2.3268595	1.5254047
20.323481316423702	2.3419292	1.5303363
20.341287623717207	2.3602562	1.5363126
20.359094427406884	2.3768358	1.541699
20.376901727964288	2.380884	1.5430113
20.39470952586107	2.3860092	1.5446712
20.41251782156899	2.397417	1.5483595
20.430326615559935	2.3731477	1.5405024
20.448135908305886	2.3739555	1.5407646
20.465945700278965	2.3391297	1.5294213
20.483755991951384	2.3173277	1.5222771
20.50156678379548	2.3012733	1.5169948
20.519378076283708	2.303329	1.5176722
20.537189869888635	2.3394015	1.5295103
20.55500216508294	2.3545043	1.5344394
20.572814962339415	2.3553233	1.5347062
20.59062826213098	2.3713813	1.539929
20.60844206493066	2.373527	1.5406256
20.626256371211593	2.3435104	1.5308528
20.644071181447032	2.2941468	1.5146441
20.66188649611036	2.2963765	1.51538
20.67970231567506	2.3203561	1.5232716
20.697518640614742	2.3155057	1.5216786
20.715335471403122	2.291147	1.5136535
20.73315280851404	2.2784293	1.5094466
20.750970652421447	2.2863715	1.5120752
20.768789003599412	2.285908	1.511922
20.786607862522136	2.3081436	1.5192575
20.8044272296639	2.3146944	1.521412
20.82224710549913	2.319096	1.5228579
20.84006749050237	2.3198729	1.5231129
20.857888385148268	3.8655913	1.9661107
20.8757097899116	45.97135	6.7802176
20.893531705267254	64.81188	8.050583
20.911354131690224	83.79739	9.154092
20.92917706965566	69.054726	8.309917
20.94700051963877	50.139664	7.0809364
20.96482448211493	29.397202	5.4219184
20.982648957559622	4.130154	2.032278
21.00047394644843	2.2196229	1.4898399
21.01829944925707	2.2199056	1.4899348
21.036125466461375	2.217379	1.4890866
21.053951998537297	2.2195241	1.4898068
21.071779045960906	2.2227418	1.4908862
21.089606609208378	2.1911693	1.4802599
21.10743468875603	2.1922545	1.4806263
21.12526328508028	2.1941648	1.4812714
21.143092398657675	2.2248552	1.4915948
21.16092202996488	2.22876	1.4929032
21.17875217947867	2.2324026	1.4941226
21.19658284767596	2.2097988	1.4865392
21.21441403503377	2.177713	1.4757077
21.232245742029225	2.1821907	1.477224
21.2500779691396	2.1857045	1.4784129
21.26791071684227	2.1551144	1.4680308
21.28574398561475	2.138683	1.4624237
21.30357777593465	2.1773896	1.4755981
21.321412088279704	2.1761672	1.4751838
21.339246923127792	2.1719055	1.4737387
21.357082280956888	2.1829667	1.4774866
21.3749181622451	2.2068636	1.4855516
21.392754567470647	2.1956935	1.4817872
21.41059149711187	2.1784422	1.4759547
21.42842895164726	2.140046	1.4628896
21.446266931555378	2.1192508	1.4557647
21.464105437314945	2.096694	1.4479965
21.481944469404798	2.0992367	1.4488744
21.49978402830388	2.092939	1.4466993
21.51762411449127	2.0915935	1.4462342
21.53546472844617	2.062728	1.43622
21.553305870647876	2.077735	1.441435
21.571147541575865	2.0626886	1.4362063
21.58898974170967	2.0683928	1.4381908
21.60683247152899	2.046709	1.4306324
21.62467573151363	2.0503244	1.4318954
21.642519522143523	2.0656316	1.4372306
21.660363843898722	2.0745575	1.4403324
21.6782086972594	2.0783627	1.4416528
21.696054082705864	2.081631	1.4427859
21.713900000718535	2.0866683	1.4445305
21.73174645177795	2.0645692	1.4368609
21.749593436364794	2.0489955	1.4314313
21.767440954959845	2.0458257	1.4303236
21.785289008044032	2.0543146	1.4332881
21.803137596098388	2.0561826	1.4339396
21.820986719604086	2.0109417	1.4180768
21.838836379042412	1.9727445	1.4045442
21.85668657489478	1.9933258	1.4118519
21.87453730764273	2.0169005	1.4201763
21.892388577767914	1.995048	1.4124616
21.91024038575213	1.9623176	1.4008274
21.928092732077285	1.9474446	1.3955088
21.945945617225426	1.9816245	1.4077018
21.963799041678694	2.0164137	1.4200048
21.981653005919398	31.33666	5.5979156
21.999507510429943	78.12638	8.838913
22.01736255569286	73.075195	8.548403
22.035218142190818	4.149912	2.0371332
22.05307427040661	2.0190718	1.4209405
22.07093094082315	2.0406494	1.428513
22.088788153923474	2.0737503	1.4400522
22.106645910190746	2.0439615	1.4296719
22.12450421010827	2.0251133	1.4230648
22.142363054159464	2.0074844	1.4168572
22.16022244282787	1.9918478	1.4113283
22.178082376597164	1.9958969	1.4127622
22.195942855951145	2.002446	1.415078
22.213803881373742	2.0213041	1.4217257
22.231665453349002	2.00855	1.4172332
22.24952757236111	2.0089972	1.417391
22.26739023889438	1.992252	1.4114716
22.28525345343323	1.962474	1.4008833
22.30311721646225	1.9538814	1.3978131
22.320981528466113	1.9742806	1.4050909
22.33884638992964	1.9887582	1.4102334
22.356711801337788	1.9915121	1.4112095
22.37457776317561	1.9585414	1.399479
22.392444275928337	1.949714	1.3963215
22.410311340081282	1.9646376	1.4016553
22.428178956119904	2.0005128	1.4143949
22.446047124529805	2.0495481	1.4316243
22.46391584579669	2.039727	1.4281901
22.481785120406414	2.0123827	1.4185848
22.49965494884496	1.9878976	1.4099282
22.51752533159841	1.946393	1.395132
22.53539626915302	1.934042	1.3906984
22.553267761995137	1.9145755	1.3836819
22.571139810611264	1.8904943	1.3749524
22.589012415488025	1.9090345	1.3816781
22.60688557711216	1.967562	1.4026982
22.624759295970566	2.0023744	1.4150528
22.642633572550263	1.9722737	1.4043766
22.660508407338362	1.9094656	1.3818341
22.67838380082217	1.8760377	1.3696853
22.696259753489077	1.859022	1.3634596
22.714136265826614	1.8802954	1.3712386
22.73201333832246	1.8909925	1.3751336
22.74989097146439	1.906579	1.3807893
22.76776916574035	1.9222013	1.3864348
22.785647921638393	1.9331989	1.3903953
22.803527239646712	1.9618493	1.4006603
22.82140712025363	1.9634237	1.4012222
22.839287563947593	1.9619164	1.4006842
22.85716857121719	1.9458565	1.3949395
22.875050142551135	1.9379921	1.3921179
22.892932278438277	1.9016852	1.379016
22.910814979367604	1.8996024	1.3782606
22.928698245828222	1.904249	1.3799453
22.946582078309387	1.9479655	1.3956953
22.96446647730047	1.9617631	1.4006295
22.98235144329098	1.9430778	1.3939433
23.000236976770562	1.9203837	1.3857791
23.018123078229	1.9453539	1.3947594
23.03600974815619	1.9339551	1.3906671
23.053896987042194	1.9181069	1.3849573
23.071784795377173	1.8878833	1.3740027
23.08967317365145	1.9261004	1.3878402
23.10756212235546	1.9155709	1.3840415
23.125451641979787	1.9056642	1.380458
23.143341733015134	1.9032238	1.3795737
23.161232395952357	1.9160657	1.3842202
23.179123631282426	1.9268956	1.3881266
23.197015439496468	1.9545307	1.3980453
23.214907821085717	1.9310118	1.3896085
23.23280077654157	1.9073524	1.3810693
23.250694306355538	1.9142245	1.383555
23.268588411019277	1.9225847	1.386573
23.28648309102458	1.9367459	1.3916702
23.304378346863356	1.9238912	1.3870441
23.322274179027676	1.9309247	1.3895772
23.340170588009723	1.9246053	1.3873014
23.358067574301852	1.9613031	1.4004654
23.37596513839651	1.9710946	1.4039568
23.39386328078629	1.9796664	1.4070061
23.411762001963947	1.9672208	1.4025764
23.429661302422353	1.9519293	1.3971146
23.4475611826545	1.9281002	1.3885605
23.46546164315356	1.9193158	1.3853937
23.48336268441279	1.9391632	1.3925384
23.501264306925638	1.9232978	1.3868301
23.51916651118564	1.9069046	1.3809072
23.537069297686497	1.8746958	1.3691953
23.554972666922037	1.9019419	1.3791091
23.57287661938623	1.9126285	1.3829781
23.59078115557318	1.9359585	1.3913872
23.608686275977128	1.9051287	1.380264
23.62659198109246	1.9047396	1.380123
23.6444982714137	1.9274971	1.3883433
23.66240514743549	1.9776683	1.4062959
23.68031260965263	1.9635415	1.4012643
23.698220658560068	1.9147539	1.3837464
23.716129294652845	1.8614815	1.3643612
23.7340385184262	1.8831958	1.3722959
23.75194833037546	1.9210277	1.3860114
23.769858730996123	1.9572728	1.3990257
23.78776972078382	1.9618659	1.4006662
23.80568130023431	1.9269336	1.3881403
23.823593469843495	1.9027392	1.3793981
23.841506230107424	1.9059666	1.3805676
23.859419581522275	1.9066839	1.3808273
23.87733352458438	1.8926178	1.3757244
23.89524805979019	1.9045227	1.3800445
23.913163187636318	1.9110247	1.3823981
23.931078908619508	1.9259392	1.3877821
23.948995223236633	1.9371126	1.391802
23.966912131984735	1.9733242	1.4047506
23.98482963536096	2.0293162	1.4245406
24.002747733862616	2.0304182	1.4249275
24.020666427987155	2.0381846	1.4276501
24.038585718232156	2.0730243	1.4398
24.056505605095353	2.1231644	1.4571083
24.074426089074617	2.1393714	1.462659
24.092347170667946	2.1022296	1.4499067
24.110268850373515	2.0653975	1.437149
24.128191128689586	2.0597596	1.4351863
24.146114006114626	2.024869	1.4229789
24.164037483147187	2.0063257	1.4164482
24.181961560286005	2.0627537	1.436229
24.199886238029926	2.1335106	1.4606541
24.21781151687797	2.1370103	1.4618517
24.235737397329274	2.1110775	1.4529548
24.253663879883135	2.1181748	1.4553951
24.271590965038975	2.0987318	1.4487001
24.289518653296376	2.1079056	1.4518628
24.30744694515505	2.0948327	1.4473537
24.32537584111486	2.0681148	1.4380941
24.34330534167581	2.0433235	1.4294487
24.361235447338046	2.0639927	1.4366603
24.379166158601876	2.083576	1.4434597
24.39709747596772	2.0683734	1.438184
24.41502939993615	2.0377524	1.4274987
24.432961931007917	2.010812	1.4180311
24.450895069683856	2.0180047	1.4205649
24.468828816465	2.0130177	1.4188086
24.4867631718525	2.0018523	1.4148682
24.504698136347656	1.9954773	1.4126136
24.52263371045192	1.969085	1.4032409
24.540569894666874	1.9393518	1.3926061
24.558506689494266	1.9086637	1.381544
24.57644409543597	1.9138738	1.3834282
24.594382112994012	1.9562354	1.3986548
24.61232074267057	1.9961102	1.4128376
24.630259984967953	2.0031247	1.4153179
24.64819984038863	1.9539062	1.3978219
24.66614030943522	1.9342477	1.3907723
24.684081392610462	1.9687318	1.403115
24.702023090417274	2.0184298	1.4207145
24.7199654033587	2.0236685	1.422557
24.737908331937927	2.040789	1.4285618
24.755851876658305	2.0831034	1.4432961
24.773796038023324	2.092765	1.4466393
24.79174081653661	2.109351	1.4523605
24.809686212701962	2.112949	1.4535986
24.827632227023294	2.088063	1.4450132
24.8455788600047	2.086986	1.4446405
24.8635261121504	2.0980072	1.44845
24.88147398396475	2.0792089	1.4419461
24.899422475952303	2.0956776	1.4476455
24.917371588617698	2.1301777	1.4595128
24.935321322465768	2.1953313	1.481665
24.953271678001478	2.240113	1.4967008
24.97122265572994	2.386471	1.5448207
24.989174256156414	2.7022483	1.6438516
25.00712647978632	3.1270468	1.7683458
25.02507932712521	3.6566591	1.9122393
25.043032798678798	4.1752033	2.0433314
25.060986894952933	4.7999887	2.1908877
25.078941616453637	5.465993	2.3379464
25.096896963687055	6.394226	2.5286808
25.114852937159508	7.5351477	2.7450223
25.132809537377444	8.004079	2.829148
25.150766764847468	8.106378	2.84717
25.168724620076347	7.6581883	2.7673433
25.186683103570985	6.707718	2.5899262
25.204642215838426	5.547282	2.3552668
25.222601957385894	4.2307262	2.0568728
25.24056232872074	3.1990566	1.7885907
25.25852333035048	2.5893679	1.6091512
25.276484962782778	2.27105	1.5070003
25.294447226525435	2.1868017	1.4787838
25.312410122086423	2.067408	1.4378484
25.330373649973843	2.014919	1.4194784
25.348337810695988	1.9997411	1.414122
25.366302604761245	1.9506083	1.3966417
25.384268032678207	1.9354123	1.391191
25.40223409495558	1.9035223	1.379682
25.420200792102257	1.8926033	1.3757192
25.438168124627246	1.8810394	1.3715099
25.45613609303974	1.9023899	1.3792715
25.474104697849057	1.9557315	1.3984747
25.492073939564698	1.9375094	1.3919445
25.510043818696285	1.9041827	1.3799212
25.528014335753614	1.8916867	1.375386
25.54598549124664	1.8871925	1.3737513
25.56395728568544	1.894071	1.3762525
25.58192971958028	1.8803698	1.3712658
25.59990279344156	1.857292	1.362825
25.617876507779833	1.8322746	1.3536154
25.635850863105826	1.8305163	1.3529657
25.653825859930386	1.8678819	1.3667047
25.671801498764548	1.8759556	1.3696553
25.68977778011949	1.8234786	1.3503624
25.707754704506524	1.7884927	1.3373454
25.725732272437153	1.8281157	1.3520783
25.743710484423012	1.8743705	1.3690765
25.761689340975888	1.8779066	1.3703673
25.77966884260774	1.836364	1.3551251
25.797648989830662	1.8599802	1.3638109
25.815629783156922	1.877827	1.3703383
25.83361122309895	1.8509513	1.3604968
25.85159331016929	1.8503103	1.3602611
25.869576044880695	1.896924	1.3772887
25.887559427746034	1.8941703	1.3762885
25.90554345927836	1.8551587	1.3620421
25.92352813999086	1.807705	1.3445092
25.94151347039689	1.8072773	1.3443501
25.959499451009965	1.8538532	1.3615627
25.97748608234374	1.8623117	1.3646654
25.995473364912062	1.8240318	1.3505672
26.013461299228904	1.8356134	1.3548481
26.03144988580839	1.8303912	1.3529195
26.04943912516483	1.8070456	1.3442639
26.067429017812675	1.7989535	1.3412508
26.085419564266537	1.8257169	1.3511909
26.103410765041186	1.8604786	1.3639936
26.12140262065155	1.8194481	1.3488692
26.139395131612723	1.8244818	1.3507339
26.157388298439948	1.7853163	1.3361573
26.17538212164861	1.8020636	1.3424096
26.193376601754295	1.8373443	1.3554868
26.211371739272714	1.9122249	1.3828322
26.229367534719746	1.9017305	1.3790325
26.247363988611433	1.8519139	1.3608505
26.26536110146397	1.8391398	1.3561488
26.283358873793727	1.79143	1.3384432
26.301357306117204	1.7887245	1.337432
26.319356398951104	1.8154143	1.3473731
26.33735615281224	1.8155279	1.3474153
26.35535656821762	1.7753454	1.332421
26.373357645684404	1.7862934	1.3365228
26.39135938572991	1.855003	1.361985
26.409361788871614	1.912604	1.3829693
26.427364855627165	1.9056623	1.3804573
26.445368586514352	1.863676	1.3651651
26.46337298205115	1.8468866	1.3590021
26.48137804275568	1.8035091	1.342948
26.499383769146217	1.7971958	1.3405954
26.517390161741215	1.7715305	1.3309885
26.53539722105928	1.728674	1.3147905
26.553404947619182	1.6977654	1.3029833
26.571413341939856	1.7472199	1.3218244
26.589422404540397	1.7884392	1.3373253
26.60743213594006	1.8125877	1.3463237
26.62544253665827	1.836642	1.3552277
26.64345360721459	1.8610332	1.3641969
26.66146534812879	1.8377042	1.3556194
26.679477759920758	1.7866931	1.3366724
26.69749084311057	1.7882377	1.33725
26.71550459821847	1.8424965	1.3573859
26.733519025764842	1.8668337	1.3663212
26.751534126270258	1.8151779	1.3472854
26.769549900255434	1.7692709	1.3301394
26.787566348241267	1.7812223	1.3346244
26.80558347074881	1.8398279	1.3564025
26.823601268299267	1.8491323	1.359828
26.841619741414036	1.8487297	1.35968
26.85963889061465	1.8183687	1.348469
26.877658716422832	1.8232417	1.3502747
26.89567921936045	1.818064	1.348356
26.913700399949544	1.8389442	1.3560767
26.93172225871233	1.8271122	1.3517071
26.949744796171174	1.8182373	1.3484203
26.967768012848605	1.805407	1.3436544
26.98579190926733	1.804115	1.3431735
27.003816485950225	1.8381506	1.3557842
27.021841743420318	1.8250545	1.3509458
27.039867682200814	1.7708609	1.330737
27.057894302815072	1.7580646	1.3259203
27.07592160578664	1.7722914	1.3312744
27.0939495916392	1.8116648	1.345981
27.111978260896635	1.8000284	1.3416514
27.13000761408296	1.8177099	1.3482248
27.148037651722397	1.8003147	1.341758
27.166068374339304	1.8154314	1.3473794
27.184099782458215	1.7788906	1.3337506
27.20213187660384	1.7762014	1.3327421
27.22016465730105	1.8295605	1.3526125
27.23819812507487	1.8549247	1.3619562
27.256232280450533	1.8365176	1.3551817
27.274267123953383	1.8405334	1.3566626
27.292302656108987	1.8373454	1.3554871
27.31033887744306	1.8121943	1.3461777
27.32837578848146	1.7814932	1.3347259
27.34641338975026	1.7613083	1.327143
27.364451681775673	1.7643471	1.3282872
27.382490665084074	1.7654243	1.3286927
27.400530340202046	1.7506498	1.3231212
27.41857070765629	1.7774894	1.3332253
27.436611767973726	1.7855864	1.3362583
27.454653521681404	1.8150331	1.3472316
27.472695969306564	1.8700371	1.367493
27.490739111376627	1.8434069	1.3577212
27.508782948419153	1.8013872	1.3421577
27.526827480961902	1.7692773	1.3301419
27.54487270953279	1.808582	1.3448353
27.562918634659898	1.8164032	1.34774
27.580965256871508	1.8065282	1.3440715
27.599012576696026	1.844302	1.3580508
27.617060594662068	1.8805349	1.371326
27.63510931129842	1.8530748	1.3612769
27.65315872713401	1.8464713	1.3588493
27.67120884269797	1.8591845	1.3635192
27.68925965851958	1.8361946	1.3550626
27.707311175128307	1.8401293	1.3565136
27.725363393053787	1.8653134	1.3657647
27.74341631282583	1.8752065	1.3693818
27.7614699349744	1.8788499	1.3707114
27.77952426002968	2.110068	1.4526074
27.797579288521973	2.1558032	1.4682654
27.815635020981784	2.5672731	1.6022712
27.83369145793979	2.5647616	1.6014873
27.85174859992682	2.414276	1.553794
27.869806447473923	2.2658656	1.5052792
27.887865001112267	1.9504871	1.3965985
27.905924261373233	1.8631914	1.3649877
27.92398422878836	1.8656284	1.36588
27.94204490388936	1.857155	1.3627747
27.96010628720813	1.8431896	1.3576412
27.978168379276728	1.8392414	1.3561864
27.9962311806274	1.842236	1.3572899
28.014294691792568	1.8506979	1.3604035
28.0323589133048	1.8526536	1.3611223
28.050423845696887	1.8866065	1.3735379
28.068489489501758	1.8703849	1.3676202
28.086555845252523	1.8331505	1.3539389
28.104622913482487	1.8365085	1.3551784
28.122690694725115	1.8355715	1.3548326
28.14075918951405	1.8427231	1.3574694
28.15882839838312	1.8398548	1.3564125
28.176898321866304	1.8915889	1.3753505
28.1949689604978	1.8995371	1.3782369
28.213040314811945	1.8537734	1.3615334
28.23111238534327	1.798783	1.3411871
28.249185172626493	1.8485298	1.3596065
28.267258677196473	1.9095751	1.3818737
28.285332899588294	1.9054912	1.3803953
28.303407840337172	1.9266585	1.3880413
28.321483499978545	1.9266416	1.3880352
28.33955987904799	1.9573214	1.3990431
28.357636978081285	1.9361752	1.3914652
28.37571479761439	1.9612056	1.4004306
28.393793338183425	1.953655	1.3977321
28.41187260032469	1.9764404	1.4058594
28.429952584574686	2.001049	1.4145844
28.448033291470065	2.0142126	1.4192296
28.46611472154769	1.9964024	1.4129411
28.484196875344566	2.0487225	1.4313359
28.502279753397914	2.027136	1.4237753
28.52036335624511	1.9554573	1.3983767
28.538447684423716	1.9108905	1.3823496
28.556532738471482	1.8971456	1.377369
28.574618518926325	1.9148948	1.3837973
28.59270502632635	1.9932082	1.4118103
28.61079226120985	2.0451405	1.4300841
28.628880224115274	2.0725358	1.4396304
28.646968915581287	2.123038	1.4570649
28.66505833614671	2.1400304	1.4628843
28.68314848635055	2.1454568	1.4647378
28.701239366732004	2.2007115	1.4834795
28.71933097783044	2.1318758	1.4600945
28.737423320185403	2.0964146	1.4479
28.75551639433665	2.0706918	1.4389899
28.773610200824074	2.0672696	1.4378003
28.791704740187793	2.1135798	1.4538156
28.80980001296809	2.1511524	1.4666808
28.827896019705413	2.1734815	1.4742732
28.845992760940433	2.171338	1.4735461
28.86409023721397	2.163186	1.4707774
28.88218844906704	2.1667857	1.4720006
28.900287397040845	2.1816308	1.4770344
28.918387081676755	2.203265	1.48434
28.936487503516343	2.2294307	1.4931278
28.954588663101365	2.274188	1.5080411
28.97269056097374	2.3002675	1.5166633
28.990793197675597	2.2723026	1.5074159
29.00889657374923	2.2676325	1.505866
29.027000689737125	2.3410082	1.5300354
29.04510554618196	2.4414055	1.5624998
29.06321114362659	2.4443207	1.5634323
29.08131748261405	2.5020773	1.5817956
29.099424563687567	2.5171492	1.5865526
29.11753238739057	2.5328581	1.5914955
29.13564095426663	2.5626686	1.6008337
29.15375026485954	2.5709467	1.6034172
29.171860319713275	2.5648975	1.6015297
29.18997111937199	2.558269	1.5994589
29.20808266438002	2.650494	1.6280338
29.226194955281898	2.7475634	1.6575775
29.244307992622335	2.75949	1.6611713
29.26242177694624	2.7650347	1.6628393
29.2805363087987	2.8945568	1.7013397
29.29865158872498	3.0216775	1.7382973
29.316767617270557	2.990651	1.7293499
29.334884394981064	2.976625	1.7252898
29.353001922402367	2.997833	1.7314252
29.37112020008047	3.0907285	1.7580467
29.389239228561596	3.1797879	1.783196
29.407359008392152	3.3375425	1.8268943
29.42547954011872	3.6420817	1.9084239
29.44360082428809	4.294072	2.0722144
29.46172286144722	5.3146253	2.3053472
29.479845652143283	6.747851	2.5976627
29.497969196923606	8.741678	2.9566329
29.516093496335728	11.184281	3.344291
29.5342185509274	13.856415	3.7224205
29.55234436124651	16.073969	4.0092354
29.570470927841175	17.485386	4.181553
29.588598251259686	17.324879	4.1623163
29.60672633205055	16.053028	4.0066233
29.624855170762405	14.01956	3.7442703
29.642984767944146	11.439599	3.3822477
29.66111512414481	8.830679	2.9716458
29.67924623991366	6.6164203	2.5722404
29.697378115800138	5.03808	2.244567
29.71551075235387	4.1333137	2.0330553
29.733644150124675	3.7308471	1.9315401
29.751778309662576	3.5115604	1.8739158
29.769913231517766	3.3596342	1.8329304
29.78804891624066	3.322122	1.8226689
29.806185364381818	3.3769019	1.8376348
29.82432257649206	3.4303985	1.8521335
29.842460553122333	3.4045064	1.8451304
29.86059929482382	3.3618913	1.833546
29.878738802147872	3.3017313	1.8170667
29.896879075646048	3.2292287	1.7970055
29.915020115870114	3.1943161	1.787265
29.933161923371976	3.2251234	1.7958629
29.951304498703777	3.2334187	1.7981709
29.969447842417857	3.179509	1.7831178
29.987591955066733	3.1187468	1.7659974
30.005736837203123	3.1616213	1.7780949
30.023882489379943	3.1695836	1.7803324
30.04202891215028	3.1229706	1.7671928
30.060176106067455	3.129511	1.7690424
30.078324071684946	3.122779	1.7671386
30.09647280955646	3.1214871	1.7667731
30.114622320235863	3.087256	1.7570589
30.132772604277257	3.0363505	1.7425127
30.1509236622349	3.0925198	1.7585561
30.16907549466328	3.1593225	1.7774483
30.18722810211705	3.108808	1.7631812
30.205381485151097	3.0567427	1.7483543
30.22353564432045	3.0574915	1.7485684
30.241690580180403	3.072556	1.7528708
30.25984629328638	3.034678	1.7420328
30.278002784194037	2.9809601	1.7265457
30.296160053459246	2.973009	1.7242416
30.314318101638033	2.924796	1.7102035
30.332476929286646	2.9106255	1.7060555
30.35063653696153	2.9394307	1.7144768
30.368796925219307	2.9403625	1.7147485
30.386958094616844	2.8678956	1.6934862
30.40512004571115	2.8575468	1.690428
30.423282779059463	2.9019754	1.7035185
30.441446295219233	2.957493	1.7197363
30.459610594748067	2.944069	1.7158289
30.47777567820382	2.915665	1.7075318
30.495941546144504	2.9098237	1.7058206
30.51410819912835	2.941599	1.715109
30.532275637713795	2.9212832	1.7091762
30.55044386245946	2.8567197	1.6901834
30.56861287392416	2.815012	1.6777997
30.586782672666956	2.8028765	1.6741793
30.604953259247047	2.7603915	1.6614426
30.623124634223885	2.817552	1.6785566
30.641296798157075	2.9395747	1.7145188
30.659469751606462	2.8944457	1.701307
30.677643495132074	2.7787795	1.6669672
30.695818029294152	2.6630535	1.6318865
30.713993354653116	2.6033862	1.6135012
30.73216947176962	2.6984286	1.6426895
30.75034638120448	2.726813	1.6513065
30.768524083518756	2.7357838	1.6540205
30.786702579273673	2.7954972	1.6719741
30.80488186903069	2.8526306	1.6889732
30.82306195335144	2.8945248	1.7013303
30.841242832797782	3.0887647	1.7574881
30.85942450793176	3.3987975	1.8435827
30.877606979315637	3.7573655	1.9383925
30.895790247511883	4.0345306	2.008614
30.913974313083134	4.381465	2.093195
30.932159176592283	4.666879	2.1602962
30.95034483860237	4.691568	2.1660028
30.968531299676698	4.4274206	2.1041436
30.98671856037873	4.1384196	2.0343106
31.00490662127215	3.8510792	1.9624166
31.023095482920848	3.5195985	1.8760593
31.04128514588892	3.1219985	1.7669178
31.059475610740662	2.8202198	1.679351
31.07766687804056	2.6128774	1.6164397
31.09585894835335	2.5642476	1.6013268
31.11405182224393	2.4660802	1.5703758
31.132245500277417	2.475996	1.5735298
31.15043998301914	2.4825468	1.5756099
31.168635271034628	2.4424036	1.5628191
31.18683136488964	2.3739545	1.5407642
31.20502826515008	2.3548815	1.5345623
31.223225972382135	2.3716297	1.5400096
31.241424487152155	2.4258919	1.5575275
31.259623810026692	2.4535635	1.5663855
31.27782394157253	2.4902656	1.5780575
31.296024882356644	2.4760993	1.5735626
31.314226632946237	2.4302065	1.5589119
31.332429193908684	2.4411905	1.562431
31.350632565811598	2.4330382	1.5598199
31.368836749222787	2.4761815	1.5735887
31.387041744710295	2.5195496	1.5873089
31.40524755284232	2.556829	1.5990088
31.423454174187317	2.5992904	1.6122315
31.441661609313922	2.5794456	1.6060653
31.459869858791002	2.434249	1.560208
31.478078923187628	2.331681	1.5269843
31.496288803073064	2.3206768	1.5233768
31.514499499016807	2.29131	1.5137074
31.532711011588546	2.2890952	1.5129756
31.550923341358178	2.4308214	1.5591092
31.56913648889584	2.469856	1.5715775
31.587350454771844	2.3683865	1.5389563
31.605565239556732	2.3342836	1.5278362
31.62378084382127	2.2751548	1.5083616
31.641997268136382	2.2472887	1.4990959
31.660214513073274	2.2574494	1.5024811
31.67843257920331	2.2690043	1.5063214
31.6966514670981	2.2776964	1.5092039
31.71487117732944	2.260447	1.5034783
31.733091710469346	2.2779543	1.5092894
31.751313067090052	2.3039398	1.5178734
31.769535247764008	2.3225214	1.523982
31.787758253063878	2.385252	1.5444261
31.805982083562526	2.4145236	1.5538738
31.824206739833024	2.3661542	1.5382309
31.84243222244869	2.2799141	1.5099385
31.860658531983013	2.2246795	1.4915359
31.878885669009737	2.2280908	1.492679
31.897113634102784	2.255253	1.50175
31.91534242783632	2.276876	1.5089321
31.933572050784694	2.1991425	1.4829506
31.951802503522508	2.2124743	1.4874388
31.970033786624548	2.172632	1.4739851
31.988265900665834	2.1535816	1.4675087
32.006498846221575	2.1877258	1.4790963
32.02473262386724	2.1564894	1.4684991
32.04296723417845	2.1104093	1.4527248
32.0612026777311	2.1218262	1.456649
32.07943895510129	2.1413238	1.4633263
32.097676066865304	2.1562924	1.468432
32.115914013599685	2.105015	1.4508669
32.13415279588115	2.0937674	1.4469856
32.152392414286666	2.1617243	1.4702804
32.1706328693934	2.2054558	1.4850777
32.18887416177875	2.1497774	1.4662119
32.20711629202032	2.0693898	1.4385374
32.225359260695924	2.0789983	1.4418732
32.243603068383614	2.0801992	1.4422896
32.26184771566166	2.0535834	1.433033
32.28009320310852	2.0525808	1.4326831
32.2983395313029	2.125568	1.4579327
32.31658670082372	2.1440291	1.4642503
32.33483471225012	2.2046263	1.4847984
32.35308356616143	2.1499574	1.4662733
32.371333263137245	2.0976415	1.4483237
32.38958380375734	2.1625433	1.4705589
32.407835188601744	2.1871107	1.4788883
32.42608741825067	2.1779597	1.4757912
32.444340493284585	2.2121837	1.4873412
32.46259441428416	2.1646254	1.4712666
32.48084918183028	2.0530272	1.4328388
32.49910479650405	1.979493	1.4069445
32.51736125888683	1.9989913	1.4138569
32.53561856956014	2.0332363	1.425916
32.5538767291058	2.0957136	1.447658
32.572135738105764	2.0916145	1.4462415
32.59039559714228	2.051862	1.4324322
32.608656306797776	1.9846257	1.4087675
32.62691786765491	1.8654616	1.365819
32.645180280296586	1.9288273	1.3888223
32.663443545305896	2.0071375	1.4167348
32.68170766326619	2.0516014	1.4323412
32.69997263476099	2.0555089	1.4337046
32.7182384603741	1.9996146	1.4140773
32.7365051406895	1.961055	1.4003768
32.75477267629144	2.0599709	1.4352598
32.77304106776434	2.112156	1.4533259
32.79131031569289	2.0496283	1.4316523
32.809580420661966	2.0217936	1.4218979
32.827851383256714	2.0717862	1.43937
32.84612320406245	2.102863	1.4501252
32.86439588366476	1.9588177	1.3995777
32.88266942264945	1.7763394	1.3327938
32.9009438216025	1.8768154	1.3699691
32.9192190811102	1.9839981	1.4085447
32.937495201758985	2.066356	1.4374825
32.95577218413556	2.0401878	1.4283514
32.974050028826866	1.9937441	1.4120001
32.992328736420035	1.9205421	1.3858362
33.010608307502444	1.9259379	1.3877816
33.02888874266169	1.9679726	1.4028444
33.047170042485604	1.9749511	1.4053296
33.06545220756225	2.0057821	1.4162564
33.083735238479896	1.9744544	1.4051528
33.10201913582707	1.9196374	1.3855098
33.12030390019248	1.8805174	1.3713195
33.138589532165135	1.9228497	1.3866686
33.15687603233419	1.9876224	1.4098306
33.17516340128909	1.9604789	1.400171
33.19345163961947	1.9415067	1.3933796
33.211740747915215	1.9681627	1.4029123
33.23003072676643	2.0116482	1.4183258
33.248321576763466	1.9788005	1.4066985
33.266613298496885	1.9872143	1.4096859
33.28490589255747	2.002096	1.4149544
33.30319935953626	2.005283	1.4160802
33.32149370002451	1.9579782	1.3992778
33.339788914613706	1.853726	1.3615161
33.358085003895575	1.8571557	1.362775
33.376381968462034	1.8972058	1.377391
33.39467980890529	1.9432607	1.3940089
33.41297852581774	1.9666115	1.4023592
33.43127811979204	1.907969	1.3812925
33.44957859142105	1.9021591	1.3791878
33.467879941297866	1.9679799	1.402847
33.486182170015844	1.94443	1.3944283
33.50448527816853	1.9202747	1.3857398
33.522789266349754	1.9857355	1.4091613
33.541094135153514	2.0103376	1.4178637
33.55939988517411	1.9024035	1.3792764
33.57770651700602	1.90732	1.3810576
33.59601403124398	1.956848	1.3988738
33.61432242848296	2.0143108	1.4192642
33.632631709318154	2.0227482	1.4222336
33.650941874344994	2.0784042	1.4416672
33.66925292415916	2.000368	1.4143437
33.68756485935654	1.8809997	1.3714954
33.70587768053328	1.8721472	1.3682643
33.724191388285746	1.8938558	1.3761743
33.74250598321054	1.8958718	1.3769066
33.760821465904506	1.8738098	1.3688717
33.77913783696474	1.803794	1.3430539
33.79745509698852	1.782968	1.3352783
33.815773246573414	1.7817197	1.3348107
33.8340922863172	1.7797593	1.3340762
33.852412216817896	1.8811171	1.3715383
33.87073303867377	2.1106052	1.4527922
33.889054752483304	2.1315315	1.4599766
33.907377358845245	2.000154	1.414268
33.92570085835853	1.7622281	1.3274894
33.94402525162239	1.6526845	1.2855678
33.96235053923627	1.7756084	1.3325195
33.980676721799824	1.9823685	1.407966
33.999003799912984	1.9821304	1.4078815
34.01733177417592	2.0335166	1.4260143
34.03566064518901	2.1035738	1.4503702
34.0539904135529	1.9604588	1.4001639
34.07232107986846	1.8321766	1.3535792
34.090652644736785	1.8194562	1.3488722
34.108985108759235	1.8697169	1.367376
34.12731847253742	1.8648001	1.3655769
34.14565273667313	1.8816272	1.3717241
34.16398790176847	1.8847299	1.3728546
34.18232396842574	1.8918877	1.3754591
34.20066093724749	1.9937943	1.4120178
34.21899880883651	2.0256722	1.4232612
34.23733758379583	1.862099	1.3645875
34.25567726272874	1.7311609	1.3157358
34.27401784623872	1.7425703	1.3200645
34.29235933492957	1.8114339	1.3458952
34.31070172940526	1.8190131	1.3487079
34.32904503027003	1.849147	1.3598335
34.347389238128386	1.8727405	1.368481
34.36573435358502	1.9127021	1.3830048
34.38408037724492	1.9554691	1.3983809
34.402427309713296	1.9612322	1.40044
34.42077515159559	2.069994	1.4387474
34.43912390349752	2.0498946	1.4317453
34.45747356602499	1.9827349	1.4080962
34.47582413978423	2.0034792	1.4154432
34.49417562538163	1.9297473	1.3891535
34.51252802342388	1.8852329	1.3730378
34.53088133451789	1.8769398	1.3700145
34.54923555927084	1.9740907	1.4050233
34.567590698290104	2.0204701	1.4214324
34.58594675218336	1.9896446	1.4105476
34.6043037215585	1.9850527	1.408919
34.62266160702365	1.9904212	1.4108229
34.641020409187234	1.9573333	1.3990473
34.65938012865785	1.9488311	1.3960054
34.677740766044394	1.9259434	1.3877836
34.69610232195598	2.0085504	1.4172333
34.714464797002016	2.042368	1.4291143
34.73282819179208	1.9307127	1.3895009
34.751192506936064	1.834915	1.3545904
34.76955774304408	1.8182969	1.3484424
34.7879239007265	1.7202857	1.3115966
34.80629098059391	1.8682872	1.366853
34.824658983257194	2.0705845	1.4389526
34.843027909327446	2.1752691	1.4748794
34.86139775941603	2.0130942	1.4188355
34.879768534134534	1.8422184	1.3572835
34.89814023409483	2.1194606	1.4558368
34.91651285990901	2.1689584	1.4727384
34.93488641218944	2.0249736	1.4230157
34.95326089154871	1.8517642	1.3607954
34.97163629859967	1.949177	1.3961293
34.99001263395542	2.021741	1.4218794
35.00838989822934	1.9407927	1.3931234
35.02676809203499	1.8967868	1.3772389
35.04514721598624	2.0406277	1.4285054
35.063527270697215	2.0233846	1.4224572
35.081908256782256	1.963196	1.4011409
35.10029017485597	2.0915859	1.4462316
35.11867302553321	2.1775284	1.4756451
35.137056809429104	1.9798622	1.4070758
35.155441527159006	1.8798553	1.3710781
35.173827179338524	1.9907849	1.4109517
35.19221376658354	2.0868838	1.4446051
35.21060128951017	1.9891262	1.4103639
35.2289897487348	2.1736004	1.4743135
35.24737914487405	2.3815403	1.543224
35.26576947854479	2.2720802	1.5073421
35.28416075036418	2.3798327	1.5426706
35.30255296094958	2.0802877	1.4423202
35.32094611091867	1.9519681	1.3971285
35.33934020088932	1.7985008	1.341082
35.35773523147969	1.8522358	1.3609687
35.3761312033082	2.1216075	1.456574
35.394528116993506	2.3315701	1.526948
35.41292597315452	2.1594458	1.4695053
35.431324772410434	2.0530934	1.4328619
35.449724515380666	1.7042688	1.3054764
35.46812520268491	1.9258567	1.3877524
35.486526834943106	2.3329134	1.5273877
35.504929412775454	2.4175904	1.5548602
35.52333293680242	2.1838288	1.4777783
35.54173740764471	1.7033973	1.3051426
35.560142825923286	1.4109476	1.1878332
35.5785491922594	1.1676719	1.0805887
35.59695650727454	0.6887979	0.8299385
35.61536477159042	0.74289906	0.86191595
