0.008763373481513119	0.0	0.0
0.026290120649546365	0.0	0.0
0.043816868432600686	0.114888154	0.33895156
0.06134361724069026	0.18345553	0.4283171
0.07887036748382949	0.15187901	0.38971657
0.0963971195720331	0.14636652	0.3825788
0.11392387391531617	0.09993271	0.31612134
0.1314506309236943	0.151902	0.38974607
0.1489773910071836	0.16197911	0.4024663
0.16650415457580078	0.2597441	0.50965095
0.18403092203956356	0.23360452	0.48332652
0.20155769380849	0.18847756	0.43414003
0.2190844702925996	0.12944245	0.35978112
0.2366112519019124	0.18471119	0.4297804
0.2541380390464497	0.14249676	0.37748745
0.27166483213623416	0.11248107	0.33538198
0.28919163158128947	0.06614972	0.2571959
0.3067184377916406	0.1132746	0.3365629
0.324245251177314	0.12925465	0.35952002
0.34177207214833777	0.10523831	0.32440454
0.3592989011147415	0.061586056	0.24816538
0.37682573848655654	0.05998155	0.24491131
0.39435258467381573	0.058723446	0.24232921
0.41187944008655414	0.09977763	0.31587598
0.42940630513480854	0.1345892	0.366864
0.446933180228618	0.13915086	0.3730293
0.4644600657780234	0.16093096	0.40116203
0.48198696219306775	0.16308469	0.40383744
0.49951386988379676	0.22820221	0.47770515
0.5170407892602581	0.21212587	0.46057123
0.5345677207325025	0.15612972	0.39513254
0.5520946647105822	0.14339179	0.37867108
0.5696216216045534	0.14560562	0.38158303
0.5871485918244737	0.17180015	0.4144878
0.6046755757804043	0.17516537	0.41852763
0.6222025738824094	0.20619754	0.4540898
0.6397295865405557	0.25279528	0.50278753
0.6572566141649129	0.26244244	0.5122914
0.6747836571655547	0.2126097	0.4610962
0.6923107159525568	0.20179664	0.4492178
0.7098377909359992	0.18411331	0.42908427
0.7273648825259653	0.21036409	0.45865464
0.7448919911325411	0.19310905	0.43944174
0.762419117165817	0.16238226	0.40296683
0.7799462610358868	0.14497899	0.38076106
0.7974734231528482	0.13757378	0.3709094
0.8150006039268024	0.13343653	0.36528966
0.8325278037678551	0.15088177	0.38843504
0.8500550230861152	0.2073987	0.45541048
0.8675822622916969	0.21213268	0.46057862
0.8851095217947171	0.20060506	0.44788957
0.9026368020052984	0.17461386	0.41786823
0.9201641033335665	0.1740126	0.41714817
0.9376914261896523	0.21884556	0.46780932
0.9552187709836915	0.24865013	0.49864832
0.9727461381258234	0.2402526	0.4901557
0.990273528026193	0.28632057	0.5350893
1.0078009410949496	0.27473626	0.5241529
1.0253283777422473	0.2753397	0.5247282
1.0428558383782454	0.27813205	0.52738225
1.0603833234131086	0.29690364	0.5448887
1.0779108332570058	0.3446167	0.58704066
1.0954383683201119	0.32016435	0.56583065
1.112965929012607	0.34354225	0.5861248
1.1304935157446763	0.5062804	0.71153384
1.1480211289265108	0.5566854	0.74611354
1.1655487689683062	1.4478301	1.2032582
1.1830764362802655	1.7404668	1.3192675
1.200604131272596	2.1104772	1.4527482
1.2181318543555117	2.4252694	1.5573276
1.235659605939232	2.4753551	1.5733261
1.253187386433982	3.985338	1.9963311
1.270715196249994	6.3176637	2.5134964
1.2882430357975057	11.750181	3.4278538
1.3057709054867608	16.516235	4.0640173
1.3232988057280106	22.185352	4.710133
1.3408267369315112	27.041393	5.200134
1.358354699507526	30.829279	5.552412
1.3758826938663256	34.885075	5.9063587
1.3934107204181858	36.336754	6.0279975
1.410938779573391	36.53252	6.044214
1.4284668717422309	37.26089	6.10417
1.4459949973350033	37.143784	6.09457
1.4635231567620117	37.361595	6.1124134
1.4810513504335687	36.72008	6.0597095
1.4985795787599925	35.983757	5.9986463
1.5161078421516088	35.647552	5.970557
1.5336361410187505	34.935047	5.910588
1.5511644757717598	35.26173	5.938159
1.5686928468209842	35.89646	5.9913654
1.58622125457678	36.37362	6.0310545
1.6037496994495108	36.835217	6.0692024
1.621278181849548	36.546364	6.0453587
1.6388067021872719	37.465187	6.120881
1.6563352608730693	37.45407	6.119973
1.673863858317336	36.56747	6.0471044
1.6913924949304753	35.57091	5.9641356
1.7089211711228998	34.487446	5.8726015
1.7264498873050296	33.4839	5.786527
1.7439786438872935	32.899567	5.7358146
1.7615074412801288	31.908564	5.6487665
1.779036279893981	31.304792	5.5950685
1.796565160139305	30.010338	5.4781694
1.814094082426564	29.361565	5.418631
1.8316230471662298	28.757423	5.3625946
1.849152054768784	28.029943	5.294331
1.8666811056447168	27.461662	5.2403874
1.8842102002045273	26.814112	5.1782346
1.901739338858724	26.468575	5.144762
1.9192685220178245	26.037731	5.102718
1.9367977500923557	25.269339	5.0268617
1.9543270234928547	24.843418	4.9843173
1.971856342629867	24.227575	4.9221516
1.9893857079139496	23.62782	4.8608456
2.006915119755667	22.972988	4.7930145
2.0244445785655945	22.302929	4.7225976
2.0419740847543175	21.703148	4.6586637
2.0595036387324317	20.987394	4.5812
2.0770332409105414	20.355509	4.511708
2.094562891699263	20.228819	4.497646
2.1120925915092217	19.953884	4.466977
2.129622340751053	19.668749	4.4349465
2.1471521398354043	187.6704	13.699285
2.1646819891729323	443.9146	21.06928
2.182211889174303	440.285	20.98297
2.1997418402501974	452.88892	21.281187
2.2172718428113023	432.94104	20.807236
2.234801897268317	320.90042	17.913694
2.2523320040319548	17.21991	4.149688
2.269862163512935	16.876957	4.108157
2.287392376121992	16.501703	4.0622287
2.304922642269869	16.12362	4.015423
2.322452962367322	15.686594	3.9606304
2.3399833368251164	15.318576	3.9138951
2.357513766054032	15.045489	3.8788517
2.3750442504648586	14.878168	3.8572228
2.3925747904683963	14.638323	3.8260062
2.410105386475459	14.514036	3.809729
2.4276360388968707	14.370423	3.7908342
2.445166748143469	14.28838	3.7799973
2.4626975146261025	14.004308	3.742233
2.4802283387556323	13.600145	3.6878376
2.4977592209429305	13.354512	3.6543827
2.5152901615988825	12.992968	3.6045759
2.5328211611343865	13.014793	3.6076021
2.5503522199603523	12.795134	3.5770285
2.5678833384877024	12.730749	3.5680175
2.5854145171273712	12.427086	3.5252073
2.6029457562903064	12.142222	3.484569
2.620477056387469	12.029424	3.4683459
2.6380084178298326	11.918168	3.45227
2.655539841028383	11.716449	3.4229298
2.673071326394119	11.449158	3.3836603
2.6906028743380523	11.054924	3.3248947
2.708134485271211	10.780217	3.283324
2.7256661596046325	10.612678	3.2577105
2.743197897749369	10.534759	3.2457292
2.760729700116486	10.426289	3.2289765
2.778261567117063	10.339248	3.21547
2.795793499162193	10.379119	3.221664
2.8133254966629817	10.216818	3.1963758
2.830857560030551	10.004905	3.163053
2.8483896896760337	9.775962	3.1266534
2.865921886010578	9.613425	3.1005523
2.883454149445347	9.43903	3.0723004
2.9009864803915177	9.261801	3.0433207
2.91851887926028	9.10958	3.018208
2.9360513464628384	8.974596	2.995763
2.953583882410413	8.940065	2.9899943
2.9711164875142373	9.01547	3.002577
2.9886491621855606	8.970992	2.9951615
3.0061819068356455	8.784773	2.9639118
3.023714721875769	8.661733	2.943082
3.041247607717225	8.492639	2.9142132
3.0587805647713213	8.47029	2.9103763
3.0763135934493806	8.368364	2.8928125
3.0938466941627407	8.250523	2.8723724
3.1113798673227544	8.057252	2.8385298
3.1289131133407904	7.993366	2.827254
3.1464464326282315	7.9202075	2.8142862
3.1639798255964786	7.8916326	2.809205
3.1815132926569443	7.5732446	2.751953
3.1990468342210603	7.405638	2.7213302
3.216580450700272	7.3168755	2.7049723
3.2341141425060416	7.318372	2.7052488
3.251647910049847	7.3170743	2.7050092
3.2691817537431813	7.2845054	2.6989822
3.286715673997555	7.206026	2.6844041
3.3042496712244938	7.121345	2.6685848
3.32178374583554	7.0385413	2.653025
3.339317898242251	6.973173	2.6406767
3.3568521288562034	6.839547	2.6152527
3.3743864380889876	6.757842	2.599585
3.3919208263522127	6.6633267	2.581342
3.4094552940575023	6.6813674	2.584834
3.4269898416164972	6.5876474	2.5666413
3.444524469440858	6.5590982	2.5610735
3.4620591779422587	6.4544473	2.5405605
3.479593967532391	6.461413	2.541931
3.4971288386229658	6.5081954	2.5511165
3.5146637916257086	6.516797	2.5528018
3.5321988269523628	6.4202805	2.5338273
3.5497339450146903	6.3933396	2.5285053
3.5672691462244708	6.4116144	2.5321167
3.5848044309934988	6.333846	2.5167134
3.60233979973359	6.2765613	2.5053067
3.619875252856575	6.2341356	2.4968252
3.6374107907743034	6.1796255	2.4858851
3.6549464138986427	6.174374	2.4848287
3.6724821226414788	6.1986904	2.489717
3.690017917414714	6.3129973	2.512568
3.7075537986302702	6.318647	2.513692
3.7250897667000857	6.3641043	2.5227177
3.7426258220361235	6.479323	2.5454514
3.7601619650503553	6.795108	2.6067429
3.777698196154779	7.327867	2.7070034
3.7952345157614067	8.459028	2.9084408
3.8127709242822716	9.309989	3.0512276
3.830307422129425	11.716556	3.4229455
3.847844009714936	30.485056	5.5213275
3.8653806874508954	97.97306	9.898134
3.882917455749409	97.24311	9.861192
3.900454315022606	97.07211	9.852518
3.917991265682631	41.674328	6.4555655
3.9355283081416506	11.215847	3.349007
3.9530654428118495	8.865405	2.977483
3.970602670105433	7.475288	2.7340972
3.9881399904346244	6.4956574	2.548658
4.005677404211669	6.344043	2.5187383
4.023214911848827	6.2771964	2.5054333
4.0407525137583855	6.2446938	2.4989386
4.058290210352644	6.2957244	2.5091283
4.075828002043927	6.2243114	2.494857
4.0933658892445814	6.208964	2.4917793
4.110903872366966	6.2081275	2.4916115
4.128441951823468	6.241822	2.4983637
4.145980128026488	6.2867994	2.507349
4.163518401388452	6.2059035	2.4911652
4.181056772321807	6.118917	2.4736445
4.1985952412390155	5.940828	2.4373813
4.216133808552567	6.026403	2.4548733
4.233672474674966	6.182751	2.4865139
4.251211240018741	6.465391	2.5427134
4.268750104996445	6.7282414	2.5938854
4.286289070020643	7.5423408	2.7463322
4.303828135503928	9.19532	3.0323787
4.3213673018589125	29.4893	5.430405
4.3389065694982305	90.71936	9.524672
4.356445938834537	166.08018	12.88721
4.3739854102805085	171.46649	13.0945215
4.391524984248844	172.3707	13.129003
4.409064661152262	136.32198	11.6757
4.426604441403504	96.46898	9.821862
4.444144325415337	75.48852	8.688413
4.461684313600543	21.574049	4.6447873
4.47922440637193	22.078205	4.6987453
4.496764604142329	20.603737	4.539134
4.5143049073245916	18.91566	4.3492136
4.531845316331589	16.710276	4.0878205
4.5493858315762195	13.700749	3.7014523
4.566926453471405	11.195238	3.3459287
4.584467182430081	9.091189	3.0151598
4.602008018865218	7.977335	2.8244176
4.619548963189798	7.4055057	2.7213058
4.637090015816834	7.074685	2.659828
4.654631177159353	6.8517833	2.6175911
4.672172447630417	6.537848	2.5569215
4.689713827643102	6.3176603	2.5134957
4.7072553176105085	6.1421986	2.4783459
4.724796917945764	6.0107617	2.4516854
4.742338629062015	5.9002323	2.4290395
4.759880451372434	5.6977477	2.3869956
4.777422385290215	5.5340266	2.352451
4.794964431228581	5.5149417	2.3483913
4.812506589600768	5.6671543	2.3805785
4.830048860820047	5.7063103	2.3887885
4.847591245299709	5.685046	2.3843334
4.8651337434530655	5.627215	2.3721752
4.882676355693457	5.6215672	2.3709846
4.900219082434242	5.6421566	2.3753223
4.917761924088813	5.53622	2.3529174
4.935304881070575	5.517382	2.3489108
4.952847953792969	5.4755416	2.3399875
4.970391142669449	5.467733	2.3383183
4.9879344481135055	5.4812956	2.3412168
5.005477870538642	5.476149	2.3401172
5.023021410358394	5.492718	2.3436549
5.040565067986324	5.5291414	2.3514125
5.05810884383601	5.437982	2.331948
5.075652738321066	5.492678	2.3436463
5.09319675185512	5.4379635	2.3319442
5.110740884851836	5.4715137	2.3391268
5.128285137724894	5.4559975	2.3358076
5.145829510888007	5.385941	2.320763
5.163374004754908	5.3234477	2.3072598
5.1809186197393595	5.2718344	2.2960474
5.198463356255145	5.301618	2.3025243
5.216008214716077	5.353122	2.3136816
5.233553195535998	5.3852816	2.320621
5.251098299128764	5.3116727	2.3047066
5.268643525908272	5.255886	2.292572
5.286188876288432	5.1422706	2.2676575
5.3037343506831895	5.2149806	2.2836332
5.32127994950651	5.201298	2.2806356
5.3388256731723915	5.2596946	2.2934024
5.356371522094851	5.272736	2.296244
5.373917496687938	5.3159447	2.3056333
5.391463597365729	5.243895	2.2899551
5.40900982454232	5.217071	2.2840908
5.426556178631843	5.1477146	2.2688575
5.444102660048449	5.1005006	2.2584288
5.4616492692063225	5.1726394	2.2743437
5.479196006519669	5.2139244	2.283402
5.496742872402727	5.270049	2.2956588
5.514289867269756	5.274246	2.2965727
5.531836991535049	5.173369	2.2745042
5.549384245612924	5.1125517	2.2610953
5.566931629917724	5.0734987	2.2524428
5.584479144863822	5.060138	2.249475
5.6020267908656205	5.0908604	2.2562935
5.619574568337545	5.097097	2.2576752
5.637122477694054	5.1780176	2.2755258
5.654670519349629	5.1961164	2.279499
5.672218693718784	5.1987143	2.2800689
5.689767001216059	5.141655	2.2675219
5.707315442256021	5.1291547	2.2647638
5.724864017253266	5.1949043	2.2792332
5.7424127266224225	5.2027044	2.2809439
5.75996157077814	5.2186375	2.2844338
5.777510550135105	5.2013836	2.2806542
5.795059665108022	5.1769733	2.2752962
5.812608916111639	5.2382245	2.2887168
5.830158303560715	5.3404446	2.3109403
5.847707827870055	5.3484006	2.312661
5.86525748945448	5.4075046	2.3254042
5.8828072887288485	5.466517	2.3380585
5.900357226108044	5.5526276	2.3564014
5.917907302006979	5.6679173	2.3807387
5.9354575168406	6.295156	2.5090148
5.9530078710238765	6.8567123	2.6185324
5.970558364971812	7.3859906	2.717718
5.988108999099438	7.6947675	2.7739444
6.005659773821818	8.297068	2.8804631
6.023210689554039	8.094765	2.84513
6.040761746711227	8.539623	2.9222634
6.058312945708531	7.8536034	2.802428
6.075864286961132	7.3510857	2.7112885
6.093415770884244	6.6545644	2.5796442
6.1109673978931065	6.0642805	2.462576
6.128519168402993	5.444349	2.3333127
6.146071082829204	5.2406974	2.289257
6.163623141587075	5.1204934	2.2628508
6.181175345091969	5.112574	2.2611003
6.198727693759281	5.1765933	2.2752128
6.216280188004435	5.2036657	2.2811544
6.233832828242885	5.1838117	2.2767985
6.251385614890126	5.187557	2.277621
6.268938548361669	5.160555	2.2716854
6.286491629073067	5.088006	2.2556608
6.304044857439898	5.1139855	2.2614124
6.321598233877777	5.0281963	2.242364
6.339151758802344	4.972712	2.2299578
6.356705432629277	4.928073	2.2199264
6.37425925577428	4.970027	2.2293558
6.391813228653095	5.045402	2.2461972
6.409367351681486	5.0703745	2.2517493
6.426921625275259	5.0801473	2.2539182
6.44447604985025	4.998558	2.2357454
6.46203062582232	4.991658	2.234202
6.47958535360737	4.9343204	2.221333
6.497140233621328	4.936398	2.2218006
6.514695266280161	4.9340205	2.2212656
6.532250451999859	4.950243	2.224914
6.549805791196454	4.96938	2.2292106
6.567361284286002	5.030562	2.2428913
6.584916931684597	5.013693	2.2391276
6.602472733808367	4.9485874	2.2245421
6.6200286910734665	4.845849	2.201329
6.637584803896092	4.8764043	2.2082582
6.655141072692462	4.926527	2.219578
6.672697497878842	4.999442	2.2359433
6.690254079871514	4.9756274	2.2306116
6.707810819086808	4.9591713	2.2269197
6.725367715941078	4.958007	2.2266583
6.742924770850719	4.992891	2.2344778
6.760481984232151	4.962835	2.2277422
6.778039356501836	4.941145	2.2228687
6.795596888076266	4.8945556	2.2123642
6.813154579371963	4.8633566	2.205302
6.830712430805492	4.8337574	2.1985807
6.84827044279344	4.9353175	2.2215574
6.865828615752445	4.9869294	2.2331433
6.883386950099159	4.9884715	2.2334886
6.900945446250287	4.9656444	2.2283726
6.918504104622553	5.0016327	2.236433
6.936062925632727	5.0265603	2.2419991
6.953621909697607	5.1041827	2.2592437
6.971181057234028	5.1034985	2.2590923
6.988740368658859	5.1611567	2.271818
7.006299844389007	5.196355	2.2795515
7.023859484841407	5.31753	2.305977
7.041419290433036	5.3285484	2.3083649
7.058979261580902	5.3763633	2.3186986
7.0765393987020495	5.5822535	2.3626792
7.094099702213559	6.005677	2.4506483
7.111660172532549	6.3964767	2.5291257
7.129220810076164	6.7394915	2.5960531
7.146781615261595	7.334051	2.7081454
7.16434258850606	7.5880847	2.7546477
7.181903730226821	8.025431	2.8329191
7.1994650408411704	8.08613	2.8436122
7.217026520766437	8.208318	2.8650162
7.234588170419983	8.35028	2.8896852
7.252149990219215	8.3542	2.8903635
7.269711980581568	8.319169	2.884297
7.2872741419245175	8.238716	2.8703163
7.304836474665574	7.830664	2.7983325
7.322398979222286	7.51633	2.7415926
7.339961656012233	7.250806	2.692732
7.357524505453039	6.8848457	2.623899
7.375087527962357	6.5302835	2.5554419
7.392650723957886	6.2273636	2.4954686
7.410214093857353	5.9114904	2.4313557
7.427777638078528	5.79523	2.4073284
7.445341357039213	5.6303043	2.3728263
7.4629052511572525	5.463628	2.3374405
7.480469320850524	5.3626614	2.315742
7.498033566536948	5.2389584	2.288877
7.5155979886344735	5.2147784	2.283589
7.5331625875610975	5.1682844	2.273386
7.550727363734844	5.213065	2.2832139
7.568292317573788	5.2269177	2.2862453
7.585857449496025	5.1880784	2.2777355
7.603422759919705	5.186298	2.2773445
7.620988249263007	5.152156	2.2698362
7.638553917944147	5.147858	2.2688892
7.656119766381391	5.1435847	2.2679472
7.673685794993023	5.169019	2.2735476
7.691252004197388	5.1842065	2.2768853
7.70881839441285	5.197808	2.27987
7.726384966057826	5.2335386	2.2876928
7.743951719550762	5.2697587	2.2955954
7.761518655310149	5.3007927	2.302345
7.779085773754511	5.2817745	2.298211
7.796653075302419	5.2815394	2.29816
7.814220560372475	5.287653	2.2994897
7.831788229383323	5.29394	2.3008564
7.8493560827536495	5.2805743	2.29795
7.866924120902174	5.2838535	2.2986634
7.884492344247663	5.323528	2.3072772
7.9020607532089135	5.3419895	2.3112745
7.919629348204771	5.391935	2.322054
7.937198129654115	5.38633	2.3208468
7.954767097975865	5.4260607	2.3293905
7.972336253588986	5.4249387	2.3291497
7.989905596912472	5.4324327	2.3307579
8.007475128365371	5.4666038	2.3380768
8.025044848366756	5.502388	2.345717
8.042614757335754	5.597064	2.3658116
8.060184855691523	5.6548924	2.3780017
8.07775514385327	5.8497286	2.4186213
8.095325622240228	5.905966	2.4302192
8.112896291271687	5.9060183	2.4302301
8.130467151366968	5.8521333	2.4191182
8.148038202945436	5.884873	2.4258757
8.165609446426497	5.975364	2.4444559
8.183180882229594	6.081031	2.4659746
8.200752510774217	6.05687	2.461071
8.218324332479893	6.0425916	2.4581683
8.235896347766193	6.0119505	2.451928
8.253468557052724	6.0090814	2.4513428
8.27104096075914	6.048955	2.4594624
8.288613559305137	6.0542336	2.4605353
8.306186353110448	6.104091	2.470646
8.32375934259485	6.2381277	2.4976244
8.341332528178162	6.272588	2.5045135
8.358905910280246	6.388968	2.5276408
8.376479489321003	6.3423777	2.5184078
8.394053265720377	6.370887	2.5240617
8.411627239898356	6.3323	2.5164063
8.42920141227497	6.237323	2.4974632
8.44677578327029	6.2349176	2.4969816
8.464350353304427	6.1574583	2.4814227
8.48192512279754	6.172217	2.4843948
8.499500092169827	6.1893	2.4878304
8.51707526184153	6.1891246	2.487795
8.534650632232934	6.2025557	2.490493
8.552226203764365	6.1977572	2.4895296
8.569801976856192	6.197542	2.4894862
8.587377951928834	6.249398	2.4998796
8.60495412940274	6.352364	2.5203896
8.622530509698416	6.405271	2.5308638
8.6401070932364	6.527603	2.5549173
8.657683880437283	6.6365	2.5761404
8.675260871721695	6.7918167	2.6061115
8.692838067510303	6.8748474	2.621993
8.710415468223834	7.0333366	2.6520438
8.727993074283043	7.1005335	2.6646826
8.745570886108737	7.194623	2.6822793
8.763148904121765	7.2122064	2.6855552
8.78072712874302	7.220052	2.6870153
8.798305560393441	7.4063253	2.7214565
8.815884199494006	7.482107	2.7353442
8.833463046465745	7.638188	2.7637272
8.851042101729728	7.751137	2.7840862
8.86862136570707	8.049291	2.8371272
8.886200838818924	8.248811	2.8720744
8.903780521486505	8.335855	2.887188
8.921360414131055	8.416493	2.9011192
8.938940517173874	8.533267	2.9211757
8.956520831036297	8.627773	2.9373071
8.97410135613971	8.9026375	2.983729
8.99168209290554	9.147182	3.024431
9.009263041755265	9.429916	3.070817
9.026844203110405	9.683679	3.111861
9.044425577392525	9.832542	3.1356885
9.062007165023239	9.951977	3.1546755
9.079588966424197	10.233717	3.1990182
9.097170982017108	10.317901	3.212149
9.11475321222372	11.346172	3.368408
9.132335657465825	12.236067	3.498009
9.149918318165264	12.391403	3.5201426
9.167501194743924	13.026046	3.6091614
9.18508428762374	12.7003	3.5637481
9.202667597226693	12.685428	3.5616608
9.220251123974803	12.352	3.5145411
9.237834868290143	12.047452	3.470944
9.255418830594836	11.817511	3.4376607
9.273003011311046	11.212167	3.3484573
9.290587410860985	10.950813	3.3092012
9.308172029666911	10.308811	3.2107337
9.32575686815113	10.143433	3.1848755
9.343341926735997	8.883203	2.9804702
9.360927205843916	8.6533165	2.941652
9.378512705897327	8.372123	2.8934622
9.396098427318728	8.149198	2.85468
9.413684370530664	8.030002	2.8337257
9.431270535955722	7.9514885	2.8198383
9.448856924016539	7.8722963	2.8057613
9.466443535135806	7.744492	2.7828927
9.484030369736251	7.7069225	2.7761345
9.501617428240658	7.676932	2.7707276
9.519204711071852	7.711788	2.7770107
9.536792218652714	7.7864714	2.790425
9.55437995140617	7.7680364	2.7871196
9.571967909755191	7.76842	2.7871885
9.589556094122802	7.79139	2.791306
9.60714450493207	7.887106	2.8083992
9.624733142606116	7.954862	2.8204365
9.642322007568108	7.9804893	2.824976
9.659911100241267	7.9638066	2.8220217
9.677500421048851	7.920255	2.8142948
9.695089970414175	7.987329	2.8261864
9.712679748760609	7.972788	2.8236125
9.730269756511557	8.025109	2.8328624
9.747859994090492	8.028858	2.833524
9.765450461920915	8.131112	2.8515105
9.78304116042639	8.208176	2.8649914
9.800632090030527	8.239391	2.870434
9.81822325115699	8.270654	2.8758745
9.835814644229481	8.333465	2.886774
9.853406269671762	8.293734	2.8798842
9.870998127907646	8.313595	2.8833306
9.888590219360985	8.368766	2.8928819
9.906182544455698	8.361269	2.8915858
9.923775103615734	8.440472	2.9052489
9.941367897265108	8.4619665	2.908946
9.958960925827878	8.505839	2.9164772
9.97655418972816	8.399306	2.8981557
9.994147689390106	8.258403	2.8737438
10.011741425237934	8.171834	2.858642
10.029335397695904	8.219037	2.8668864
10.04692960718833	8.19351	2.8624308
10.06452405413958	8.218428	2.86678
10.082118738974064	8.210158	2.8653374
10.099713662116246	8.237462	2.8700979
10.117308823990651	8.306715	2.8821373
10.134904225021844	8.290602	2.8793404
10.152499865634445	8.20652	2.8647025
10.170095746253125	8.1834545	2.860674
10.18769186730261	8.216412	2.8664284
10.205288229207675	8.27202	2.876112
10.222884832393145	8.251696	2.8725765
10.2404816772839	8.239445	2.8704433
10.258078764304868	8.218181	2.866737
10.275676093881035	8.098338	2.845758
10.293273666437438	8.072476	2.8412104
10.310871482399158	8.086292	2.8436406
10.32846954219134	8.117331	2.849093
10.346067846239173	8.147609	2.8544016
10.363666394967908	8.10416	2.8467808
10.38126518880283	8.125745	2.8505692
10.398864228169298	8.177631	2.8596559
10.416463513492713	8.202884	2.8640678
10.434063045198531	8.137659	2.8526583
10.451662823712262	8.122129	2.849935
10.469262849459467	8.167987	2.857969
10.486863122865758	8.147287	2.8543453
10.504463644356806	8.128175	2.8509953
10.522064414358338	8.024652	2.8327816
10.539665433296118	7.99664	2.8278332
10.557266701595987	7.9196024	2.8141787
10.574868219683818	7.879731	2.807086
10.592469987985552	7.7743263	2.7882478
10.610072006927185	7.6604123	2.767745
10.627674276934751	7.5451303	2.74684
10.64527679843435	7.4456224	2.7286668
10.662879571852143	7.3331575	2.7079804
10.680482597614331	7.14741	2.673464
10.698085876147173	7.075256	2.6599352
10.715689407876988	6.9814734	2.642248
10.733293193230146	6.943771	2.6351035
10.750897232633072	6.842839	2.615882
10.76850152651225	6.756461	2.5993195
10.786106075294207	6.615367	2.5720356
10.803710879405534	6.506871	2.550857
10.821315939272877	6.4780345	2.5451984
10.83892125532294	6.4011693	2.5300531
10.856526827982472	6.356202	2.521151
10.874132657678285	6.270107	2.504018
10.891738744837243	6.2297187	2.4959404
10.909345089886271	6.155894	2.4811075
10.926951693252343	6.0760407	2.4649627
10.944558555362494	6.038244	2.4572837
10.96216567664381	5.95897	2.4411001
10.979773057523436	5.9515424	2.4395783
10.997380698428573	5.929475	2.4350512
11.014988599786477	5.8736906	2.42357
11.032596762024461	5.840743	2.4167628
11.050205185569892	5.705275	2.3885717
11.067813870850198	5.6235375	2.3713999
11.085422818292859	5.5196266	2.3493886
11.10303202832541	5.45174	2.334896
11.120641501375454	5.3956537	2.3228548
11.138251237870636	5.307035	2.3037002
11.155861238238671	5.2837768	2.2986467
11.173471502907317	5.234052	2.287805
11.191082032304402	5.1964393	2.2795699
11.208692826857805	5.121697	2.2631166
11.226303886995465	5.027018	2.2421012
11.243915213145371	4.9291577	2.2201707
11.261526805735578	4.9114	2.216168
11.279138665194196	4.9192066	2.2179284
11.296750791949393	4.833299	2.1984766
11.314363186429393	4.7874427	2.1880226
11.331975849062479	4.6773763	2.1627243
11.34958878027699	4.656935	2.1579933
11.36720198050133	4.6169353	2.1487055
11.384815450163948	4.6138372	2.1479845
11.402429189693366	4.563364	2.1362033
11.420043199518153	4.538814	2.1304493
11.437657480066942	63.4699	7.9667997
11.455272031768422	85.18126	9.229369
11.472886855051353	107.48454	10.3674755
11.490501950344528	99.04906	9.952339
11.508117318076819	84.42978	9.188568
11.52573295867715	45.857876	6.7718444
11.543348872574514	4.187134	2.0462487
11.560965060197946	4.086465	2.0215006
11.57858152197655	4.0369425	2.0092144
11.59619825833949	4.0213604	2.005333
11.613815269715985	3.9716961	1.9929115
11.631432556535323	38.496056	6.204519
11.649050119226837	83.043785	9.112836
11.666667958219929	93.494835	9.669272
11.68428607394406	107.801056	10.382729
11.701904466828756	82.61787	9.0894375
11.719523137303586	65.41585	8.088006
11.737142085798196	4.610289	2.1471584
11.754761312742286	3.7372878	1.9332066
11.772380818565619	3.706169	1.9251412
11.790000603698015	3.728321	1.930886
11.80762066856935	3.6599216	1.9130921
11.825241013609572	3.626016	1.9042101
11.842861639248683	3.5725923	1.8901303
11.860482545916748	3.5620532	1.8873402
11.878103734043883	3.4998503	1.8707887
11.895725204060282	3.451195	1.8577392
11.91334695639619	3.428667	1.851666
11.930968991481919	3.4017968	1.8443961
11.948591309747824	3.403087	1.8447458
11.966213911624347	3.3810384	1.83876
11.98383679754198	3.366298	1.8347474
12.001459967931268	3.310056	1.819356
12.019083423222835	3.2676246	1.8076572
12.036707163847352	3.2236047	1.79544
12.05433119023556	3.2088356	1.7913224
12.071955502818259	3.172776	1.7812288
12.089580102026313	3.1435013	1.7729921
12.107204988290643	3.1422653	1.7726436
12.12483016204224	3.173065	1.7813098
12.142455623712152	3.1864228	1.7850554
12.16008137373149	3.141366	1.7723899
12.177707412531431	3.1171846	1.765555
12.19533374054321	3.0956898	1.7594572
12.212960358198126	3.079604	1.7548801
12.230587265927545	3.0768063	1.7540828
12.248214464162889	3.0327966	1.7414926
12.265841953335649	3.0012884	1.7324227
12.283469733877375	3.0022602	1.7327032
12.301097806219685	3.0106328	1.7351176
12.31872617079425	3.0230656	1.7386965
12.336354828032825	2.9894116	1.7289915
12.353983778367205	2.935203	1.7132435
12.371613022229262	2.8995733	1.7028134
12.389242560050928	2.8806896	1.6972594
12.406872392264201	2.901437	1.7033606
12.424502519301143	2.945875	1.7163551
12.442132941593874	2.9286058	1.711317
12.459763659574586	2.881103	1.6973813
12.477394673675532	2.825083	1.6807983
12.49502598432903	2.8183787	1.6788027
12.51265759196746	2.8488572	1.6878558
12.530289497023267	2.8777108	1.6963817
12.547921699928967	2.891487	1.7004373
12.565554201117134	2.8517392	1.6887094
12.583187001020404	2.836583	1.6842158
12.600820100071486	2.7901957	1.6703879
12.618453498703152	2.7431376	1.656242
12.636087197348235	2.7312799	1.6526585
12.65372119643964	2.7425086	1.6560521
12.671355496410326	2.7935145	1.671381
12.68899009769333	2.849035	1.6879085
12.706625000721749	2.8850822	1.698553
12.724260205928752	2.922198	1.7094438
12.741895713747551	2.9390874	1.7143767
12.759531524611454	2.9926426	1.7299256
12.777167638953818	2.9634154	1.7214574
12.794804057208072	2.9455826	1.71627
12.812440779807702	2.9740155	1.7245334
12.830077807186271	3.1379797	1.7714344
12.847715139777405	3.1960187	1.7877412
12.865352778014795	3.3806565	1.8386562
12.882990722332197	3.4750066	1.8641369
12.90062897316344	3.5746074	1.8906633
12.918267530942412	3.67767	1.9177252
12.935906396103071	3.598863	1.897067
12.953545569079449	3.7973192	1.9486711
12.971185050305628	3.6167028	1.9017631
12.988824840215775	3.6639574	1.9141467
13.006464939244115	3.6175036	1.9019736
13.024105347824943	3.4993863	1.8706647
13.041746066392617	3.5623367	1.8874153
13.05938709538157	3.3855088	1.8399752
13.077028435226296	3.4004457	1.8440298
13.094670086361363	3.2846358	1.8123565
13.112312049221401	3.1721506	1.7810532
13.129954324241112	3.054493	1.7477108
13.147596911855258	2.8712764	1.6944841
13.165239812498685	2.8902428	1.7000715
13.182883026606293	2.8238394	1.6804284
13.200526554613058	2.7784104	1.6668564
13.218170396954017	2.7517252	1.6588324
13.235814554064284	2.732786	1.653114
13.253459026379034	2.7258615	1.6510184
13.271103814333523	2.715679	1.6479317
13.288748918363058	2.7212148	1.6496105
13.306394338903031	2.7167966	1.6482708
13.32404007638889	2.6645718	1.6323516
13.341686131256164	2.6565387	1.6298891
13.359332503940449	2.6473691	1.6270738
13.376979194877402	2.6779106	1.6364323
13.394626204502751	2.6916254	1.6406174
13.412273533252307	2.6596272	1.6308364
13.429921181561937	2.670147	1.6340585
13.447569149867581	2.6953216	1.6417434
13.465217438605247	2.771928	1.6649108
13.482866048211022	2.73261	1.6530608
13.500514979121052	2.7088225	1.6458501
13.518164231771568	2.6406696	1.6250137
13.535813806598844	2.6642385	1.6322495
13.553463704039254	2.6642632	1.6322571
13.571113924529229	2.647341	1.6270652
13.588764468505275	2.652234	1.628568
13.606415336403956	2.6795433	1.6369311
13.624066528661917	2.7252204	1.6508242
13.641718045715882	2.7631135	1.6622616
13.659369888002635	2.810596	1.6764833
13.67702205595903	2.8498712	1.6881561
13.694674550021993	2.952905	1.7184019
13.712327370628532	3.0575976	1.7485988
13.729980518215713	3.12781	1.7685616
13.747633993220681	3.1843557	1.7844763
13.765287796080647	3.2192726	1.7942332
13.7829419272329	3.2932382	1.8147281
13.800596387114801	3.3185225	1.8216813
13.818251176163775	3.3523211	1.8309345
13.835906294817324	3.392435	1.8418565
13.853561743513023	3.4744604	1.8639904
13.871217522688525	3.5002792	1.8709033
13.888873632781538	3.555623	1.885636
13.906530074229858	3.5539145	1.8851829
13.92418684747135	3.5472255	1.883408
13.941843952943948	3.5367079	1.8806137
13.959501391085665	3.489953	1.8681417
13.977159162334578	3.3870513	1.8403944
13.994817267128846	3.3152943	1.8207949
14.012475705906693	3.240761	1.8002114
14.030134479106424	3.2012365	1.7892
14.047793587166414	3.1116385	1.7639837
14.065453030525108	3.031304	1.741064
14.083112809621026	2.9426472	1.7154146
14.100772924892766	2.9287055	1.7113461
14.118433376778997	2.9252791	1.7103448
14.136094165718458	2.8653555	1.6927361
14.153755292149969	2.786378	1.6692448
14.171416756512416	2.684048	1.6383064
14.189078559244768	2.6240394	1.6198887
14.20674070078606	2.5780423	1.6056283
14.224403181575408	2.521519	1.5879291
14.242066002051999	2.4909458	1.578273
14.259729162655093	2.4900086	1.5779761
14.277392663824022	2.4967504	1.5801109
14.295056505998208	2.456914	1.5674546
14.312720689617128	2.400615	1.5493919
14.330385215120348	2.3794346	1.5425416
14.348050082947497	2.346384	1.5317911
14.3657152935383	2.3413322	1.5301412
14.383380847332528	2.3371968	1.5287893
14.401046744770051	2.3750834	1.5411305
14.418712986290798	2.4026234	1.5500398
14.436379572334793	2.433822	1.5600711
14.454046503342123	2.41837	1.5551109
14.471713779752946	2.388607	1.5455118
14.489381402007504	2.4180233	1.5549995
14.507049370546113	2.415785	1.5542796
14.524717685809168	2.4256184	1.5574397
14.542386348237134	2.4024336	1.5499786
14.560055358270553	2.3788006	1.5423361
14.577724716350051	2.4032338	1.5502367
14.595394422916325	2.4614465	1.5688998
14.61306447841015	2.504574	1.5825846
14.63073488327237	2.4837925	1.5760052
14.648405637943917	2.486029	1.5767146
14.6660767428658	2.471038	1.5719535
14.683748198479094	2.5265453	1.589511
14.701420005224954	2.5559204	1.5987246
14.719092163544628	2.6148176	1.6170398
14.73676467387942	2.646804	1.6269002
14.754437536670727	2.6711311	1.6343596
14.772110752360014	2.681748	1.6376044
14.78978432138882	2.7080753	1.6456231
14.807458244198777	2.7118986	1.6467843
14.82513252123159	2.7049751	1.6446809
14.842807152929028	2.7132068	1.6471815
14.860482139732962	2.6883175	1.639609
14.87815748208531	2.6758037	1.6357884
14.8958331804281	2.7065232	1.6451514
14.91350923520342	2.6902595	1.6402011
14.931185646853438	2.7430396	1.6562124
14.948862415820408	2.7229095	1.6501241
14.966539542546656	2.7414412	1.6557298
14.98421702747459	2.717626	1.6485224
15.001894871046696	2.6850226	1.6386038
15.019573073705542	2.6770234	1.6361612
15.037251635893766	2.661768	1.6314926
15.054930558054092	2.7020822	1.6438011
15.072609840629323	2.7728813	1.665197
15.090289484062351	2.8895016	1.6998534
15.107969488796124	3.1581223	1.7771107
15.125649855273691	3.486707	1.8672726
15.14333058393817	3.9933817	1.9983448
15.161011675232768	4.9547715	2.2259316
15.17869312960076	6.3497295	2.519867
15.196374947485506	8.188407	2.8615394
15.214057129330447	11.271626	3.3573244
15.231739675579114	16.033083	4.004133
15.249422586675102	21.268923	4.611824
15.267105863062092	24.442593	4.943945
15.284789505183847	24.791393	4.9790955
15.302473513484218	22.683022	4.7626696
15.320157888407127	19.146025	4.375617
15.337842630396578	14.944939	3.8658683
15.355527739896656	11.556733	3.3995194
15.37321321735153	8.922879	2.987119
15.39089906320545	6.430122	2.5357685
15.408585277902748	4.7976065	2.1903439
15.42627186188783	3.7126975	1.9268361
15.443958815605198	3.217933	1.7938598
15.461646139499424	2.9470599	1.7167003
15.479333834015168	2.7750413	1.6658455
15.497021899597165	2.7024708	1.6439193
15.514710336690234	2.6747167	1.6354561
15.53239914573928	2.6257668	1.6204218
15.550088327189297	2.5751338	1.6047224
15.567777881485336	2.5159113	1.5861624
15.58546780907256	2.4719112	1.5722313
15.6031581103962	2.4466455	1.5641756
15.620848785901568	2.436272	1.5608561
15.638539836034063	2.4300592	1.5588647
15.656231261239173	2.4036129	1.5503589
15.673923061962451	2.3955033	1.5477413
15.691615238649552	2.39627	1.547989
15.709307791746202	2.437141	1.5611345
15.727000721698221	2.4217675	1.5562029
15.744694028951498	2.3917341	1.5465232
15.76238771395202	2.4112005	1.5528041
15.780081777145844	2.428244	1.5582824
15.797776218979125	2.4432585	1.5630926
15.815471039898094	2.3712847	1.5398977
15.833166240349064	2.3265288	1.5252963
15.850861820778437	2.3012226	1.5169781
15.868557781632699	2.3456345	1.5315465
15.886254123358412	2.338862	1.5293338
15.903950846402232	2.3230968	1.5241709
15.921647951210897	2.332672	1.5273088
15.939345438231225	2.3705053	1.5396446
15.957043307910133	2.387493	1.5451515
15.974741560694602	2.3924413	1.5467519
15.992440197031714	2.37878	1.5423293
16.01013921736862	2.4127147	1.5532916
16.02783862215259	2.4295807	1.5587112
16.045538411830933	2.447615	1.5644855
16.06323858685107	2.4518576	1.5658408
16.080939147660512	2.4295044	1.5586867
16.09864009470684	2.3932583	1.5470159
16.11634142843774	2.3724396	1.5402726
16.134043149300954	2.3371167	1.5287632
16.15174525774433	2.3597257	1.5361398
16.169447754215817	2.3365505	1.5285779
16.18715063916342	2.357512	1.5354191
16.204853913035244	2.4007697	1.5494417
16.222557576279478	2.4544635	1.5666728
16.240261629344403	22.425165	4.735522
16.257966072678386	42.978523	6.555801
16.275670906729868	38.082382	6.1710925
16.293376131947387	2.5216541	1.5879717
16.31108174877957	2.543394	1.5948023
16.328787757675133	2.5604336	1.6001354
16.34649415908287	2.5844502	1.6076225
16.364200953451657	2.628865	1.6213775
16.38190814123048	2.6421044	1.6254551
16.39961572286839	2.6810813	1.6374007
16.41732369881455	2.6990063	1.6428653
16.43503206951817	2.7519178	1.6588905
16.45274083542859	2.770828	1.6645805
16.47044999699522	2.7808986	1.6676027
16.488159554667558	2.7956374	1.6720159
16.505869508895184	2.8837283	1.6981543
16.523579860127786	2.9661677	1.7222565
16.541290608815117	3.000692	1.7322506
16.559001755407035	2.9888248	1.7288218
16.57671330035348	2.9865618	1.7281672
16.59442524410448	3.0201697	1.7378635
16.61213758711015	3.127859	1.7685754
16.629850329820705	3.18225	1.7838862
16.647563472686436	3.2674189	1.8076003
16.665277016157724	3.3779392	1.8379171
16.682990960685053	3.4640148	1.8611864
16.70070530671898	3.5029566	1.8716187
16.718420054710155	3.56168	1.8872414
16.736135205109335	3.6021693	1.8979381
16.753850758367335	3.5886602	1.8943759
16.771566714935087	3.5950394	1.8960589
16.789283075263597	3.6866233	1.9200581
16.80699983980398	3.7626104	1.939745
16.82471700900741	3.8386025	1.9592352
16.84243458332518	3.87923	1.9695761
16.860152563208665	3.9281912	1.9819665
16.87787094910932	3.9804137	1.9950974
16.89558974147871	4.05029	2.0125332
16.913308940768466	4.1279855	2.0317445
16.931028547430333	4.219079	2.0540397
16.94874856191613	4.304141	2.0746424
16.966468984677785	4.3651266	2.0892885
16.98418981616729	4.409037	2.0997708
17.00191105683676	4.4501286	2.1095328
17.019632707138374	4.4630575	2.112595
17.03735476752442	4.530027	2.128386
17.05507723844728	4.5861683	2.141534
17.072800120359403	4.6127777	2.1477377
17.090523413713353	4.6108437	2.1472876
17.108247118961785	4.5861073	2.1415198
17.125971236557437	4.618755	2.149129
17.143695766953133	4.6879396	2.165165
17.161420710601806	4.7388144	2.1768818
17.179146067956477	4.6855373	2.1646101
17.19687183947025	4.6185417	2.1490793
17.21459802559634	4.649476	2.1562643
17.232324626788028	4.6918473	2.1660674
17.25005164349871	4.6738667	2.1619127
17.267779076181863	4.631457	2.152082
17.285506925291074	4.5654125	2.1366825
17.30323519127999	4.574918	2.1389058
17.320963874602384	4.572386	2.1383138
17.33869297571211	4.5727334	2.138395
17.356422495063114	4.5362544	2.1298485
17.37415243310944	4.5357394	2.1297276
17.391882790305218	4.526839	2.127637
17.40961356710468	4.506825	2.1229284
17.42734476396215	4.495998	2.1203768
17.445076381332044	4.5010076	2.1215577
17.462808419668868	4.605129	2.1459563
17.48054087942723	4.763823	2.1826184
17.498273761061835	5.066432	2.2508736
17.51600706502747	5.520985	2.3496776
17.533740791779024	6.1552653	2.4809806
17.551474941771485	7.557149	2.749027
17.56920951545993	8.744465	2.9571042
17.586944513299528	11.079054	3.3285213
17.60467993574556	12.857591	3.5857482
17.622415783253373	14.626901	3.8245132
17.64015205627843	15.943747	3.9929621
17.657888755276293	16.998465	4.1229196
17.675625880702604	17.442717	4.176448
17.69336343301311	17.31365	4.1609674
17.71110141266366	16.574713	4.071205
17.728839820110178	15.600318	3.9497237
17.746578655808705	14.670749	3.8302414
17.764317920215372	13.134332	3.624132
17.7820576137864	11.595995	3.4052892
17.79979773697811	9.554452	3.0910277
17.81753829024692	7.6097574	2.7585788
17.835279274049356	5.8893113	2.4267902
17.85302068884201	4.864804	2.20563
17.870762535081607	4.222379	2.054843
17.888504813224934	3.8954203	1.9736819
17.90624752372891	3.697656	1.922929
17.923990667050536	3.5799947	1.8920873
17.941734243646895	3.4734344	1.8637152
17.959478253975185	3.4450011	1.8560715
17.9772226984927	3.4347827	1.8533167
17.994967577656833	3.4410799	1.8550148
18.01271289192506	3.411551	1.8470384
18.030458641754965	3.3736508	1.83675
18.04820482760425	3.3207102	1.8222816
18.06595144993067	3.2721198	1.8089001
18.083698509192125	3.272501	1.8090055
18.101446005846576	3.2735085	1.809284
18.119193940352105	3.2154994	1.7931814
18.136942313166887	3.159305	1.7774434
18.1546911247492	3.1815858	1.7837
18.1724403755574	3.1821387	1.783855
18.19019006604997	3.1794536	1.7831023
18.207940196685467	3.1442153	1.7731936
18.225690767922575	3.142026	1.7725761
18.243441780220046	3.1246455	1.7676667
18.261193234036764	3.1337063	1.7702278
18.278945129831676	3.1043384	1.7619133
18.29669746806386	3.0717366	1.752637
18.314450249192483	3.0295472	1.7405595
18.3322034736768	2.9913373	1.7295483
18.349957141976184	3.007768	1.7342918
18.3677112545501	3.0014057	1.7324566
18.385465811858108	3.031483	1.7411155
18.403220814359884	3.060239	1.7493539
18.420976262515172	3.1110566	1.7638187
18.43873215678387	3.1355126	1.7707379
18.456488497625923	3.185265	1.7847311
18.474245285501407	3.2271175	1.796418
18.492002520870486	3.311211	1.8196733
18.50976020419343	3.3721802	1.8363497
18.527518335930615	3.664967	1.9144104
18.545276916542516	4.2444468	2.0602055
18.563035946489688	4.38472	2.0939722
18.580795426232832	4.7872796	2.1879852
18.598555356232698	4.637212	2.1534185
18.616315736950185	4.9359536	2.2217007
18.63407656884626	4.6511316	2.1566482
18.65183785238201	4.8605914	2.204675
18.669599588018617	4.624183	2.1503913
18.68736177621737	4.593079	2.143147
18.705124417439652	4.5396333	2.1306415
18.72288751214696	4.360083	2.0880811
18.740651060800886	4.5135956	2.1245224
18.758415063863115	4.303202	2.0744162
18.77617952179546	4.462485	2.1124594
18.793944435059814	4.1842537	2.0455449
18.811709804118184	4.1868687	2.0461838
18.829475629432675	4.1671333	2.0413558
18.8472419114655	4.0154376	2.0038557
18.86500865067897	4.105246	2.0261407
18.88277584753551	3.7646031	1.9402585
18.90054350249763	3.740578	1.9340574
18.918311616027957	3.3488386	1.8299832
18.936080188589226	3.2576652	1.8049003
18.953849220644265	2.9726002	1.724123
18.971618712656007	2.7965398	1.6722858
18.9893886650875	2.7473655	1.6575179
19.007159078401887	7.939631	2.8177352
19.024929953062408	32.83431	5.730123
19.042701289532435	32.798218	5.726973
19.060473088275405	25.374493	5.03731
19.07824534975489	2.6366782	1.6237851
19.096018074434568	2.5923998	1.6100931
19.113791262778197	2.604026	1.6136996
19.13156491524966	2.5960047	1.6112121
19.149339032312945	2.61544	1.6172322
19.167113614432136	2.5759833	1.604987
19.184888662071433	2.556493	1.5989037
19.202664175695123	2.5147276	1.5857893
19.220440155767623	2.5089538	1.5839677
19.238216602753447	2.4953525	1.5796685
19.2559935171172	2.514758	1.5857989
19.27377089932361	2.5185928	1.5870075
19.291548749837514	2.5344975	1.5920105
19.309327069123835	2.5320208	1.5912325
19.32710585764763	2.51247	1.5850773
19.344885115874032	2.509588	1.584168
19.362664844268313	2.5141752	1.585615
19.380445043295822	2.5552325	1.5985094
19.39822571342203	2.5293841	1.5904038
19.41600685511252	2.5133245	1.5853468
19.43378846883297	2.4865108	1.5768673
19.451570555049173	2.4939113	1.5792122
19.469353114227037	2.4953122	1.5796558
19.48713614683254	2.5257928	1.5892743
19.50491965333182	2.5308363	1.5908602
19.52270363419109	2.4994087	1.5809518
19.540488089876686	2.4568036	1.5674194
19.55827302085503	2.4441884	1.56339
19.576058427592674	2.4787877	1.5744166
19.593844310556282	2.5223484	1.5881903
19.611630670212598	2.5111492	1.5846605
19.629417507028506	2.493723	1.5791526
19.64720482147098	2.4809527	1.575104
19.6649926140071	2.5160058	1.5861923
19.682780885104084	2.5315807	1.5910941
19.70056963522921	2.5097296	1.5842127
19.718358864849908	2.4868069	1.5769613
19.7361485744337	2.475063	1.5732334
19.753938764448215	2.4900112	1.577977
19.771729435361202	2.5133333	1.5853496
19.789520587640506	2.521971	1.5880715
19.807312221754092	2.5453424	1.595413
19.825104338170043	2.5256388	1.5892259
19.842896937356517	2.5250134	1.5890291
19.860690019781824	2.5196762	1.5873488
19.87848358591436	2.5361204	1.5925201
19.896277636222635	2.5260885	1.5893673
19.914072171175278	2.5109248	1.5845898
19.931867191241015	2.4713821	1.572063
19.94966269688869	2.4378164	1.5613508
19.967458688587264	2.41753	1.5548408
19.985255166805807	2.447135	1.5643321
20.00305213201348	2.460496	1.5685968
20.020849584679578	2.4704673	1.571772
20.038647525273507	2.4298694	1.5588038
20.05644595426477	2.3964233	1.5480386
20.07424487212299	2.4234278	1.5567362
20.092044279317903	2.4667206	1.5705796
20.109844176319353	2.4582462	1.5678796
20.127644563597304	2.4617972	1.5690116
20.145445441621817	2.4448893	1.5636141
20.16324681086307	2.4097388	1.5523334
20.181048671791373	2.3761923	1.5414903
20.198851024877122	2.3607621	1.5364772
20.216653870590836	2.3805702	1.5429096
20.234457209403146	2.3623798	1.5370035
20.252261041784802	2.3599687	1.536219
20.270065368206662	2.4006097	1.5493901
20.287870189139685	2.4413884	1.5624943
20.305675505054968	2.4140973	1.5537366
20.323481316423702	2.3822706	1.5434606
20.341287623717207	2.361442	1.5366985
20.359094427406884	2.3618538	1.5368325
20.376901727964288	2.348258	1.5324028
20.39470952586107	2.3592508	1.5359852
20.41251782156899	2.3713558	1.5399207
20.430326615559935	2.3718235	1.5400726
20.448135908305886	2.3770292	1.5417618
20.465945700278965	2.344256	1.5310963
20.483755991951384	2.3026268	1.5174409
20.50156678379548	2.2714827	1.5071439
20.519378076283708	2.3113847	1.5203239
20.537189869888635	2.3615003	1.5367174
20.55500216508294	2.3775818	1.5419409
20.572814962339415	2.3525257	1.5337945
20.59062826213098	2.3390083	1.5293816
20.60844206493066	2.350977	1.5332896
20.626256371211593	2.3303413	1.5265455
20.644071181447032	2.2852936	1.5117188
20.66188649611036	2.284625	1.5114976
20.67970231567506	2.314098	1.5212159
20.697518640614742	2.3399682	1.5296955
20.715335471403122	2.3637152	1.5374379
20.73315280851404	2.3579025	1.5355463
20.750970652421447	2.3067079	1.518785
20.768789003599412	2.2771974	1.5090386
20.786607862522136	2.3110893	1.5202267
20.8044272296639	2.3230796	1.5241652
20.82224710549913	2.305087	1.5182513
20.84006749050237	2.282559	1.510814
20.857888385148268	3.8209505	1.9547251
20.8757097899116	45.917217	6.7762246
20.893531705267254	64.78092	8.048659
20.911354131690224	83.818726	9.155256
20.92917706965566	69.07013	8.310844
20.94700051963877	50.13242	7.0804253
20.96482448211493	29.392117	5.4214497
20.982648957559622	4.112571	2.0279474
21.00047394644843	2.2198825	1.489927
21.01829944925707	2.2559454	1.5019805
21.036125466461375	2.2584724	1.5028214
21.053951998537297	2.2612188	1.503735
21.071779045960906	2.219232	1.4897088
21.089606609208378	2.202459	1.4840684
21.10743468875603	2.1760821	1.475155
21.12526328508028	2.167718	1.4723172
21.143092398657675	2.1783192	1.475913
21.16092202996488	2.2013495	1.4836946
21.17875217947867	2.1856914	1.4784083
21.19658284767596	2.1609588	1.4700199
21.21441403503377	2.1240892	1.4574256
21.232245742029225	2.126413	1.4582226
21.2500779691396	2.1700714	1.4731162
21.26791071684227	2.1976602	1.4824507
21.28574398561475	2.1377358	1.4620998
21.30357777593465	2.1180315	1.4553459
21.321412088279704	2.1091573	1.4522939
21.339246923127792	2.1193912	1.4558129
21.357082280956888	2.1293192	1.4592187
21.3749181622451	2.1425164	1.4637337
21.392754567470647	2.1301332	1.4594976
21.41059149711187	2.1147473	1.4542171
21.42842895164726	2.1686316	1.4726274
21.446266931555378	2.222075	1.4906626
21.464105437314945	2.215171	1.4883451
21.481944469404798	2.130168	1.4595095
21.49978402830388	2.1042533	1.4506044
21.51762411449127	2.0881436	1.4450411
21.53546472844617	2.071137	1.4391445
21.553305870647876	2.0825071	1.4430895
21.571147541575865	2.1039815	1.4505107
21.58898974170967	2.1015368	1.4496678
21.60683247152899	2.047734	1.4309906
21.62467573151363	2.0108433	1.4180421
21.642519522143523	2.0392792	1.4280334
21.660363843898722	2.0778804	1.4414855
21.6782086972594	2.0762794	1.44093
21.696054082705864	2.0349774	1.4265263
21.713900000718535	2.0008004	1.4144965
21.73174645177795	2.0054252	1.4161304
21.749593436364794	2.0173273	1.4203265
21.767440954959845	2.013977	1.4191465
21.785289008044032	2.023777	1.4225951
21.803137596098388	2.0188568	1.4208648
21.820986719604086	1.9790958	1.4068034
21.838836379042412	1.9746171	1.4052107
21.85668657489478	2.0040152	1.4156325
21.87453730764273	2.0041134	1.4156672
21.892388577767914	1.9888344	1.4102604
21.91024038575213	1.9789541	1.4067531
21.928092732077285	1.9709392	1.4039015
21.945945617225426	1.951015	1.3967874
21.963799041678694	1.9718319	1.4042193
21.981653005919398	31.338324	5.5980644
21.999507510429943	78.146675	8.840061
22.01736255569286	73.09904	8.549797
22.035218142190818	4.1948633	2.0481365
22.05307427040661	1.9962859	1.4128999
22.07093094082315	1.9719976	1.4042783
22.088788153923474	1.9722574	1.4043708
22.106645910190746	1.978305	1.4065223
22.12450421010827	1.9816626	1.4077154
22.142363054159464	1.9955218	1.4126294
22.16022244282787	1.9987954	1.4137876
22.178082376597164	1.9947335	1.4123503
22.195942855951145	1.9872673	1.4097047
22.213803881373742	1.9697595	1.4034812
22.231665453349002	1.9979007	1.4134711
22.24952757236111	2.0114775	1.4182657
22.26739023889438	1.9973329	1.4132704
22.28525345343323	1.9951459	1.4124963
22.30311721646225	1.9882467	1.4100521
22.320981528466113	1.9627553	1.4009837
22.33884638992964	1.9291793	1.388949
22.356711801337788	1.954852	1.3981602
22.37457776317561	1.9665786	1.4023476
22.392444275928337	1.9469553	1.3953334
22.410311340081282	1.9476998	1.3956002
22.428178956119904	1.9551998	1.3982846
22.446047124529805	1.9548836	1.3981715
22.46391584579669	1.9376774	1.3920048
22.481785120406414	1.948832	1.3960057
22.49965494884496	1.9380738	1.3921472
22.51752533159841	1.9514387	1.396939
22.53539626915302	1.9443458	1.394398
22.553267761995137	1.9232193	1.3868018
22.571139810611264	1.934392	1.3908242
22.589012415488025	1.9919105	1.4113506
22.60688557711216	2.0092053	1.4174644
22.624759295970566	1.970159	1.4036236
22.642633572550263	1.9137627	1.3833882
22.660508407338362	1.8905029	1.3749557
22.67838380082217	1.8928297	1.3758014
22.696259753489077	1.9174206	1.3847096
22.714136265826614	1.9244072	1.38723
22.73201333832246	1.9438419	1.3942174
22.74989097146439	1.9437749	1.3941933
22.76776916574035	1.9343166	1.3907971
22.785647921638393	1.9359024	1.3913671
22.803527239646712	1.9308826	1.389562
22.82140712025363	1.9569244	1.3989011
22.839287563947593	1.9290366	1.3888977
22.85716857121719	1.8790134	1.370771
22.875050142551135	1.8599584	1.3638029
22.892932278438277	1.9050078	1.3802202
22.910814979367604	1.947141	1.3953999
22.928698245828222	1.9494119	1.3962134
22.946582078309387	1.9369617	1.3917477
22.96446647730047	1.9225587	1.3865637
22.98235144329098	1.8983363	1.3778013
23.000236976770562	1.8751781	1.3693714
23.018123078229	1.8327953	1.3538077
23.03600974815619	1.8451812	1.3583745
23.053896987042194	1.8580034	1.363086
23.071784795377173	1.9163958	1.3843395
23.08967317365145	1.9089063	1.3816317
23.10756212235546	1.9005369	1.3785996
23.125451641979787	1.9097348	1.3819315
23.143341733015134	1.9306264	1.3894699
23.161232395952357	1.9320453	1.3899803
23.179123631282426	1.914686	1.3837218
23.197015439496468	1.9296035	1.3891016
23.214907821085717	1.9595228	1.3998296
23.23280077654157	1.944465	1.3944408
23.250694306355538	1.8999335	1.3783808
23.268588411019277	1.9154066	1.3839822
23.28648309102458	1.9438893	1.3942343
23.304378346863356	1.9298297	1.3891832
23.322274179027676	1.8893313	1.3745295
23.340170588009723	1.8779181	1.3703716
23.358067574301852	1.9130002	1.3831125
23.37596513839651	1.8871382	1.3737315
23.39386328078629	1.8483202	1.3595294
23.411762001963947	1.8373704	1.3554964
23.429661302422353	1.864821	1.3655845
23.4475611826545	1.9002838	1.3785079
23.46546164315356	1.9078652	1.3812549
23.48336268441279	1.9028317	1.3794316
23.501264306925638	1.8954158	1.376741
23.51916651118564	1.9207559	1.3859134
23.537069297686497	1.9032521	1.3795841
23.554972666922037	1.8766354	1.3699034
23.57287661938623	1.8848189	1.372887
23.59078115557318	1.9229887	1.3867186
23.608686275977128	1.9156203	1.3840593
23.62659198109246	1.8856797	1.3732005
23.6444982714137	1.8875346	1.3738757
23.66240514743549	1.8854778	1.373127
23.68031260965263	1.9223629	1.3864931
23.698220658560068	1.943909	1.3942413
23.716129294652845	1.9637717	1.4013464
23.7340385184262	1.9725537	1.4044763
23.75194833037546	1.9443318	1.394393
23.769858730996123	1.9408628	1.3931485
23.78776972078382	1.934624	1.3909076
23.80568130023431	1.9634929	1.4012469
23.823593469843495	1.9247019	1.3873363
23.841506230107424	1.9000154	1.3784105
23.859419581522275	1.8695625	1.3673195
23.87733352458438	1.9128097	1.3830436
23.89524805979019	1.9360254	1.3914113
23.913163187636318	1.9358553	1.3913502
23.931078908619508	1.957189	1.3989958
23.948995223236633	1.965553	1.4019818
23.966912131984735	1.9802829	1.4072253
23.98482963536096	1.9992075	1.4139334
24.002747733862616	2.0054145	1.4161266
24.020666427987155	1.9898229	1.4106108
24.038585718232156	1.9944897	1.412264
24.056505605095353	1.9845262	1.408732
24.074426089074617	2.0547109	1.4334263
24.092347170667946	2.0794864	1.4420425
24.110268850373515	2.0613973	1.4357567
24.128191128689586	2.021032	1.42163
24.146114006114626	2.0468285	1.4306742
24.164037483147187	2.0637684	1.4365822
24.181961560286005	2.0642006	1.4367326
24.199886238029926	2.0707521	1.4390109
24.21781151687797	2.0631554	1.4363688
24.235737397329274	2.0099947	1.4177428
24.253663879883135	1.9809045	1.407446
24.271590965038975	1.9723626	1.4044083
24.289518653296376	1.9842589	1.4086373
24.30744694515505	2.0453618	1.4301615
24.32537584111486	2.0609136	1.4355882
24.34330534167581	2.0696008	1.4386107
24.361235447338046	2.0491261	1.431477
24.379166158601876	2.04314	1.4293845
24.39709747596772	2.0480847	1.4311131
24.41502939993615	2.0425534	1.4291793
24.432961931007917	2.006991	1.4166831
24.450895069683856	1.990745	1.4109377
24.468828816465	1.9867823	1.4095327
24.4867631718525	2.0439851	1.4296801
24.504698136347656	2.0507925	1.4320588
24.52263371045192	2.0246973	1.4229186
24.540569894666874	1.979946	1.4071056
24.558506689494266	1.975497	1.4055238
24.57644409543597	2.0101347	1.4177922
24.594382112994012	2.0034513	1.4154333
24.61232074267057	1.9562134	1.398647
24.630259984967953	1.9320489	1.3899816
24.64819984038863	1.9263965	1.3879468
24.66614030943522	1.9748955	1.4053098
24.684081392610462	2.003027	1.4152833
24.702023090417274	1.9626805	1.400957
24.7199654033587	1.945619	1.3948544
24.737908331937927	1.9633784	1.401206
24.755851876658305	1.9482725	1.3958054
24.773796038023324	1.9540274	1.3978653
24.79174081653661	1.9549123	1.3981818
24.809686212701962	2.001878	1.4148774
24.827632227023294	2.058834	1.4348638
24.8455788600047	2.1152375	1.4543856
24.8635261121504	2.1452727	1.464675
24.88147398396475	2.1399567	1.462859
24.899422475952303	2.1068487	1.4514987
24.917371588617698	2.1030798	1.4502
24.935321322465768	2.1576986	1.4689107
24.953271678001478	2.3055637	1.5184083
24.97122265572994	2.5199587	1.5874377
24.989174256156414	2.8255725	1.680944
25.00712647978632	3.2888772	1.8135262
25.02507932712521	3.892129	1.9728479
25.043032798678798	4.4904504	2.1190684
25.060986894952933	5.1138077	2.261373
25.078941616453637	5.768185	2.4017045
25.096896963687055	6.690513	2.5866027
25.114852937159508	7.838678	2.799764
25.132809537377444	8.349289	2.8895137
25.150766764847468	8.433758	2.9040933
25.168724620076347	7.9384	2.8175166
25.186683103570985	6.938061	2.63402
25.204642215838426	5.6778283	2.3828194
25.222601957385894	4.2708144	2.0665948
25.24056232872074	3.283986	1.8121772
25.25852333035048	2.7031045	1.6441121
25.276484962782778	2.3014724	1.5170604
25.294447226525435	2.092239	1.4464574
25.312410122086423	2.0011156	1.4146079
25.330373649973843	1.9538813	1.3978131
25.348337810695988	1.9371244	1.3918061
25.366302604761245	1.9163091	1.3843082
25.384268032678207	1.8780432	1.3704171
25.40223409495558	1.821123	1.3494899
25.420200792102257	1.8195037	1.3488898
25.438168124627246	1.850235	1.3602334
25.45613609303974	1.8536085	1.361473
25.474104697849057	1.8836145	1.3724483
25.492073939564698	1.9191682	1.3853405
25.510043818696285	1.9409227	1.39317
25.528014335753614	1.91475	1.383745
25.54598549124664	1.910565	1.382232
25.56395728568544	1.8862343	1.3734025
25.58192971958028	1.8701816	1.3675458
25.59990279344156	1.89289	1.3758234
25.617876507779833	1.9038922	1.3798159
25.635850863105826	1.9447938	1.3945587
25.653825859930386	1.9291016	1.388921
25.671801498764548	1.9159478	1.3841777
25.68977778011949	1.8867458	1.3735887
25.707754704506524	1.8454645	1.3584788
25.725732272437153	1.8228309	1.3501226
25.743710484423012	1.8032948	1.3428681
25.761689340975888	1.7870326	1.3367994
25.77966884260774	1.824894	1.3508863
25.797648989830662	1.8641672	1.3653451
25.815629783156922	1.8512386	1.3606023
25.83361122309895	1.8155752	1.3474329
25.85159331016929	1.8287979	1.3523306
25.869576044880695	1.8596219	1.3636795
25.887559427746034	1.9023945	1.3792732
25.90554345927836	1.9118177	1.382685
25.92352813999086	1.9282994	1.3886322
25.94151347039689	1.8998014	1.3783329
25.959499451009965	1.903443	1.3796532
25.97748608234374	1.8373109	1.3554745
25.995473364912062	1.8013084	1.3421283
26.013461299228904	1.8172139	1.3480408
26.03144988580839	1.848692	1.3596661
26.04943912516483	1.8234903	1.3503667
26.067429017812675	1.7952938	1.3398857
26.085419564266537	1.8170098	1.347965
26.103410765041186	1.8092355	1.3450782
26.12140262065155	1.7728846	1.3314971
26.139395131612723	1.8029476	1.3427389
26.157388298439948	1.8668919	1.3663425
26.17538212164861	1.8770401	1.3700511
26.193376601754295	1.8256228	1.3511561
26.211371739272714	1.7946751	1.3396548
26.229367534719746	1.7613286	1.3271506
26.247363988611433	1.7949078	1.3397417
26.26536110146397	1.8257418	1.3512001
26.283358873793727	1.8302895	1.3528819
26.301357306117204	1.8035905	1.3429782
26.319356398951104	1.8281419	1.352088
26.33735615281224	1.8470098	1.3590474
26.35535656821762	1.8430169	1.3575776
26.373357645684404	1.8416785	1.3570845
26.39135938572991	1.8291909	1.3524759
26.409361788871614	1.8012776	1.3421168
26.427364855627165	1.8286666	1.3522819
26.445368586514352	1.8333515	1.3540131
26.46337298205115	1.8273785	1.3518057
26.48137804275568	1.8076339	1.3444828
26.499383769146217	1.8310539	1.3531644
26.517390161741215	1.7980881	1.3409281
26.53539722105928	1.8090805	1.3450207
26.553404947619182	1.8256631	1.351171
26.571413341939856	1.8339633	1.354239
26.589422404540397	1.7724439	1.3313316
26.60743213594006	1.7763263	1.332789
26.62544253665827	1.7810975	1.3345777
26.64345360721459	1.7979358	1.3408713
26.66146534812879	1.782128	1.3349637
26.679477759920758	1.7917082	1.3385471
26.69749084311057	1.8307686	1.3530589
26.71550459821847	1.8612312	1.3642695
26.733519025764842	1.8836881	1.3724751
26.751534126270258	1.8707829	1.3677657
26.769549900255434	1.7806668	1.3344163
26.787566348241267	1.7648557	1.3284787
26.80558347074881	1.8071804	1.3443141
26.823601268299267	1.8221474	1.3498694
26.841619741414036	1.7896564	1.3377804
26.85963889061465	1.8055032	1.3436902
26.877658716422832	1.7912259	1.3383669
26.89567921936045	1.7874808	1.336967
26.913700399949544	1.785591	1.3362601
26.93172225871233	1.7963641	1.3402851
26.949744796171174	1.8081602	1.3446785
26.967768012848605	1.8476692	1.35929
26.98579190926733	1.8797151	1.371027
27.003816485950225	1.8618563	1.3644986
27.021841743420318	1.8432947	1.35768
27.039867682200814	1.8242033	1.3506306
27.057894302815072	1.8366152	1.3552178
27.07592160578664	1.8064771	1.3440524
27.0939495916392	1.7622383	1.3274932
27.111978260896635	1.7508935	1.3232133
27.13000761408296	1.7759843	1.3326606
27.148037651722397	1.7832383	1.3353795
27.166068374339304	1.793241	1.3391196
27.184099782458215	1.7784115	1.333571
27.20213187660384	1.8073713	1.344385
27.22016465730105	1.8122218	1.3461878
27.23819812507487	1.7857442	1.3363174
27.256232280450533	1.7647668	1.3284453
27.274267123953383	1.8084363	1.3447812
27.292302656108987	1.8279018	1.3519992
27.31033887744306	1.8323979	1.353661
27.32837578848146	1.8142269	1.3469324
27.34641338975026	1.7955366	1.3399763
27.364451681775673	1.7925024	1.3388437
27.382490665084074	1.7891078	1.3375753
27.400530340202046	1.7715703	1.3310035
27.41857070765629	1.759338	1.3264004
27.436611767973726	1.7828946	1.3352507
27.454653521681404	1.783495	1.3354756
27.472695969306564	1.7488521	1.3224417
27.490739111376627	1.7402757	1.3191952
27.508782948419153	1.7727711	1.3314545
27.526827480961902	1.7914909	1.3384659
27.54487270953279	1.789354	1.3376673
27.562918634659898	1.779665	1.3340409
27.580965256871508	1.8076891	1.3445033
27.599012576696026	1.8214275	1.3496027
27.617060594662068	1.8318615	1.3534628
27.63510931129842	1.8125066	1.3462937
27.65315872713401	1.8250091	1.350929
27.67120884269797	1.8121711	1.346169
27.68925965851958	1.808494	1.3448026
27.707311175128307	1.8104999	1.3455482
27.725363393053787	1.844118	1.3579831
27.74341631282583	1.8450191	1.3583148
27.7614699349744	1.8272326	1.3517517
27.77952426002968	1.9881854	1.4100302
27.797579288521973	2.0666525	1.4375857
27.815635020981784	2.4999864	1.5811346
27.83369145793979	2.5428176	1.5946214
27.85174859992682	2.3784392	1.5422189
27.869806447473923	2.2560554	1.5020171
27.887865001112267	1.9416246	1.3934219
27.905924261373233	1.8222003	1.349889
27.92398422878836	1.8172939	1.3480704
27.94204490388936	1.8506972	1.3604033
27.96010628720813	1.8771197	1.3700801
27.978168379276728	1.904835	1.3801576
27.9962311806274	1.890667	1.3750153
28.014294691792568	1.9049524	1.3802001
28.0323589133048	1.8844877	1.3727665
28.050423845696887	1.840656	1.3567078
28.068489489501758	1.8522025	1.3609564
28.086555845252523	1.8686093	1.3669709
28.104622913482487	1.8719742	1.3682011
28.122690694725115	1.9012665	1.3788642
28.14075918951405	1.9233874	1.3868624
28.15882839838312	1.9337556	1.3905954
28.176898321866304	1.9474618	1.3955148
28.1949689604978	1.9517459	1.397049
28.213040314811945	1.9469889	1.3953454
28.23111238534327	1.9170529	1.3845768
28.249185172626493	1.856217	1.3624306
28.267258677196473	1.8665134	1.366204
28.285332899588294	1.9042199	1.3799348
28.303407840337172	1.9477156	1.3956058
28.321483499978545	1.9229122	1.3866911
28.33955987904799	1.919043	1.3852953
28.357636978081285	1.935772	1.3913202
28.37571479761439	1.9537932	1.3977815
28.393793338183425	1.9402195	1.3929176
28.41187260032469	1.9404632	1.3930051
28.429952584574686	1.9372952	1.3918675
28.448033291470065	1.8658305	1.365954
28.46611472154769	1.891614	1.3753595
28.484196875344566	1.9612793	1.4004568
28.502279753397914	1.9819862	1.4078304
28.52036335624511	1.917366	1.3846898
28.538447684423716	1.9190456	1.3852962
28.556532738471482	1.9473895	1.395489
28.574618518926325	1.9738066	1.4049222
28.59270502632635	1.9608122	1.40029
28.61079226120985	1.9887093	1.4102161
28.628880224115274	2.022014	1.4219754
28.646968915581287	2.080404	1.4423606
28.66505833614671	2.1122527	1.4533591
28.68314848635055	2.084507	1.4437822
28.701239366732004	2.0548244	1.4334658
28.71933097783044	2.064956	1.4369955
28.737423320185403	2.0759768	1.4408251
28.75551639433665	2.0813372	1.442684
28.773610200824074	2.0976915	1.448341
28.791704740187793	2.1468413	1.4652103
28.80980001296809	2.1321392	1.4601847
28.827896019705413	2.1292439	1.4591929
28.845992760940433	2.1574485	1.4688256
28.86409023721397	2.1986055	1.4827696
28.88218844906704	2.2055867	1.4851217
28.900287397040845	2.2047904	1.4848536
28.918387081676755	2.2239897	1.4913048
28.936487503516343	2.265057	1.5050106
28.954588663101365	2.2908754	1.5135639
28.97269056097374	2.309797	1.5198016
28.990793197675597	2.334681	1.5279663
29.00889657374923	2.3213878	1.5236101
29.027000689737125	2.3662977	1.5382775
29.04510554618196	2.4425244	1.5628577
29.06321114362659	2.5179513	1.5868053
29.08131748261405	2.5170305	1.5865152
29.099424563687567	2.4928417	1.5788735
29.11753238739057	2.4924326	1.5787439
29.13564095426663	2.5320601	1.5912448
29.15375026485954	2.593439	1.6104158
29.171860319713275	2.596775	1.6114513
29.18997111937199	2.6263459	1.6206005
29.20808266438002	2.7245965	1.6506351
29.226194955281898	2.7438815	1.6564666
29.244307992622335	2.770559	1.6644996
29.26242177694624	2.7993896	1.6731377
29.2805363087987	2.85524	1.6897455
29.29865158872498	2.9151912	1.707393
29.316767617270557	3.0021915	1.7326833
29.334884394981064	3.0552235	1.7479198
29.353001922402367	3.014595	1.7362589
29.37112020008047	3.0627997	1.7500856
29.389239228561596	3.182171	1.7838641
29.407359008392152	3.332705	1.8255697
29.42547954011872	3.7023478	1.9241486
29.44360082428809	4.351742	2.086083
29.46172286144722	5.3753963	2.31849
29.479845652143283	7.03345	2.6520653
29.497969196923606	9.113202	3.0188081
29.516093496335728	11.604079	3.406476
29.5342185509274	14.582282	3.8186755
29.55234436124651	17.026123	4.126272
29.570470927841175	18.49406	4.3004723
29.588598251259686	18.330624	4.281428
29.60672633205055	17.026684	4.1263404
29.624855170762405	14.831558	3.8511763
29.642984767944146	11.994574	3.4633183
29.66111512414481	9.037629	3.006265
29.67924623991366	6.662176	2.581119
29.697378115800138	5.1115522	2.2608743
29.71551075235387	4.1948223	2.0481265
29.733644150124675	3.7237365	1.9296986
29.751778309662576	3.5264447	1.8778831
29.769913231517766	3.4293776	1.8518579
29.78804891624066	3.3878644	1.8406152
29.806185364381818	3.3354876	1.8263317
29.82432257649206	3.3436258	1.8285584
29.842460553122333	3.3101566	1.8193836
29.86059929482382	3.2879405	1.813268
29.878738802147872	3.2925792	1.8145466
29.896879075646048	3.3222346	1.8226998
29.915020115870114	3.3037286	1.8176162
29.933161923371976	3.2414875	1.8004131
29.951304498703777	3.2485447	1.802372
29.969447842417857	3.266303	1.8072916
29.987591955066733	3.2176929	1.7937928
30.005736837203123	3.2032337	1.789758
30.023882489379943	3.2121997	1.792261
30.04202891215028	3.1396093	1.7718943
30.060176106067455	3.094916	1.7592374
30.078324071684946	3.1295998	1.7690675
30.09647280955646	3.190205	1.7861146
30.114622320235863	3.148244	1.7743292
30.132772604277257	3.168211	1.7799469
30.1509236622349	3.19855	1.788449
30.16907549466328	3.1718314	1.7809637
30.18722810211705	3.0667894	1.7512251
30.205381485151097	3.031101	1.7410058
30.22353564432045	3.0117204	1.735431
30.241690580180403	3.0253098	1.7393417
30.25984629328638	3.0392199	1.7433358
30.278002784194037	3.0548368	1.7478092
30.296160053459246	3.042876	1.7443842
30.314318101638033	2.9967601	1.7311153
30.332476929286646	2.977897	1.7256584
30.35063653696153	2.9154694	1.7074746
30.368796925219307	2.924428	1.7100959
30.386958094616844	2.9403565	1.7147467
30.40512004571115	2.9221349	1.7094253
30.423282779059463	2.877252	1.6962465
30.441446295219233	2.8712497	1.6944762
30.459610594748067	2.851244	1.6885628
30.47777567820382	2.8541481	1.6894225
30.495941546144504	2.8067064	1.6753228
30.51410819912835	2.8416753	1.6857269
30.532275637713795	2.8577442	1.6904864
30.55044386245946	2.7630224	1.6622342
30.56861287392416	2.770495	1.6644803
30.586782672666956	2.7781491	1.6667781
30.604953259247047	2.7151554	1.6477729
30.623124634223885	2.667075	1.6331182
30.641296798157075	2.6852844	1.6386837
30.659469751606462	2.7857478	1.6690559
30.677643495132074	2.877959	1.6964549
30.695818029294152	2.8434715	1.6862596
30.713993354653116	2.7597022	1.6612351
30.73216947176962	2.7168655	1.6482917
30.75034638120448	2.7310407	1.6525861
30.768524083518756	2.75954	1.6611863
30.786702579273673	2.8080964	1.6757376
30.80488186903069	2.8678358	1.6934686
30.82306195335144	3.0073721	1.7341777
30.841242832797782	3.2472486	1.8020124
30.85942450793176	3.4168773	1.8484797
30.877606979315637	3.6548083	1.9117553
30.895790247511883	4.0891886	2.0221741
30.913974313083134	4.6554446	2.1576478
30.932159176592283	5.04282	2.2456224
30.95034483860237	5.0675216	2.2511156
30.968531299676698	4.7522116	2.1799567
30.98671856037873	4.2767477	2.0680299
31.00490662127215	3.9025435	1.9754857
31.023095482920848	3.4572024	1.8593553
31.04128514588892	3.0637746	1.7503642
31.059475610740662	2.7617888	1.6618631
31.07766687804056	2.6323922	1.6224649
31.09585894835335	2.5780978	1.6056457
31.11405182224393	2.579703	1.6061454
31.132245500277417	2.5902696	1.6094314
31.15043998301914	2.5171561	1.5865548
31.168635271034628	2.413263	1.5534681
31.18683136488964	2.3870459	1.5450068
31.20502826515008	2.4353862	1.5605724
31.223225972382135	2.478003	1.5741674
31.241424487152155	2.5022404	1.5818472
31.259623810026692	2.4878974	1.577307
31.27782394157253	2.4622667	1.5691612
31.296024882356644	2.4369955	1.561088
31.314226632946237	2.4715893	1.5721289
31.332429193908684	2.516028	1.5861992
31.350632565811598	2.4684193	1.5711204
31.368836749222787	2.4270284	1.5578923
31.387041744710295	2.5083323	1.5837716
31.40524755284232	2.5181324	1.5868624
31.423454174187317	2.4869711	1.5770134
31.441661609313922	2.4286861	1.5584242
31.459869858791002	2.4211903	1.5560174
31.478078923187628	2.4465566	1.5641472
31.496288803073064	2.4051518	1.5508552
31.514499499016807	2.3092773	1.5196307
31.532711011588546	2.256164	1.5020533
31.550923341358178	2.3039238	1.5178682
31.56913648889584	2.3162875	1.5219355
31.587350454771844	2.2854815	1.5117809
31.605565239556732	2.2422988	1.4974308
31.62378084382127	2.332766	1.5273396
31.641997268136382	2.3662348	1.538257
31.660214513073274	2.3729105	1.5404254
31.67843257920331	2.3226922	1.5240381
31.6966514670981	2.2975256	1.5157591
31.71487117732944	2.3331625	1.5274693
31.733091710469346	2.3353302	1.5281787
31.751313067090052	2.3231156	1.5241771
31.769535247764008	2.2851882	1.511684
31.787758253063878	2.3038912	1.5178574
31.805982083562526	2.3758833	1.5413901
31.824206739833024	2.384855	1.5442976
31.84243222244869	2.30357	1.5177517
31.860658531983013	2.2807524	1.510216
31.878885669009737	2.3063426	1.5186647
31.897113634102784	2.2981148	1.5159534
31.91534242783632	2.3406692	1.5299245
31.933572050784694	2.307269	1.5189698
31.951802503522508	2.199949	1.4832225
31.970033786624548	2.1656213	1.471605
31.988265900665834	2.2179036	1.4892628
32.006498846221575	2.1575313	1.4688537
32.02473262386724	2.0795887	1.4420779
32.04296723417845	2.0583587	1.4346981
32.0612026777311	2.1815262	1.476999
32.07943895510129	2.257325	1.5024396
32.097676066865304	2.235783	1.4952536
32.115914013599685	2.169085	1.4727814
32.13415279588115	2.1320143	1.4601419
32.152392414286666	2.06381	1.4365968
32.1706328693934	2.106018	1.4512126
32.18887416177875	2.1360955	1.4615388
32.20711629202032	2.0840032	1.4436077
32.225359260695924	2.1284995	1.4589378
32.243603068383614	2.1860707	1.4785367
32.26184771566166	2.1978207	1.4825048
32.28009320310852	2.1042473	1.4506024
32.2983395313029	2.1125066	1.4534465
32.31658670082372	2.178133	1.47585
32.33483471225012	2.1733167	1.4742173
32.35308356616143	2.143074	1.4639242
32.371333263137245	2.2060513	1.4852782
32.38958380375734	2.1914659	1.48036
32.407835188601744	2.117521	1.4551705
32.42608741825067	2.0188591	1.4208657
32.444340493284585	1.9961452	1.41285
32.46259441428416	2.0389419	1.4279152
32.48084918183028	2.0629437	1.4362952
32.49910479650405	2.0214944	1.4217926
32.51736125888683	2.0614796	1.4357853
32.53561856956014	2.129488	1.4592766
32.5538767291058	2.1767538	1.4753826
32.572135738105764	2.1324651	1.4602963
32.59039559714228	2.0984964	1.4486188
32.608656306797776	2.0766387	1.4410547
32.62691786765491	2.0440423	1.4297001
32.645180280296586	2.0422797	1.4290835
32.663443545305896	2.0624683	1.4361296
32.68170766326619	2.0399601	1.4282718
32.69997263476099	2.0000985	1.4142483
32.7182384603741	1.9425257	1.3937452
32.7365051406895	1.9009876	1.3787631
32.75477267629144	1.9522337	1.3972236
32.77304106776434	1.9694315	1.4033643
32.79131031569289	2.0145283	1.4193407
32.809580420661966	2.0548863	1.4334875
32.827851383256714	2.0232732	1.4224181
32.84612320406245	2.052661	1.432711
32.86439588366476	2.145157	1.4646355
32.88266942264945	2.1419616	1.4635441
32.9009438216025	2.1071415	1.4515996
32.9192190811102	2.1303086	1.4595577
32.937495201758985	2.113444	1.453769
32.95577218413556	2.0611448	1.4356688
32.974050028826866	1.9811984	1.4075505
32.992328736420035	1.9340605	1.390705
33.010608307502444	1.9725493	1.4044747
33.02888874266169	2.0508244	1.43207
33.047170042485604	2.0199144	1.4212369
33.06545220756225	1.9182705	1.3850164
33.083735238479896	1.9236611	1.3869611
33.10201913582707	1.8837736	1.3725063
33.12030390019248	1.8882539	1.3741375
33.138589532165135	1.8664359	1.3661757
33.15687603233419	1.9073615	1.3810726
33.17516340128909	1.8986343	1.3779094
33.19345163961947	1.9299003	1.3892086
33.211740747915215	1.9761217	1.405746
33.23003072676643	1.9954364	1.4125992
33.248321576763466	1.9457814	1.3949127
33.266613298496885	1.9060768	1.3806074
33.28490589255747	1.8502815	1.3602505
33.30319935953626	1.8486854	1.3596637
33.32149370002451	1.9082911	1.381409
33.339788914613706	1.9700027	1.4035678
33.358085003895575	1.9952667	1.4125391
33.376381968462034	1.9841368	1.4085939
33.39467980890529	1.9383129	1.392233
33.41297852581774	1.9131562	1.3831689
33.43127811979204	1.9698209	1.4035031
33.44957859142105	2.0309227	1.4251044
33.467879941297866	2.0382736	1.4276812
33.486182170015844	1.9537649	1.3977714
33.50448527816853	1.9345473	1.39088
33.522789266349754	1.8815821	1.3717078
33.541094135153514	1.7664143	1.3290652
33.55939988517411	1.7397097	1.3189806
33.57770651700602	1.857836	1.3630246
33.59601403124398	1.951796	1.397067
33.61432242848296	1.947697	1.3955991
33.632631709318154	1.8291897	1.3524754
33.650941874344994	1.7891594	1.3375946
33.66925292415916	1.8536227	1.3614781
33.68756485935654	1.8583074	1.3631974
33.70587768053328	1.8606682	1.3640631
33.724191388285746	1.953189	1.3975654
33.74250598321054	2.0697696	1.4386694
33.760821465904506	2.0582516	1.4346608
33.77913783696474	1.9023583	1.3792601
33.79745509698852	1.9495339	1.3962572
33.815773246573414	1.9889684	1.4103079
33.8340922863172	1.9088054	1.3815953
33.852412216817896	1.8937674	1.3761421
33.87073303867377	1.927973	1.3885146
33.889054752483304	1.8364819	1.3551686
33.907377358845245	1.8069527	1.3442295
33.92570085835853	1.8900793	1.3748015
33.94402525162239	1.8877376	1.3739496
33.96235053923627	1.920315	1.3857543
33.980676721799824	2.1772103	1.4755373
33.999003799912984	2.2227252	1.4908806
34.01733177417592	2.0648618	1.4369627
34.03566064518901	1.9513401	1.3969038
34.0539904135529	1.9609554	1.4003412
34.07232107986846	1.9545159	1.39804
34.090652644736785	1.8888892	1.3743687
34.108985108759235	1.8811284	1.3715423
34.12731847253742	1.982178	1.4078984
34.14565273667313	2.0450168	1.4300408
34.16398790176847	1.9816955	1.4077271
34.18232396842574	1.9841918	1.4086134
34.20066093724749	2.0300481	1.4247975
34.21899880883651	2.015134	1.4195542
34.23733758379583	1.9502743	1.3965223
34.25567726272874	1.8894467	1.3745714
34.27401784623872	1.9191138	1.3853208
34.29235933492957	2.0036087	1.4154888
34.31070172940526	2.0078301	1.4169792
34.32904503027003	1.9450138	1.3946375
34.347389238128386	1.8749378	1.3692837
34.36573435358502	1.7512472	1.323347
34.38408037724492	1.7982714	1.3409964
34.402427309713296	1.8888819	1.374366
34.42077515159559	2.0229268	1.4222963
34.43912390349752	2.0244355	1.4228266
34.45747356602499	1.8659537	1.3659991
34.47582413978423	1.9882342	1.4100475
34.49417562538163	2.1394396	1.4626824
34.51252802342388	2.044075	1.4297115
34.53088133451789	1.9238174	1.3870175
34.54923555927084	1.9549553	1.3981972
34.567590698290104	1.9340059	1.3906854
34.58594675218336	1.9354061	1.3911887
34.6043037215585	1.9917048	1.4112778
34.62266160702365	2.072692	1.4396846
34.641020409187234	2.1026232	1.4500425
34.65938012865785	2.0065227	1.4165177
34.677740766044394	1.8451608	1.358367
34.69610232195598	1.7865996	1.3366374
34.714464797002016	1.78099	1.3345374
34.73282819179208	1.884336	1.3727112
34.751192506936064	1.8891418	1.3744606
34.76955774304408	1.821983	1.3498085
34.7879239007265	1.8752023	1.3693802
34.80629098059391	2.065077	1.4370376
34.824658983257194	2.0892408	1.4454206
34.843027909327446	1.8737105	1.3688354
34.86139775941603	1.8182803	1.3484362
34.879768534134534	1.9808698	1.4074337
34.89814023409483	2.017246	1.4202979
34.91651285990901	2.1009035	1.4494494
34.93488641218944	2.1793544	1.4762636
34.95326089154871	2.1329513	1.4604627
34.97163629859967	2.0762806	1.4409305
34.99001263395542	1.9400212	1.3928465
35.00838989822934	1.8778704	1.3703542
35.02676809203499	1.7097453	1.3075722
35.04514721598624	1.7005854	1.304065
35.063527270697215	1.9222738	1.3864609
35.081908256782256	1.9722435	1.4043659
35.10029017485597	1.7689586	1.330022
35.11867302553321	1.6813756	1.2966787
35.137056809429104	1.9641973	1.4014982
35.155441527159006	2.07331	1.4398993
35.173827179338524	2.1525197	1.4671468
35.19221376658354	2.1962593	1.4819782
35.21060128951017	2.117555	1.4551821
35.2289897487348	2.0431232	1.4293786
35.24737914487405	2.1590128	1.469358
35.26576947854479	2.1452804	1.4646776
35.28416075036418	2.2088752	1.4862285
35.30255296094958	2.1849196	1.4781474
35.32094611091867	2.1262836	1.4581782
35.33934020088932	1.9271806	1.3882294
35.35773523147969	1.860116	1.3638607
35.3761312033082	1.9672545	1.4025885
35.394528116993506	2.0632164	1.43639
35.41292597315452	2.1044805	1.4506828
35.431324772410434	2.3536098	1.5341479
35.449724515380666	2.381422	1.5431857
35.46812520268491	2.001731	1.4148254
35.486526834943106	1.765273	1.3286358
35.504929412775454	2.033566	1.4260316
35.52333293680242	2.0496714	1.4316673
35.54173740764471	1.9095653	1.3818703
35.560142825923286	1.8082675	1.3447183
35.5785491922594	1.4821881	1.2174515
35.59695650727454	1.433125	1.197132
35.61536477159042	1.7820303	1.3349271
