0.008763373481513119	0.0	0.0
0.026290120649546365	0.11242709	0.3353015
0.043816868432600686	0.121336736	0.34833422
0.06134361724069026	0.18105187	0.4255019
0.07887036748382949	0.2275188	0.4769893
0.0963971195720331	0.1709345	0.41344225
0.11392387391531617	0.15773359	0.3971569
0.1314506309236943	0.08345285	0.28888208
0.1489773910071836	0.04580863	0.2140295
0.16650415457580078	0.017153433	0.13097112
0.18403092203956356	0.05969192	0.2443193
0.20155769380849	0.11503031	0.3391612
0.2190844702925996	0.1484565	0.38530052
0.2366112519019124	0.15741472	0.39675525
0.2541380390464497	0.13995281	0.37410268
0.27166483213623416	0.12654236	0.35572794
0.28919163158128947	0.12304745	0.3507812
0.3067184377916406	0.13241974	0.36389524
0.324245251177314	0.1598201	0.39977506
0.34177207214833777	0.16255096	0.4031761
0.3592989011147415	0.1831544	0.42796543
0.37682573848655654	0.15810402	0.39762297
0.39435258467381573	0.12563641	0.35445228
0.41187944008655414	0.103461295	0.321654
0.42940630513480854	0.06393501	0.25285372
0.446933180228618	0.09624713	0.31023723
0.4644600657780234	0.17023705	0.41259792
0.48198696219306775	0.20837845	0.45648488
0.49951386988379676	0.19079073	0.43679598
0.5170407892602581	0.15548296	0.39431328
0.5345677207325025	0.13997978	0.3741387
0.5520946647105822	0.17294207	0.41586304
0.5696216216045534	0.21813759	0.467052
0.5871485918244737	0.2019737	0.44941485
0.6046755757804043	0.17848693	0.42247713
0.6222025738824094	0.15379834	0.39217132
0.6397295865405557	0.13754915	0.3708762
0.6572566141649129	0.120612614	0.34729326
0.6747836571655547	0.10181773	0.3190889
0.6923107159525568	0.084296994	0.29033944
0.7098377909359992	0.16167681	0.40209055
0.7273648825259653	0.24209514	0.49203163
0.7448919911325411	0.26370382	0.513521
0.762419117165817	0.23600604	0.48580453
0.7799462610358868	0.21374232	0.46232274
0.7974734231528482	0.21192247	0.46035036
0.8150006039268024	0.21494696	0.46362373
0.8325278037678551	0.21455547	0.46320134
0.8500550230861152	0.18070778	0.42509738
0.8675822622916969	0.20581636	0.45366988
0.8851095217947171	0.21256584	0.46104863
0.9026368020052984	0.22718315	0.47663733
0.9201641033335665	0.21211112	0.46055523
0.9376914261896523	0.2143299	0.46295777
0.9552187709836915	0.25147766	0.50147545
0.9727461381258234	0.25857246	0.5085002
0.990273528026193	0.28238094	0.53139526
1.0078009410949496	0.29956764	0.5473277
1.0253283777422473	0.26705655	0.51677513
1.0428558383782454	0.24441615	0.49438462
1.0603833234131086	0.2327258	0.48241663
1.0779108332570058	0.24265435	0.49259958
1.0954383683201119	0.272865	0.5223648
1.112965929012607	0.35979384	0.5998282
1.1304935157446763	0.5062084	0.71148324
1.1480211289265108	0.54800755	0.7402753
1.1655487689683062	1.4298638	1.1957691
1.1830764362802655	1.7032152	1.3050729
1.200604131272596	2.0162911	1.4199617
1.2181318543555117	2.3014772	1.5170621
1.235659605939232	2.319476	1.5229826
1.253187386433982	4.0209374	2.0052276
1.270715196249994	6.452238	2.5401256
1.2882430357975057	11.961571	3.4585505
1.3057709054867608	16.8655	4.106763
1.3232988057280106	22.70919	4.765416
1.3408267369315112	27.920383	5.283974
1.358354699507526	31.298084	5.594469
1.3758826938663256	35.482445	5.956714
1.3934107204181858	37.324802	6.1094027
1.410938779573391	37.807667	6.1487937
1.4284668717422309	38.475582	6.202869
1.4459949973350033	37.9867	6.163335
1.4635231567620117	38.078655	6.1707907
1.4810513504335687	37.262596	6.1043096
1.4985795787599925	36.47772	6.0396786
1.5161078421516088	36.33629	6.027959
1.5336361410187505	35.734688	5.97785
1.5511644757717598	35.576878	5.9646354
1.5686928468209842	35.678345	5.9731355
1.58622125457678	36.133144	6.011085
1.6037496994495108	37.772633	6.1459446
1.621278181849548	38.061367	6.1693897
1.6388067021872719	39.013126	6.246049
1.6563352608730693	38.102097	6.1726894
1.673863858317336	37.037224	6.0858216
1.6913924949304753	35.912266	5.9926844
1.7089211711228998	34.467136	5.870872
1.7264498873050296	33.7538	5.809802
1.7439786438872935	33.392834	5.778653
1.7615074412801288	32.715965	5.719787
1.779036279893981	31.710068	5.6311693
1.796565160139305	30.196419	5.4951267
1.814094082426564	29.578249	5.438589
1.8316230471662298	28.80755	5.3672667
1.849152054768784	28.22024	5.3122725
1.8666811056447168	27.568209	5.2505436
1.8842102002045273	26.93967	5.190344
1.901739338858724	26.457216	5.1436577
1.9192685220178245	25.827776	5.0821037
1.9367977500923557	25.162361	5.0162096
1.9543270234928547	25.001526	5.0001526
1.971856342629867	24.545166	4.954308
1.9893857079139496	24.16322	4.91561
2.006915119755667	23.282412	4.8251853
2.0244445785655945	22.715603	4.766089
2.0419740847543175	22.307459	4.7230773
2.0595036387324317	21.968233	4.6870284
2.0770332409105414	21.46436	4.6329646
2.094562891699263	21.116104	4.5952263
2.1120925915092217	20.558455	4.534143
2.129622340751053	20.120476	4.485585
2.1471521398354043	188.3393	13.723677
2.1646819891729323	444.73367	21.088709
2.182211889174303	440.9339	20.998426
2.1997418402501974	453.16312	21.287628
2.2172718428113023	432.9684	20.807894
2.234801897268317	320.79407	17.910725
2.2523320040319548	17.301794	4.1595426
2.269862163512935	17.135986	4.1395636
2.287392376121992	16.952217	4.117307
2.304922642269869	16.588694	4.072922
2.322452962367322	16.241018	4.0300145
2.3399833368251164	15.75715	3.9695277
2.357513766054032	15.5505705	3.9434211
2.3750442504648586	15.052886	3.8798048
2.3925747904683963	14.864812	3.8554912
2.410105386475459	14.574736	3.8176873
2.4276360388968707	14.298886	3.7813869
2.445166748143469	13.999157	3.7415447
2.4626975146261025	13.622049	3.6908062
2.4802283387556323	13.345079	3.6530917
2.4977592209429305	13.191834	3.6320565
2.5152901615988825	13.019432	3.608245
2.5328211611343865	12.987652	3.6038384
2.5503522199603523	12.8224745	3.5808482
2.5678833384877024	12.559331	3.5439146
2.5854145171273712	12.333026	3.5118408
2.6029457562903064	11.953261	3.4573488
2.620477056387469	11.725288	3.4242208
2.6380084178298326	11.559707	3.399957
2.655539841028383	11.480496	3.388288
2.673071326394119	11.38506	3.3741755
2.6906028743380523	11.308779	3.3628528
2.708134485271211	11.043896	3.3232358
2.7256661596046325	10.829259	3.290784
2.743197897749369	10.572324	3.251511
2.760729700116486	10.475595	3.2366025
2.778261567117063	10.3741665	3.2208953
2.795793499162193	10.379541	3.2217295
2.8133254966629817	10.309235	3.2107997
2.830857560030551	10.123033	3.1816714
2.8483896896760337	9.833526	3.1358452
2.865921886010578	9.588915	3.0965972
2.883454149445347	9.577443	3.0947444
2.9009864803915177	9.524149	3.086122
2.91851887926028	9.353482	3.0583463
2.9360513464628384	9.149468	3.024809
2.953583882410413	9.001216	3.0002027
2.9711164875142373	9.023896	3.0039802
2.9886491621855606	8.914818	2.9857693
3.0061819068356455	8.746748	2.9574902
3.023714721875769	8.546511	2.9234416
3.041247607717225	8.346095	2.8889608
3.0587805647713213	8.294798	2.880069
3.0763135934493806	8.2641535	2.8747442
3.0938466941627407	8.1723385	2.8587303
3.1113798673227544	8.13119	2.851524
3.1289131133407904	8.08483	2.8433836
3.1464464326282315	7.960446	2.8214262
3.1639798255964786	7.905134	2.8116071
3.1815132926569443	7.826626	2.7976108
3.1990468342210603	7.773868	2.7881658
3.216580450700272	7.649357	2.765747
3.2341141425060416	7.47903	2.7347815
3.251647910049847	7.480242	2.735003
3.2691817537431813	7.409334	2.7220092
3.286715673997555	7.309476	2.7036042
3.3042496712244938	7.2820497	2.6985273
3.32178374583554	7.2001677	2.683313
3.339317898242251	7.1536016	2.6746218
3.3568521288562034	6.9071927	2.6281538
3.3743864380889876	6.783279	2.6044729
3.3919208263522127	6.65392	2.5795193
3.4094552940575023	6.6705093	2.582733
3.4269898416164972	6.5955844	2.568187
3.444524469440858	6.5863256	2.5663838
3.4620591779422587	6.5216465	2.5537515
3.479593967532391	6.523037	2.5540237
3.4971288386229658	6.413416	2.5324724
3.5146637916257086	6.4025335	2.5303228
3.5321988269523628	6.365661	2.5230262
3.5497339450146903	6.3417845	2.51829
3.5672691462244708	6.2771997	2.505434
3.5848044309934988	6.2432275	2.498645
3.60233979973359	6.396826	2.5291946
3.619875252856575	6.383768	2.526612
3.6374107907743034	6.257805	2.5015604
3.6549464138986427	6.2349386	2.496986
3.6724821226414788	6.25098	2.500196
3.690017917414714	6.396201	2.529071
3.7075537986302702	6.3973975	2.5293076
3.7250897667000857	6.3908114	2.5280054
3.7426258220361235	6.416364	2.5330544
3.7601619650503553	6.7206035	2.5924127
3.777698196154779	7.2274933	2.6883998
3.7952345157614067	8.357603	2.8909519
3.8127709242822716	9.11213	3.0186305
3.830307422129425	11.2194605	3.3495462
3.847844009714936	30.070663	5.4836726
3.8653806874508954	97.65246	9.881926
3.882917455749409	96.992935	9.848499
3.900454315022606	96.70256	9.833746
3.917991265682631	41.176533	6.4168944
3.9355283081416506	10.847272	3.2935197
3.9530654428118495	8.771622	2.9616923
3.970602670105433	7.6134973	2.7592566
3.9881399904346244	6.717652	2.5918434
4.005677404211669	6.5510664	2.5595052
4.023214911848827	6.5067983	2.5508428
4.0407525137583855	6.543847	2.5580945
4.058290210352644	6.6666236	2.5819805
4.075828002043927	6.567076	2.5626307
4.0933658892445814	6.4795427	2.5454946
4.110903872366966	6.364909	2.5228772
4.128441951823468	6.3039317	2.5107632
4.145980128026488	6.3121924	2.5124078
4.163518401388452	6.2056355	2.4911113
4.181056772321807	6.291776	2.5083413
4.1985952412390155	6.227429	2.4954817
4.216133808552567	6.2642612	2.5028505
4.233672474674966	6.358322	2.5215714
4.251211240018741	6.620229	2.5729804
4.268750104996445	6.890438	2.6249645
4.286289070020643	7.829349	2.7980974
4.303828135503928	9.485041	3.0797794
4.3213673018589125	29.826515	5.4613657
4.3389065694982305	91.07305	9.5432205
4.356445938834537	166.16487	12.890495
4.3739854102805085	171.81847	13.107954
4.391524984248844	172.64734	13.139533
4.409064661152262	136.61504	11.688244
4.426604441403504	96.82989	9.840218
4.444144325415337	75.76237	8.704158
4.461684313600543	21.924213	4.68233
4.47922440637193	22.224455	4.714282
4.496764604142329	20.40917	4.517651
4.5143049073245916	18.51636	4.303064
4.531845316331589	16.375088	4.046614
4.5493858315762195	13.479031	3.67138
4.566926453471405	11.231986	3.3514156
4.584467182430081	9.270645	3.0447733
4.602008018865218	8.269113	2.8756065
4.619548963189798	7.681248	2.7715065
4.637090015816834	7.199632	2.683213
4.654631177159353	6.8450184	2.6162987
4.672172447630417	6.4165564	2.5330923
4.689713827643102	6.2879133	2.5075712
4.7072553176105085	6.0105805	2.4516485
4.724796917945764	5.8777647	2.42441
4.742338629062015	5.770394	2.4021645
4.759880451372434	5.7205086	2.3917584
4.777422385290215	5.661852	2.3794646
4.794964431228581	5.6611156	2.37931
4.812506589600768	5.6854157	2.384411
4.830048860820047	5.6413813	2.3751593
4.847591245299709	5.6356297	2.373948
4.8651337434530655	5.5948095	2.365335
4.882676355693457	5.588255	2.363949
4.900219082434242	5.570024	2.3600898
4.917761924088813	5.546036	2.3550024
4.935304881070575	5.534357	2.3525214
4.952847953792969	5.563627	2.3587341
4.970391142669449	5.6247454	2.3716545
4.9879344481135055	5.5916233	2.3646615
5.005477870538642	5.5581927	2.3575819
5.023021410358394	5.4683323	2.3384466
5.040565067986324	5.400156	2.3238237
5.05810884383601	5.363721	2.315971
5.075652738321066	5.4060893	2.3251
5.09319675185512	5.484245	2.3418465
5.110740884851836	5.540893	2.3539102
5.128285137724894	5.507316	2.3467672
5.145829510888007	5.3625474	2.3157175
5.163374004754908	5.2555814	2.2925055
5.1809186197393595	5.195294	2.2793188
5.198463356255145	5.263059	2.2941358
5.216008214716077	5.3768816	2.3188105
5.233553195535998	5.403934	2.3246362
5.251098299128764	5.394023	2.3225036
5.268643525908272	5.27097	2.2958593
5.286188876288432	5.2514825	2.2916114
5.3037343506831895	5.2677126	2.2951498
5.32127994950651	5.3103642	2.3044229
5.3388256731723915	5.3781466	2.3190832
5.356371522094851	5.3967257	2.3230853
5.373917496687938	5.3324533	2.3092105
5.391463597365729	5.3883076	2.3212729
5.40900982454232	5.3350983	2.3097832
5.426556178631843	5.395068	2.3227286
5.444102660048449	5.379916	2.3194647
5.4616492692063225	5.3450346	2.311933
5.479196006519669	5.3340206	2.3095498
5.496742872402727	5.2324014	2.2874444
5.514289867269756	5.2219877	2.285167
5.531836991535049	5.168738	2.273486
5.549384245612924	5.1828537	2.2765882
5.566931629917724	5.195197	2.2792976
5.584479144863822	5.210688	2.2826931
5.6020267908656205	5.1995873	2.2802603
5.619574568337545	5.2105546	2.2826638
5.637122477694054	5.200549	2.2804713
5.654670519349629	5.189811	2.2781157
5.672218693718784	5.1570463	2.2709131
5.689767001216059	5.1930084	2.2788174
5.707315442256021	5.1880403	2.277727
5.724864017253266	5.1719794	2.2741985
5.7424127266224225	5.207638	2.2820249
5.75996157077814	5.1419635	2.2675898
5.777510550135105	5.1744337	2.274738
5.795059665108022	5.172754	2.2743688
5.812608916111639	5.2814574	2.2981422
5.830158303560715	5.44509	2.3334715
5.847707827870055	5.4279695	2.3298004
5.86525748945448	5.4657984	2.3379047
5.8828072887288485	5.4237757	2.3289
5.900357226108044	5.5177116	2.348981
5.917907302006979	5.588046	2.363905
5.9354575168406	6.1571317	2.4813569
5.9530078710238765	6.7646775	2.6008995
5.970558364971812	7.245854	2.6918123
5.988108999099438	7.605558	2.7578175
6.005659773821818	8.213545	2.8659282
6.023210689554039	7.9963717	2.8277857
6.040761746711227	8.426847	2.9029033
6.058312945708531	7.752902	2.7844033
6.075864286961132	7.3046947	2.70272
6.093415770884244	6.6754847	2.583696
6.1109673978931065	6.1947627	2.488928
6.128519168402993	5.641684	2.375223
6.146071082829204	5.468062	2.3383887
6.163623141587075	5.302309	2.3026743
6.181175345091969	5.2635784	2.294249
6.198727693759281	5.3234997	2.307271
6.216280188004435	5.356405	2.314391
6.233832828242885	5.2964544	2.3014028
6.251385614890126	5.300205	2.3022175
6.268938548361669	5.2573514	2.2928915
6.286491629073067	5.2531986	2.2919858
6.304044857439898	5.1763034	2.275149
6.321598233877777	5.1465316	2.268597
6.339151758802344	5.1251116	2.263871
6.356705432629277	5.120902	2.2629411
6.37425925577428	5.116613	2.2619932
6.391813228653095	5.0917525	2.2564912
6.409367351681486	5.0697193	2.2516036
6.426921625275259	5.025324	2.2417233
6.44447604985025	5.01159	2.2386582
6.46203062582232	4.988055	2.2333953
6.47958535360737	4.9833713	2.2323465
6.497140233621328	4.9994717	2.2359498
6.514695266280161	5.031007	2.2429905
6.532250451999859	5.0523133	2.2477353
6.549805791196454	5.16099	2.2717812
6.567361284286002	5.1575093	2.271015
6.584916931684597	5.1068497	2.259834
6.602472733808367	4.987641	2.2333026
6.6200286910734665	4.9684052	2.228992
6.637584803896092	5.022886	2.2411795
6.655141072692462	4.9962864	2.2352374
6.672697497878842	4.997798	2.2355754
6.690254079871514	5.0354643	2.243984
6.707810819086808	5.052762	2.247835
6.725367715941078	4.9936113	2.234639
6.742924770850719	4.996263	2.235232
6.760481984232151	4.9833713	2.2323465
6.778039356501836	5.0057893	2.2373621
6.795596888076266	4.969208	2.229172
6.813154579371963	4.9754705	2.2305763
6.830712430805492	4.9925113	2.234393
6.84827044279344	4.9902816	2.2338939
6.865828615752445	4.9569154	2.226413
6.883386950099159	4.9659014	2.2284303
6.900945446250287	5.0009856	2.2362883
6.918504104622553	5.064038	2.2503417
6.936062925632727	5.096345	2.2575085
6.953621909697607	5.113257	2.2612512
6.971181057234028	5.1162972	2.2619233
6.988740368658859	5.1199436	2.2627292
7.006299844389007	5.175032	2.2748697
7.023859484841407	5.271567	2.2959893
7.041419290433036	5.4032726	2.3244941
7.058979261580902	5.5087743	2.3470778
7.0765393987020495	5.7518644	2.3983045
7.094099702213559	6.0683427	2.4634006
7.111660172532549	6.3509946	2.520118
7.129220810076164	6.7716217	2.602234
7.146781615261595	7.543818	2.746601
7.16434258850606	7.849477	2.8016918
7.181903730226821	8.341094	2.8880951
7.1994650408411704	8.370055	2.8931048
7.217026520766437	8.490368	2.9138236
7.234588170419983	8.709367	2.9511635
7.252149990219215	8.563615	2.9263654
7.269711980581568	8.404145	2.8989904
7.2872741419245175	8.154699	2.8556435
7.304836474665574	7.738253	2.7817717
7.322398979222286	7.44538	2.7286224
7.339961656012233	7.136057	2.67134
7.357524505453039	6.818212	2.6111705
7.375087527962357	6.56381	2.5619934
7.392650723957886	6.3601985	2.5219433
7.410214093857353	6.048009	2.45927
7.427777638078528	5.8591156	2.420561
7.445341357039213	5.6684303	2.3808465
7.4629052511572525	5.4441524	2.3332708
7.480469320850524	5.3570075	2.314521
7.498033566536948	5.281653	2.2981846
7.5155979886344735	5.2718434	2.2960496
7.5331625875610975	5.3026557	2.3027496
7.550727363734844	5.2968245	2.3014832
7.568292317573788	5.245573	2.2903216
7.585857449496025	5.2231026	2.285411
7.603422759919705	5.154812	2.270421
7.620988249263007	5.1412034	2.2674222
7.638553917944147	5.2281046	2.286505
7.656119766381391	5.2785854	2.2975173
7.673685794993023	5.3101544	2.3043773
7.691252004197388	5.280095	2.2978458
7.70881839441285	5.264868	2.29453
7.726384966057826	5.223218	2.2854362
7.743951719550762	5.2082934	2.2821686
7.761518655310149	5.2078743	2.2820768
7.779085773754511	5.2562685	2.2926552
7.796653075302419	5.2838345	2.2986593
7.814220560372475	5.3054276	2.3033514
7.831788229383323	5.358416	2.3148253
7.8493560827536495	5.320296	2.3065767
7.866924120902174	5.307373	2.3037736
7.884492344247663	5.3216577	2.306872
7.9020607532089135	5.376681	2.318767
7.919629348204771	5.419514	2.327985
7.937198129654115	5.4528275	2.335129
7.954767097975865	5.4047046	2.3248022
7.972336253588986	5.337085	2.310213
7.989905596912472	5.3097243	2.3042839
8.007475128365371	5.3541307	2.3138995
8.025044848366756	5.3821106	2.3199377
8.042614757335754	5.4747376	2.3398156
8.060184855691523	5.5500445	2.3558533
8.07775514385327	5.7109966	2.389769
8.095325622240228	5.8113313	2.4106703
8.112896291271687	5.8515882	2.4190056
8.130467151366968	5.951652	2.4396007
8.148038202945436	6.0273156	2.4550593
8.165609446426497	6.020189	2.4536073
8.183180882229594	6.045691	2.4587986
8.200752510774217	6.0559716	2.4608884
8.218324332479893	6.108961	2.4716313
8.235896347766193	6.006006	2.4507153
8.253468557052724	5.9215455	2.4334226
8.27104096075914	5.968011	2.4429512
8.288613559305137	6.084857	2.4667504
8.306186353110448	6.1458774	2.479088
8.32375934259485	6.234827	2.4969635
8.341332528178162	6.268616	2.5037205
8.358905910280246	6.383625	2.5265837
8.376479489321003	6.357258	2.5213604
8.394053265720377	6.3643556	2.5227675
8.411627239898356	6.312535	2.5124757
8.42920141227497	6.3199644	2.513954
8.44677578327029	6.264189	2.5028362
8.464350353304427	6.2406325	2.4981258
8.48192512279754	6.176381	2.4852326
8.499500092169827	6.1896086	2.4878924
8.51707526184153	6.201922	2.4903657
8.534650632232934	6.25114	2.500228
8.552226203764365	6.2324176	2.496481
8.569801976856192	6.193553	2.488685
8.587377951928834	6.217671	2.4935257
8.60495412940274	6.2647886	2.502956
8.622530509698416	6.357425	2.5213935
8.6401070932364	6.4919753	2.5479355
8.657683880437283	6.6770205	2.5839932
8.675260871721695	6.8598766	2.6191366
8.692838067510303	6.9572687	2.6376636
8.710415468223834	7.1216345	2.6686392
8.727993074283043	7.2551007	2.6935294
8.745570886108737	7.221695	2.6873212
8.763148904121765	7.2086577	2.6848943
8.78072712874302	7.1911983	2.6816409
8.798305560393441	7.485819	2.7360225
8.815884199494006	7.6279964	2.7618828
8.833463046465745	7.8187532	2.7962034
8.851042101729728	7.907483	2.8120248
8.86862136570707	8.281943	2.8778365
8.886200838818924	8.425127	2.902607
8.903780521486505	8.494531	2.914538
8.921360414131055	8.555041	2.9249003
8.938940517173874	8.624279	2.9367123
8.956520831036297	8.782933	2.9636014
8.97410135613971	8.999575	2.9999292
8.99168209290554	9.262066	3.0433643
9.009263041755265	9.59896	3.098219
9.026844203110405	9.84955	3.1383994
9.044425577392525	9.899763	3.146389
9.062007165023239	9.932146	3.1515307
9.079588966424197	10.209769	3.195273
9.097170982017108	10.259757	3.2030857
9.11475321222372	11.170411	3.3422165
9.132335657465825	12.022687	3.4673746
9.149918318165264	12.251849	3.5002642
9.167501194743924	12.886012	3.5897093
9.18508428762374	12.6235075	3.5529575
9.202667597226693	12.53983	3.5411623
9.220251123974803	12.107789	3.4796247
9.237834868290143	11.826842	3.4390175
9.255418830594836	11.576426	3.4024146
9.273003011311046	11.157567	3.3402944
9.290587410860985	10.953463	3.3096015
9.308172029666911	10.354215	3.2177966
9.32575686815113	10.066979	3.1728504
9.343341926735997	8.833512	2.9721224
9.360927205843916	8.613148	2.9348164
9.378512705897327	8.466093	2.909655
9.396098427318728	8.200825	2.8637083
9.413684370530664	8.069287	2.8406491
9.431270535955722	7.907927	2.8121037
9.448856924016539	7.817927	2.7960556
9.466443535135806	7.7954297	2.7920296
9.484030369736251	7.816929	2.7958772
9.501617428240658	7.8414106	2.800252
9.519204711071852	7.859397	2.8034616
9.536792218652714	7.878796	2.8069193
9.55437995140617	7.836592	2.7993915
9.571967909755191	7.8723	2.805762
9.589556094122802	7.8641047	2.804301
9.60714450493207	7.9029627	2.811221
9.624733142606116	7.944138	2.8185349
9.642322007568108	8.036045	2.834792
9.659911100241267	8.088385	2.8440084
9.677500421048851	8.120225	2.8496008
9.695089970414175	8.120272	2.8496091
9.712679748760609	8.122522	2.850004
9.730269756511557	8.184384	2.8608363
9.747859994090492	8.224261	2.8677974
9.765450461920915	8.231931	2.8691342
9.78304116042639	8.281117	2.8776932
9.800632090030527	8.312696	2.8831747
9.81822325115699	8.322318	2.8848429
9.835814644229481	8.261418	2.8742683
9.853406269671762	8.267625	2.8753479
9.870998127907646	8.254202	2.8730128
9.888590219360985	8.369249	2.8929656
9.906182544455698	8.441708	2.9054618
9.923775103615734	8.477758	2.911659
9.941367897265108	8.506874	2.9166546
9.958960925827878	8.307835	2.8823314
9.97655418972816	8.209007	2.8651366
9.994147689390106	8.206765	2.8647451
10.011741425237934	8.256824	2.8734689
10.029335397695904	8.309224	2.8825724
10.04692960718833	8.330903	2.8863304
10.06452405413958	8.322195	2.8848214
10.082118738974064	8.255675	2.873269
10.099713662116246	8.19253	2.8622596
10.117308823990651	8.178836	2.8598664
10.134904225021844	8.150755	2.8549528
10.152499865634445	8.228814	2.868591
10.170095746253125	8.150882	2.854975
10.18769186730261	8.205189	2.86447
10.205288229207675	8.168827	2.858116
10.222884832393145	8.197369	2.8631048
10.2404816772839	8.230102	2.8688154
10.258078764304868	8.235453	2.8697479
10.275676093881035	8.17821	2.859757
10.293273666437438	8.088225	2.8439806
10.310871482399158	8.091413	2.8445408
10.32846954219134	8.065447	2.839973
10.346067846239173	8.169922	2.8583076
10.363666394967908	8.155022	2.8556998
10.38126518880283	8.216525	2.8664482
10.398864228169298	8.199837	2.8635356
10.416463513492713	8.206667	2.864728
10.434063045198531	8.140424	2.8531427
10.451662823712262	8.179546	2.8599906
10.469262849459467	8.279113	2.8773448
10.486863122865758	8.2888	2.8790276
10.504463644356806	8.328603	2.885932
10.522064414358338	8.143166	2.8536232
10.539665433296118	7.9982767	2.8281224
10.557266701595987	7.822405	2.7968562
10.574868219683818	7.688965	2.7728982
10.592469987985552	7.6616845	2.7679749
10.610072006927185	7.5368953	2.7453406
10.627674276934751	7.45294	2.7300074
10.64527679843435	7.395825	2.7195265
10.662879571852143	7.3261423	2.7066848
10.680482597614331	7.2319217	2.6892233
10.698085876147173	7.06063	2.6571846
10.715689407876988	7.0027924	2.6462789
10.733293193230146	6.985177	2.6429486
10.750897232633072	6.929636	2.63242
10.76850152651225	6.7715254	2.6022155
10.786106075294207	6.628991	2.5746827
10.803710879405534	6.514534	2.5523586
10.821315939272877	6.380038	2.5258737
10.83892125532294	6.323113	2.51458
10.856526827982472	6.296514	2.5092854
10.874132657678285	6.2738843	2.5047722
10.891738744837243	6.1880655	2.4875822
10.909345089886271	6.110961	2.472036
10.926951693252343	6.098804	2.4695756
10.944558555362494	6.1320443	2.4762964
10.96216567664381	6.1030626	2.4704378
10.979773057523436	6.0002675	2.4495444
10.997380698428573	5.9384217	2.4368877
11.014988599786477	5.848898	2.4184494
11.032596762024461	5.794452	2.407167
11.050205185569892	5.6376624	2.3743763
11.067813870850198	5.530893	2.351785
11.085422818292859	5.480789	2.3411086
11.10303202832541	5.4535227	2.3352778
11.120641501375454	5.4106884	2.3260887
11.138251237870636	5.3591876	2.314992
11.155861238238671	5.304148	2.3030736
11.173471502907317	5.193377	2.2788982
11.191082032304402	5.1412706	2.267437
11.208692826857805	5.0862393	2.2552693
11.226303886995465	4.9760685	2.2307103
11.243915213145371	4.928388	2.2199974
11.261526805735578	4.9659553	2.2284424
11.279138665194196	4.946439	2.224059
11.296750791949393	4.8352647	2.1989236
11.314363186429393	4.772117	2.1845176
11.331975849062479	4.7244196	2.173573
11.34958878027699	4.702844	2.1686041
11.36720198050133	4.6495504	2.1562817
11.384815450163948	4.5697064	2.1376872
11.402429189693366	4.506003	2.1227348
11.420043199518153	4.463632	2.112731
11.437657480066942	63.377087	7.960973
11.455272031768422	85.088745	9.224356
11.472886855051353	107.46974	10.366761
11.490501950344528	99.11741	9.955772
11.508117318076819	84.52457	9.193725
11.52573295867715	45.960537	6.77942
11.543348872574514	4.297485	2.0730376
11.560965060197946	4.1647706	2.040777
11.57858152197655	4.0527987	2.0131564
11.59619825833949	3.990677	1.9976679
11.613815269715985	3.9908295	1.997706
11.631432556535323	38.512386	6.205835
11.649050119226837	83.05843	9.11364
11.666667958219929	93.458145	9.667376
11.68428607394406	107.715	10.378584
11.701904466828756	82.466736	9.08112
11.719523137303586	65.27614	8.079365
11.737142085798196	4.5322995	2.1289198
11.754761312742286	3.6708574	1.9159482
11.772380818565619	3.650158	1.9105387
11.790000603698015	3.6537821	1.9114869
11.80762066856935	3.6491477	1.9102743
11.825241013609572	3.659262	1.9129198
11.842861639248683	3.6209385	1.9028764
11.860482545916748	3.5467334	1.8832773
11.878103734043883	3.5149686	1.874825
11.895725204060282	3.4865403	1.867228
11.91334695639619	3.4841313	1.8665828
11.930968991481919	3.4599044	1.8600818
11.948591309747824	3.3742485	1.8369128
11.966213911624347	3.3203409	1.8221803
11.98383679754198	3.3111007	1.819643
12.001459967931268	3.349363	1.8301265
12.019083423222835	3.3526142	1.8310145
12.036707163847352	3.2963526	1.815586
12.05433119023556	3.224486	1.7956854
12.071955502818259	3.1900346	1.7860668
12.089580102026313	3.1767166	1.7823346
12.107204988290643	3.161504	1.7780619
12.12483016204224	3.1662376	1.7793925
12.142455623712152	3.1606834	1.7778311
12.16008137373149	3.1474195	1.7740968
12.177707412531431	3.128058	1.7686317
12.19533374054321	3.110379	1.7636267
12.212960358198126	3.0648541	1.7506725
12.230587265927545	3.0446763	1.7449001
12.248214464162889	3.027602	1.7400006
12.265841953335649	3.0052657	1.7335702
12.283469733877375	2.947163	1.7167304
12.301097806219685	2.923098	1.709707
12.31872617079425	2.9593542	1.7202773
12.336354828032825	2.9963865	1.7310073
12.353983778367205	3.0040896	1.733231
12.371613022229262	2.944692	1.7160105
12.389242560050928	2.9161196	1.707665
12.406872392264201	2.9573758	1.7197022
12.424502519301143	2.9842772	1.727506
12.442132941593874	2.9398544	1.7146003
12.459763659574586	2.8664525	1.69306
12.477394673675532	2.8314826	1.682701
12.49502598432903	2.7959278	1.6721028
12.51265759196746	2.795457	1.671962
12.530289497023267	2.7935154	1.6713814
12.547921699928967	2.7850466	1.6688459
12.565554201117134	2.7653127	1.662923
12.583187001020404	2.7421155	1.6559334
12.600820100071486	2.7725549	1.665099
12.618453498703152	2.7748806	1.6657974
12.636087197348235	2.7607117	1.661539
12.65372119643964	2.7577374	1.6606437
12.671355496410326	2.757919	1.6606984
12.68899009769333	2.8261778	1.681124
12.706625000721749	2.8732846	1.6950766
12.724260205928752	2.9578817	1.7198493
12.741895713747551	2.9870505	1.7283086
12.759531524611454	2.9963703	1.7310027
12.777167638953818	3.002778	1.7328526
12.794804057208072	3.0178819	1.7372051
12.812440779807702	3.1184483	1.7659129
12.830077807186271	3.2838626	1.8121431
12.847715139777405	3.302331	1.8172317
12.865352778014795	3.4624896	1.8607767
12.882990722332197	3.5553362	1.8855599
12.90062897316344	3.625739	1.9041374
12.918267530942412	3.7169704	1.9279447
12.935906396103071	3.6275125	1.904603
12.953545569079449	3.7860682	1.9457822
12.971185050305628	3.6323726	1.9058784
12.988824840215775	3.6831863	1.9191629
13.006464939244115	3.6899962	1.9209363
13.024105347824943	3.526177	1.8778118
13.041746066392617	3.582144	1.8926553
13.05938709538157	3.3769374	1.8376446
13.077028435226296	3.3841124	1.8395957
13.094670086361363	3.3012435	1.8169324
13.112312049221401	3.2053893	1.7903601
13.129954324241112	3.0912697	1.7582008
13.147596911855258	2.8901508	1.7000444
13.165239812498685	2.8750165	1.6955874
13.182883026606293	2.8432193	1.6861849
13.200526554613058	2.7900975	1.6703585
13.218170396954017	2.7692306	1.6641005
13.235814554064284	2.7283204	1.6517628
13.253459026379034	2.6896043	1.6400013
13.271103814333523	2.6569657	1.6300201
13.288748918363058	2.6844976	1.6384437
13.306394338903031	2.7356381	1.6539764
13.32404007638889	2.7197597	1.6491694
13.341686131256164	2.7124114	1.64694
13.359332503940449	2.6871345	1.6392481
13.376979194877402	2.695555	1.6418146
13.394626204502751	2.681325	1.6374751
13.412273533252307	2.6859562	1.6388887
13.429921181561937	2.6565182	1.6298829
13.447569149867581	2.7189426	1.6489216
13.465217438605247	2.721337	1.6496476
13.482866048211022	2.69052	1.6402805
13.500514979121052	2.6647477	1.6324055
13.518164231771568	2.6605167	1.631109
13.535813806598844	2.70918	1.6459588
13.553463704039254	2.7287319	1.6518874
13.571113924529229	2.7007604	1.643399
13.588764468505275	2.678056	1.6364768
13.606415336403956	2.714043	1.6474353
13.624066528661917	2.7669897	1.6634271
13.641718045715882	2.8620887	1.6917709
13.659369888002635	2.8858194	1.6987699
13.67702205595903	2.9398386	1.7145958
13.694674550021993	3.0142045	1.7361465
13.712327370628532	3.1078868	1.7629199
13.729980518215713	3.1532984	1.7757529
13.747633993220681	3.200099	1.788882
13.765287796080647	3.2478476	1.8021785
13.7829419272329	3.2970417	1.8157758
13.800596387114801	3.3129392	1.8201481
13.818251176163775	3.326772	1.8239441
13.835906294817324	3.4130228	1.8474368
13.853561743513023	3.443021	1.8555379
13.871217522688525	3.4567728	1.8592398
13.888873632781538	3.472161	1.8633735
13.906530074229858	3.5424085	1.8821287
13.92418684747135	3.579511	1.8919595
13.941843952943948	3.563806	1.8878045
13.959501391085665	3.4860399	1.8670939
13.977159162334578	3.410295	1.8466984
13.994817267128846	3.3773274	1.8377507
14.012475705906693	3.3173416	1.821357
14.030134479106424	3.2404583	1.8001273
14.047793587166414	3.1536548	1.7758533
14.065453030525108	3.1233332	1.7672955
14.083112809621026	3.082242	1.7556316
14.100772924892766	3.0030549	1.7329324
14.118433376778997	2.953121	1.7184647
14.136094165718458	2.8374972	1.6844872
14.153755292149969	2.7619312	1.6619059
14.171416756512416	2.6790807	1.6367898
14.189078559244768	2.6402457	1.6248833
14.20674070078606	2.6143205	1.616886
14.224403181575408	2.5896294	1.6092325
14.242066002051999	2.5459986	1.5956186
14.259729162655093	2.493976	1.5792328
14.277392663824022	2.4848166	1.5763301
14.295056505998208	2.4750526	1.57323
14.312720689617128	2.4485745	1.5647922
14.330385215120348	2.4416442	1.5625762
14.348050082947497	2.4143028	1.5538027
14.3657152935383	2.4293892	1.5586498
14.383380847332528	2.3900185	1.5459684
14.401046744770051	2.384052	1.5440376
14.418712986290798	2.3641007	1.5375632
14.436379572334793	2.3757436	1.5413448
14.454046503342123	2.4191656	1.5553668
14.471713779752946	2.4106078	1.5526133
14.489381402007504	2.3812375	1.5431259
14.507049370546113	2.3572807	1.5353439
14.524717685809168	2.3587928	1.5358362
14.542386348237134	2.3710446	1.5398197
14.560055358270553	2.389323	1.5457435
14.577724716350051	2.432533	1.5596579
14.595394422916325	2.4309201	1.5591408
14.61306447841015	2.4905167	1.578137
14.63073488327237	2.5301857	1.5906558
14.648405637943917	2.560925	1.600289
14.6660767428658	2.5138257	1.5855049
14.683748198479094	2.5235028	1.5885537
14.701420005224954	2.5433967	1.594803
14.719092163544628	2.6373842	1.6240026
14.73676467387942	2.6824162	1.6378083
14.754437536670727	2.682799	1.6379253
14.772110752360014	2.7127452	1.6470413
14.78978432138882	2.7023573	1.6438848
14.807458244198777	2.7258656	1.6510196
14.82513252123159	2.690781	1.64036
14.842807152929028	2.6832323	1.6380575
14.860482139732962	2.658452	1.630476
14.87815748208531	2.6695492	1.6338755
14.8958331804281	2.6995628	1.6430346
14.91350923520342	2.6446624	1.6262418
14.931185646853438	2.6547313	1.6293346
14.948862415820408	2.6520565	1.6285136
14.966539542546656	2.7004464	1.6433035
14.98421702747459	2.6625128	1.6317208
15.001894871046696	2.6588995	1.6306132
15.019573073705542	2.6597834	1.6308842
15.037251635893766	2.6375616	1.6240572
15.054930558054092	2.6824775	1.637827
15.072609840629323	2.7400455	1.6553082
15.090289484062351	2.875347	1.6956848
15.107969488796124	3.1497543	1.7747548
15.125649855273691	3.5667627	1.8885875
15.14333058393817	4.0925293	2.023
15.161011675232768	5.0842314	2.254824
15.17869312960076	6.4821415	2.546005
15.196374947485506	8.398836	2.8980746
15.214057129330447	11.639819	3.411718
15.231739675579114	16.4397	4.0545897
15.249422586675102	21.436356	4.629941
15.267105863062092	24.188292	4.9181595
15.284789505183847	24.134003	4.912637
15.302473513484218	21.89145	4.67883
15.320157888407127	18.440699	4.2942634
15.337842630396578	14.3782015	3.7918599
15.355527739896656	11.151466	3.3393812
15.37321321735153	8.644723	2.940191
15.39089906320545	6.2941613	2.5088167
15.408585277902748	4.7323246	2.1753907
15.42627186188783	3.7164414	1.9278075
15.443958815605198	3.2291403	1.7969809
15.461646139499424	2.9479828	1.716969
15.479333834015168	2.78427	1.6686132
15.497021899597165	2.7490504	1.6580261
15.514710336690234	2.7136905	1.6473283
15.53239914573928	2.6747055	1.6354527
15.550088327189297	2.6145241	1.616949
15.567777881485336	2.5824914	1.6070132
15.58546780907256	2.5516157	1.5973778
15.6031581103962	2.5279484	1.5899523
15.620848785901568	2.4926941	1.5788268
15.638539836034063	2.4609294	1.568735
15.656231261239173	2.4506028	1.5654402
15.673923061962451	2.413384	1.553507
15.691615238649552	2.379679	1.5426208
15.709307791746202	2.3953948	1.5477062
15.727000721698221	2.4096792	1.5523142
15.744694028951498	2.4102194	1.5524881
15.76238771395202	2.41203	1.5530711
15.780081777145844	2.4420483	1.5627054
15.797776218979125	2.4084523	1.5519189
15.815471039898094	2.3641021	1.5375637
15.833166240349064	2.3761094	1.5414634
15.850861820778437	2.3993273	1.5489762
15.868557781632699	2.4082494	1.5518535
15.886254123358412	2.3834686	1.5438486
15.903950846402232	2.3569136	1.5352243
15.921647951210897	2.366573	1.538367
15.939345438231225	2.3852558	1.5444274
15.957043307910133	2.3970006	1.5482249
15.974741560694602	2.3875287	1.545163
15.992440197031714	2.3735793	1.5406425
16.01013921736862	2.371052	1.5398221
16.02783862215259	2.3889115	1.5456104
16.045538411830933	2.4101954	1.5524803
16.06323858685107	2.4046345	1.5506884
16.080939147660512	2.4046924	1.5507071
16.09864009470684	2.3937528	1.5471758
16.11634142843774	2.3954718	1.5477312
16.134043149300954	2.4087672	1.5520203
16.15174525774433	2.46092	1.568732
16.169447754215817	2.4893422	1.577765
16.18715063916342	2.4848413	1.5763379
16.204853913035244	2.4633517	1.5695069
16.222557576279478	2.4400828	1.5620764
16.240261629344403	22.403894	4.7332754
16.257966072678386	42.934048	6.5524077
16.275670906729868	38.0671	6.169854
16.293376131947387	2.499889	1.5811037
16.31108174877957	2.5468082	1.5958723
16.328787757675133	2.58464	1.6076815
16.34649415908287	2.6065774	1.6144898
16.364200953451657	2.6117527	1.6160918
16.38190814123048	2.6604006	1.6310735
16.39961572286839	2.7033179	1.644177
16.41732369881455	2.7078722	1.6455613
16.43503206951817	2.712256	1.6468928
16.45274083542859	2.7690754	1.6640539
16.47044999699522	2.8139656	1.6774879
16.488159554667558	2.8404233	1.6853555
16.505869508895184	2.8698213	1.6940547
16.523579860127786	2.9261293	1.7105932
16.541290608815117	2.996184	1.7309489
16.559001755407035	3.0456405	1.7451763
16.57671330035348	3.0653698	1.7508198
16.59442524410448	3.0814555	1.7554075
16.61213758711015	3.1457224	1.7736185
16.629850329820705	3.2230332	1.7952808
16.647563472686436	3.2858987	1.8127048
16.665277016157724	3.3476002	1.8296448
16.682990960685053	3.4392571	1.8545234
16.70070530671898	3.492175	1.8687363
16.718420054710155	3.500177	1.870876
16.736135205109335	3.5339255	1.8798738
16.753850758367335	3.5957708	1.8962518
16.771566714935087	3.662638	1.9138019
16.789283075263597	3.7139175	1.9271526
16.80699983980398	3.757153	1.9383377
16.82471700900741	3.8329	1.9577794
16.84243458332518	3.871956	1.9677286
16.860152563208665	3.9295275	1.9823036
16.87787094910932	3.991176	1.9977927
16.89558974147871	4.071991	2.0179174
16.913308940768466	4.2033377	2.0502043
16.931028547430333	4.293489	2.0720737
16.94874856191613	4.374646	2.0915654
16.966468984677785	4.382151	2.0933588
16.98418981616729	4.4256673	2.103727
17.00191105683676	4.4681225	2.1137934
17.019632707138374	4.489203	2.118774
17.03735476752442	4.519794	2.1259806
17.05507723844728	4.586116	2.141522
17.072800120359403	4.6439037	2.1549718
17.090523413713353	4.6248207	2.1505396
17.108247118961785	4.5995946	2.1446664
17.125971236557437	4.692657	2.166254
17.143695766953133	4.7563114	2.180897
17.161420710601806	4.7870884	2.1879416
17.179146067956477	4.736125	2.176264
17.19687183947025	4.689661	2.1655626
17.21459802559634	4.614512	2.1481416
17.232324626788028	4.609878	2.1470628
17.25005164349871	4.6289587	2.1515014
17.267779076181863	4.6474776	2.1558008
17.285506925291074	4.630041	2.151753
17.30323519127999	4.6011405	2.145027
17.320963874602384	4.5985365	2.14442
17.33869297571211	4.6016774	2.145152
17.356422495063114	4.60204	2.1452365
17.37415243310944	4.57455	2.1388197
17.391882790305218	4.5068564	2.1229358
17.40961356710468	4.466101	2.113315
17.42734476396215	4.4806123	2.1167457
17.445076381332044	4.5664353	2.136922
17.462808419668868	4.682768	2.1639705
17.48054087942723	4.8074656	2.1925933
17.498273761061835	5.0624685	2.249993
17.51600706502747	5.516824	2.348792
17.533740791779024	6.2650375	2.5030057
17.551474941771485	7.7487617	2.7836597
17.56920951545993	8.901221	2.9834914
17.586944513299528	11.063248	3.3261461
17.60467993574556	12.6563225	3.5575726
17.622415783253373	14.209578	3.7695594
17.64015205627843	15.46481	3.9325323
17.657888755276293	16.488821	4.0606427
17.675625880702604	16.939793	4.115798
17.69336343301311	16.703707	4.087017
17.71110141266366	15.985502	3.9981873
17.728839820110178	15.220772	3.9013808
17.746578655808705	14.505312	3.808584
17.764317920215372	13.132396	3.6238647
17.7820576137864	11.588387	3.404172
17.79979773697811	9.455402	3.0749638
17.81753829024692	7.4644012	2.7321057
17.835279274049356	5.736536	2.3951068
17.85302068884201	4.7601304	2.1817722
17.870762535081607	4.1663446	2.0411625
17.888504813224934	3.866278	1.9662853
17.90624752372891	3.6767926	1.9174964
17.923990667050536	3.5928395	1.8954787
17.941734243646895	3.4798985	1.8654486
17.959478253975185	3.4814186	1.865856
17.9772226984927	3.4532206	1.8582844
17.994967577656833	3.4571967	1.8593539
18.01271289192506	3.430966	1.8522867
18.030458641754965	3.4076142	1.8459724
18.04820482760425	3.3905706	1.8413502
18.06595144993067	3.3725681	1.8364553
18.083698509192125	3.3127537	1.8200972
18.101446005846576	3.3020236	1.8171471
18.119193940352105	3.2935832	1.8148232
18.136942313166887	3.2845209	1.8123248
18.1546911247492	3.2426233	1.8007286
18.1724403755574	3.1862967	1.7850201
18.19019006604997	3.1713943	1.7808409
18.207940196685467	3.156281	1.7765925
18.225690767922575	3.1603572	1.7777394
18.243441780220046	3.1688051	1.7801138
18.261193234036764	3.1653671	1.7791479
18.278945129831676	3.1416678	1.772475
18.29669746806386	3.0936654	1.7588818
18.314450249192483	3.028019	1.7401204
18.3322034736768	2.9803312	1.7263635
18.349957141976184	2.9856253	1.7278962
18.3677112545501	3.0312247	1.7410413
18.385465811858108	3.0618331	1.7498095
18.403220814359884	3.0798798	1.7549586
18.420976262515172	3.136763	1.771091
18.43873215678387	3.146559	1.7738543
18.456488497625923	3.1679916	1.7798853
18.474245285501407	3.210281	1.7917256
18.492002520870486	3.2836714	1.8120903
18.50976020419343	3.3732936	1.8366529
18.527518335930615	3.7241206	1.9297981
18.545276916542516	4.328905	2.0806022
18.563035946489688	4.501809	2.1217468
18.580795426232832	4.9157543	2.21715
18.598555356232698	4.763556	2.182557
18.616315736950185	5.0751386	2.252807
18.63407656884626	4.7477927	2.178943
18.65183785238201	5.03007	2.2427816
18.669599588018617	4.835885	2.1990645
18.68736177621737	4.8204346	2.1955488
18.705124417439652	4.7855783	2.1875966
18.72288751214696	4.5851693	2.141301
18.740651060800886	4.752665	2.1800609
18.758415063863115	4.4369373	2.1064038
18.77617952179546	4.560429	2.1355162
18.793944435059814	4.30956	2.075948
18.811709804118184	4.313558	2.0769107
18.829475629432675	4.2602587	2.0640395
18.8472419114655	4.056679	2.0141199
18.86500865067897	4.226506	2.055847
18.88277584753551	3.8851638	1.9710819
18.90054350249763	3.8704226	1.9673389
18.918311616027957	3.5013208	1.8711817
18.936080188589226	3.4057744	1.845474
18.953849220644265	3.096781	1.7597673
18.971618712656007	2.9070175	1.7049978
18.9893886650875	2.84893	1.6878773
19.007159078401887	8.00552	2.8294027
19.024929953062408	32.862446	5.732578
19.042701289532435	32.82716	5.729499
19.060473088275405	25.399357	5.0397773
19.07824534975489	2.6691885	1.6337651
19.096018074434568	2.5768487	1.6052566
19.113791262778197	2.534545	1.5920254
19.13156491524966	2.574412	1.6044974
19.149339032312945	2.613396	1.6166002
19.167113614432136	2.6134222	1.6166083
19.184888662071433	2.5608199	1.6002562
19.202664175695123	2.5546854	1.5983384
19.220440155767623	2.552393	1.5976211
19.238216602753447	2.532814	1.5914817
19.2559935171172	2.5140893	1.585588
19.27377089932361	2.484624	1.576269
19.291548749837514	2.5004547	1.5812826
19.309327069123835	2.5246227	1.5889062
19.32710585764763	2.5078282	1.5836124
19.344885115874032	2.4707801	1.5718715
19.362664844268313	2.4788506	1.5744365
19.380445043295822	2.5054743	1.582869
19.39822571342203	2.5372417	1.5928721
19.41600685511252	2.5470216	1.5959392
19.43378846883297	2.5103788	1.5844175
19.451570555049173	2.479143	1.5745294
19.469353114227037	2.4494522	1.5650725
19.48713614683254	2.4636972	1.5696169
19.50491965333182	2.468224	1.5710583
19.52270363419109	2.4940977	1.5792713
19.540488089876686	2.5160027	1.5861913
19.55827302085503	2.4874434	1.5771631
19.576058427592674	2.46858	1.5711715
19.593844310556282	2.485881	1.5766677
19.611630670212598	2.5077755	1.5835958
19.629417507028506	2.5467815	1.5958639
19.64720482147098	2.5622458	1.6007017
19.6649926140071	2.5465631	1.5957955
19.682780885104084	2.5112112	1.5846802
19.70056963522921	2.5004678	1.5812868
19.718358864849908	2.522494	1.5882361
19.7361485744337	2.501292	1.5815474
19.753938764448215	2.4715743	1.5721241
19.771729435361202	2.4636905	1.5696148
19.789520587640506	2.5075026	1.5835096
19.807312221754092	2.519403	1.5872627
19.825104338170043	2.5022492	1.5818499
19.842896937356517	2.495679	1.5797718
19.860690019781824	2.4706032	1.5718153
19.87848358591436	2.4917777	1.5785365
19.896277636222635	2.4884844	1.5774931
19.914072171175278	2.5386662	1.5933193
19.931867191241015	2.5182097	1.5868868
19.94966269688869	2.550473	1.59702
19.967458688587264	2.5330262	1.5915483
19.985255166805807	2.5278487	1.589921
20.00305213201348	2.4401197	1.5620883
20.020849584679578	2.4331594	1.5598588
20.038647525273507	2.426368	1.5576804
20.05644595426477	2.4433851	1.5631331
20.07424487212299	2.4652736	1.570119
20.092044279317903	2.4625053	1.5692372
20.109844176319353	2.4753225	1.5733157
20.127644563597304	2.4384863	1.5615654
20.145445441621817	2.4313455	1.5592772
20.16324681086307	2.4020886	1.5498673
20.181048671791373	2.4208946	1.5559224
20.198851024877122	2.426096	1.557593
20.216653870590836	2.4084468	1.5519171
20.234457209403146	2.415044	1.5540411
20.252261041784802	2.4005334	1.5493655
20.270065368206662	2.4070873	1.5514791
20.287870189139685	2.3979084	1.5485182
20.305675505054968	2.3875377	1.5451659
20.323481316423702	2.3774314	1.5418922
20.341287623717207	2.3736472	1.5406646
20.359094427406884	2.3557131	1.5348333
20.376901727964288	2.3564951	1.535088
20.39470952586107	2.3461373	1.5317106
20.41251782156899	2.3516967	1.5335243
20.430326615559935	2.3533611	1.5340669
20.448135908305886	2.3533216	1.5340539
20.465945700278965	2.3561358	1.534971
20.483755991951384	2.3565152	1.5350945
20.50156678379548	2.332995	1.5274144
20.519378076283708	2.3174589	1.5223203
20.537189869888635	2.347467	1.5321445
20.55500216508294	2.3734517	1.5406011
20.572814962339415	2.363378	1.5373282
20.59062826213098	2.3570926	1.5352826
20.60844206493066	2.351832	1.5335684
20.626256371211593	2.3529449	1.5339311
20.644071181447032	2.3280714	1.5258019
20.66188649611036	2.3486853	1.5325421
20.67970231567506	2.3540962	1.5343064
20.697518640614742	2.3656075	1.5380532
20.715335471403122	2.321756	1.5237309
20.73315280851404	2.3065093	1.5187196
20.750970652421447	2.3018162	1.5171738
20.768789003599412	2.3085449	1.5193896
20.786607862522136	2.2981813	1.5159754
20.8044272296639	2.2941551	1.5146469
20.82224710549913	2.2918265	1.513878
20.84006749050237	2.3056777	1.5184458
20.857888385148268	3.8250275	1.9557678
20.8757097899116	45.927994	6.7770195
20.893531705267254	64.79557	8.049569
20.911354131690224	83.81708	9.155167
20.92917706965566	69.08304	8.311621
20.94700051963877	50.126793	7.0800276
20.96482448211493	29.405878	5.4227185
20.982648957559622	4.1226945	2.030442
21.00047394644843	2.2676842	1.5058832
21.01829944925707	2.2753124	1.5084139
21.036125466461375	2.2630658	1.504349
21.053951998537297	2.2676759	1.5058805
21.071779045960906	2.2618825	1.5039556
21.089606609208378	2.2396343	1.4965408
21.10743468875603	2.21679	1.4888889
21.12526328508028	2.2214582	1.4904557
21.143092398657675	2.2405603	1.4968501
21.16092202996488	2.2246242	1.4915174
21.17875217947867	2.2036	1.4844527
21.19658284767596	2.196783	1.4821548
21.21441403503377	2.1751776	1.4748483
21.232245742029225	2.155164	1.4680477
21.2500779691396	2.1781132	1.4758432
21.26791071684227	2.2184002	1.4894295
21.28574398561475	2.2237356	1.4912195
21.30357777593465	2.199807	1.4831746
21.321412088279704	2.161342	1.4701504
21.339246923127792	2.1375027	1.46202
21.357082280956888	2.1209178	1.4563371
21.3749181622451	2.1305537	1.4596417
21.392754567470647	2.119238	1.4557602
21.41059149711187	2.1251922	1.4578038
21.42842895164726	2.1502702	1.46638
21.446266931555378	2.153941	1.4676311
21.464105437314945	2.145092	1.4646133
21.481944469404798	2.1145284	1.4541419
21.49978402830388	2.1275673	1.4586183
21.51762411449127	2.120198	1.45609
21.53546472844617	2.117672	1.4552222
21.553305870647876	2.0923247	1.4464871
21.571147541575865	2.0996468	1.4490159
21.58898974170967	2.1056724	1.4510936
21.60683247152899	2.122631	1.4569252
21.62467573151363	2.1176968	1.4552308
21.642519522143523	2.1158462	1.4545949
21.660363843898722	2.0967073	1.4480011
21.6782086972594	2.055961	1.4338622
21.696054082705864	2.0507228	1.4320345
21.713900000718535	2.0629942	1.4363127
21.73174645177795	2.0797005	1.4421166
21.749593436364794	2.063181	1.4363778
21.767440954959845	2.0516036	1.4323419
21.785289008044032	2.0516286	1.4323508
21.803137596098388	2.0539668	1.4331667
21.820986719604086	2.0524926	1.4326524
21.838836379042412	2.045945	1.4303653
21.85668657489478	2.0584104	1.4347161
21.87453730764273	2.0559225	1.4338489
21.892388577767914	2.0634253	1.4364628
21.91024038575213	2.02708	1.4237556
21.928092732077285	2.003819	1.4155631
21.945945617225426	1.9994642	1.4140241
21.963799041678694	2.0264227	1.4235247
21.981653005919398	31.364761	5.6004252
21.999507510429943	78.158424	8.840725
22.01736255569286	73.1208	8.55107
22.035218142190818	4.2396092	2.0590312
22.05307427040661	2.060504	1.4354455
22.07093094082315	2.0109768	1.4180892
22.088788153923474	2.0006764	1.4144527
22.106645910190746	1.9768689	1.4060117
22.12450421010827	1.9758857	1.4056621
22.142363054159464	1.9637479	1.4013379
22.16022244282787	1.9551005	1.3982491
22.178082376597164	1.9670439	1.4025134
22.195942855951145	1.963088	1.4011024
22.213803881373742	1.9575788	1.399135
22.231665453349002	1.9554894	1.3983881
22.24952757236111	1.9721754	1.4043416
22.26739023889438	1.9682374	1.4029388
22.28525345343323	1.9235313	1.3869143
22.30311721646225	1.914944	1.383815
22.320981528466113	1.9239011	1.3870476
22.33884638992964	1.9660757	1.4021682
22.356711801337788	1.9801167	1.4071662
22.37457776317561	1.9818512	1.4077824
22.392444275928337	1.9747634	1.4052627
22.410311340081282	1.9895095	1.4104997
22.428178956119904	1.9846644	1.4087812
22.446047124529805	1.9846793	1.4087865
22.46391584579669	1.9258618	1.3877542
22.481785120406414	1.9161749	1.3842597
22.49965494884496	1.9053919	1.3803593
22.51752533159841	1.9179308	1.3848938
22.53539626915302	1.9085053	1.3814867
22.553267761995137	1.9092621	1.3817605
22.571139810611264	1.9230072	1.3867254
22.589012415488025	1.9296135	1.3891053
22.60688557711216	1.9275992	1.38838
22.624759295970566	1.92862	1.3887476
22.642633572550263	1.9369245	1.3917344
22.660508407338362	1.948061	1.3957295
22.67838380082217	1.9497004	1.3963168
22.696259753489077	1.9456925	1.3948809
22.714136265826614	1.945859	1.3949405
22.73201333832246	1.9489462	1.3960466
22.74989097146439	1.9318621	1.3899144
22.76776916574035	1.8997263	1.3783056
22.785647921638393	1.8441166	1.3579825
22.803527239646712	1.8681756	1.3668122
22.82140712025363	1.9037459	1.379763
22.839287563947593	1.9551513	1.3982673
22.85716857121719	1.9402919	1.3929436
22.875050142551135	1.9357078	1.3912972
22.892932278438277	1.878871	1.3707192
22.910814979367604	1.8851217	1.3729973
22.928698245828222	1.871408	1.3679942
22.946582078309387	1.8793411	1.3708906
22.96446647730047	1.8730903	1.3686088
22.98235144329098	1.8953916	1.3767322
23.000236976770562	1.894999	1.3765897
23.018123078229	1.8838394	1.3725302
23.03600974815619	1.8768431	1.3699793
23.053896987042194	1.8685343	1.3669435
23.071784795377173	1.8941993	1.3762991
23.08967317365145	1.9340554	1.3907032
23.10756212235546	1.9463024	1.3950994
23.125451641979787	1.9293357	1.3890053
23.143341733015134	1.9072902	1.3810468
23.161232395952357	1.9069307	1.3809166
23.179123631282426	1.9182601	1.3850126
23.197015439496468	1.9524368	1.3972962
23.214907821085717	1.9921671	1.4114414
23.23280077654157	1.997628	1.4133747
23.250694306355538	1.9608428	1.400301
23.268588411019277	1.9488378	1.3960078
23.28648309102458	1.9625925	1.4009256
23.304378346863356	1.9551933	1.3982823
23.322274179027676	1.9149135	1.383804
23.340170588009723	1.8972517	1.3774076
23.358067574301852	1.9054664	1.3803864
23.37596513839651	1.9400022	1.3928397
23.39386328078629	1.931252	1.3896949
23.411762001963947	1.9391571	1.3925362
23.429661302422353	1.9223723	1.3864964
23.4475611826545	1.91805	1.3849368
23.46546164315356	1.9225442	1.3865584
23.48336268441279	1.9157065	1.3840905
23.501264306925638	1.8816872	1.3717461
23.51916651118564	1.8599284	1.363792
23.537069297686497	1.8839056	1.3725544
23.554972666922037	1.9482089	1.3957826
23.57287661938623	1.9754522	1.4055078
23.59078115557318	1.9570884	1.3989598
23.608686275977128	1.9532135	1.3975742
23.62659198109246	1.9155878	1.3840476
23.6444982714137	1.9104056	1.3821743
23.66240514743549	1.967033	1.4025096
23.68031260965263	2.0175054	1.4203892
23.698220658560068	1.9838867	1.4085051
23.716129294652845	1.9520686	1.3971645
23.7340385184262	1.9429257	1.3938887
23.75194833037546	1.927633	1.3883922
23.769858730996123	1.9229237	1.3866953
23.78776972078382	1.9202787	1.3857412
23.80568130023431	1.8998693	1.3783575
23.823593469843495	1.9102516	1.3821186
23.841506230107424	1.8989707	1.3780315
23.859419581522275	1.9196779	1.3855244
23.87733352458438	1.936679	1.3916461
23.89524805979019	1.9376515	1.3919955
23.913163187636318	1.9233775	1.3868588
23.931078908619508	1.9266895	1.3880525
23.948995223236633	1.9297326	1.3891481
23.966912131984735	1.9763453	1.4058255
23.98482963536096	2.0517955	1.4324089
24.002747733862616	2.067798	1.437984
24.020666427987155	2.097916	1.4484184
24.038585718232156	2.1196826	1.455913
24.056505605095353	2.150933	1.4666059
24.074426089074617	2.164434	1.4712015
24.092347170667946	2.140927	1.4631907
24.110268850373515	2.0834901	1.44343
24.128191128689586	2.0656486	1.4372364
24.146114006114626	2.0473957	1.4308723
24.164037483147187	2.0752866	1.4405855
24.181961560286005	2.071196	1.4391651
24.199886238029926	2.0126264	1.4186707
24.21781151687797	2.028985	1.4244244
24.235737397329274	2.0353518	1.4266576
24.253663879883135	2.0287976	1.4243587
24.271590965038975	2.0202343	1.4213495
24.289518653296376	2.018697	1.4208086
24.30744694515505	2.035651	1.4267625
24.32537584111486	1.9912848	1.4111289
24.34330534167581	1.990397	1.4108143
24.361235447338046	2.0307467	1.4250427
24.379166158601876	2.0380847	1.427615
24.39709747596772	2.0265994	1.4235868
24.41502939993615	1.9762974	1.4058084
24.432961931007917	1.9757462	1.4056123
24.450895069683856	1.9729254	1.4046086
24.468828816465	1.9584277	1.3994384
24.4867631718525	1.923587	1.3869344
24.504698136347656	1.9339166	1.3906533
24.52263371045192	1.9470665	1.3953732
24.540569894666874	1.9396641	1.3927182
24.558506689494266	1.9151515	1.38389
24.57644409543597	1.9242694	1.3871804
24.594382112994012	1.9136487	1.3833469
24.61232074267057	1.8805581	1.3713344
24.630259984967953	1.8857764	1.3732357
24.64819984038863	1.8921851	1.3755672
24.66614030943522	1.9466006	1.3952063
24.684081392610462	1.9594665	1.3998095
24.702023090417274	1.9571161	1.3989697
24.7199654033587	1.9539045	1.3978213
24.737908331937927	2.0026083	1.4151354
24.755851876658305	2.043794	1.4296132
24.773796038023324	2.0668368	1.4376497
24.79174081653661	2.052528	1.4326646
24.809686212701962	2.0686274	1.4382724
24.827632227023294	2.0673614	1.4378321
24.8455788600047	2.0866761	1.4445332
24.8635261121504	2.0917616	1.4462924
24.88147398396475	2.1464844	1.4650885
24.899422475952303	2.1730359	1.474122
24.917371588617698	2.1715362	1.4736133
24.935321322465768	2.2061741	1.4853195
24.953271678001478	2.3497646	1.5328941
24.97122265572994	2.5777009	1.605522
24.989174256156414	2.8819919	1.697643
25.00712647978632	3.3345346	1.8260708
25.02507932712521	3.909582	1.9772663
25.043032798678798	4.4719605	2.114701
25.060986894952933	5.0549135	2.2483134
25.078941616453637	5.767007	2.4014592
25.096896963687055	6.6277056	2.574433
25.114852937159508	7.7279196	2.7799137
25.132809537377444	8.141719	2.8533697
25.150766764847468	8.137728	2.8526702
25.168724620076347	7.5235305	2.7429054
25.186683103570985	6.573797	2.5639417
25.204642215838426	5.433103	2.3309019
25.222601957385894	4.0844316	2.0209978
25.24056232872074	3.1793995	1.783087
25.25852333035048	2.6575797	1.6302085
25.276484962782778	2.284549	1.5114725
25.294447226525435	2.1163213	1.4547582
25.312410122086423	2.0360205	1.4268919
25.330373649973843	2.001827	1.4148594
25.348337810695988	1.9570216	1.3989359
25.366302604761245	1.9157557	1.3841083
25.384268032678207	1.9223366	1.3864836
25.40223409495558	1.9380037	1.392122
25.420200792102257	1.9364434	1.3915615
25.438168124627246	1.9159552	1.3841803
25.45613609303974	1.8844737	1.3727614
25.474104697849057	1.9134579	1.3832779
25.492073939564698	1.9023858	1.3792701
25.510043818696285	1.8782738	1.3705013
25.528014335753614	1.8545481	1.361818
25.54598549124664	1.8614863	1.364363
25.56395728568544	1.8682004	1.3668213
25.58192971958028	1.8405064	1.3566526
25.59990279344156	1.7878418	1.337102
25.617876507779833	1.805317	1.3436209
25.635850863105826	1.8722003	1.3682836
25.653825859930386	1.9251428	1.3874952
25.671801498764548	1.928498	1.3887037
25.68977778011949	1.9376025	1.3919779
25.707754704506524	1.8912838	1.3752395
25.725732272437153	1.8087121	1.3448837
25.743710484423012	1.7567946	1.3254412
25.761689340975888	1.7709285	1.3307624
25.77966884260774	1.8301004	1.352812
25.797648989830662	1.8641142	1.3653257
25.815629783156922	1.8776803	1.3702848
25.83361122309895	1.8904783	1.3749466
25.85159331016929	1.873814	1.3688732
25.869576044880695	1.8571473	1.362772
25.887559427746034	1.8638667	1.365235
25.90554345927836	1.9151659	1.3838952
25.92352813999086	1.9147562	1.3837471
25.94151347039689	1.8860298	1.373328
25.959499451009965	1.8580934	1.363119
25.97748608234374	1.8299246	1.3527471
25.995473364912062	1.8165089	1.3477793
26.013461299228904	1.7989204	1.3412384
26.03144988580839	1.8590956	1.3634865
26.04943912516483	1.8571974	1.3627903
26.067429017812675	1.822348	1.3499438
26.085419564266537	1.8349031	1.354586
26.103410765041186	1.8850932	1.3729869
26.12140262065155	1.9402788	1.3929389
26.139395131612723	1.9351047	1.3910804
26.157388298439948	1.8948016	1.3765179
26.17538212164861	1.8477852	1.3593327
26.193376601754295	1.8364568	1.3551593
26.211371739272714	1.8386716	1.3559762
26.229367534719746	1.8454608	1.3584774
26.247363988611433	1.8506864	1.3603994
26.26536110146397	1.8511316	1.3605629
26.283358873793727	1.8812132	1.3715732
26.301357306117204	1.8947722	1.3765073
26.319356398951104	1.9031103	1.3795326
26.33735615281224	1.8657577	1.3659275
26.35535656821762	1.8519377	1.3608592
26.373357645684404	1.8623023	1.3646619
26.39135938572991	1.8435177	1.357762
26.409361788871614	1.7913104	1.3383985
26.427364855627165	1.7506704	1.323129
26.445368586514352	1.7580012	1.3258964
26.46337298205115	1.8186125	1.3485594
26.48137804275568	1.8396468	1.3563358
26.499383769146217	1.8560361	1.3623642
26.517390161741215	1.847381	1.3591839
26.53539722105928	1.8158125	1.3475208
26.553404947619182	1.7851069	1.3360789
26.571413341939856	1.7970247	1.3405315
26.589422404540397	1.7699052	1.3303778
26.60743213594006	1.7419156	1.3198165
26.62544253665827	1.738708	1.3186008
26.64345360721459	1.7712098	1.3308681
26.66146534812879	1.7825606	1.3351257
26.679477759920758	1.7553086	1.3248806
26.69749084311057	1.758111	1.3259377
26.71550459821847	1.7460529	1.3213829
26.733519025764842	1.7839507	1.3356462
26.751534126270258	1.7658042	1.3288356
26.769549900255434	1.816149	1.3476458
26.787566348241267	1.8316562	1.353387
26.80558347074881	1.8455092	1.3584952
26.823601268299267	1.8227283	1.3500845
26.841619741414036	1.7905283	1.3381063
26.85963889061465	1.7474023	1.3218935
26.877658716422832	1.8123932	1.3462515
26.89567921936045	1.8392286	1.3561816
26.913700399949544	1.8429444	1.3575509
26.93172225871233	1.8058342	1.3438133
26.949744796171174	1.820324	1.3491938
26.967768012848605	1.8205974	1.3492951
26.98579190926733	1.7857083	1.336304
27.003816485950225	1.7725382	1.331367
27.021841743420318	1.8198755	1.3490276
27.039867682200814	1.8151757	1.3472846
27.057894302815072	1.7876449	1.3370284
27.07592160578664	1.8210541	1.3494644
27.0939495916392	1.8358	1.354917
27.111978260896635	1.7957046	1.340039
27.13000761408296	1.8468775	1.3589987
27.148037651722397	1.8696654	1.3673571
27.166068374339304	1.8665044	1.3662007
27.184099782458215	1.8329029	1.3538475
27.20213187660384	1.8334228	1.3540394
27.22016465730105	1.8071495	1.3443027
27.23819812507487	1.8463652	1.3588102
27.256232280450533	1.8285838	1.3522514
27.274267123953383	1.8477474	1.3593187
27.292302656108987	1.8867232	1.3735805
27.31033887744306	1.9090855	1.3816966
27.32837578848146	1.8531551	1.3613064
27.34641338975026	1.8236535	1.3504272
27.364451681775673	1.7629883	1.3277757
27.382490665084074	1.7023365	1.3047363
27.400530340202046	1.7416071	1.3196996
27.41857070765629	1.7899288	1.3378822
27.436611767973726	1.8220714	1.3498412
27.454653521681404	1.7802082	1.3342445
27.472695969306564	1.7969124	1.3404896
27.490739111376627	1.8145356	1.347047
27.508782948419153	1.8309261	1.3531171
27.526827480961902	1.8047065	1.3433937
27.54487270953279	1.804456	1.3433005
27.562918634659898	1.8338209	1.3541864
27.580965256871508	1.8391562	1.3561549
27.599012576696026	1.8417995	1.3571291
27.617060594662068	1.8102669	1.3454616
27.63510931129842	1.7640465	1.3281741
27.65315872713401	1.7843084	1.3357801
27.67120884269797	1.8796445	1.3710012
27.68925965851958	1.889979	1.374765
27.707311175128307	1.9077497	1.3812131
27.725363393053787	1.8910247	1.3751453
27.74341631282583	1.8887656	1.3743237
27.7614699349744	1.8569508	1.3626997
27.77952426002968	2.0437157	1.4295858
27.797579288521973	2.1089342	1.452217
27.815635020981784	2.5943623	1.6107024
27.83369145793979	2.6583016	1.6304299
27.85174859992682	2.491527	1.5784572
27.869806447473923	2.3449624	1.531327
27.887865001112267	1.9918559	1.4113313
27.905924261373233	1.8749549	1.36929
27.92398422878836	1.8488481	1.3597236
27.94204490388936	1.8476796	1.3592938
27.96010628720813	1.8598416	1.3637601
27.978168379276728	1.8532397	1.3613374
27.9962311806274	1.8457056	1.3585675
28.014294691792568	1.8376436	1.3555971
28.0323589133048	1.8673469	1.366509
28.050423845696887	1.9030002	1.3794928
28.068489489501758	1.8882203	1.3741252
28.086555845252523	1.8930274	1.3758733
28.104622913482487	1.9390395	1.392494
28.122690694725115	1.9947207	1.4123458
28.14075918951405	1.9730585	1.404656
28.15882839838312	1.9063611	1.3807104
28.176898321866304	1.8716398	1.368079
28.1949689604978	1.8673378	1.3665057
28.213040314811945	1.873144	1.3686285
28.23111238534327	1.8774903	1.3702154
28.249185172626493	1.9224757	1.3865337
28.267258677196473	1.981922	1.4078075
28.285332899588294	2.0228226	1.4222597
28.303407840337172	2.03178	1.4254053
28.321483499978545	1.9780064	1.4064162
28.33955987904799	1.9632041	1.4011439
28.357636978081285	1.9505615	1.396625
28.37571479761439	1.9247532	1.3873547
28.393793338183425	1.8879349	1.3740214
28.41187260032469	1.8873061	1.3737926
28.429952584574686	1.9620799	1.4007427
28.448033291470065	1.9880589	1.4099854
28.46611472154769	2.0632231	1.4363924
28.484196875344566	2.0365913	1.427092
28.502279753397914	1.9583408	1.3994073
28.52036335624511	1.9299188	1.3892151
28.538447684423716	1.9619721	1.4007041
28.556532738471482	1.9831798	1.4082541
28.574618518926325	1.9515245	1.3969698
28.59270502632635	1.9849652	1.408888
28.61079226120985	1.9975573	1.4133496
28.628880224115274	2.024246	1.42276
28.646968915581287	2.0293074	1.4245375
28.66505833614671	2.0455046	1.4302114
28.68314848635055	2.0588892	1.434883
28.701239366732004	2.0904994	1.445856
28.71933097783044	2.0937011	1.4469627
28.737423320185403	2.067951	1.4380372
28.75551639433665	2.0560992	1.4339105
28.773610200824074	2.094409	1.4472073
28.791704740187793	2.0936303	1.4469383
28.80980001296809	2.083993	1.4436041
28.827896019705413	2.1153226	1.4544148
28.845992760940433	2.1069062	1.4515185
28.86409023721397	2.1031928	1.4502388
28.88218844906704	2.1320221	1.4601445
28.900287397040845	2.1802857	1.4765791
28.918387081676755	2.2383034	1.496096
28.936487503516343	2.2710865	1.5070124
28.954588663101365	2.3496718	1.532864
28.97269056097374	2.3664808	1.538337
28.990793197675597	2.3505387	1.5331466
29.00889657374923	2.3944252	1.547393
29.027000689737125	2.4206867	1.5558556
29.04510554618196	2.422143	1.5563235
29.06321114362659	2.401298	1.5496123
29.08131748261405	2.470278	1.5717118
29.099424563687567	2.5463376	1.5957248
29.11753238739057	2.5856318	1.60799
29.13564095426663	2.5660415	1.6018869
29.15375026485954	2.4871461	1.5770688
29.171860319713275	2.4931998	1.578987
29.18997111937199	2.6010268	1.61277
29.20808266438002	2.7185175	1.6487927
29.226194955281898	2.775782	1.6660678
29.244307992622335	2.8559604	1.6899587
29.26242177694624	2.8576198	1.6904496
29.2805363087987	2.8422318	1.685892
29.29865158872498	2.8806796	1.6972564
29.316767617270557	2.9226038	1.7095624
29.334884394981064	2.961971	1.7210377
29.353001922402367	2.9743345	1.724626
29.37112020008047	3.0520043	1.7469987
29.389239228561596	3.1755216	1.7819993
29.407359008392152	3.3862226	1.8401692
29.42547954011872	3.8177369	1.953903
29.44360082428809	4.5515404	2.133434
29.46172286144722	5.6305766	2.3728836
29.479845652143283	7.130413	2.6702833
29.497969196923606	9.067738	3.0112684
29.516093496335728	11.556497	3.3994849
29.5342185509274	14.300477	3.7815971
29.55234436124651	16.401909	4.049927
29.570470927841175	17.515635	4.1851683
29.588598251259686	16.96162	4.1184487
29.60672633205055	15.471601	3.9333956
29.624855170762405	13.3676195	3.6561756
29.642984767944146	10.78051	3.2833686
29.66111512414481	8.352691	2.8901021
29.67924623991366	6.339985	2.5179327
29.697378115800138	4.887844	2.210847
29.71551075235387	4.0476623	2.0118804
29.733644150124675	3.707554	1.925501
29.751778309662576	3.4820642	1.866029
29.769913231517766	3.4938493	1.8691841
29.78804891624066	3.4541783	1.858542
29.806185364381818	3.3795452	1.838354
29.82432257649206	3.331735	1.825304
29.842460553122333	3.3405988	1.8277305
29.86059929482382	3.3522344	1.8309108
29.878738802147872	3.328349	1.8243763
29.896879075646048	3.2795742	1.8109595
29.915020115870114	3.228249	1.7967329
29.933161923371976	3.264947	1.8069165
29.951304498703777	3.2756672	1.8098804
29.969447842417857	3.2956192	1.815384
29.987591955066733	3.2995403	1.8164637
30.005736837203123	3.2228646	1.7952338
30.023882489379943	3.1771226	1.7824485
30.04202891215028	3.1741467	1.7816135
30.060176106067455	3.172408	1.7811255
30.078324071684946	3.1398034	1.771949
30.09647280955646	3.1271906	1.7683865
30.114622320235863	3.095465	1.7593933
30.132772604277257	3.083229	1.7559125
30.1509236622349	3.152452	1.7755146
30.16907549466328	3.1459546	1.7736839
30.18722810211705	3.0956295	1.7594401
30.205381485151097	3.0527258	1.7472051
30.22353564432045	3.058874	1.7489637
30.241690580180403	3.0044494	1.7333348
30.25984629328638	2.9470441	1.7166957
30.278002784194037	2.9494314	1.7173909
30.296160053459246	2.9260395	1.710567
30.314318101638033	2.9097188	1.7057898
30.332476929286646	2.9915707	1.7296158
30.35063653696153	3.0209436	1.7380862
30.368796925219307	2.9887989	1.7288142
30.386958094616844	2.9722636	1.7240254
30.40512004571115	2.9426854	1.7154257
30.423282779059463	2.908423	1.7054099
30.441446295219233	2.892948	1.7008668
30.459610594748067	2.8312862	1.6826426
30.47777567820382	2.723203	1.650213
30.495941546144504	2.7973163	1.672518
30.51410819912835	2.875697	1.695788
30.532275637713795	2.862961	1.6920286
30.55044386245946	2.785432	1.6689614
30.56861287392416	2.7826505	1.6681278
30.586782672666956	2.7551737	1.6598716
30.604953259247047	2.77743	1.6665623
30.623124634223885	2.8418272	1.685772
30.641296798157075	2.796038	1.6721357
30.659469751606462	2.698733	1.6427821
30.677643495132074	2.6703818	1.6341302
30.695818029294152	2.6892316	1.6398877
30.713993354653116	2.7211494	1.6495907
30.73216947176962	2.6672027	1.6331573
30.75034638120448	2.6337786	1.622892
30.768524083518756	2.7409787	1.6555902
30.786702579273673	2.798834	1.6729716
30.80488186903069	2.8204396	1.6794164
30.82306195335144	2.9441447	1.7158511
30.841242832797782	3.2207296	1.7946391
30.85942450793176	3.5151958	1.8748856
30.877606979315637	3.7312052	1.9316328
30.895790247511883	4.038584	2.0096228
30.913974313083134	4.44165	2.1075222
30.932159176592283	4.728907	2.1746051
30.95034483860237	4.727606	2.174306
30.968531299676698	4.513834	2.1245785
30.98671856037873	4.2089763	2.051579
31.00490662127215	3.7866676	1.9459362
31.023095482920848	3.402434	1.8445688
31.04128514588892	3.055515	1.7480031
31.059475610740662	2.795146	1.671869
31.07766687804056	2.6619515	1.6315488
31.09585894835335	2.54876	1.5964836
31.11405182224393	2.4733648	1.5726935
31.132245500277417	2.4385123	1.5615736
31.15043998301914	2.5081387	1.5837104
31.168635271034628	2.5242069	1.5887753
31.18683136488964	2.4866915	1.5769247
31.20502826515008	2.422662	1.5564903
31.223225972382135	2.432605	1.559681
31.241424487152155	2.4601605	1.5684899
31.259623810026692	2.4244254	1.5570567
31.27782394157253	2.3751464	1.541151
31.296024882356644	2.3671749	1.5385627
31.314226632946237	2.3670094	1.5385088
31.332429193908684	2.4133847	1.5535072
31.350632565811598	2.440565	1.5622308
31.368836749222787	2.4146702	1.5539209
31.387041744710295	2.4347982	1.560384
31.40524755284232	2.5069811	1.5833449
31.423454174187317	2.57448	1.6045187
31.441661609313922	2.609422	1.6153705
31.459869858791002	2.5431087	1.5947127
31.478078923187628	2.3956406	1.5477858
31.496288803073064	2.3272147	1.5255212
31.514499499016807	2.2800546	1.509985
31.532711011588546	2.3179	1.5224651
31.550923341358178	2.367808	1.5387684
31.56913648889584	2.4036994	1.5503869
31.587350454771844	2.4401436	1.5620959
31.605565239556732	2.293329	1.5143741
31.62378084382127	2.1483612	1.4657289
31.641997268136382	2.1570482	1.4686893
31.660214513073274	2.2551067	1.5017012
31.67843257920331	2.2503521	1.5001174
31.6966514670981	2.2158923	1.4885874
31.71487117732944	2.2229376	1.4909519
31.733091710469346	2.2737088	1.5078822
31.751313067090052	2.266665	1.5055448
31.769535247764008	2.2582562	1.5027496
31.787758253063878	2.332839	1.5273634
31.805982083562526	2.3669667	1.538495
31.824206739833024	2.386691	1.544892
31.84243222244869	2.3508015	1.5332323
31.860658531983013	2.3423164	1.5304629
31.878885669009737	2.3596685	1.5361212
31.897113634102784	2.2780728	1.5093286
31.91534242783632	2.2408457	1.4969455
31.933572050784694	2.2382967	1.4960939
31.951802503522508	2.223052	1.4909903
31.970033786624548	2.1899981	1.4798642
31.988265900665834	2.136407	1.4616452
32.006498846221575	2.1444454	1.4643925
32.02473262386724	2.1495938	1.4661493
32.04296723417845	2.1698759	1.4730499
32.0612026777311	2.2746043	1.5081792
32.07943895510129	2.3612685	1.536642
32.097676066865304	2.300088	1.5166041
32.115914013599685	2.2384715	1.4961523
32.13415279588115	2.1389923	1.4625294
32.152392414286666	2.1445131	1.4644157
32.1706328693934	2.112624	1.4534868
32.18887416177875	2.0874572	1.4448035
32.20711629202032	2.0835297	1.4434437
32.225359260695924	2.172792	1.4740393
32.243603068383614	2.2039735	1.4845786
32.26184771566166	2.1830235	1.4775058
32.28009320310852	2.0936775	1.4469546
32.2983395313029	2.103113	1.4502113
32.31658670082372	2.0849476	1.4439348
32.33483471225012	2.0777674	1.4414463
32.35308356616143	2.1212554	1.456453
32.371333263137245	2.1423998	1.4636939
32.38958380375734	2.115481	1.4544693
32.407835188601744	2.1521552	1.4670225
32.42608741825067	2.2306614	1.4935399
32.444340493284585	2.1448367	1.464526
32.46259441428416	2.093521	1.4469005
32.48084918183028	2.1518724	1.4669262
32.49910479650405	2.217339	1.4890732
32.51736125888683	2.2037005	1.4844866
32.53561856956014	2.0816953	1.4428082
32.5538767291058	1.980646	1.4073542
32.572135738105764	1.948641	1.3959373
32.59039559714228	2.0310025	1.4251325
32.608656306797776	2.077517	1.4413594
32.62691786765491	2.031784	1.4254066
32.645180280296586	1.9490327	1.3960776
32.663443545305896	1.8657053	1.3659083
32.68170766326619	1.8989184	1.3780124
32.69997263476099	2.0217557	1.4218845
32.7182384603741	2.10791	1.4518642
32.7365051406895	2.0746763	1.4403737
32.75477267629144	1.9914963	1.4112039
32.77304106776434	1.9659107	1.4021094
32.79131031569289	2.0117958	1.4183779
32.809580420661966	1.9819686	1.407824
32.827851383256714	1.9786419	1.4066421
32.84612320406245	1.9896702	1.4105567
32.86439588366476	1.9906459	1.4109025
32.88266942264945	2.0127492	1.4187139
32.9009438216025	2.017745	1.4204736
32.9192190811102	2.0278375	1.4240216
32.937495201758985	1.9703343	1.4036859
32.95577218413556	1.8897804	1.3746928
32.974050028826866	1.9256395	1.3876741
32.992328736420035	1.9656157	1.4020042
33.010608307502444	1.94657	1.3951954
33.02888874266169	1.938914	1.3924489
33.047170042485604	1.9754474	1.4055061
33.06545220756225	1.9583275	1.3994026
33.083735238479896	1.9843042	1.4086534
33.10201913582707	1.9773396	1.4061791
33.12030390019248	2.016213	1.4199342
33.138589532165135	2.1435182	1.4640759
33.15687603233419	2.1572323	1.4687519
33.17516340128909	1.9892409	1.4104046
33.19345163961947	1.9404359	1.3929952
33.211740747915215	1.9481308	1.3957546
33.23003072676643	1.9336971	1.3905743
33.248321576763466	1.9656225	1.4020066
33.266613298496885	2.0195928	1.4211237
33.28490589255747	2.0870605	1.4446663
33.30319935953626	2.031905	1.425449
33.32149370002451	1.9655876	1.4019941
33.339788914613706	2.005089	1.4160117
33.358085003895575	1.9343213	1.3907988
33.376381968462034	1.8943912	1.3763689
33.39467980890529	1.9006727	1.3786489
33.41297852581774	1.96017	1.4000608
33.43127811979204	1.9902165	1.4107504
33.44957859142105	1.9432971	1.394022
33.467879941297866	1.8344502	1.3544188
33.486182170015844	1.788562	1.3373713
33.50448527816853	1.801908	1.3423517
33.522789266349754	1.8852559	1.3730463
33.541094135153514	1.8807331	1.3713982
33.55939988517411	1.8645465	1.365484
33.57770651700602	1.919503	1.3854613
33.59601403124398	1.9651552	1.40184
33.61432242848296	1.9491849	1.3961321
33.632631709318154	1.9744679	1.4051576
33.650941874344994	1.9844345	1.4086996
33.66925292415916	2.062814	1.43625
33.68756485935654	2.0847132	1.4438536
33.70587768053328	2.005903	1.4162991
33.724191388285746	1.9909345	1.4110048
33.74250598321054	1.9610558	1.400377
33.760821465904506	1.9750578	1.4053675
33.77913783696474	1.9774672	1.4062245
33.79745509698852	1.9630888	1.4011027
33.815773246573414	1.8949137	1.3765587
33.8340922863172	2.0535305	1.4330145
33.852412216817896	2.0076978	1.4169326
33.87073303867377	1.8476852	1.3592958
33.889054752483304	1.8099682	1.3453506
33.907377358845245	1.9406358	1.393067
33.92570085835853	2.060598	1.4354783
33.94402525162239	2.009128	1.4174372
33.96235053923627	1.9678769	1.4028103
33.980676721799824	2.0159688	1.4198482
33.999003799912984	2.0717905	1.4393716
34.01733177417592	2.097112	1.4481409
34.03566064518901	2.156221	1.4684076
34.0539904135529	2.0751648	1.4405432
34.07232107986846	1.9015979	1.3789843
34.090652644736785	1.874715	1.3692023
34.108985108759235	2.0341163	1.4262245
34.12731847253742	2.046717	1.4306351
34.14565273667313	2.007631	1.416909
34.16398790176847	1.9086263	1.3815304
34.18232396842574	1.8418207	1.357137
34.20066093724749	1.901085	1.3787984
34.21899880883651	1.9104213	1.3821799
34.23733758379583	1.8442868	1.3580452
34.25567726272874	1.9423299	1.393675
34.27401784623872	1.9632092	1.4011457
34.29235933492957	1.782138	1.3349674
34.31070172940526	1.7461092	1.3214042
34.32904503027003	1.8947076	1.3764838
34.347389238128386	1.9538147	1.3977892
34.36573435358502	1.873162	1.368635
34.38408037724492	1.8139731	1.3468381
34.402427309713296	1.9375331	1.391953
34.42077515159559	2.0457726	1.430305
34.43912390349752	2.0310724	1.425157
34.45747356602499	1.9254068	1.3875903
34.47582413978423	1.9262692	1.387901
34.49417562538163	2.1005127	1.4493146
34.51252802342388	2.150586	1.4664876
34.53088133451789	2.0569654	1.4342124
34.54923555927084	2.002054	1.4149395
34.567590698290104	1.8785825	1.3706139
34.58594675218336	1.7039406	1.3053508
34.6043037215585	1.8265297	1.3514917
34.62266160702365	2.0666018	1.437568
34.641020409187234	2.2251887	1.4917066
34.65938012865785	2.2572927	1.502429
34.677740766044394	2.2351022	1.4950258
34.69610232195598	2.1219807	1.456702
34.714464797002016	2.1266086	1.4582896
34.73282819179208	2.1851013	1.4782088
34.751192506936064	2.192031	1.4805509
34.76955774304408	2.1129646	1.453604
34.7879239007265	2.062799	1.4362447
34.80629098059391	1.9806921	1.4073707
34.824658983257194	1.9204506	1.3858032
34.843027909327446	2.030612	1.4249954
34.86139775941603	2.101368	1.4496096
34.879768534134534	1.977891	1.4063752
34.89814023409483	1.9077656	1.3812189
34.91651285990901	1.8286327	1.3522694
34.93488641218944	1.728721	1.3148084
34.95326089154871	1.7629901	1.3277764
34.97163629859967	1.8880539	1.3740647
34.99001263395542	1.8739084	1.3689077
35.00838989822934	2.0501807	1.4318452
35.02676809203499	1.9800825	1.4071541
35.04514721598624	1.676258	1.2947038
35.063527270697215	1.5754615	1.2551739
35.081908256782256	1.7053367	1.3058854
35.10029017485597	1.6015888	1.2655389
35.11867302553321	1.6634022	1.2897295
35.137056809429104	1.8860584	1.3733385
35.155441527159006	2.027958	1.4240639
35.173827179338524	2.1374457	1.4620006
35.19221376658354	2.086225	1.4443771
35.21060128951017	1.9823916	1.4079742
35.2289897487348	1.9104146	1.3821775
35.24737914487405	1.9442095	1.3943491
35.26576947854479	2.1210258	1.4563742
35.28416075036418	2.3105588	1.5200522
35.30255296094958	2.249642	1.4998807
35.32094611091867	2.2590919	1.5030276
35.33934020088932	2.1751022	1.4748228
35.35773523147969	2.060177	1.4353317
35.3761312033082	1.8831904	1.3722938
35.394528116993506	1.8609228	1.3641565
35.41292597315452	2.1411269	1.463259
35.431324772410434	2.2848847	1.5115834
35.449724515380666	2.54346	1.5948229
35.46812520268491	2.897976	1.7023443
35.486526834943106	2.5725403	1.603914
35.504929412775454	2.2386532	1.496213
35.52333293680242	1.6560508	1.2868763
35.54173740764471	1.1901952	1.0909606
35.560142825923286	1.0871767	1.0426776
35.5785491922594	1.1537206	1.0741138
35.59695650727454	1.5356947	1.2392315
35.61536477159042	3.1398509	1.7719624
