0.008763373481513119	0.56609195	0.7523908
0.026290120649546365	0.18888974	0.43461448
0.043816868432600686	0.14562035	0.38160235
0.06134361724069026	0.16248712	0.4030969
0.07887036748382949	0.22252068	0.47172096
0.0963971195720331	0.29773396	0.54565006
0.11392387391531617	0.25629273	0.5062536
0.1314506309236943	0.25251472	0.5025084
0.1489773910071836	0.22946523	0.4790253
0.16650415457580078	0.18671624	0.43210676
0.18403092203956356	0.11748515	0.34276107
0.20155769380849	0.08531783	0.29209214
0.2190844702925996	0.093478926	0.30574325
0.2366112519019124	0.11089773	0.33301312
0.2541380390464497	0.12383184	0.35189748
0.27166483213623416	0.13935633	0.3733046
0.28919163158128947	0.13553992	0.36815748
0.3067184377916406	0.14411876	0.37962976
0.324245251177314	0.1133688	0.33670285
0.34177207214833777	0.13821517	0.371773
0.3592989011147415	0.18028624	0.4246013
0.37682573848655654	0.17926943	0.42340222
0.39435258467381573	0.15457755	0.39316353
0.41187944008655414	0.11725439	0.34242427
0.42940630513480854	0.14344229	0.37873775
0.446933180228618	0.13428201	0.3664451
0.4644600657780234	0.16674066	0.4083389
0.48198696219306775	0.19480738	0.4413699
0.49951386988379676	0.23140097	0.48104155
0.5170407892602581	0.21841103	0.46734467
0.5345677207325025	0.15589209	0.39483172
0.5520946647105822	0.13728109	0.37051463
0.5696216216045534	0.15932861	0.39915988
0.5871485918244737	0.16610669	0.40756187
0.6046755757804043	0.14919466	0.38625723
0.6222025738824094	0.11974004	0.34603474
0.6397295865405557	0.11872049	0.3445584
0.6572566141649129	0.15068167	0.38817737
0.6747836571655547	0.1932306	0.43958002
0.6923107159525568	0.20965393	0.4578798
0.7098377909359992	0.23680195	0.48662302
0.7273648825259653	0.1869215	0.4323442
0.7448919911325411	0.16687922	0.40850854
0.762419117165817	0.14167011	0.3763909
0.7799462610358868	0.13518724	0.36767817
0.7974734231528482	0.19654194	0.4433305
0.8150006039268024	0.21408153	0.46268946
0.8325278037678551	0.20874345	0.4568845
0.8500550230861152	0.16671047	0.40830192
0.8675822622916969	0.19784683	0.44479975
0.8851095217947171	0.22912394	0.47866893
0.9026368020052984	0.2646157	0.5144081
0.9201641033335665	0.21849413	0.46743357
0.9376914261896523	0.20230348	0.4497816
0.9552187709836915	0.21464731	0.46330044
0.9727461381258234	0.21755266	0.46642542
0.990273528026193	0.19415803	0.44063368
1.0078009410949496	0.21060961	0.45892224
1.0253283777422473	0.22009093	0.4691385
1.0428558383782454	0.22281513	0.47203296
1.0603833234131086	0.22732434	0.47678542
1.0779108332570058	0.2358634	0.4856577
1.0954383683201119	0.2961813	0.5442254
1.112965929012607	0.3686204	0.60714114
1.1304935157446763	0.596361	0.7722441
1.1480211289265108	0.6484864	0.8052865
1.1655487689683062	1.5145442	1.2306682
1.1830764362802655	1.7363997	1.3177252
1.200604131272596	2.0541523	1.4332314
1.2181318543555117	2.2284815	1.4928099
1.235659605939232	2.2652328	1.505069
1.253187386433982	3.7692692	1.9414606
1.270715196249994	6.114225	2.4726958
1.2882430357975057	11.677115	3.4171793
1.3057709054867608	16.712328	4.0880713
1.3232988057280106	22.652927	4.759509
1.3408267369315112	27.730646	5.26599
1.358354699507526	31.508669	5.6132584
1.3758826938663256	35.75011	5.97914
1.3934107204181858	37.338745	6.1105437
1.410938779573391	37.433846	6.1183205
1.4284668717422309	37.541565	6.127117
1.4459949973350033	37.092487	6.09036
1.4635231567620117	37.34148	6.1107674
1.4810513504335687	36.988037	6.081779
1.4985795787599925	36.42503	6.035315
1.5161078421516088	36.4122	6.034252
1.5336361410187505	35.618855	5.9681535
1.5511644757717598	35.644432	5.970296
1.5686928468209842	36.1962	6.016328
1.58622125457678	36.49565	6.041163
1.6037496994495108	37.59379	6.131377
1.621278181849548	37.199577	6.0991454
1.6388067021872719	37.90165	6.1564317
1.6563352608730693	37.55826	6.1284795
1.673863858317336	36.71208	6.059049
1.6913924949304753	35.936768	5.994728
1.7089211711228998	34.609554	5.8829885
1.7264498873050296	34.056458	5.835791
1.7439786438872935	33.365868	5.7763195
1.7615074412801288	32.85127	5.7316027
1.779036279893981	31.939285	5.6514854
1.796565160139305	30.90241	5.558994
1.814094082426564	30.00422	5.4776106
1.8316230471662298	28.97751	5.383076
1.849152054768784	28.042906	5.295555
1.8666811056447168	27.571423	5.2508497
1.8842102002045273	27.163368	5.2118487
1.901739338858724	26.74522	5.171578
1.9192685220178245	25.945395	5.0936623
1.9367977500923557	24.984634	4.998463
1.9543270234928547	24.375648	4.93717
1.971856342629867	23.687979	4.8670297
1.9893857079139496	23.315344	4.8285966
2.006915119755667	22.811043	4.7760906
2.0244445785655945	22.08497	4.699465
2.0419740847543175	21.707664	4.6591487
2.0595036387324317	21.24892	4.609655
2.0770332409105414	20.840513	4.565141
2.094562891699263	20.650343	4.544265
2.1120925915092217	20.039856	4.4765897
2.129622340751053	19.770742	4.44643
2.1471521398354043	187.98677	13.710827
2.1646819891729323	444.30017	21.078428
2.182211889174303	440.75174	20.99409
2.1997418402501974	453.14917	21.2873
2.2172718428113023	433.0075	20.808832
2.234801897268317	320.78076	17.910353
2.2523320040319548	17.102777	4.1355505
2.269862163512935	17.030174	4.1267633
2.287392376121992	16.835783	4.103143
2.304922642269869	16.568867	4.0704875
2.322452962367322	16.200846	4.0250273
2.3399833368251164	15.66624	3.95806
2.357513766054032	15.44206	3.9296386
2.3750442504648586	15.181264	3.8963141
2.3925747904683963	14.945108	3.8658903
2.410105386475459	14.674557	3.8307383
2.4276360388968707	14.295048	3.7808793
2.445166748143469	14.073386	3.7514513
2.4626975146261025	13.90046	3.728332
2.4802283387556323	13.665639	3.6967065
2.4977592209429305	13.501138	3.6743894
2.5152901615988825	13.198941	3.6330347
2.5328211611343865	12.902494	3.5920043
2.5503522199603523	12.715272	3.565848
2.5678833384877024	12.448205	3.5282013
2.5854145171273712	12.309497	3.5084894
2.6029457562903064	12.141076	3.4844048
2.620477056387469	11.924823	3.4532337
2.6380084178298326	11.695594	3.419882
2.655539841028383	11.502108	3.3914757
2.673071326394119	11.409323	3.377769
2.6906028743380523	11.225255	3.3504112
2.708134485271211	11.127551	3.3357985
2.7256661596046325	10.877157	3.2980535
2.743197897749369	10.730425	3.2757328
2.760729700116486	10.635945	3.2612798
2.778261567117063	10.405027	3.2256825
2.795793499162193	10.340057	3.215596
2.8133254966629817	10.170099	3.1890593
2.830857560030551	9.853478	3.139025
2.8483896896760337	9.574538	3.094275
2.865921886010578	9.319626	3.0528061
2.883454149445347	9.130924	3.0217419
2.9009864803915177	9.292481	3.0483572
2.91851887926028	9.263786	3.0436468
2.9360513464628384	9.306778	3.0507011
2.953583882410413	9.21317	3.0353205
2.9711164875142373	9.010407	3.001734
2.9886491621855606	8.861316	2.9767962
3.0061819068356455	8.567379	2.9270086
3.023714721875769	8.375189	2.893992
3.041247607717225	8.316584	2.8838487
3.0587805647713213	8.290458	2.8793156
3.0763135934493806	8.271102	2.8759522
3.0938466941627407	8.188648	2.8615813
3.1113798673227544	8.132955	2.8518336
3.1289131133407904	8.071792	2.84109
3.1464464326282315	7.904323	2.8114629
3.1639798255964786	7.7893543	2.7909415
3.1815132926569443	7.6153564	2.7595935
3.1990468342210603	7.5641127	2.7502933
3.216580450700272	7.428748	2.725573
3.2341141425060416	7.4351015	2.7267382
3.251647910049847	7.3303437	2.7074606
3.2691817537431813	7.2631545	2.695024
3.286715673997555	7.291335	2.7002473
3.3042496712244938	7.2572093	2.6939209
3.32178374583554	7.180848	2.6797104
3.339317898242251	6.940097	2.6344063
3.3568521288562034	6.8585105	2.6188757
3.3743864380889876	6.8353972	2.6144593
3.3919208263522127	6.8472733	2.6167295
3.4094552940575023	6.659927	2.5806835
3.4269898416164972	6.6325507	2.575374
3.444524469440858	6.4338083	2.5364952
3.4620591779422587	6.4264174	2.535038
3.479593967532391	6.466743	2.5429792
3.4971288386229658	6.3782177	2.5255134
3.5146637916257086	6.5071254	2.5509067
3.5321988269523628	6.4468074	2.5390563
3.5497339450146903	6.3336754	2.5166795
3.5672691462244708	6.3171124	2.5133867
3.5848044309934988	6.2253356	2.4950624
3.60233979973359	6.12691	2.4752595
3.619875252856575	6.120431	2.4739504
3.6374107907743034	6.1527967	2.480483
3.6549464138986427	6.20329	2.4906404
3.6724821226414788	6.124697	2.4748125
3.690017917414714	6.137825	2.4774635
3.7075537986302702	6.158579	2.4816484
3.7250897667000857	6.282342	2.50646
3.7426258220361235	6.555914	2.560452
3.7601619650503553	6.902128	2.62719
3.777698196154779	7.4026165	2.720775
3.7952345157614067	8.35221	2.890019
3.8127709242822716	9.045891	3.0076387
3.830307422129425	11.216857	3.3491576
3.847844009714936	30.171011	5.4928145
3.8653806874508954	97.754684	9.887096
3.882917455749409	96.91412	9.844497
3.900454315022606	96.5317	9.825055
3.917991265682631	41.172607	6.4165883
3.9355283081416506	10.884144	3.2991126
3.9530654428118495	8.801288	2.9666965
3.970602670105433	7.5780044	2.7528176
3.9881399904346244	6.6626773	2.5812163
4.005677404211669	6.5612755	2.5614986
4.023214911848827	6.457798	2.5412197
4.0407525137583855	6.422272	2.5342202
4.058290210352644	6.360983	2.522099
4.075828002043927	6.276028	2.5052001
4.0933658892445814	6.2600584	2.5020108
4.110903872366966	6.301157	2.5102105
4.128441951823468	6.215207	2.4930317
4.145980128026488	6.213373	2.4926639
4.163518401388452	6.2217445	2.4943426
4.181056772321807	6.2818427	2.5063605
4.1985952412390155	6.2574177	2.5014832
4.216133808552567	6.1383924	2.477578
4.233672474674966	6.128745	2.4756303
4.251211240018741	6.342984	2.5185282
4.268750104996445	6.577077	2.5645812
4.286289070020643	7.5562806	2.748869
4.303828135503928	9.219724	3.0363998
4.3213673018589125	29.546206	5.4356422
4.3389065694982305	90.65211	9.52114
4.356445938834537	165.77873	12.875509
4.3739854102805085	171.38046	13.091236
4.391524984248844	172.38467	13.129535
4.409064661152262	136.44873	11.681128
4.426604441403504	96.74493	9.8359
4.444144325415337	75.81177	8.706995
4.461684313600543	21.842001	4.6735425
4.47922440637193	22.342493	4.7267847
4.496764604142329	20.481123	4.5256076
4.5143049073245916	18.648346	4.318373
4.531845316331589	16.531809	4.0659328
4.5493858315762195	13.741829	3.7069974
4.566926453471405	11.432545	3.3812046
4.584467182430081	9.459399	3.0756137
4.602008018865218	8.192173	2.8621972
4.619548963189798	7.515941	2.7415216
4.637090015816834	6.960797	2.6383321
4.654631177159353	6.6441574	2.5776262
4.672172447630417	6.3763204	2.5251377
4.689713827643102	6.265356	2.5030694
4.7072553176105085	6.0538273	2.4604526
4.724796917945764	5.9071245	2.4304576
4.742338629062015	5.829257	2.4143853
4.759880451372434	5.82397	2.4132903
4.777422385290215	5.8349586	2.415566
4.794964431228581	5.7752256	2.4031699
4.812506589600768	5.6678843	2.3807318
4.830048860820047	5.6387177	2.3745985
4.847591245299709	5.711646	2.389905
4.8651337434530655	5.7751665	2.4031577
4.882676355693457	5.8075495	2.409886
4.900219082434242	5.7544665	2.3988469
4.917761924088813	5.6495914	2.3768868
4.935304881070575	5.5297465	2.3515413
4.952847953792969	5.5150065	2.3484051
4.970391142669449	5.539549	2.3536246
4.9879344481135055	5.5715575	2.3604147
5.005477870538642	5.508786	2.3470805
5.023021410358394	5.4395695	2.3322885
5.040565067986324	5.4041457	2.3246818
5.05810884383601	5.3771615	2.3188708
5.075652738321066	5.4435325	2.333138
5.09319675185512	5.4076743	2.3254406
5.110740884851836	5.402347	2.324295
5.128285137724894	5.348774	2.3127418
5.145829510888007	5.3696923	2.3172596
5.163374004754908	5.322355	2.3070228
5.1809186197393595	5.2089334	2.2823088
5.198463356255145	5.20439	2.2813132
5.216008214716077	5.1985188	2.280026
5.233553195535998	5.242833	2.2897234
5.251098299128764	5.1755786	2.2749898
5.268643525908272	5.1480985	2.268942
5.286188876288432	5.1871886	2.27754
5.3037343506831895	5.244694	2.2901297
5.32127994950651	5.2231255	2.285416
5.3388256731723915	5.248282	2.2909129
5.356371522094851	5.31481	2.305387
5.373917496687938	5.311865	2.3047483
5.391463597365729	5.2320695	2.2873716
5.40900982454232	5.1662292	2.272934
5.426556178631843	5.1321945	2.2654347
5.444102660048449	5.2075715	2.2820103
5.4616492692063225	5.2563024	2.2926626
5.479196006519669	5.29375	2.300815
5.496742872402727	5.256991	2.2928128
5.514289867269756	5.1695867	2.2736726
5.531836991535049	5.172633	2.2743423
5.549384245612924	5.1898937	2.2781339
5.566931629917724	5.18084	2.276146
5.584479144863822	5.1556697	2.27061
5.6020267908656205	5.095276	2.2572718
5.619574568337545	5.0678167	2.2511811
5.637122477694054	5.184635	2.2769794
5.654670519349629	5.210408	2.2826319
5.672218693718784	5.2060943	2.2816868
5.689767001216059	5.1342845	2.2658958
5.707315442256021	5.0972404	2.2577069
5.724864017253266	5.066737	2.2509415
5.7424127266224225	5.099631	2.2582362
5.75996157077814	5.1297674	2.264899
5.777510550135105	5.204438	2.2813237
5.795059665108022	5.1573024	2.2709694
5.812608916111639	5.1859026	2.2772577
5.830158303560715	5.346651	2.3122826
5.847707827870055	5.394817	2.3226745
5.86525748945448	5.526224	2.3507922
5.8828072887288485	5.598498	2.3661146
5.900357226108044	5.675469	2.3823242
5.917907302006979	5.6790075	2.383067
5.9354575168406	6.296509	2.5092845
5.9530078710238765	6.9119005	2.6290493
5.970558364971812	7.395413	2.719451
5.988108999099438	7.7153506	2.777652
6.005659773821818	8.3000765	2.8809853
6.023210689554039	8.017252	2.8314753
6.040761746711227	8.402319	2.8986754
6.058312945708531	7.7163787	2.777837
6.075864286961132	7.3316875	2.7077088
6.093415770884244	6.7088747	2.5901496
6.1109673978931065	6.1965714	2.4892914
6.128519168402993	5.636039	2.3740342
6.146071082829204	5.406117	2.325106
6.163623141587075	5.2912903	2.3002806
6.181175345091969	5.235258	2.2880685
6.198727693759281	5.2612453	2.2937405
6.216280188004435	5.240712	2.2892601
6.233832828242885	5.1919713	2.2785897
6.251385614890126	5.1315126	2.2652843
6.268938548361669	5.075208	2.2528222
6.286491629073067	5.033265	2.243494
6.304044857439898	5.063726	2.2502725
6.321598233877777	5.054145	2.2481425
6.339151758802344	5.046679	2.2464814
6.356705432629277	5.139738	2.2670991
6.37425925577428	5.102462	2.258863
6.391813228653095	5.10924	2.2603629
6.409367351681486	5.0410113	2.2452197
6.426921625275259	4.9661965	2.2284966
6.44447604985025	4.9223037	2.2186265
6.46203062582232	4.9081182	2.2154274
6.47958535360737	4.9330626	2.2210498
6.497140233621328	5.0214467	2.2408586
6.514695266280161	5.0640025	2.2503338
6.532250451999859	5.026426	2.241969
6.549805791196454	4.936179	2.2217515
6.567361284286002	4.863129	2.2052503
6.584916931684597	4.8658133	2.205859
6.602472733808367	4.9142685	2.216815
6.6200286910734665	5.0180774	2.2401066
6.637584803896092	5.070137	2.2516966
6.655141072692462	5.108407	2.2601786
6.672697497878842	5.1251373	2.2638767
6.690254079871514	5.0908623	2.256294
6.707810819086808	5.002308	2.236584
6.725367715941078	4.9565735	2.2263362
6.742924770850719	4.8856354	2.2103474
6.760481984232151	5.0170245	2.2398715
6.778039356501836	5.10976	2.2604778
6.795596888076266	5.180651	2.2761045
6.813154579371963	5.0365176	2.2442188
6.830712430805492	4.914038	2.216763
6.84827044279344	4.851027	2.2025046
6.865828615752445	4.8635106	2.2053368
6.883386950099159	4.9318514	2.2207773
6.900945446250287	4.9866505	2.2330809
6.918504104622553	4.9819975	2.232039
6.936062925632727	4.9986424	2.2357645
6.953621909697607	5.024034	2.2414358
6.971181057234028	5.1444435	2.2681365
6.988740368658859	5.171266	2.274042
7.006299844389007	5.2083554	2.2821822
7.023859484841407	5.281333	2.298115
7.041419290433036	5.4154506	2.327112
7.058979261580902	5.576271	2.361413
7.0765393987020495	5.774251	2.4029672
7.094099702213559	6.1293736	2.4757571
7.111660172532549	6.475085	2.5446188
7.129220810076164	6.860865	2.6193254
7.146781615261595	7.543421	2.7465289
7.16434258850606	7.821872	2.796761
7.181903730226821	8.246262	2.8716304
7.1994650408411704	8.229675	2.868741
7.217026520766437	8.316955	2.883913
7.234588170419983	8.534394	2.9213686
7.252149990219215	8.599702	2.932525
7.269711980581568	8.483904	2.9127142
7.2872741419245175	8.277612	2.8770838
7.304836474665574	7.793625	2.7917066
7.322398979222286	7.405026	2.7212176
7.339961656012233	7.1099043	2.6664405
7.357524505453039	6.778457	2.603547
7.375087527962357	6.518718	2.553178
7.392650723957886	6.231598	2.496317
7.410214093857353	5.900455	2.4290853
7.427777638078528	5.7246556	2.3926253
7.445341357039213	5.5561376	2.357146
7.4629052511572525	5.394432	2.3225918
7.480469320850524	5.2975087	2.3016317
7.498033566536948	5.252081	2.2917418
7.5155979886344735	5.2030544	2.2810204
7.5331625875610975	5.182396	2.2764876
7.550727363734844	5.237398	2.2885363
7.568292317573788	5.270146	2.2956798
7.585857449496025	5.3036513	2.3029659
7.603422759919705	5.310367	2.3044233
7.620988249263007	5.2891135	2.2998073
7.638553917944147	5.3043823	2.3031244
7.656119766381391	5.2814093	2.2981317
7.673685794993023	5.29412	2.3008955
7.691252004197388	5.282637	2.2983987
7.70881839441285	5.267226	2.295044
7.726384966057826	5.2728972	2.296279
7.743951719550762	5.284798	2.298869
7.761518655310149	5.297822	2.3016999
7.779085773754511	5.3005867	2.3023002
7.796653075302419	5.310245	2.3043969
7.814220560372475	5.3033895	2.302909
7.831788229383323	5.291058	2.30023
7.8493560827536495	5.2583237	2.2931035
7.866924120902174	5.293474	2.300755
7.884492344247663	5.2941794	2.3009083
7.9020607532089135	5.403036	2.324443
7.919629348204771	5.431743	2.33061
7.937198129654115	5.421535	2.328419
7.954767097975865	5.3767076	2.3187728
7.972336253588986	5.346347	2.3122168
7.989905596912472	5.4177704	2.3276105
8.007475128365371	5.4704957	2.3389091
8.025044848366756	5.5565715	2.357238
8.042614757335754	5.6693177	2.381033
8.060184855691523	5.699271	2.3873146
8.07775514385327	5.816191	2.411678
8.095325622240228	5.8108406	2.4105685
8.112896291271687	5.83413	2.4153943
8.130467151366968	5.852457	2.4191852
8.148038202945436	5.865984	2.4219794
8.165609446426497	5.91355	2.4317791
8.183180882229594	6.0002575	2.4495423
8.200752510774217	6.0169983	2.4529572
8.218324332479893	5.9673977	2.4428258
8.235896347766193	5.935172	2.436221
8.253468557052724	5.9928246	2.4480245
8.27104096075914	6.057408	2.4611802
8.288613559305137	6.1171694	2.4732912
8.306186353110448	6.150732	2.480067
8.32375934259485	6.231564	2.49631
8.341332528178162	6.2448955	2.4989789
8.358905910280246	6.2699127	2.5039794
8.376479489321003	6.2448106	2.498962
8.394053265720377	6.324648	2.5148852
8.411627239898356	6.339986	2.517933
8.42920141227497	6.2922134	2.5084286
8.44677578327029	6.3286824	2.5156872
8.464350353304427	6.255536	2.501107
8.48192512279754	6.18616	2.4871993
8.499500092169827	6.0809035	2.4659488
8.51707526184153	5.9912086	2.4476945
8.534650632232934	6.0107822	2.4516897
8.552226203764365	6.0954823	2.468903
8.569801976856192	6.176848	2.4853265
8.587377951928834	6.242558	2.498511
8.60495412940274	6.2600465	2.5020084
8.622530509698416	6.3371267	2.517365
8.6401070932364	6.4539275	2.5404582
8.657683880437283	6.5527186	2.5598278
8.675260871721695	6.6700034	2.582635
8.692838067510303	6.7972507	2.6071537
8.710415468223834	6.984093	2.6427436
8.727993074283043	7.1822457	2.6799712
8.745570886108737	7.2971272	2.7013195
8.763148904121765	7.4248905	2.7248652
8.78072712874302	7.344857	2.7101398
8.798305560393441	7.4342313	2.7265787
8.815884199494006	7.499112	2.7384508
8.833463046465745	7.7423863	2.7825143
8.851042101729728	7.91597	2.8135333
8.86862136570707	8.193653	2.8624558
8.886200838818924	8.396685	2.8977034
8.903780521486505	8.503702	2.9161108
8.921360414131055	8.694261	2.9486032
8.938940517173874	8.748096	2.9577181
8.956520831036297	8.80015	2.9665046
8.97410135613971	8.980338	2.9967213
8.99168209290554	9.142385	3.0236375
9.009263041755265	9.435084	3.0716581
9.026844203110405	9.763639	3.1246822
9.044425577392525	9.929371	3.1510904
9.062007165023239	10.140497	3.1844146
9.079588966424197	10.384618	3.2225173
9.097170982017108	10.474253	3.2363951
9.11475321222372	11.408461	3.3776412
9.132335657465825	12.23654	3.4980767
9.149918318165264	12.320983	3.5101259
9.167501194743924	12.837552	3.582953
9.18508428762374	12.532325	3.5401025
9.202667597226693	12.472384	3.5316262
9.220251123974803	12.155505	3.4864745
9.237834868290143	11.853481	3.4428885
9.255418830594836	11.718257	3.423194
9.273003011311046	11.233166	3.3515916
9.290587410860985	10.987875	3.3147964
9.308172029666911	10.339282	3.2154753
9.32575686815113	10.029553	3.1669471
9.343341926735997	8.916808	2.9861026
9.360927205843916	8.713591	2.9518793
9.378512705897327	8.563222	2.9262984
9.396098427318728	8.302952	2.8814843
9.413684370530664	8.12783	2.8509347
9.431270535955722	7.952029	2.8199344
9.448856924016539	7.824487	2.7972286
9.466443535135806	7.7027593	2.7753844
9.484030369736251	7.726308	2.7796237
9.501617428240658	7.7569284	2.7851262
9.519204711071852	7.7790813	2.7891004
9.536792218652714	7.7430696	2.7826371
9.55437995140617	7.8056045	2.7938511
9.571967909755191	7.8448105	2.800859
9.589556094122802	7.9341974	2.8167708
9.60714450493207	7.869897	2.8053336
9.624733142606116	7.8745604	2.8061647
9.642322007568108	7.947457	2.8191235
9.659911100241267	7.987617	2.8262372
9.677500421048851	7.994434	2.827443
9.695089970414175	7.9852395	2.8258166
9.712679748760609	8.007866	2.8298173
9.730269756511557	8.108633	2.8475661
9.747859994090492	8.135055	2.8522017
9.765450461920915	8.224296	2.8678033
9.78304116042639	8.212625	2.8657677
9.800632090030527	8.296333	2.8803356
9.81822325115699	8.314317	2.8834558
9.835814644229481	8.385149	2.8957121
9.853406269671762	8.399912	2.89826
9.870998127907646	8.390884	2.8967023
9.888590219360985	8.341532	2.888171
9.906182544455698	8.2465925	2.8716881
9.923775103615734	8.231709	2.8690953
9.941367897265108	8.259137	2.8738716
9.958960925827878	8.282614	2.877953
9.97655418972816	8.25952	2.873938
9.994147689390106	8.254324	2.873034
10.011741425237934	8.289352	2.8791234
10.029335397695904	8.332187	2.8865528
10.04692960718833	8.34785	2.8892646
10.06452405413958	8.277387	2.8770447
10.082118738974064	8.166329	2.8576791
10.099713662116246	8.168073	2.857984
10.117308823990651	8.208877	2.8651137
10.134904225021844	8.304646	2.8817782
10.152499865634445	8.312938	2.8832166
10.170095746253125	8.31228	2.8831024
10.18769186730261	8.306018	2.8820162
10.205288229207675	8.241593	2.8708177
10.222884832393145	8.220573	2.8671541
10.2404816772839	8.150292	2.8548717
10.258078764304868	8.179166	2.859924
10.275676093881035	8.1868725	2.8612711
10.293273666437438	8.191898	2.8621492
10.310871482399158	8.23405	2.8695035
10.32846954219134	8.255914	2.8733106
10.346067846239173	8.288486	2.878973
10.363666394967908	8.307995	2.8823593
10.38126518880283	8.29084	2.879382
10.398864228169298	8.332734	2.8866475
10.416463513492713	8.262361	2.8744323
10.434063045198531	8.179908	2.8600538
10.451662823712262	8.20656	2.8647094
10.469262849459467	8.326151	2.885507
10.486863122865758	8.269563	2.8756847
10.504463644356806	8.254578	2.873078
10.522064414358338	8.097361	2.845586
10.539665433296118	8.0748005	2.8416193
10.557266701595987	8.035757	2.834741
10.574868219683818	7.9861197	2.8259723
10.592469987985552	7.8936505	2.809564
10.610072006927185	7.813997	2.7953527
10.627674276934751	7.7233486	2.7790914
10.64527679843435	7.5314884	2.7443557
10.662879571852143	7.344384	2.7100525
10.680482597614331	7.201708	2.6835997
10.698085876147173	6.9812627	2.6422079
10.715689407876988	6.883926	2.6237237
10.733293193230146	6.8147864	2.6105146
10.750897232633072	6.7553654	2.5991085
10.76850152651225	6.779187	2.6036873
10.786106075294207	6.7950125	2.6067245
10.803710879405534	6.736697	2.5955148
10.821315939272877	6.568959	2.562998
10.83892125532294	6.3611636	2.5221348
10.856526827982472	6.315281	2.5130222
10.874132657678285	6.3041778	2.5108123
10.891738744837243	6.321238	2.5142071
10.909345089886271	6.2737837	2.5047522
10.926951693252343	6.224145	2.4948237
10.944558555362494	6.110773	2.4719977
10.96216567664381	6.0052147	2.450554
10.979773057523436	5.9078546	2.4306078
10.997380698428573	5.876183	2.424084
11.014988599786477	5.8189926	2.4122589
11.032596762024461	5.78075	2.404319
11.050205185569892	5.6719713	2.3815901
11.067813870850198	5.597072	2.3658133
11.085422818292859	5.526883	2.3509324
11.10303202832541	5.429113	2.3300457
11.120641501375454	5.345914	2.3121233
11.138251237870636	5.3073153	2.3037612
11.155861238238671	5.2574344	2.2929096
11.173471502907317	5.2117147	2.282918
11.191082032304402	5.156324	2.270754
11.208692826857805	5.1100307	2.2605376
11.226303886995465	5.079634	2.2538044
11.243915213145371	5.030237	2.242819
11.261526805735578	5.0113387	2.238602
11.279138665194196	4.9454746	2.2238424
11.296750791949393	4.8898845	2.2113082
11.314363186429393	4.838211	2.1995933
11.331975849062479	4.720919	2.1727676
11.34958878027699	4.664095	2.1596515
11.36720198050133	4.601063	2.1450088
11.384815450163948	4.566523	2.1369424
11.402429189693366	4.543498	2.1315482
11.420043199518153	4.556135	2.1345105
11.437657480066942	63.57187	7.973197
11.455272031768422	85.27889	9.234657
11.472886855051353	107.66286	10.376071
11.490501950344528	99.21827	9.960836
11.508117318076819	84.524704	9.193731
11.52573295867715	45.861927	6.7721434
11.543348872574514	4.171198	2.042351
11.560965060197946	4.1868205	2.0461721
11.57858152197655	4.190447	2.047058
11.59619825833949	4.134772	2.033414
11.613815269715985	4.053175	2.0132499
11.631432556535323	38.53422	6.207594
11.649050119226837	83.046974	9.113011
11.666667958219929	93.458496	9.667394
11.68428607394406	107.735825	10.379587
11.701904466828756	82.545685	9.085465
11.719523137303586	65.410065	8.087649
11.737142085798196	4.631628	2.1521218
11.754761312742286	3.698379	1.923117
11.772380818565619	3.6461525	1.9094901
11.790000603698015	3.6248372	1.9039005
11.80762066856935	3.6415935	1.908296
11.825241013609572	3.6334996	1.9061741
11.842861639248683	3.5872924	1.894015
11.860482545916748	3.5467129	1.8832718
11.878103734043883	3.506955	1.8726865
11.895725204060282	3.4734983	1.8637323
11.91334695639619	3.4257114	1.8508677
11.930968991481919	3.3793275	1.8382947
11.948591309747824	3.3602998	1.833112
11.966213911624347	3.327825	1.8242327
11.98383679754198	3.2942965	1.8150197
12.001459967931268	3.2804737	1.8112078
12.019083423222835	3.3001664	1.816636
12.036707163847352	3.2746136	1.8095894
12.05433119023556	3.2558074	1.8043855
12.071955502818259	3.2406895	1.8001915
12.089580102026313	3.250396	1.8028854
12.107204988290643	3.253523	1.8037525
12.12483016204224	3.205764	1.7904648
12.142455623712152	3.1667674	1.7795414
12.16008137373149	3.1533446	1.7757659
12.177707412531431	3.1224558	1.7670472
12.19533374054321	3.096844	1.7597852
12.212960358198126	3.0758898	1.7538215
12.230587265927545	3.080111	1.7550246
12.248214464162889	3.0893452	1.7576534
12.265841953335649	3.0714855	1.7525654
12.283469733877375	3.004295	1.7332903
12.301097806219685	2.9574947	1.7197368
12.31872617079425	2.9802175	1.7263306
12.336354828032825	3.0044117	1.7333239
12.353983778367205	3.001642	1.7325248
12.371613022229262	2.9817023	1.7267606
12.389242560050928	2.966973	1.7224903
12.406872392264201	2.9782202	1.7257521
12.424502519301143	2.9514737	1.7179854
12.442132941593874	2.939197	1.7144086
12.459763659574586	2.908062	1.705304
12.477394673675532	2.8979754	1.7023441
12.49502598432903	2.8805313	1.6972128
12.51265759196746	2.861565	1.6916162
12.530289497023267	2.8567507	1.6901925
12.547921699928967	2.805212	1.6748767
12.565554201117134	2.7827432	1.6681557
12.583187001020404	2.803389	1.6743324
12.600820100071486	2.83414	1.6834904
12.618453498703152	2.8303306	1.6823586
12.636087197348235	2.7730227	1.6652396
12.65372119643964	2.7442994	1.6565927
12.671355496410326	2.7544632	1.6596576
12.68899009769333	2.779591	1.6672106
12.706625000721749	2.8264942	1.681218
12.724260205928752	2.8684726	1.6936566
12.741895713747551	2.8834324	1.6980673
12.759531524611454	2.971926	1.7239275
12.777167638953818	2.9641676	1.7216758
12.794804057208072	2.9646976	1.7218298
12.812440779807702	2.9989023	1.7317339
12.830077807186271	3.1866899	1.7851303
12.847715139777405	3.224246	1.7956185
12.865352778014795	3.4502945	1.8574969
12.882990722332197	3.5666516	1.888558
12.90062897316344	3.6783955	1.9179144
12.918267530942412	3.7318957	1.9318115
12.935906396103071	3.5911617	1.8950361
12.953545569079449	3.7535174	1.9373996
12.971185050305628	3.5724125	1.8900827
12.988824840215775	3.6538856	1.9115139
13.006464939244115	3.6496725	1.9104116
13.024105347824943	3.4402921	1.8548025
13.041746066392617	3.514929	1.8748144
13.05938709538157	3.3555584	1.8318183
13.077028435226296	3.4461832	1.8563899
13.094670086361363	3.3896306	1.841095
13.112312049221401	3.2990358	1.8163248
13.129954324241112	3.1494765	1.7746764
13.147596911855258	2.8936892	1.7010847
13.165239812498685	2.7984927	1.6728696
13.182883026606293	2.7384255	1.6548189
13.200526554613058	2.7247965	1.6506958
13.218170396954017	2.7125392	1.6469789
13.235814554064284	2.739956	1.6552812
13.253459026379034	2.7620518	1.6619421
13.271103814333523	2.7685094	1.6638838
13.288748918363058	2.7479968	1.6577083
13.306394338903031	2.7145946	1.6476027
13.32404007638889	2.6615686	1.6314315
13.341686131256164	2.655676	1.6296245
13.359332503940449	2.6169555	1.6177007
13.376979194877402	2.6496863	1.6277857
13.394626204502751	2.6944265	1.6414708
13.412273533252307	2.7375717	1.6545609
13.429921181561937	2.772406	1.6650544
13.447569149867581	2.792381	1.6710418
13.465217438605247	2.7917004	1.6708382
13.482866048211022	2.7404222	1.6554221
13.500514979121052	2.6946356	1.6415346
13.518164231771568	2.6785889	1.6366395
13.535813806598844	2.680965	1.6373652
13.553463704039254	2.6763744	1.6359628
13.571113924529229	2.6723926	1.6347455
13.588764468505275	2.678233	1.6365308
13.606415336403956	2.6948428	1.6415976
13.624066528661917	2.7096245	1.6460937
13.641718045715882	2.7700176	1.664337
13.659369888002635	2.8428266	1.6860684
13.67702205595903	2.8935328	1.7010387
13.694674550021993	2.968924	1.7230566
13.712327370628532	3.0461924	1.7453345
13.729980518215713	3.1483912	1.7743707
13.747633993220681	3.2233956	1.7953818
13.765287796080647	3.2677338	1.8076874
13.7829419272329	3.291624	1.8142834
13.800596387114801	3.3779063	1.8379081
13.818251176163775	3.3564382	1.8320584
13.835906294817324	3.3876364	1.8405533
13.853561743513023	3.3841736	1.8396124
13.871217522688525	3.4364204	1.8537585
13.888873632781538	3.5002003	1.8708823
13.906530074229858	3.532582	1.8795165
13.92418684747135	3.4980597	1.8703101
13.941843952943948	3.4425836	1.85542
13.959501391085665	3.4237468	1.8503369
13.977159162334578	3.433691	1.8530221
13.994817267128846	3.407731	1.8460041
14.012475705906693	3.3178477	1.821496
14.030134479106424	3.2012815	1.7892126
14.047793587166414	3.1209898	1.7666323
14.065453030525108	3.0511382	1.7467507
14.083112809621026	2.9911618	1.7294976
14.100772924892766	2.9207118	1.709009
14.118433376778997	2.8763735	1.6959875
14.136094165718458	2.802681	1.6741209
14.153755292149969	2.756461	1.6602592
14.171416756512416	2.6665332	1.6329523
14.189078559244768	2.6334293	1.6227844
14.20674070078606	2.5967975	1.6114582
14.224403181575408	2.5818834	1.606824
14.242066002051999	2.5741665	1.6044209
14.259729162655093	2.540384	1.5938582
14.277392663824022	2.4977539	1.5804284
14.295056505998208	2.4436972	1.5632329
14.312720689617128	2.3836446	1.5439056
14.330385215120348	2.3509295	1.533274
14.348050082947497	2.4051828	1.5508652
14.3657152935383	2.4366407	1.5609742
14.383380847332528	2.4440315	1.5633398
14.401046744770051	2.386339	1.544778
14.418712986290798	2.397368	1.5483437
14.436379572334793	2.4276874	1.5581038
14.454046503342123	2.4456315	1.5638515
14.471713779752946	2.4121842	1.5531209
14.489381402007504	2.3875039	1.5451549
14.507049370546113	2.3607557	1.5364751
14.524717685809168	2.385391	1.5444711
14.542386348237134	2.4228156	1.5565397
14.560055358270553	2.4401035	1.5620831
14.577724716350051	2.4187763	1.5552416
14.595394422916325	2.3969345	1.5482036
14.61306447841015	2.3920472	1.5466244
14.63073488327237	2.4257855	1.5574933
14.648405637943917	2.4527102	1.5661131
14.6660767428658	2.4618905	1.5690413
14.683748198479094	2.4838834	1.5760341
14.701420005224954	2.55998	1.5999937
14.719092163544628	2.6200674	1.6186622
14.73676467387942	2.69723	1.6423246
14.754437536670727	2.7102947	1.6462973
14.772110752360014	2.710397	1.6463283
14.78978432138882	2.694809	1.6415874
14.807458244198777	2.7296596	1.6521682
14.82513252123159	2.706062	1.6450113
14.842807152929028	2.72976	1.6521986
14.860482139732962	2.6795845	1.6369437
14.87815748208531	2.6629763	1.6318629
14.8958331804281	2.6276379	1.620999
14.91350923520342	2.62305	1.6195832
14.931185646853438	2.653649	1.6290025
14.948862415820408	2.6614654	1.6313999
14.966539542546656	2.6959965	1.641949
14.98421702747459	2.673398	1.6350529
15.001894871046696	2.6985223	1.642718
15.019573073705542	2.692063	1.6407508
15.037251635893766	2.6735654	1.6351041
15.054930558054092	2.653699	1.6290178
15.072609840629323	2.6631517	1.6319166
15.090289484062351	2.8287184	1.6818794
15.107969488796124	3.1324115	1.7698619
15.125649855273691	3.5562918	1.8858134
15.14333058393817	4.026207	2.006541
15.161011675232768	5.0012393	2.236345
15.17869312960076	6.4036303	2.5305395
15.196374947485506	8.348597	2.8893938
15.214057129330447	11.372287	3.372282
15.231739675579114	15.918798	3.989837
15.249422586675102	20.869545	4.56832
15.267105863062092	24.02885	4.901923
15.284789505183847	24.464098	4.9461193
15.302473513484218	22.439116	4.7369943
15.320157888407127	18.876677	4.34473
15.337842630396578	14.712275	3.8356583
15.355527739896656	11.534149	3.3961964
15.37321321735153	8.991046	2.9985073
15.39089906320545	6.5685873	2.5629256
15.408585277902748	4.89811	2.2131674
15.42627186188783	3.77348	1.9425447
15.443958815605198	3.2214315	1.7948346
15.461646139499424	2.9590392	1.7201858
15.479333834015168	2.8348753	1.6837088
15.497021899597165	2.7612503	1.661701
15.514710336690234	2.6667006	1.6330036
15.53239914573928	2.5962784	1.6112971
15.550088327189297	2.5418532	1.594319
15.567777881485336	2.5314567	1.5910553
15.58546780907256	2.493691	1.5791425
15.6031581103962	2.4687212	1.5712165
15.620848785901568	2.4287524	1.5584456
15.638539836034063	2.4424455	1.5628325
15.656231261239173	2.4066484	1.5513376
15.673923061962451	2.385607	1.544541
15.691615238649552	2.3843052	1.5441196
15.709307791746202	2.4237363	1.5568354
15.727000721698221	2.4175973	1.5548625
15.744694028951498	2.4215558	1.5561348
15.76238771395202	2.409747	1.552336
15.780081777145844	2.4089324	1.5520736
15.797776218979125	2.3814507	1.543195
15.815471039898094	2.3844993	1.5441824
15.833166240349064	2.3897285	1.5458747
15.850861820778437	2.4024887	1.5499964
15.868557781632699	2.3983133	1.5486488
15.886254123358412	2.3955362	1.547752
15.903950846402232	2.4411228	1.5624093
15.921647951210897	2.4559379	1.5671432
15.939345438231225	2.4301417	1.5588912
15.957043307910133	2.3798707	1.5426829
15.974741560694602	2.3774807	1.5419081
15.992440197031714	2.4043827	1.5506072
16.01013921736862	2.3954318	1.5477183
16.02783862215259	2.3740416	1.5407925
16.045538411830933	2.3653293	1.5379627
16.06323858685107	2.3840947	1.5440514
16.080939147660512	2.3837585	1.5439426
16.09864009470684	2.4211462	1.5560032
16.11634142843774	2.4460196	1.5639756
16.134043149300954	2.4647372	1.5699482
16.15174525774433	2.4386995	1.5616336
16.169447754215817	2.3977594	1.54847
16.18715063916342	2.401821	1.549781
16.204853913035244	2.4419324	1.5626683
16.222557576279478	2.4421682	1.5627438
16.240261629344403	22.398643	4.7327204
16.257966072678386	42.94644	6.5533533
16.275670906729868	38.083363	6.1711717
16.293376131947387	2.5153484	1.585985
16.31108174877957	2.5347877	1.5921017
16.328787757675133	2.5500138	1.5968763
16.34649415908287	2.556582	1.5989316
16.364200953451657	2.5778491	1.6055682
16.38190814123048	2.6131675	1.6165295
16.39961572286839	2.6261942	1.6205537
16.41732369881455	2.618444	1.6181607
16.43503206951817	2.6540911	1.6291381
16.45274083542859	2.6930535	1.6410526
16.47044999699522	2.7802055	1.6673949
16.488159554667558	2.8422217	1.685889
16.505869508895184	2.9068935	1.7049614
16.523579860127786	2.9451804	1.7161528
16.541290608815117	2.9607592	1.7206857
16.559001755407035	2.99972	1.73197
16.57671330035348	3.0292664	1.7404788
16.59442524410448	3.0750992	1.7535961
16.61213758711015	3.131246	1.7695327
16.629850329820705	3.220634	1.7946125
16.647563472686436	3.3312945	1.8251834
16.665277016157724	3.423264	1.8502065
16.682990960685053	3.4090347	1.8463571
16.70070530671898	3.398772	1.8435758
16.718420054710155	3.4204733	1.8494521
16.736135205109335	3.4908528	1.8683825
16.753850758367335	3.5714476	1.8898274
16.771566714935087	3.6392112	1.9076717
16.789283075263597	3.704282	1.9246511
16.80699983980398	3.7790706	1.9439832
16.82471700900741	3.848465	1.9617505
16.84243458332518	3.884376	1.970882
16.860152563208665	3.9471376	1.9867405
16.87787094910932	4.030222	2.0075412
16.89558974147871	4.116322	2.028872
16.913308940768466	4.1702127	2.04211
16.931028547430333	4.257591	2.063393
16.94874856191613	4.3218765	2.0789123
16.966468984677785	4.3692446	2.0902739
16.98418981616729	4.3969984	2.0969021
17.00191105683676	4.443035	2.1078508
17.019632707138374	4.497113	2.1206398
17.03735476752442	4.542371	2.1312838
17.05507723844728	4.548625	2.1327505
17.072800120359403	4.6258297	2.1507742
17.090523413713353	4.6881533	2.1652143
17.108247118961785	4.704921	2.1690829
17.125971236557437	4.744233	2.178126
17.143695766953133	4.7405806	2.1772873
17.161420710601806	4.724419	2.1735728
17.179146067956477	4.6543956	2.157405
17.19687183947025	4.6539783	2.157308
17.21459802559634	4.725393	2.173797
17.232324626788028	4.7619567	2.182191
17.25005164349871	4.7191453	2.1723595
17.267779076181863	4.681388	2.1636515
17.285506925291074	4.638244	2.1536584
17.30323519127999	4.66092	2.1589165
17.320963874602384	4.654283	2.1573787
17.33869297571211	4.6480327	2.1559296
17.356422495063114	4.6413546	2.1543803
17.37415243310944	4.626746	2.1509871
17.391882790305218	4.5423656	2.1312826
17.40961356710468	4.4954166	2.1202397
17.42734476396215	4.482438	2.117177
17.445076381332044	4.5469646	2.1323612
17.462808419668868	4.620231	2.1494722
17.48054087942723	4.779241	2.1861475
17.498273761061835	5.0850525	2.255006
17.51600706502747	5.6038175	2.3672383
17.533740791779024	6.303405	2.5106583
17.551474941771485	7.706074	2.7759817
17.56920951545993	8.782516	2.963531
17.586944513299528	11.026842	3.320669
17.60467993574556	12.709517	3.5650408
17.622415783253373	14.317569	3.7838564
17.64015205627843	15.617424	3.9518886
17.657888755276293	16.578726	4.071698
17.675625880702604	17.06036	4.130419
17.69336343301311	16.90999	4.112176
17.71110141266366	16.173922	4.0216813
17.728839820110178	15.240879	3.903957
17.746578655808705	14.390582	3.793492
17.764317920215372	13.003762	3.606073
17.7820576137864	11.578113	3.4026625
17.79979773697811	9.527745	3.0867045
17.81753829024692	7.5843334	2.7539668
17.835279274049356	5.8660135	2.4219854
17.85302068884201	4.863086	2.2052407
17.870762535081607	4.2376184	2.0585477
17.888504813224934	3.9520478	1.9879758
17.90624752372891	3.7983704	1.9489409
17.923990667050536	3.689358	1.9207702
17.941734243646895	3.537317	1.8807757
17.959478253975185	3.4773436	1.8647636
17.9772226984927	3.43747	1.8540416
17.994967577656833	3.405146	1.8453038
18.01271289192506	3.374699	1.8370354
18.030458641754965	3.3334498	1.8257737
18.04820482760425	3.2844985	1.8123186
18.06595144993067	3.274095	1.8094461
18.083698509192125	3.2885108	1.8134252
18.101446005846576	3.3040924	1.8177162
18.119193940352105	3.2708757	1.8085562
18.136942313166887	3.1804833	1.783391
18.1546911247492	3.1314218	1.7695824
18.1724403755574	3.1262076	1.7681085
18.19019006604997	3.1385071	1.7715832
18.207940196685467	3.1311965	1.7695187
18.225690767922575	3.0785103	1.7545685
18.243441780220046	3.0765698	1.7540153
18.261193234036764	3.0724874	1.7528512
18.278945129831676	3.1102884	1.763601
18.29669746806386	3.0734851	1.7531358
18.314450249192483	3.0627432	1.7500695
18.3322034736768	3.0931163	1.7587258
18.349957141976184	3.0955768	1.7594252
18.3677112545501	3.0190632	1.7375451
18.385465811858108	3.0006588	1.7322409
18.403220814359884	3.0189648	1.7375169
18.420976262515172	3.0369773	1.7426926
18.43873215678387	3.099665	1.7605865
18.456488497625923	3.168699	1.780084
18.474245285501407	3.2436945	1.801026
18.492002520870486	3.3068907	1.8184859
18.50976020419343	3.3708088	1.8359762
18.527518335930615	3.7023451	1.9241478
18.545276916542516	4.31088	2.0762658
18.563035946489688	4.4868307	2.1182141
18.580795426232832	4.917587	2.2175632
18.598555356232698	4.7793717	2.1861775
18.616315736950185	5.0705442	2.251787
18.63407656884626	4.6847897	2.1644375
18.65183785238201	4.893698	2.2121704
18.669599588018617	4.698476	2.1675968
18.68736177621737	4.719243	2.1723819
18.705124417439652	4.631298	2.152045
18.72288751214696	4.3784933	2.092485
18.740651060800886	4.543444	2.1315355
18.758415063863115	4.330623	2.0810149
18.77617952179546	4.4926267	2.1195817
18.793944435059814	4.210311	2.0519042
18.811709804118184	4.2136903	2.0527275
18.829475629432675	4.222118	2.0547793
18.8472419114655	4.0223365	2.0055764
18.86500865067897	4.0881686	2.021922
18.88277584753551	3.7616992	1.93951
18.90054350249763	3.7766974	1.9433727
18.918311616027957	3.4484336	1.8569958
18.936080188589226	3.3616974	1.8334932
18.953849220644265	3.0965958	1.7597147
18.971618712656007	2.9359713	1.7134676
18.9893886650875	2.8574195	1.6903903
19.007159078401887	7.9755526	2.8241022
19.024929953062408	32.829895	5.7297378
19.042701289532435	32.76375	5.723963
19.060473088275405	25.398413	5.039684
19.07824534975489	2.6982467	1.642634
19.096018074434568	2.694096	1.6413702
19.113791262778197	2.6311822	1.6220919
19.13156491524966	2.6322982	1.6224359
19.149339032312945	2.6057584	1.6142361
19.167113614432136	2.6137145	1.6166986
19.184888662071433	2.5845962	1.6076679
19.202664175695123	2.580773	1.6064785
19.220440155767623	2.5789127	1.6058993
19.238216602753447	2.5690567	1.6028278
19.2559935171172	2.5313263	1.5910143
19.27377089932361	2.5167675	1.5864323
19.291548749837514	2.512355	1.585041
19.309327069123835	2.5168505	1.5864584
19.32710585764763	2.5469494	1.5959165
19.344885115874032	2.5639427	1.6012316
19.362664844268313	2.56975	1.603044
19.380445043295822	2.4917698	1.578534
19.39822571342203	2.471486	1.5720961
19.41600685511252	2.4784746	1.5743172
19.43378846883297	2.5072262	1.5834223
19.451570555049173	2.4796422	1.574688
19.469353114227037	2.4719932	1.5722574
19.48713614683254	2.4669423	1.5706503
19.50491965333182	2.496101	1.5799054
19.52270363419109	2.4861712	1.5767597
19.540488089876686	2.491435	1.578428
19.55827302085503	2.4897435	1.5778921
19.576058427592674	2.4866807	1.5769213
19.593844310556282	2.4821959	1.5754986
19.611630670212598	2.4887192	1.5775675
19.629417507028506	2.5037603	1.5823275
19.64720482147098	2.5426793	1.5945781
19.6649926140071	2.520704	1.5876725
19.682780885104084	2.5194001	1.5872618
19.70056963522921	2.5054586	1.582864
19.718358864849908	2.5090728	1.5840054
19.7361485744337	2.4743893	1.5730191
19.753938764448215	2.4650497	1.5700477
19.771729435361202	2.4782746	1.5742537
19.789520587640506	2.4766717	1.5737445
19.807312221754092	2.4993832	1.5809438
19.825104338170043	2.5343232	1.5919558
19.842896937356517	2.523523	1.5885601
19.860690019781824	2.5420964	1.5943953
19.87848358591436	2.5789597	1.605914
19.896277636222635	2.605081	1.6140263
19.914072171175278	2.5972521	1.6115992
19.931867191241015	2.5629978	1.6009365
19.94966269688869	2.4913042	1.5783865
19.967458688587264	2.4336698	1.5600224
19.985255166805807	2.4123125	1.5531621
20.00305213201348	2.435405	1.5605785
20.020849584679578	2.4570215	1.5674889
20.038647525273507	2.4584558	1.5679463
20.05644595426477	2.4444299	1.5634673
20.07424487212299	2.4138224	1.5536481
20.092044279317903	2.407748	1.551692
20.109844176319353	2.4331968	1.5598707
20.127644563597304	2.4465008	1.5641294
20.145445441621817	2.4398727	1.5620092
20.16324681086307	2.4260144	1.5575669
20.181048671791373	2.4338517	1.5600806
20.198851024877122	2.4143484	1.5538174
20.216653870590836	2.3806436	1.5429335
20.234457209403146	2.385958	1.5446546
20.252261041784802	2.4039924	1.5504813
20.270065368206662	2.4090574	1.5521139
20.287870189139685	2.4195209	1.555481
20.305675505054968	2.4321861	1.5595468
20.323481316423702	2.4161422	1.5543945
20.341287623717207	2.4074488	1.5515956
20.359094427406884	2.3968108	1.5481637
20.376901727964288	2.3765304	1.5416
20.39470952586107	2.3687887	1.5390869
20.41251782156899	2.3645716	1.5377164
20.430326615559935	2.3580334	1.535589
20.448135908305886	2.3212237	1.5235562
20.465945700278965	2.2732413	1.5077271
20.483755991951384	2.2800279	1.5099761
20.50156678379548	2.3262863	1.5252168
20.519378076283708	2.3432233	1.5307591
20.537189869888635	2.3052387	1.5183012
20.55500216508294	2.2668772	1.5056152
20.572814962339415	2.3055155	1.5183924
20.59062826213098	2.3493967	1.5327742
20.60844206493066	2.3462572	1.5317497
20.626256371211593	2.3374615	1.5288758
20.644071181447032	2.3174198	1.5223074
20.66188649611036	2.2958927	1.5152204
20.67970231567506	2.2722676	1.5074042
20.697518640614742	2.2820919	1.5106595
20.715335471403122	2.30756	1.5190655
20.73315280851404	2.3321083	1.5271242
20.750970652421447	2.322415	1.5239472
20.768789003599412	2.3117437	1.520442
20.786607862522136	2.3293471	1.5262198
20.8044272296639	2.333233	1.5274924
20.82224710549913	2.3358932	1.5283629
20.84006749050237	2.2960987	1.5152884
20.857888385148268	3.8287342	1.9567151
20.8757097899116	45.95413	6.7789474
20.893531705267254	64.86078	8.053619
20.911354131690224	83.859215	9.157468
20.92917706965566	69.07719	8.311269
20.94700051963877	50.12594	7.0799675
20.96482448211493	29.415623	5.423617
20.982648957559622	4.1624026	2.0401967
21.00047394644843	2.2828832	1.5109212
21.01829944925707	2.3227923	1.524071
21.036125466461375	2.3384564	1.5292013
21.053951998537297	2.298112	1.5159525
21.071779045960906	2.216253	1.4887085
21.089606609208378	2.1699014	1.4730585
21.10743468875603	2.1639428	1.4710346
21.12526328508028	2.2119277	1.4872551
21.143092398657675	2.2146118	1.4881572
21.16092202996488	2.2113016	1.4870446
21.17875217947867	2.2397058	1.4965646
21.19658284767596	2.227185	1.4923756
21.21441403503377	2.2030258	1.4842594
21.232245742029225	2.1858075	1.4784477
21.2500779691396	2.1989024	1.4828696
21.26791071684227	2.198161	1.4826196
21.28574398561475	2.1835184	1.4776733
21.30357777593465	2.171245	1.4735146
21.321412088279704	2.1872172	1.4789244
21.339246923127792	2.2147467	1.4882025
21.357082280956888	2.1967924	1.4821581
21.3749181622451	2.1768765	1.4754242
21.392754567470647	2.167102	1.472108
21.41059149711187	2.2030118	1.4842546
21.42842895164726	2.2160068	1.4886258
21.446266931555378	2.1864586	1.4786679
21.464105437314945	2.1520028	1.4669707
21.481944469404798	2.1423557	1.4636788
21.49978402830388	2.1116526	1.4531527
21.51762411449127	2.0971987	1.4481708
21.53546472844617	2.083044	1.4432755
21.553305870647876	2.1079597	1.4518814
21.571147541575865	2.1176744	1.4552231
21.58898974170967	2.1201265	1.4560654
21.60683247152899	2.0783365	1.4416437
21.62467573151363	2.0359406	1.4268639
21.642519522143523	2.0384686	1.4277495
21.660363843898722	2.0664787	1.4375252
21.6782086972594	2.0408237	1.428574
21.696054082705864	2.0135849	1.4190084
21.713900000718535	2.0323172	1.4255936
21.73174645177795	2.0873907	1.4447805
21.749593436364794	2.0857377	1.4442084
21.767440954959845	2.084595	1.4438126
21.785289008044032	2.0845747	1.4438056
21.803137596098388	2.0630572	1.4363346
21.820986719604086	2.0203502	1.4213903
21.838836379042412	1.969355	1.4033371
21.85668657489478	1.9723587	1.4044069
21.87453730764273	1.9869229	1.4095825
21.892388577767914	2.0306277	1.4250009
21.91024038575213	2.033861	1.426135
21.928092732077285	2.0354428	1.4266895
21.945945617225426	2.0287757	1.424351
21.963799041678694	1.9875003	1.4097873
21.981653005919398	31.301792	5.5948005
21.999507510429943	78.12006	8.838555
22.01736255569286	73.11075	8.550483
22.035218142190818	4.220517	2.0543897
22.05307427040661	2.0449693	1.4300243
22.07093094082315	1.9990425	1.413875
22.088788153923474	1.9888611	1.4102699
22.106645910190746	2.0138564	1.4191041
22.12450421010827	2.0247931	1.4229523
22.142363054159464	1.9997586	1.4141282
22.16022244282787	1.952607	1.3973571
22.178082376597164	1.9436815	1.3941598
22.195942855951145	1.9813613	1.4076084
22.213803881373742	2.004848	1.4159266
22.231665453349002	1.9996966	1.4141062
22.24952757236111	1.9849747	1.4088913
22.26739023889438	1.9764665	1.4058686
22.28525345343323	1.9500582	1.3964448
22.30311721646225	1.9495615	1.3962669
22.320981528466113	1.9596217	1.3998649
22.33884638992964	1.9929389	1.4117149
22.356711801337788	1.9943557	1.4122165
22.37457776317561	1.9752116	1.4054222
22.392444275928337	1.9802294	1.4072062
22.410311340081282	1.9793031	1.406877
22.428178956119904	1.9785553	1.4066113
22.446047124529805	1.9839565	1.4085299
22.46391584579669	1.9684583	1.4030175
22.481785120406414	1.9644363	1.4015836
22.49965494884496	1.9913734	1.4111603
22.51752533159841	1.9981654	1.4135648
22.53539626915302	1.9886822	1.4102064
22.553267761995137	1.9675936	1.4027094
22.571139810611264	1.9590354	1.3996555
22.589012415488025	1.9568412	1.3988714
22.60688557711216	1.9350282	1.391053
22.624759295970566	1.8958998	1.3769168
22.642633572550263	1.9052252	1.380299
22.660508407338362	1.9671726	1.4025593
22.67838380082217	2.0063102	1.4164428
22.696259753489077	1.9618142	1.4006478
22.714136265826614	1.8877276	1.373946
22.73201333832246	1.8613881	1.364327
22.74989097146439	1.9339646	1.3906705
22.76776916574035	1.9385036	1.3923016
22.785647921638393	1.9311883	1.389672
22.803527239646712	1.9342347	1.3907677
22.82140712025363	1.923968	1.3870717
22.839287563947593	1.9174334	1.3847142
22.85716857121719	1.905711	1.3804749
22.875050142551135	1.8907316	1.3750387
22.892932278438277	1.9110947	1.3824235
22.910814979367604	1.9072534	1.3810334
22.928698245828222	1.9144745	1.3836454
22.946582078309387	1.9266294	1.3880308
22.96446647730047	1.9253732	1.3875781
22.98235144329098	1.8721039	1.3682485
23.000236976770562	1.8436698	1.357818
23.018123078229	1.8615736	1.3643949
23.03600974815619	1.8809477	1.3714764
23.053896987042194	1.8785319	1.3705955
23.071784795377173	1.8610822	1.3642149
23.08967317365145	1.8921139	1.3755413
23.10756212235546	1.9168472	1.3845025
23.125451641979787	1.9284072	1.388671
23.143341733015134	1.9244947	1.3872616
23.161232395952357	1.9511733	1.396844
23.179123631282426	1.9856089	1.4091164
23.197015439496468	1.9487323	1.39597
23.214907821085717	1.9188944	1.3852416
23.23280077654157	1.9072084	1.3810172
23.250694306355538	1.9188884	1.3852395
23.268588411019277	1.98213	1.4078814
23.28648309102458	1.9839572	1.4085301
23.304378346863356	1.9552342	1.3982968
23.322274179027676	1.9359081	1.3913691
23.340170588009723	1.9491405	1.3961163
23.358067574301852	1.9605043	1.4001801
23.37596513839651	1.9526625	1.397377
23.39386328078629	1.964276	1.4015263
23.411762001963947	1.9429145	1.3938847
23.429661302422353	1.8940133	1.3762316
23.4475611826545	1.8469936	1.3590415
23.46546164315356	1.847458	1.3592123
23.48336268441279	1.9345019	1.3908638
23.501264306925638	1.9937329	1.4119961
23.51916651118564	1.9977708	1.4134252
23.537069297686497	1.9777523	1.4063258
23.554972666922037	1.9716785	1.4041647
23.57287661938623	1.9810992	1.4075153
23.59078115557318	1.9608343	1.4002979
23.608686275977128	1.9481603	1.3957652
23.62659198109246	1.8993133	1.3781558
23.6444982714137	1.8694811	1.3672897
23.66240514743549	1.8981524	1.3777345
23.68031260965263	1.9101131	1.3820684
23.698220658560068	1.8949589	1.376575
23.716129294652845	1.8788232	1.3707017
23.7340385184262	1.9152182	1.3839141
23.75194833037546	1.9693558	1.4033374
23.769858730996123	1.9701335	1.4036144
23.78776972078382	1.9322637	1.3900589
23.80568130023431	1.9151247	1.3838803
23.823593469843495	1.8938063	1.3761563
23.841506230107424	1.8878524	1.3739914
23.859419581522275	1.85764	1.3629527
23.87733352458438	1.9033976	1.3796368
23.89524805979019	1.9504327	1.3965789
23.913163187636318	1.9575913	1.3991395
23.931078908619508	1.9527335	1.3974024
23.948995223236633	1.9848416	1.4088441
23.966912131984735	2.0340757	1.4262103
23.98482963536096	2.078923	1.4418471
24.002747733862616	2.0708175	1.4390335
24.020666427987155	2.044888	1.4299958
24.038585718232156	1.9858	1.4091842
24.056505605095353	1.94494	1.394611
24.074426089074617	2.0350826	1.4265633
24.092347170667946	2.094062	1.4470874
24.110268850373515	2.0795054	1.442049
24.128191128689586	2.0304751	1.4249474
24.146114006114626	2.0677693	1.437974
24.164037483147187	2.0560296	1.4338862
24.181961560286005	2.0369334	1.4272118
24.199886238029926	2.0074515	1.4168457
24.21781151687797	1.9916413	1.4112552
24.235737397329274	2.0100014	1.4177452
24.253663879883135	2.061443	1.4357727
24.271590965038975	2.0947642	1.44733
24.289518653296376	2.0589595	1.4349074
24.30744694515505	2.0253234	1.4231386
24.32537584111486	2.0070047	1.416688
24.34330534167581	2.0025394	1.4151111
24.361235447338046	2.0146694	1.4193906
24.379166158601876	2.0024953	1.4150954
24.39709747596772	1.9554658	1.3983797
24.41502939993615	1.9833682	1.408321
24.432961931007917	1.9942474	1.4121783
24.450895069683856	2.0013504	1.414691
24.468828816465	1.9749446	1.4053272
24.4867631718525	1.9605185	1.4001851
24.504698136347656	1.9432213	1.3939947
24.52263371045192	1.943671	1.394156
24.540569894666874	1.9638094	1.4013598
24.558506689494266	1.9853663	1.4090303
24.57644409543597	1.9956294	1.4126675
24.594382112994012	1.9720004	1.4042794
24.61232074267057	1.9286977	1.3887756
24.630259984967953	1.9098926	1.3819886
24.64819984038863	1.9504541	1.3965865
24.66614030943522	2.0140402	1.4191688
24.684081392610462	2.0081897	1.4171062
24.702023090417274	1.9871033	1.4096465
24.7199654033587	1.9969623	1.4131392
24.737908331937927	2.060933	1.435595
24.755851876658305	2.0709157	1.4390676
24.773796038023324	2.065976	1.4373503
24.79174081653661	2.0568843	1.4341842
24.809686212701962	2.0543787	1.4333104
24.827632227023294	2.0441644	1.4297428
24.8455788600047	2.0624657	1.4361287
24.8635261121504	2.0847208	1.4438562
24.88147398396475	2.0892694	1.4454305
24.899422475952303	2.0603044	1.435376
24.917371588617698	2.0685258	1.4382371
24.935321322465768	2.171648	1.4736513
24.953271678001478	2.3030825	1.517591
24.97122265572994	2.468454	1.5711313
24.989174256156414	2.7693594	1.6641393
25.00712647978632	3.2070725	1.7908301
25.02507932712521	3.7366784	1.933049
25.043032798678798	4.2621465	2.0644968
25.060986894952933	4.893688	2.2121682
25.078941616453637	5.598941	2.366208
25.096896963687055	6.5501842	2.5593328
25.114852937159508	7.7356052	2.7812955
25.132809537377444	8.164886	2.8574266
25.150766764847468	8.21383	2.865978
25.168724620076347	7.5810146	2.7533643
25.186683103570985	6.673593	2.58333
25.204642215838426	5.587432	2.363775
25.222601957385894	4.295968	2.0726717
25.24056232872074	3.282871	1.8118695
25.25852333035048	2.7122512	1.6468914
25.276484962782778	2.3264856	1.5252821
25.294447226525435	2.1476629	1.4654907
25.312410122086423	2.01995	1.4212494
25.330373649973843	1.962043	1.4007294
25.348337810695988	1.9139818	1.3834673
25.366302604761245	1.9242786	1.3871837
25.384268032678207	1.8853265	1.3730719
25.40223409495558	1.8910713	1.3751622
25.420200792102257	1.8999685	1.3783934
25.438168124627246	1.9724903	1.4044538
25.45613609303974	1.9610021	1.4003578
25.474104697849057	1.9434738	1.3940853
25.492073939564698	1.8828534	1.372171
25.510043818696285	1.8523262	1.3610018
25.528014335753614	1.8555263	1.362177
25.54598549124664	1.8771431	1.3700887
25.56395728568544	1.8742623	1.369037
25.58192971958028	1.8748555	1.3692536
25.59990279344156	1.8826574	1.3720996
25.617876507779833	1.8581733	1.3631483
25.635850863105826	1.870254	1.3675723
25.653825859930386	1.8753635	1.3694391
25.671801498764548	1.8736154	1.3688008
25.68977778011949	1.8841448	1.3726416
25.707754704506524	1.871516	1.3680336
25.725732272437153	1.8078749	1.3445724
25.743710484423012	1.8064859	1.3440558
25.761689340975888	1.8378742	1.3556821
25.77966884260774	1.8617035	1.3644426
25.797648989830662	1.8835301	1.3724176
25.815629783156922	1.9017507	1.3790398
25.83361122309895	1.8716702	1.36809
25.85159331016929	1.8363459	1.3551184
25.869576044880695	1.8794354	1.3709251
25.887559427746034	1.9005983	1.3786219
25.90554345927836	1.8936119	1.3760858
25.92352813999086	1.8258208	1.3512293
25.94151347039689	1.785545	1.3362429
25.959499451009965	1.7582675	1.3259968
25.97748608234374	1.775933	1.3326414
25.995473364912062	1.7678931	1.3296214
26.013461299228904	1.7929586	1.339014
26.03144988580839	1.8143094	1.346963
26.04943912516483	1.8621836	1.3646184
26.067429017812675	1.846755	1.3589536
26.085419564266537	1.8150346	1.3472322
26.103410765041186	1.7755457	1.332496
26.12140262065155	1.8298521	1.3527203
26.139395131612723	1.8510883	1.3605471
26.157388298439948	1.8110912	1.3457679
26.17538212164861	1.8029207	1.3427289
26.193376601754295	1.8576547	1.3629581
26.211371739272714	1.8482523	1.3595045
26.229367534719746	1.8688408	1.3670555
26.247363988611433	1.8874072	1.3738294
26.26536110146397	1.8343925	1.3543975
26.283358873793727	1.771599	1.3310143
26.301357306117204	1.7785021	1.3336049
26.319356398951104	1.8341863	1.3543214
26.33735615281224	1.8356607	1.3548656
26.35535656821762	1.8177602	1.3482434
26.373357645684404	1.8166963	1.3478488
26.39135938572991	1.8379812	1.3557217
26.409361788871614	1.8610346	1.3641974
26.427364855627165	1.8073653	1.3443829
26.445368586514352	1.7941551	1.3394607
26.46337298205115	1.8306835	1.3530275
26.48137804275568	1.8694334	1.3672723
26.499383769146217	1.8092359	1.3450785
26.517390161741215	1.7812276	1.3346264
26.53539722105928	1.757378	1.3256613
26.553404947619182	1.788574	1.3373758
26.571413341939856	1.8158491	1.3475344
26.589422404540397	1.8601891	1.3638874
26.60743213594006	1.8742739	1.3690412
26.62544253665827	1.8424246	1.3573594
26.64345360721459	1.7811792	1.3346082
26.66146534812879	1.748508	1.3223116
26.679477759920758	1.8164321	1.3477508
26.69749084311057	1.8307283	1.353044
26.71550459821847	1.8141167	1.3468915
26.733519025764842	1.7929872	1.3390248
26.751534126270258	1.798665	1.3411431
26.769549900255434	1.8470947	1.3590786
26.787566348241267	1.881717	1.3717569
26.80558347074881	1.8202512	1.3491669
26.823601268299267	1.756926	1.3254908
26.841619741414036	1.7481078	1.3221602
26.85963889061465	1.7934844	1.3392104
26.877658716422832	1.8006139	1.3418696
26.89567921936045	1.8206294	1.349307
26.913700399949544	1.8043376	1.3432564
26.93172225871233	1.8011867	1.342083
26.949744796171174	1.7967212	1.3404183
26.967768012848605	1.7793274	1.3339143
26.98579190926733	1.8202801	1.3491776
27.003816485950225	1.8499696	1.3601359
27.021841743420318	1.8298643	1.3527248
27.039867682200814	1.7975969	1.340745
27.057894302815072	1.7855217	1.3362342
27.07592160578664	1.8114027	1.3458836
27.0939495916392	1.7980157	1.3409011
27.111978260896635	1.812021	1.3461133
27.13000761408296	1.8053108	1.3436185
27.148037651722397	1.8016343	1.3422498
27.166068374339304	1.7847506	1.3359456
27.184099782458215	1.7869699	1.3367759
27.20213187660384	1.8508542	1.360461
27.22016465730105	1.8634362	1.3650774
27.23819812507487	1.8242168	1.3506358
27.256232280450533	1.7845081	1.3358548
27.274267123953383	1.7430624	1.3202509
27.292302656108987	1.7365586	1.3177855
27.31033887744306	1.7762452	1.3327585
27.32837578848146	1.844418	1.3580935
27.34641338975026	1.8342704	1.3543524
27.364451681775673	1.8355929	1.3548405
27.382490665084074	1.815885	1.3475478
27.400530340202046	1.8138319	1.3467858
27.41857070765629	1.8254681	1.3510989
27.436611767973726	1.8061241	1.3439212
27.454653521681404	1.7841713	1.3357288
27.472695969306564	1.8008076	1.3419417
27.490739111376627	1.8239748	1.3505461
27.508782948419153	1.8115944	1.3459548
27.526827480961902	1.8106716	1.3456119
27.54487270953279	1.830898	1.3531069
27.562918634659898	1.772472	1.3313422
27.580965256871508	1.7419468	1.3198283
27.599012576696026	1.7663876	1.3290552
27.617060594662068	1.7851528	1.336096
27.63510931129842	1.7496955	1.3227606
27.65315872713401	1.7463218	1.3214847
27.67120884269797	1.8104861	1.345543
27.68925965851958	1.8604226	1.3639731
27.707311175128307	1.8522677	1.3609804
27.725363393053787	1.8405225	1.3566586
27.74341631282583	1.8456289	1.3585392
27.7614699349744	1.8339272	1.3542256
27.77952426002968	1.9899113	1.4106421
27.797579288521973	2.0582037	1.4346441
27.815635020981784	2.5118294	1.5848752
27.83369145793979	2.573592	1.6042418
27.85174859992682	2.465156	1.5700816
27.869806447473923	2.391166	1.5463395
27.887865001112267	2.1103256	1.452696
27.905924261373233	1.9406365	1.3930674
27.92398422878836	1.8720471	1.3682277
27.94204490388936	1.9117743	1.3826692
27.96010628720813	1.9391061	1.3925179
27.978168379276728	1.9741386	1.4050404
27.9962311806274	1.9599355	1.399977
28.014294691792568	1.9282213	1.388604
28.0323589133048	1.8976861	1.3775653
28.050423845696887	1.8611764	1.3642493
28.068489489501758	1.8689269	1.367087
28.086555845252523	1.8581681	1.3631464
28.104622913482487	1.8351564	1.3546795
28.122690694725115	1.8116647	1.345981
28.14075918951405	1.8464444	1.3588394
28.15882839838312	1.9211702	1.3860629
28.176898321866304	1.9686478	1.4030851
28.1949689604978	1.9483979	1.3958502
28.213040314811945	1.9294765	1.389056
28.23111238534327	1.9257873	1.3877274
28.249185172626493	1.9344732	1.3908534
28.267258677196473	1.9236702	1.3869643
28.285332899588294	1.9083399	1.3814267
28.303407840337172	1.8865172	1.3735055
28.321483499978545	1.9311635	1.3896631
28.33955987904799	1.8886828	1.3742936
28.357636978081285	1.8528464	1.361193
28.37571479761439	1.8680422	1.3667635
28.393793338183425	1.9537805	1.397777
28.41187260032469	1.9791065	1.4068072
28.429952584574686	1.938202	1.3921932
28.448033291470065	1.923788	1.3870069
28.46611472154769	1.9434142	1.394064
28.484196875344566	1.9551933	1.3982823
28.502279753397914	1.9947975	1.412373
28.52036335624511	2.0122478	1.4185373
28.538447684423716	2.013233	1.4188844
28.556532738471482	2.0238054	1.4226052
28.574618518926325	1.9962308	1.4128803
28.59270502632635	1.9733112	1.4047459
28.61079226120985	2.0067146	1.4165856
28.628880224115274	2.0000775	1.414241
28.646968915581287	1.9646571	1.4016622
28.66505833614671	2.0112257	1.4181769
28.68314848635055	2.0218925	1.4219327
28.701239366732004	2.0252888	1.4231265
28.71933097783044	2.0189312	1.4208909
28.737423320185403	2.0481808	1.4311466
28.75551639433665	2.0734286	1.4399405
28.773610200824074	2.0778024	1.4414585
28.791704740187793	2.1011083	1.44952
28.80980001296809	2.1224022	1.4568467
28.827896019705413	2.147554	1.4654535
28.845992760940433	2.1950707	1.4815772
28.86409023721397	2.2238288	1.4912508
28.88218844906704	2.20229	1.4840115
28.900287397040845	2.216345	1.4887394
28.918387081676755	2.2624047	1.5041292
28.936487503516343	2.2631195	1.5043668
28.954588663101365	2.2526553	1.5008848
28.97269056097374	2.2395308	1.4965062
28.990793197675597	2.236358	1.4954457
29.00889657374923	2.2819133	1.5106003
29.027000689737125	2.3906598	1.5461758
29.04510554618196	2.3504303	1.5331113
29.06321114362659	2.3356364	1.528279
29.08131748261405	2.342089	1.5303885
29.099424563687567	2.4496899	1.5651485
29.11753238739057	2.5184011	1.5869471
29.13564095426663	2.5078177	1.5836091
29.15375026485954	2.5328176	1.5914829
29.171860319713275	2.6250405	1.6201977
29.18997111937199	2.6778772	1.636422
29.20808266438002	2.6984675	1.6427013
29.226194955281898	2.784333	1.668632
29.244307992622335	2.8589394	1.6908399
29.26242177694624	2.8865743	1.6989921
29.2805363087987	2.880962	1.6973397
29.29865158872498	2.8514256	1.6886165
29.316767617270557	2.873278	1.6950746
29.334884394981064	2.85539	1.6897899
29.353001922402367	2.8714428	1.6945332
29.37112020008047	2.994285	1.7304003
29.389239228561596	3.140183	1.7720561
29.407359008392152	3.3604934	1.8331648
29.42547954011872	3.6815376	1.9187334
29.44360082428809	4.3563685	2.0871916
29.46172286144722	5.37757	2.3189588
29.479845652143283	6.836813	2.61473
29.497969196923606	8.906485	2.9843733
29.516093496335728	11.542171	3.397377
29.5342185509274	14.407466	3.7957168
29.55234436124651	16.643637	4.0796614
29.570470927841175	17.97857	4.2401147
29.588598251259686	17.88417	4.228968
29.60672633205055	16.559116	4.069289
29.624855170762405	14.29171	3.7804377
29.642984767944146	11.476291	3.3876674
29.66111512414481	8.851219	2.9750998
29.67924623991366	6.558137	2.560886
29.697378115800138	4.9496865	2.2247891
29.71551075235387	4.0913477	2.022708
29.733644150124675	3.7121031	1.9266819
29.751778309662576	3.5736456	1.8904089
29.769913231517766	3.4987688	1.8704996
29.78804891624066	3.3964639	1.8429497
29.806185364381818	3.3352556	1.8262682
29.82432257649206	3.2740326	1.8094288
29.842460553122333	3.2651749	1.8069795
29.86059929482382	3.2552786	1.804239
29.878738802147872	3.2925646	1.8145425
29.896879075646048	3.3550982	1.8316927
29.915020115870114	3.3512719	1.830648
29.933161923371976	3.2911227	1.8141452
29.951304498703777	3.2142537	1.7928339
29.969447842417857	3.1516817	1.7752976
29.987591955066733	3.1603136	1.7777271
30.005736837203123	3.2071273	1.7908454
30.023882489379943	3.2285845	1.7968262
30.04202891215028	3.2708247	1.8085421
30.060176106067455	3.2470894	1.8019682
30.078324071684946	3.212873	1.7924489
30.09647280955646	3.207216	1.7908702
30.114622320235863	3.2026696	1.7896004
30.132772604277257	3.1273305	1.7684261
30.1509236622349	3.1175876	1.7656691
30.16907549466328	3.1385303	1.7715898
30.18722810211705	3.1476269	1.7741553
30.205381485151097	3.0885665	1.7574317
30.22353564432045	3.0781312	1.7544603
30.241690580180403	3.0880368	1.7572811
30.25984629328638	3.0944674	1.7591099
30.278002784194037	2.992965	1.7300187
30.296160053459246	2.940139	1.7146834
30.314318101638033	2.9775717	1.7255641
30.332476929286646	3.0281618	1.7401614
30.35063653696153	3.0597844	1.749224
30.368796925219307	3.0017292	1.7325499
30.386958094616844	2.9399774	1.7146362
30.40512004571115	2.9186096	1.7083938
30.423282779059463	2.9386358	1.714245
30.441446295219233	2.9212558	1.7091682
30.459610594748067	2.8429792	1.6861136
30.47777567820382	2.8375967	1.6845168
30.495941546144504	2.8779645	1.6964564
30.51410819912835	2.8512437	1.6885626
30.532275637713795	2.7385514	1.6548569
30.55044386245946	2.6762114	1.635913
30.56861287392416	2.648933	1.6275543
30.586782672666956	2.8035953	1.674394
30.604953259247047	2.8825965	1.6978211
30.623124634223885	2.7999206	1.6732963
30.641296798157075	2.7281365	1.6517072
30.659469751606462	2.797232	1.6724927
30.677643495132074	2.8274236	1.6814945
30.695818029294152	2.721296	1.6496351
30.713993354653116	2.717846	1.648589
30.73216947176962	2.7518878	1.6588815
30.75034638120448	2.7492967	1.6581004
30.768524083518756	2.705282	1.6447742
30.786702579273673	2.6434274	1.625862
30.80488186903069	2.7472403	1.6574801
30.82306195335144	2.8935769	1.7010517
30.841242832797782	3.1212766	1.7667135
30.85942450793176	3.4504793	1.8575466
30.877606979315637	3.8073773	1.9512502
30.895790247511883	4.1077456	2.0267575
30.913974313083134	4.472742	2.1148858
30.932159176592283	4.7869463	2.1879091
30.95034483860237	4.863121	2.2052486
30.968531299676698	4.6216617	2.149805
30.98671856037873	4.225974	2.0557175
31.00490662127215	3.7901301	1.9468256
31.023095482920848	3.4219527	1.8498521
31.04128514588892	3.0577376	1.7486387
31.059475610740662	2.7598002	1.6612647
31.07766687804056	2.521134	1.5878079
31.09585894835335	2.4591928	1.5681814
31.11405182224393	2.4692717	1.5713916
31.132245500277417	2.497401	1.5803168
31.15043998301914	2.5141468	1.5856061
31.168635271034628	2.5008023	1.5813925
31.18683136488964	2.5254443	1.5891646
31.20502826515008	2.4331875	1.5598677
31.223225972382135	2.4177904	1.5549246
31.241424487152155	2.4495418	1.5651013
31.259623810026692	2.4110458	1.5527543
31.27782394157253	2.3876839	1.5452132
31.296024882356644	2.389577	1.5458256
31.314226632946237	2.390821	1.5462279
31.332429193908684	2.4114408	1.5528815
31.350632565811598	2.4095414	1.5522697
31.368836749222787	2.456524	1.5673301
31.387041744710295	2.5858932	1.6080712
31.40524755284232	2.6018927	1.6130383
31.423454174187317	2.5334094	1.5916687
31.441661609313922	2.5823376	1.6069653
31.459869858791002	2.5600426	1.6000134
31.478078923187628	2.4678998	1.570955
31.496288803073064	2.3883278	1.5454216
31.514499499016807	2.321467	1.5236361
31.532711011588546	2.3588786	1.5358641
31.550923341358178	2.4025757	1.5500244
31.56913648889584	2.3218706	1.5237685
31.587350454771844	2.2381563	1.4960469
31.605565239556732	2.2119417	1.4872597
31.62378084382127	2.2403634	1.4967843
31.641997268136382	2.2762306	1.5087181
31.660214513073274	2.3708491	1.5397562
31.67843257920331	2.368561	1.539013
31.6966514670981	2.309374	1.5196625
31.71487117732944	2.3218145	1.5237502
31.733091710469346	2.3359263	1.5283737
31.751313067090052	2.2804313	1.5101097
31.769535247764008	2.2034962	1.4844178
31.787758253063878	2.1914866	1.4803671
31.805982083562526	2.2157645	1.4885445
31.824206739833024	2.2516642	1.5005546
31.84243222244869	2.2673662	1.5057776
31.860658531983013	2.2402995	1.496763
31.878885669009737	2.26507	1.5050149
31.897113634102784	2.2181597	1.4893488
31.91534242783632	2.2290761	1.4930091
31.933572050784694	2.2361765	1.495385
31.951802503522508	2.2139814	1.4879453
31.970033786624548	2.1970434	1.4822427
31.988265900665834	2.2228863	1.4909347
32.006498846221575	2.2841299	1.5113338
32.02473262386724	2.2823892	1.5107578
32.04296723417845	2.2136748	1.4878423
32.0612026777311	2.1885571	1.4793773
32.07943895510129	2.1911347	1.4802482
32.097676066865304	2.188697	1.4794246
32.115914013599685	2.2042358	1.484667
32.13415279588115	2.1632257	1.4707909
32.152392414286666	2.1489658	1.4659351
32.1706328693934	2.1006198	1.4493515
32.18887416177875	2.100465	1.4492981
32.20711629202032	2.1959655	1.481879
32.225359260695924	2.255859	1.5019517
32.243603068383614	2.1738412	1.4743952
32.26184771566166	2.0872009	1.4447148
32.28009320310852	2.1493146	1.4660541
32.2983395313029	2.1206079	1.4562308
32.31658670082372	2.1431274	1.4639424
32.33483471225012	2.1424203	1.4637009
32.35308356616143	2.118386	1.4554676
32.371333263137245	2.0727532	1.439706
32.38958380375734	2.0837924	1.4435347
32.407835188601744	2.0933218	1.4468316
32.42608741825067	2.1077256	1.4518008
32.444340493284585	2.0610206	1.4356256
32.46259441428416	2.0455866	1.43024
32.48084918183028	2.0548816	1.4334859
32.49910479650405	2.042778	1.4292579
32.51736125888683	2.045041	1.4300493
32.53561856956014	2.095382	1.4475434
32.5538767291058	2.118201	1.455404
32.572135738105764	2.1397994	1.4628053
32.59039559714228	2.1402395	1.4629557
32.608656306797776	2.0961814	1.4478195
32.62691786765491	2.0375912	1.4274422
32.645180280296586	1.9730221	1.404643
32.663443545305896	1.9318018	1.3898927
32.68170766326619	1.9661611	1.4021987
32.69997263476099	1.9683766	1.4029884
32.7182384603741	1.9860365	1.4092681
32.7365051406895	2.0484433	1.4312384
32.75477267629144	2.011787	1.4183748
32.77304106776434	1.9535055	1.3976786
32.79131031569289	1.9199438	1.3856204
32.809580420661966	1.9539568	1.39784
32.827851383256714	2.101431	1.4496313
32.84612320406245	2.105046	1.4508777
32.86439588366476	1.9716958	1.4041709
32.88266942264945	1.9813647	1.4076096
32.9009438216025	2.0077586	1.416954
32.9192190811102	1.9619635	1.400701
32.937495201758985	2.0029612	1.4152601
32.95577218413556	2.0560157	1.4338814
32.974050028826866	2.0272822	1.4238266
32.992328736420035	1.9741714	1.4050521
33.010608307502444	1.9344485	1.3908445
33.02888874266169	1.9236294	1.3869497
33.047170042485604	1.9465657	1.3951938
33.06545220756225	1.9270339	1.3881764
33.083735238479896	1.9245247	1.3872724
33.10201913582707	1.9938363	1.4120327
33.12030390019248	2.0011997	1.4146377
33.138589532165135	1.9588413	1.3995861
33.15687603233419	1.9855294	1.4090881
33.17516340128909	1.9424609	1.3937219
33.19345163961947	1.949892	1.3963853
33.211740747915215	1.9617598	1.4006283
33.23003072676643	1.9875517	1.4098055
33.248321576763466	1.9239069	1.3870497
33.266613298496885	1.8589978	1.3634506
33.28490589255747	1.8475612	1.3592503
33.30319935953626	1.9113282	1.3825079
33.32149370002451	1.9521208	1.3971832
33.339788914613706	1.9389231	1.3924522
33.358085003895575	1.9081566	1.3813604
33.376381968462034	1.9410554	1.3932177
33.39467980890529	1.9712182	1.4040008
33.41297852581774	1.9385563	1.3923205
33.43127811979204	1.883583	1.3724369
33.44957859142105	1.8154825	1.3473984
33.467879941297866	1.7866262	1.3366474
33.486182170015844	1.7633866	1.3279257
33.50448527816853	1.856766	1.362632
33.522789266349754	1.9465873	1.3952016
33.541094135153514	1.9200983	1.3856761
33.55939988517411	1.9491646	1.3961248
33.57770651700602	1.9670391	1.4025117
33.59601403124398	1.9546736	1.3980964
33.61432242848296	1.8415822	1.3570491
33.632631709318154	1.8050749	1.3435308
33.650941874344994	1.9052016	1.3802904
33.66925292415916	2.0585194	1.4347541
33.68756485935654	2.0982137	1.4485213
33.70587768053328	1.9802276	1.4072056
33.724191388285746	1.8226988	1.3500737
33.74250598321054	1.7951653	1.3398378
33.760821465904506	1.7914728	1.3384591
33.77913783696474	1.7912444	1.3383738
33.79745509698852	1.8487761	1.3596971
33.815773246573414	1.9171578	1.3846147
33.8340922863172	2.0275593	1.4239239
33.852412216817896	2.0629363	1.4362925
33.87073303867377	1.9326942	1.3902137
33.889054752483304	1.9217395	1.3862681
33.907377358845245	1.9738722	1.4049456
33.92570085835853	2.0294483	1.424587
33.94402525162239	1.96198	1.400707
33.96235053923627	1.9371698	1.3918225
33.980676721799824	1.9498658	1.396376
33.999003799912984	1.948765	1.3959818
34.01733177417592	1.8745565	1.3691444
34.03566064518901	1.8302934	1.3528833
34.0539904135529	2.034187	1.4262493
34.07232107986846	2.028446	1.4242352
34.090652644736785	1.9589214	1.3996147
34.108985108759235	1.9435986	1.3941301
34.12731847253742	1.9705629	1.4037675
34.14565273667313	1.943757	1.3941869
34.16398790176847	1.8536007	1.3614701
34.18232396842574	1.8986617	1.3779193
34.20066093724749	2.0752683	1.4405792
34.21899880883651	1.9701632	1.403625
34.23733758379583	1.9428641	1.3938665
34.25567726272874	2.0629838	1.4363091
34.27401784623872	2.1783998	1.4759403
34.29235933492957	2.1154804	1.4544691
34.31070172940526	2.045646	1.4302608
34.32904503027003	2.1459885	1.4649192
34.347389238128386	2.098722	1.4486966
34.36573435358502	2.0591831	1.4349854
34.38408037724492	1.980273	1.4072217
34.402427309713296	1.9642262	1.4015086
34.42077515159559	1.9608275	1.4002955
34.43912390349752	2.090294	1.4457849
34.45747356602499	2.1159558	1.4546325
34.47582413978423	2.0511684	1.4321901
34.49417562538163	1.9251101	1.3874834
34.51252802342388	1.9843335	1.4086637
34.53088133451789	1.9945947	1.4123012
34.54923555927084	1.964514	1.4016112
34.567590698290104	2.112451	1.4534273
34.58594675218336	2.0925434	1.4465626
34.6043037215585	1.9724014	1.404422
34.62266160702365	1.97268	1.4045212
34.641020409187234	1.8706728	1.3677254
34.65938012865785	1.959323	1.3997582
34.677740766044394	1.9963446	1.4129206
34.69610232195598	1.9702396	1.4036522
34.714464797002016	1.9639056	1.4013941
34.73282819179208	1.8504187	1.3603009
34.751192506936064	1.853842	1.3615587
34.76955774304408	1.8596506	1.36369
34.7879239007265	1.9493582	1.3961942
34.80629098059391	2.1266966	1.4583198
34.824658983257194	2.1232839	1.4571493
34.843027909327446	2.1052969	1.4509641
34.86139775941603	1.9823028	1.4079428
34.879768534134534	1.8701655	1.3675399
34.89814023409483	1.9562408	1.3986567
34.91651285990901	2.0975318	1.4482858
34.93488641218944	2.1233132	1.4571593
34.95326089154871	2.0690358	1.4384143
34.97163629859967	2.10105	1.4494998
34.99001263395542	2.0620286	1.4359765
35.00838989822934	1.9817837	1.4077584
35.02676809203499	1.9420519	1.3935752
35.04514721598624	2.1394596	1.4626892
35.063527270697215	2.1169055	1.4549589
35.081908256782256	2.032304	1.425589
35.10029017485597	1.889673	1.3746538
35.11867302553321	2.2127445	1.4875296
35.137056809429104	2.217581	1.4891545
35.155441527159006	1.9487638	1.3959813
35.173827179338524	1.8467498	1.3589517
35.19221376658354	1.8568363	1.3626578
35.21060128951017	1.8696983	1.367369
35.2289897487348	1.9416233	1.3934214
35.24737914487405	2.0051072	1.416018
35.26576947854479	2.2781892	1.5093671
35.28416075036418	2.2186553	1.4895152
35.30255296094958	1.8630854	1.3649489
35.32094611091867	1.8779873	1.3703967
35.33934020088932	1.9884869	1.4101372
35.35773523147969	1.739448	1.3188813
35.3761312033082	1.8233261	1.3503059
35.394528116993506	1.9303176	1.3893588
35.41292597315452	1.8200089	1.349077
35.431324772410434	2.020173	1.421328
35.449724515380666	2.1473153	1.4653721
35.46812520268491	2.1681144	1.4724518
35.486526834943106	2.0450106	1.4300387
35.504929412775454	1.8586366	1.3633182
35.52333293680242	1.6385005	1.2800392
35.54173740764471	1.5935991	1.2623783
35.560142825923286	1.516374	1.2314113
35.5785491922594	1.340192	1.1576666
35.59695650727454	1.2922275	1.1367619
35.61536477159042	0.92330575	0.960888
