0.008763373481513119	0.0	0.0
0.026290120649546365	0.0	0.0
0.043816868432600686	0.03550094	0.18841693
0.06134361724069026	0.082251735	0.28679565
0.07887036748382949	0.06425331	0.25348237
0.0963971195720331	0.05312366	0.23048571
0.11392387391531617	0.025923938	0.16100912
0.1314506309236943	0.07149215	0.26738015
0.1489773910071836	0.12181284	0.34901696
0.16650415457580078	0.13012962	0.36073482
0.18403092203956356	0.08602229	0.29329556
0.20155769380849	0.066734284	0.2583298
0.2190844702925996	0.07228748	0.26886332
0.2366112519019124	0.1088107	0.32986468
0.2541380390464497	0.13316618	0.36491942
0.27166483213623416	0.14652637	0.38278762
0.28919163158128947	0.1951919	0.44180527
0.3067184377916406	0.2045014	0.45221832
0.324245251177314	0.212798	0.46130034
0.34177207214833777	0.14306422	0.37823832
0.3592989011147415	0.16594079	0.40735832
0.37682573848655654	0.16299102	0.40372145
0.39435258467381573	0.13153012	0.3626708
0.41187944008655414	0.112234816	0.33501464
0.42940630513480854	0.12868431	0.35872597
0.446933180228618	0.15941927	0.39927343
0.4644600657780234	0.17134845	0.41394258
0.48198696219306775	0.19524118	0.44186103
0.49951386988379676	0.19889489	0.44597632
0.5170407892602581	0.2122371	0.460692
0.5345677207325025	0.2066314	0.45456728
0.5520946647105822	0.1885438	0.4342163
0.5696216216045534	0.19339176	0.4397633
0.5871485918244737	0.21074454	0.45906922
0.6046755757804043	0.21053223	0.45883793
0.6222025738824094	0.1673032	0.40902713
0.6397295865405557	0.15816045	0.3976939
0.6572566141649129	0.14018162	0.37440836
0.6747836571655547	0.12728171	0.35676563
0.6923107159525568	0.12298608	0.3506937
0.7098377909359992	0.1585059	0.398128
0.7273648825259653	0.13877866	0.37253007
0.7448919911325411	0.16429825	0.4053372
0.762419117165817	0.17455971	0.41780344
0.7799462610358868	0.22557619	0.4749486
0.7974734231528482	0.23503508	0.48480415
0.8150006039268024	0.24337032	0.49332577
0.8325278037678551	0.24573834	0.49572003
0.8500550230861152	0.24935608	0.49935567
0.8675822622916969	0.24714997	0.4971418
0.8851095217947171	0.24721232	0.4972045
0.9026368020052984	0.2622058	0.51206034
0.9201641033335665	0.28721967	0.5359288
0.9376914261896523	0.28050488	0.52962714
0.9552187709836915	0.23690957	0.48673356
0.9727461381258234	0.21106514	0.45941827
0.990273528026193	0.240594	0.49050382
1.0078009410949496	0.23448345	0.4842349
1.0253283777422473	0.23859036	0.4884571
1.0428558383782454	0.23386128	0.48359206
1.0603833234131086	0.23173043	0.48138386
1.0779108332570058	0.3318638	0.5760762
1.0954383683201119	0.3791138	0.6157222
1.112965929012607	0.480725	0.69334334
1.1304935157446763	0.6077739	0.77959853
1.1480211289265108	0.6194542	0.7870541
1.1655487689683062	1.3978516	1.1823077
1.1830764362802655	1.6262351	1.2752392
1.200604131272596	2.0779812	1.4415205
1.2181318543555117	2.4478147	1.5645493
1.235659605939232	2.4986846	1.5807228
1.253187386433982	4.0974874	2.0242252
1.270715196249994	6.5932975	2.5677416
1.2882430357975057	11.862283	3.4441664
1.3057709054867608	16.572784	4.0709686
1.3232988057280106	22.312017	4.72356
1.3408267369315112	27.419514	5.2363644
1.358354699507526	31.44971	5.608004
1.3758826938663256	35.34444	5.945119
1.3934107204181858	37.541325	6.1270976
1.410938779573391	37.936977	6.1593
1.4284668717422309	38.678345	6.2191916
1.4459949973350033	38.07736	6.1706853
1.4635231567620117	37.970734	6.1620398
1.4810513504335687	37.10349	6.0912633
1.4985795787599925	36.7188	6.0596037
1.5161078421516088	36.057484	6.0047884
1.5336361410187505	35.515415	5.9594812
1.5511644757717598	35.62421	5.968602
1.5686928468209842	36.476982	6.0396175
1.58622125457678	37.204437	6.099544
1.6037496994495108	38.395115	6.196379
1.621278181849548	37.954754	6.1607428
1.6388067021872719	38.047867	6.1682954
1.6563352608730693	36.91163	6.0754943
1.673863858317336	36.240704	6.0200253
1.6913924949304753	36.02698	6.002248
1.7089211711228998	35.226524	5.9351935
1.7264498873050296	34.482224	5.8721566
1.7439786438872935	33.26359	5.76746
1.7615074412801288	32.078674	5.663804
1.779036279893981	31.54723	5.616692
1.796565160139305	30.779575	5.5479345
1.814094082426564	30.366558	5.510586
1.8316230471662298	29.675219	5.4474964
1.849152054768784	28.85444	5.371633
1.8666811056447168	28.138706	5.304593
1.8842102002045273	27.234884	5.218705
1.901739338858724	26.631271	5.1605496
1.9192685220178245	25.756847	5.0751204
1.9367977500923557	25.200212	5.0199814
1.9543270234928547	24.675055	4.967399
1.971856342629867	24.053703	4.9044576
1.9893857079139496	23.371096	4.8343663
2.006915119755667	22.92764	4.7882814
2.0244445785655945	22.489222	4.74228
2.0419740847543175	21.984072	4.6887174
2.0595036387324317	21.40854	4.6269364
2.0770332409105414	20.80428	4.561171
2.094562891699263	20.36185	4.5124106
2.1120925915092217	19.81902	4.4518557
2.129622340751053	19.676651	4.4358373
2.1471521398354043	187.85092	13.705872
2.1646819891729323	444.14407	21.074726
2.182211889174303	440.21506	20.981302
2.1997418402501974	452.37204	21.26904
2.2172718428113023	432.5119	20.79692
2.234801897268317	320.6172	17.905787
2.2523320040319548	17.22279	4.150035
2.269862163512935	16.87193	4.1075454
2.287392376121992	16.376595	4.0468006
2.304922642269869	16.220247	4.0274367
2.322452962367322	16.02463	4.0030775
2.3399833368251164	15.681267	3.9599578
2.357513766054032	15.297472	3.9111984
2.3750442504648586	15.095135	3.8852458
2.3925747904683963	15.002037	3.8732464
2.410105386475459	14.785171	3.845149
2.4276360388968707	14.317697	3.7838733
2.445166748143469	13.82416	3.7180855
2.4626975146261025	13.682688	3.6990118
2.4802283387556323	13.608335	3.6889477
2.4977592209429305	13.417162	3.6629443
2.5152901615988825	13.063306	3.6143196
2.5328211611343865	13.0153675	3.6076818
2.5503522199603523	13.042981	3.6115067
2.5678833384877024	12.857684	3.5857613
2.5854145171273712	12.451005	3.528598
2.6029457562903064	11.982192	3.4615302
2.620477056387469	11.777709	3.4318666
2.6380084178298326	11.6659775	3.4155493
2.655539841028383	11.495822	3.390549
2.673071326394119	11.2500725	3.3541129
2.6906028743380523	11.045411	3.3234637
2.708134485271211	10.94516	3.308347
2.7256661596046325	10.945667	3.3084238
2.743197897749369	10.869671	3.2969184
2.760729700116486	10.85066	3.294034
2.778261567117063	10.6315	3.2605982
2.795793499162193	10.475444	3.236579
2.8133254966629817	10.298058	3.2090588
2.830857560030551	10.228261	3.1981652
2.8483896896760337	10.114716	3.1803641
2.865921886010578	9.712418	3.116475
2.883454149445347	9.386687	3.06377
2.9009864803915177	9.229767	3.038053
2.91851887926028	9.256232	3.0424056
2.9360513464628384	9.337386	3.0557137
2.953583882410413	9.239311	3.0396235
2.9711164875142373	9.093446	3.0155342
2.9886491621855606	9.018506	3.0030828
3.0061819068356455	8.66173	2.9430816
3.023714721875769	8.59726	2.9321086
3.041247607717225	8.605736	2.9335535
3.0587805647713213	8.661708	2.943078
3.0763135934493806	8.60113	2.9327683
3.0938466941627407	8.351687	2.8899286
3.1113798673227544	8.151262	2.8550415
3.1289131133407904	8.065701	2.8400178
3.1464464326282315	7.910696	2.8125958
3.1639798255964786	7.813848	2.795326
3.1815132926569443	7.695207	2.7740235
3.1990468342210603	7.636837	2.7634828
3.216580450700272	7.549062	2.7475555
3.2341141425060416	7.52118	2.742477
3.251647910049847	7.4620714	2.7316792
3.2691817537431813	7.4381375	2.727295
3.286715673997555	7.439355	2.727518
3.3042496712244938	7.282016	2.6985211
3.32178374583554	6.9975743	2.6452928
3.339317898242251	6.8673186	2.6205568
3.3568521288562034	6.833978	2.614188
3.3743864380889876	6.913089	2.6292753
3.3919208263522127	6.8978224	2.6263707
3.4094552940575023	6.8376484	2.6148899
3.4269898416164972	6.65999	2.5806956
3.444524469440858	6.597238	2.5685089
3.4620591779422587	6.536963	2.5567486
3.479593967532391	6.5654316	2.5623097
3.4971288386229658	6.531231	2.5556273
3.5146637916257086	6.5195365	2.5533383
3.5321988269523628	6.4515634	2.5399928
3.5497339450146903	6.455801	2.5408268
3.5672691462244708	6.449874	2.5396602
3.5848044309934988	6.2184753	2.4936872
3.60233979973359	6.1162453	2.4731045
3.619875252856575	6.165235	2.482989
3.6374107907743034	6.2395186	2.4979029
3.6549464138986427	6.294224	2.508829
3.6724821226414788	6.3154783	2.5130615
3.690017917414714	6.3426566	2.5184631
3.7075537986302702	6.404196	2.5306513
3.7250897667000857	6.446913	2.539077
3.7426258220361235	6.557518	2.560765
3.7601619650503553	6.8089137	2.6093895
3.777698196154779	7.340937	2.7094164
3.7952345157614067	8.449861	2.9068644
3.8127709242822716	9.247814	3.0410218
3.830307422129425	11.49082	3.3898113
3.847844009714936	30.294598	5.5040526
3.8653806874508954	97.719536	9.885319
3.882917455749409	96.91814	9.844701
3.900454315022606	96.729095	9.835095
3.917991265682631	41.32373	6.428354
3.9355283081416506	10.936297	3.3070073
3.9530654428118495	8.714136	2.9519715
3.970602670105433	7.50986	2.7404125
3.9881399904346244	6.7404037	2.5962288
4.005677404211669	6.6443195	2.5776577
4.023214911848827	6.491144	2.5477724
4.0407525137583855	6.39251	2.5283413
4.058290210352644	6.374945	2.5248654
4.075828002043927	6.3757105	2.525017
4.0933658892445814	6.3850975	2.526875
4.110903872366966	6.3389554	2.5177283
4.128441951823468	6.2542877	2.5008574
4.145980128026488	6.1396117	2.477824
4.163518401388452	6.093962	2.4685953
4.181056772321807	6.178818	2.4857228
4.1985952412390155	6.2724996	2.5044959
4.216133808552567	6.3081913	2.5116112
4.233672474674966	6.2620845	2.5024157
4.251211240018741	6.5442457	2.5581722
4.268750104996445	6.8027496	2.6082082
4.286289070020643	7.711358	2.7769332
4.303828135503928	9.270596	3.0447652
4.3213673018589125	29.552376	5.4362097
4.3389065694982305	90.807495	9.529297
4.356445938834537	166.02872	12.885213
4.3739854102805085	171.62154	13.10044
4.391524984248844	172.46896	13.132744
4.409064661152262	136.49092	11.682933
4.426604441403504	96.71531	9.834394
4.444144325415337	75.82299	8.70764
4.461684313600543	22.016655	4.6921906
4.47922440637193	22.373926	4.7301083
4.496764604142329	20.67963	4.5474863
4.5143049073245916	18.739502	4.3289146
4.531845316331589	16.620407	4.076813
4.5493858315762195	13.706386	3.7022135
4.566926453471405	11.369563	3.3718784
4.584467182430081	9.3512535	3.057982
4.602008018865218	8.11383	2.8484786
4.619548963189798	7.381976	2.7169793
4.637090015816834	6.979533	2.6418805
4.654631177159353	6.8142147	2.610405
4.672172447630417	6.633339	2.575527
4.689713827643102	6.3731194	2.5245037
4.7072553176105085	6.0697184	2.4636798
4.724796917945764	5.8811226	2.4251027
4.742338629062015	5.856819	2.4200866
4.759880451372434	5.767423	2.401546
4.777422385290215	5.730993	2.3939493
4.794964431228581	5.685511	2.384431
4.812506589600768	5.6970634	2.3868523
4.830048860820047	5.6972103	2.386883
4.847591245299709	5.5853753	2.36334
4.8651337434530655	5.5100985	2.34736
4.882676355693457	5.4626913	2.3372402
4.900219082434242	5.511049	2.3475623
4.917761924088813	5.513008	2.3479795
4.935304881070575	5.5041914	2.3461013
4.952847953792969	5.4614286	2.3369699
4.970391142669449	5.5473413	2.3552794
4.9879344481135055	5.584546	2.3631644
5.005477870538642	5.601429	2.3667338
5.023021410358394	5.5638614	2.358784
5.040565067986324	5.5411525	2.3539653
5.05810884383601	5.455623	2.3357275
5.075652738321066	5.4284086	2.3298945
5.09319675185512	5.4131627	2.3266203
5.110740884851836	5.435846	2.33149
5.128285137724894	5.4516945	2.3348863
5.145829510888007	5.3139067	2.3051913
5.163374004754908	5.323396	2.3072486
5.1809186197393595	5.314518	2.3053238
5.198463356255145	5.326311	2.3078802
5.216008214716077	5.3218484	2.3069131
5.233553195535998	5.3529787	2.3136506
5.251098299128764	5.3983736	2.32344
5.268643525908272	5.4341655	2.3311296
5.286188876288432	5.4145885	2.3269267
5.3037343506831895	5.3577256	2.314676
5.32127994950651	5.3520217	2.3134437
5.3388256731723915	5.360267	2.3152251
5.356371522094851	5.3146386	2.30535
5.373917496687938	5.2350583	2.288025
5.391463597365729	5.2250786	2.2858431
5.40900982454232	5.282129	2.2982883
5.426556178631843	5.309076	2.3041432
5.444102660048449	5.3291636	2.3084981
5.4616492692063225	5.224858	2.2857947
5.479196006519669	5.180144	2.2759929
5.496742872402727	5.1612678	2.2718425
5.514289867269756	5.104558	2.259327
5.531836991535049	5.1044364	2.2593
5.549384245612924	5.1030216	2.258987
5.566931629917724	5.0731916	2.2523746
5.584479144863822	5.089266	2.2559402
5.6020267908656205	5.114982	2.2616327
5.619574568337545	5.1940527	2.2790465
5.637122477694054	5.142585	2.267727
5.654670519349629	5.079892	2.2538617
5.672218693718784	5.0863204	2.2552872
5.689767001216059	5.1216545	2.2631073
5.707315442256021	5.212444	2.2830777
5.724864017253266	5.191154	2.2784104
5.7424127266224225	5.258568	2.2931566
5.75996157077814	5.306929	2.3036773
5.777510550135105	5.367163	2.3167138
5.795059665108022	5.366062	2.3164763
5.812608916111639	5.351236	2.313274
5.830158303560715	5.4310493	2.3304613
5.847707827870055	5.443584	2.333149
5.86525748945448	5.455334	2.3356657
5.8828072887288485	5.527479	2.3510592
5.900357226108044	5.6565456	2.3783493
5.917907302006979	5.78729	2.4056787
5.9354575168406	6.3291664	2.5157835
5.9530078710238765	6.892868	2.6254272
5.970558364971812	7.404049	2.721038
5.988108999099438	7.666813	2.768901
6.005659773821818	8.11571	2.8488085
6.023210689554039	7.8531055	2.8023393
6.040761746711227	8.278975	2.8773208
6.058312945708531	7.7782617	2.7889535
6.075864286961132	7.326579	2.7067654
6.093415770884244	6.689754	2.5864558
6.1109673978931065	6.1294637	2.4757755
6.128519168402993	5.5205636	2.349588
6.146071082829204	5.399383	2.3236573
6.163623141587075	5.284777	2.2988644
6.181175345091969	5.260693	2.29362
6.198727693759281	5.2234244	2.2854812
6.216280188004435	5.219095	2.284534
6.233832828242885	5.1798534	2.2759292
6.251385614890126	5.222843	2.2853541
6.268938548361669	5.176437	2.2751784
6.286491629073067	5.1718225	2.2741642
6.304044857439898	5.145187	2.2683005
6.321598233877777	5.115069	2.2616518
6.339151758802344	5.1152854	2.2616997
6.356705432629277	5.068786	2.2513964
6.37425925577428	5.0768385	2.253184
6.391813228653095	5.046722	2.246491
6.409367351681486	5.0464005	2.2464194
6.426921625275259	5.037704	2.244483
6.44447604985025	5.007061	2.2376463
6.46203062582232	4.9694276	2.2292213
6.47958535360737	4.99164	2.2341979
6.497140233621328	4.978284	2.231207
6.514695266280161	5.0163727	2.239726
6.532250451999859	5.048951	2.246987
6.549805791196454	5.0384436	2.2446477
6.567361284286002	5.116009	2.2618597
6.584916931684597	5.1056848	2.2595763
6.602472733808367	5.063907	2.2503126
6.6200286910734665	5.0060463	2.2374196
6.637584803896092	4.9314623	2.2206895
6.655141072692462	4.968344	2.2289784
6.672697497878842	5.056264	2.2486138
6.690254079871514	5.063136	2.2501414
6.707810819086808	5.0886235	2.2557979
6.725367715941078	5.05036	2.2473006
6.742924770850719	4.993225	2.2345526
6.760481984232151	4.989609	2.2337432
6.778039356501836	4.939203	2.2224317
6.795596888076266	4.976315	2.2307656
6.813154579371963	5.007752	2.2378006
6.830712430805492	5.024638	2.2415705
6.84827044279344	5.0030518	2.2367504
6.865828615752445	5.011119	2.2385528
6.883386950099159	5.0049696	2.237179
6.900945446250287	5.063438	2.2502084
6.918504104622553	5.1022	2.258805
6.936062925632727	5.134236	2.265885
6.953621909697607	5.1253824	2.2639308
6.971181057234028	5.059037	2.2492304
6.988740368658859	5.054146	2.2481427
7.006299844389007	5.1027765	2.2589326
7.023859484841407	5.244956	2.290187
7.041419290433036	5.4100027	2.3259413
7.058979261580902	5.5421968	2.354187
7.0765393987020495	5.696755	2.3867877
7.094099702213559	6.0002375	2.4495382
7.111660172532549	6.3423977	2.5184116
7.129220810076164	6.742192	2.596573
7.146781615261595	7.3449407	2.710155
7.16434258850606	7.6294026	2.7621374
7.181903730226821	8.034802	2.8345728
7.1994650408411704	8.186339	2.861178
7.217026520766437	8.311534	2.8829732
7.234588170419983	8.600582	2.932675
7.252149990219215	8.612395	2.9346883
7.269711980581568	8.515421	2.9181194
7.2872741419245175	8.249877	2.8722599
7.304836474665574	7.7877746	2.7906585
7.322398979222286	7.421075	2.724165
7.339961656012233	7.1894765	2.68132
7.357524505453039	6.855404	2.6182826
7.375087527962357	6.5929136	2.567667
7.392650723957886	6.2881355	2.5076156
7.410214093857353	5.9491105	2.4390798
7.427777638078528	5.7763205	2.4033978
7.445341357039213	5.6135693	2.3692973
7.4629052511572525	5.432258	2.3307204
7.480469320850524	5.3420506	2.3112876
7.498033566536948	5.270065	2.2956622
7.5155979886344735	5.297175	2.3015592
7.5331625875610975	5.223655	2.2855318
7.550727363734844	5.2608113	2.2936459
7.568292317573788	5.2745113	2.2966304
7.585857449496025	5.364915	2.3162286
7.603422759919705	5.4605284	2.3367774
7.620988249263007	5.4604106	2.3367522
7.638553917944147	5.3946576	2.3226402
7.656119766381391	5.354604	2.3140016
7.673685794993023	5.303437	2.3029194
7.691252004197388	5.308386	2.3039935
7.70881839441285	5.264109	2.2943647
7.726384966057826	5.279428	2.2977006
7.743951719550762	5.2819815	2.2982562
7.761518655310149	5.4268384	2.3295577
7.779085773754511	5.4630637	2.3373199
7.796653075302419	5.4690027	2.33859
7.814220560372475	5.448016	2.3340986
7.831788229383323	5.40694	2.3252828
7.8493560827536495	5.3804603	2.319582
7.866924120902174	5.3692846	2.3171716
7.884492344247663	5.3791313	2.3192954
7.9020607532089135	5.366889	2.3166547
7.919629348204771	5.4200807	2.3281066
7.937198129654115	5.4316926	2.3305993
7.954767097975865	5.4354005	2.3313944
7.972336253588986	5.3764114	2.318709
7.989905596912472	5.3227854	2.3071163
8.007475128365371	5.3277745	2.3081973
8.025044848366756	5.3822775	2.3199737
8.042614757335754	5.527954	2.35116
8.060184855691523	5.6698446	2.3811436
8.07775514385327	5.833475	2.415259
8.095325622240228	5.860819	2.4209127
8.112896291271687	5.8184876	2.4121542
8.130467151366968	5.8441234	2.417462
8.148038202945436	5.863029	2.4213693
8.165609446426497	5.871936	2.4232078
8.183180882229594	5.9091105	2.4308662
8.200752510774217	5.9077873	2.430594
8.218324332479893	5.9409337	2.437403
8.235896347766193	5.9439416	2.43802
8.253468557052724	6.0221033	2.4539974
8.27104096075914	6.0365868	2.4569466
8.288613559305137	6.045554	2.4587708
8.306186353110448	6.042357	2.4581206
8.32375934259485	6.203251	2.4906325
8.341332528178162	6.2676864	2.5035348
8.358905910280246	6.299317	2.509844
8.376479489321003	6.299625	2.5099053
8.394053265720377	6.2603064	2.5020604
8.411627239898356	6.2814274	2.5062776
8.42920141227497	6.2572904	2.5014577
8.44677578327029	6.2936206	2.508709
8.464350353304427	6.2775226	2.5054984
8.48192512279754	6.213358	2.4926608
8.499500092169827	6.1693006	2.4838076
8.51707526184153	6.139879	2.4778779
8.534650632232934	6.2199826	2.4939892
8.552226203764365	6.2596107	2.5019214
8.569801976856192	6.323371	2.5146313
8.587377951928834	6.3274193	2.5154362
8.60495412940274	6.3388996	2.5177171
8.622530509698416	6.368299	2.5235488
8.6401070932364	6.473929	2.5443916
8.657683880437283	6.5300417	2.5553946
8.675260871721695	6.6817365	2.5849054
8.692838067510303	6.838574	2.6150668
8.710415468223834	7.0887065	2.6624625
8.727993074283043	7.2509184	2.6927528
8.745570886108737	7.3279133	2.707012
8.763148904121765	7.3667464	2.714175
8.78072712874302	7.386097	2.7177374
8.798305560393441	7.56498	2.7504508
8.815884199494006	7.6688313	2.7692654
8.833463046465745	7.8520436	2.8021498
8.851042101729728	8.0025	2.8288689
8.86862136570707	8.282226	2.8778856
8.886200838818924	8.3700075	2.8930964
8.903780521486505	8.4166565	2.9011474
8.921360414131055	8.628192	2.9373784
8.938940517173874	8.852906	2.9753833
8.956520831036297	8.9893675	2.9982274
8.97410135613971	9.134755	3.0223758
8.99168209290554	9.14557	3.0241642
9.009263041755265	9.414053	3.0682328
9.026844203110405	9.686633	3.1123357
9.044425577392525	9.938871	3.1525977
9.062007165023239	10.112842	3.1800694
9.079588966424197	10.41671	3.2274928
9.097170982017108	10.5320635	3.2453141
9.11475321222372	11.468907	3.3865776
9.132335657465825	12.351237	3.5144327
9.149918318165264	12.38094	3.518656
9.167501194743924	12.980113	3.6027925
9.18508428762374	12.6203575	3.5525143
9.202667597226693	12.603975	3.5502079
9.220251123974803	12.251207	3.5001724
9.237834868290143	11.983342	3.4616964
9.255418830594836	11.842424	3.4412823
9.273003011311046	11.402785	3.376801
9.290587410860985	11.15611	3.3400762
9.308172029666911	10.476636	3.2367632
9.32575686815113	10.140533	3.1844203
9.343341926735997	8.862204	2.9769454
9.360927205843916	8.611057	2.9344604
9.378512705897327	8.329049	2.8860092
9.396098427318728	8.118971	2.8493807
9.413684370530664	8.044635	2.8363066
9.431270535955722	7.9524336	2.820006
9.448856924016539	7.847115	2.8012702
9.466443535135806	7.7789207	2.7890716
9.484030369736251	7.7690973	2.7873101
9.501617428240658	7.7518997	2.7842233
9.519204711071852	7.7424755	2.7825303
9.536792218652714	7.794586	2.7918787
9.55437995140617	7.894958	2.8097968
9.571967909755191	8.003249	2.8290014
9.589556094122802	7.96731	2.8226423
9.60714450493207	7.9199424	2.8142393
9.624733142606116	7.869045	2.8051817
9.642322007568108	7.888013	2.8085606
9.659911100241267	7.974863	2.82398
9.677500421048851	8.064853	2.8398685
9.695089970414175	8.052062	2.8376155
9.712679748760609	8.070839	2.840922
9.730269756511557	8.070469	2.840857
9.747859994090492	8.119445	2.849464
9.765450461920915	8.136572	2.8524678
9.78304116042639	8.18027	2.8601172
9.800632090030527	8.245573	2.8715105
9.81822325115699	8.369777	2.8930566
9.835814644229481	8.379261	2.8946953
9.853406269671762	8.38031	2.8948765
9.870998127907646	8.39583	2.8975558
9.888590219360985	8.392494	2.8969803
9.906182544455698	8.348674	2.8894072
9.923775103615734	8.295817	2.8802462
9.941367897265108	8.329569	2.8860993
9.958960925827878	8.3815565	2.8950918
9.97655418972816	8.39607	2.8975973
9.994147689390106	8.427939	2.9030914
10.011741425237934	8.439998	2.9051673
10.029335397695904	8.395483	2.897496
10.04692960718833	8.396618	2.8976917
10.06452405413958	8.330319	2.8862293
10.082118738974064	8.358376	2.8910856
10.099713662116246	8.294937	2.8800933
10.117308823990651	8.278436	2.877227
10.134904225021844	8.232424	2.86922
10.152499865634445	8.211513	2.8655736
10.170095746253125	8.229328	2.8686805
10.18769186730261	8.294068	2.8799424
10.205288229207675	8.311856	2.883029
10.222884832393145	8.287745	2.8788445
10.2404816772839	8.21206	2.8656693
10.258078764304868	8.2033825	2.8641548
10.275676093881035	8.179792	2.8600338
10.293273666437438	8.202877	2.8640666
10.310871482399158	8.247783	2.8718953
10.32846954219134	8.261571	2.8742948
10.346067846239173	8.256314	2.8733802
10.363666394967908	8.233225	2.8693597
10.38126518880283	8.170681	2.8584404
10.398864228169298	8.209673	2.8652527
10.416463513492713	8.312666	2.8831694
10.434063045198531	8.297093	2.8804677
10.451662823712262	8.30871	2.8824832
10.469262849459467	8.377997	2.8944771
10.486863122865758	8.321001	2.8846145
10.504463644356806	8.2649	2.8748739
10.522064414358338	8.163472	2.8571792
10.539665433296118	8.120687	2.8496819
10.557266701595987	8.035873	2.8347616
10.574868219683818	7.9328237	2.816527
10.592469987985552	7.8681846	2.8050284
10.610072006927185	7.76921	2.7873302
10.627674276934751	7.6654224	2.7686498
10.64527679843435	7.485863	2.7360306
10.662879571852143	7.3397655	2.7092001
10.680482597614331	7.197518	2.6828191
10.698085876147173	7.0576406	2.656622
10.715689407876988	6.964576	2.6390483
10.733293193230146	6.8894753	2.624781
10.750897232633072	6.8914285	2.625153
10.76850152651225	6.819521	2.6114213
10.786106075294207	6.656191	2.5799594
10.803710879405534	6.59962	2.5689726
10.821315939272877	6.489944	2.5475368
10.83892125532294	6.454778	2.5406256
10.856526827982472	6.3632245	2.5225432
10.874132657678285	6.30182	2.5103426
10.891738744837243	6.264856	2.5029695
10.909345089886271	6.199673	2.4899142
10.926951693252343	6.189833	2.4879375
10.944558555362494	6.086342	2.4670513
10.96216567664381	6.05846	2.461394
10.979773057523436	5.982374	2.4458892
10.997380698428573	5.8921423	2.4273736
11.014988599786477	5.7714415	2.4023824
11.032596762024461	5.6527596	2.3775532
11.050205185569892	5.6037583	2.367226
11.067813870850198	5.577246	2.3616195
11.085422818292859	5.521645	2.349818
11.10303202832541	5.4808598	2.3411236
11.120641501375454	5.409409	2.3258135
11.138251237870636	5.3643823	2.3161137
11.155861238238671	5.2674165	2.2950852
11.173471502907317	5.171464	2.2740853
11.191082032304402	5.1196065	2.2626548
11.208692826857805	5.127936	2.2644947
11.226303886995465	5.1033916	2.2590687
11.243915213145371	5.088099	2.2556815
11.261526805735578	5.01516	2.2394552
11.279138665194196	4.9776897	2.2310736
11.296750791949393	4.874653	2.2078617
11.314363186429393	4.783551	2.187133
11.331975849062479	4.701376	2.1682656
11.34958878027699	4.6649666	2.1598535
11.36720198050133	4.6736298	2.1618578
11.384815450163948	4.6161394	2.1485202
11.402429189693366	4.566231	2.136874
11.420043199518153	4.4644384	2.1129217
11.437657480066942	63.450603	7.9655886
11.455272031768422	85.13403	9.22681
11.472886855051353	107.491486	10.36781
11.490501950344528	99.05544	9.952661
11.508117318076819	84.416626	9.187852
11.52573295867715	45.856277	6.771726
11.543348872574514	4.2315135	2.0570643
11.560965060197946	4.1724396	2.042655
11.57858152197655	4.121231	2.0300815
11.59619825833949	4.085931	2.0213685
11.613815269715985	4.0436063	2.0108721
11.631432556535323	38.575596	6.2109256
11.649050119226837	83.08035	9.114842
11.666667958219929	93.47017	9.667997
11.68428607394406	107.68071	10.376931
11.701904466828756	82.48017	9.08186
11.719523137303586	65.31013	8.081469
11.737142085798196	4.5542464	2.134068
11.754761312742286	3.708235	1.9256778
11.772380818565619	3.7241697	1.9298108
11.790000603698015	3.7433643	1.9347776
11.80762066856935	3.6763349	1.9173771
11.825241013609572	3.5908341	1.8949497
11.842861639248683	3.5679743	1.8889083
11.860482545916748	3.572291	1.8900505
11.878103734043883	3.5921047	1.8952849
11.895725204060282	3.58733	1.8940248
11.91334695639619	3.5169814	1.8753617
11.930968991481919	3.4948626	1.8694551
11.948591309747824	3.458452	1.8596914
11.966213911624347	3.4759884	1.8644003
11.98383679754198	3.3954518	1.8426752
12.001459967931268	3.3700976	1.8357825
12.019083423222835	3.3332999	1.8257327
12.036707163847352	3.3131073	1.8201942
12.05433119023556	3.3037043	1.8176095
12.071955502818259	3.2767277	1.8101734
12.089580102026313	3.233636	1.7982314
12.107204988290643	3.1923664	1.7867194
12.12483016204224	3.186534	1.7850865
12.142455623712152	3.1610568	1.7779361
12.16008137373149	3.141318	1.7723764
12.177707412531431	3.1167495	1.7654319
12.19533374054321	3.1240506	1.7674984
12.212960358198126	3.0883162	1.7573606
12.230587265927545	3.0260677	1.7395597
12.248214464162889	2.9697292	1.7232902
12.265841953335649	2.983211	1.7271974
12.283469733877375	3.0298247	1.7406392
12.301097806219685	3.0167737	1.7368863
12.31872617079425	2.9696984	1.7232813
12.336354828032825	2.9151566	1.7073829
12.353983778367205	2.9358587	1.7134348
12.371613022229262	2.9109554	1.7061522
12.389242560050928	2.9484396	1.717102
12.406872392264201	2.9222167	1.7094492
12.424502519301143	2.9318073	1.7122521
12.442132941593874	2.872535	1.6948555
12.459763659574586	2.817241	1.6784638
12.477394673675532	2.804378	1.6746278
12.49502598432903	2.8520901	1.6888132
12.51265759196746	2.8842597	1.6983109
12.530289497023267	2.865829	1.692876
12.547921699928967	2.847351	1.6874095
12.565554201117134	2.8134043	1.6773206
12.583187001020404	2.820073	1.6793072
12.600820100071486	2.8146346	1.6776873
12.618453498703152	2.8234825	1.6803222
12.636087197348235	2.7822313	1.6680022
12.65372119643964	2.7896993	1.6702393
12.671355496410326	2.77106	1.6646501
12.68899009769333	2.8084803	1.6758521
12.706625000721749	2.8398738	1.6851925
12.724260205928752	2.909139	1.7056198
12.741895713747551	2.961392	1.7208695
12.759531524611454	3.0641963	1.7504846
12.777167638953818	3.0556304	1.7480361
12.794804057208072	3.079994	1.7549912
12.812440779807702	3.0986412	1.7602957
12.830077807186271	3.2539237	1.8038635
12.847715139777405	3.2857199	1.8126554
12.865352778014795	3.4930487	1.8689699
12.882990722332197	3.6181805	1.9021516
12.90062897316344	3.690547	1.9210796
12.918267530942412	3.748179	1.9360214
12.935906396103071	3.6433184	1.9087479
12.953545569079449	3.7969975	1.9485886
12.971185050305628	3.5620358	1.8873357
12.988824840215775	3.5759857	1.8910277
13.006464939244115	3.5871565	1.8939791
13.024105347824943	3.476205	1.8644584
13.041746066392617	3.5965388	1.8964542
13.05938709538157	3.4331243	1.8528692
13.077028435226296	3.4662452	1.8617855
13.094670086361363	3.3069427	1.8185002
13.112312049221401	3.185643	1.784837
13.129954324241112	3.044128	1.744743
13.147596911855258	2.8614316	1.6915767
13.165239812498685	2.8850117	1.6985322
13.182883026606293	2.828194	1.6817235
13.200526554613058	2.791654	1.6708244
13.218170396954017	2.753005	1.6592182
13.235814554064284	2.7472577	1.6574854
13.253459026379034	2.7405627	1.6554645
13.271103814333523	2.707848	1.6455541
13.288748918363058	2.6796095	1.6369513
13.306394338903031	2.6821582	1.6377296
13.32404007638889	2.6562307	1.6297947
13.341686131256164	2.6829221	1.6379628
13.359332503940449	2.687662	1.639409
13.376979194877402	2.6912272	1.640496
13.394626204502751	2.7488475	1.6579648
13.412273533252307	2.7587605	1.6609516
13.429921181561937	2.7209847	1.6495408
13.447569149867581	2.6876395	1.6394022
13.465217438605247	2.6934834	1.6411835
13.482866048211022	2.7017944	1.6437136
13.500514979121052	2.706882	1.6452605
13.518164231771568	2.671101	1.6343503
13.535813806598844	2.6672478	1.6331711
13.553463704039254	2.6511977	1.6282499
13.571113924529229	2.6748688	1.6355026
13.588764468505275	2.6744566	1.6353766
13.606415336403956	2.6756606	1.6357447
13.624066528661917	2.7112184	1.6465777
13.641718045715882	2.7781763	1.6667862
13.659369888002635	2.8687222	1.6937302
13.67702205595903	2.9629524	1.7213229
13.694674550021993	3.047185	1.7456188
13.712327370628532	3.102943	1.7615173
13.729980518215713	3.1772377	1.7824808
13.747633993220681	3.243258	1.8009048
13.765287796080647	3.2968547	1.8157243
13.7829419272329	3.3014326	1.8169845
13.800596387114801	3.333524	1.8257941
13.818251176163775	3.4098194	1.8465697
13.835906294817324	3.4768305	1.864626
13.853561743513023	3.500076	1.870849
13.871217522688525	3.4951272	1.8695259
13.888873632781538	3.4976797	1.8702085
13.906530074229858	3.5183048	1.8757145
13.92418684747135	3.565223	1.8881798
13.941843952943948	3.5620894	1.8873498
13.959501391085665	3.5472648	1.8834184
13.977159162334578	3.4453082	1.8561542
13.994817267128846	3.373059	1.836589
14.012475705906693	3.2994022	1.8164257
14.030134479106424	3.2670844	1.8075078
14.047793587166414	3.1927688	1.7868321
14.065453030525108	3.1115916	1.7639704
14.083112809621026	3.0231004	1.7387065
14.100772924892766	2.9484956	1.7171184
14.118433376778997	2.9256668	1.710458
14.136094165718458	2.866092	1.6929536
14.153755292149969	2.845764	1.6869392
14.171416756512416	2.7600381	1.6613363
14.189078559244768	2.6715522	1.6344883
14.20674070078606	2.577003	1.6053046
14.224403181575408	2.5502772	1.5969588
14.242066002051999	2.5089731	1.5839739
14.259729162655093	2.5138366	1.5855083
14.277392663824022	2.4964287	1.5800091
14.295056505998208	2.479213	1.5745517
14.312720689617128	2.4409852	1.5623653
14.330385215120348	2.4230592	1.5566179
14.348050082947497	2.4307563	1.5590883
14.3657152935383	2.446561	1.5641487
14.383380847332528	2.44985	1.5651997
14.401046744770051	2.3857367	1.544583
14.418712986290798	2.3706305	1.5396852
14.436379572334793	2.3889878	1.5456351
14.454046503342123	2.4038231	1.5504267
14.471713779752946	2.4103146	1.5525187
14.489381402007504	2.4157271	1.554261
14.507049370546113	2.4208932	1.555922
14.524717685809168	2.4220057	1.5562794
14.542386348237134	2.4190412	1.5553267
14.560055358270553	2.413209	1.5534507
14.577724716350051	2.4416854	1.5625893
14.595394422916325	2.4432437	1.5630879
14.61306447841015	2.4909618	1.5782781
14.63073488327237	2.4752626	1.5732968
14.648405637943917	2.5120013	1.5849295
14.6660767428658	2.4934945	1.5790802
14.683748198479094	2.552689	1.5977137
14.701420005224954	2.6285315	1.6212746
14.719092163544628	2.6979454	1.6425424
14.73676467387942	2.7524424	1.6590487
14.754437536670727	2.7382612	1.6547692
14.772110752360014	2.7227407	1.6500729
14.78978432138882	2.6883976	1.6396334
14.807458244198777	2.6893086	1.6399112
14.82513252123159	2.695552	1.6418136
14.842807152929028	2.7222774	1.6499325
14.860482139732962	2.7117832	1.6467493
14.87815748208531	2.6959453	1.6419334
14.8958331804281	2.6749303	1.6355214
14.91350923520342	2.6432486	1.625807
14.931185646853438	2.65786	1.6302944
14.948862415820408	2.6687763	1.633639
14.966539542546656	2.70336	1.6441898
14.98421702747459	2.6582541	1.6304153
15.001894871046696	2.6407037	1.6250242
15.019573073705542	2.6233945	1.6196896
15.037251635893766	2.6132214	1.6165462
15.054930558054092	2.6188302	1.61828
15.072609840629323	2.680655	1.6372706
15.090289484062351	2.8744757	1.6954279
15.107969488796124	3.185936	1.784919
15.125649855273691	3.5968456	1.8965352
15.14333058393817	4.079827	2.0198581
15.161011675232768	5.0264754	2.2419803
15.17869312960076	6.3314934	2.5162458
15.196374947485506	8.128272	2.8510125
15.214057129330447	11.209033	3.3479893
15.231739675579114	15.947378	3.9934168
15.249422586675102	21.098856	4.593349
15.267105863062092	24.319698	4.9315004
15.284789505183847	24.537096	4.953493
15.302473513484218	22.437532	4.7368274
15.320157888407127	18.836332	4.3400846
15.337842630396578	14.719708	3.8366272
15.355527739896656	11.477845	3.3878968
15.37321321735153	8.944658	2.9907622
15.39089906320545	6.4960566	2.5487363
15.408585277902748	4.8280544	2.1972835
15.42627186188783	3.732001	1.9318388
15.443958815605198	3.248874	1.8024633
15.461646139499424	2.9787757	1.725913
15.479333834015168	2.8489318	1.6878779
15.497021899597165	2.7992878	1.6731073
15.514710336690234	2.7239144	1.6504285
15.53239914573928	2.6710644	1.6343391
15.550088327189297	2.607664	1.6148263
15.567777881485336	2.5598578	1.5999556
15.58546780907256	2.5319245	1.5912023
15.6031581103962	2.5056214	1.5829155
15.620848785901568	2.5379555	1.5930963
15.638539836034063	2.5566704	1.5989592
15.656231261239173	2.5448694	1.5952647
15.673923061962451	2.4982238	1.580577
15.691615238649552	2.4531767	1.566262
15.709307791746202	2.4156115	1.5542238
15.727000721698221	2.4023125	1.5499395
15.744694028951498	2.4021907	1.5499002
15.76238771395202	2.3908544	1.5462388
15.780081777145844	2.3722494	1.5402108
15.797776218979125	2.350238	1.5330486
15.815471039898094	2.3807847	1.5429791
15.833166240349064	2.3599355	1.5362082
15.850861820778437	2.3862073	1.5447353
15.868557781632699	2.3615863	1.5367454
15.886254123358412	2.384826	1.5442882
15.903950846402232	2.3860483	1.5446839
15.921647951210897	2.4069088	1.5514215
15.939345438231225	2.391431	1.5464252
15.957043307910133	2.3958302	1.5478469
15.974741560694602	2.4084814	1.5519283
15.992440197031714	2.396721	1.5481347
16.01013921736862	2.389185	1.5456989
16.02783862215259	2.3975067	1.5483885
16.045538411830933	2.4085956	1.5519651
16.06323858685107	2.4024992	1.5499997
16.080939147660512	2.3665266	1.5383519
16.09864009470684	2.367333	1.5386139
16.11634142843774	2.4141238	1.553745
16.134043149300954	2.4548914	1.5668093
16.15174525774433	2.456993	1.5674798
16.169447754215817	2.4792695	1.5745696
16.18715063916342	2.4529536	1.5661908
16.204853913035244	2.4704294	1.5717599
16.222557576279478	2.4997098	1.581047
16.240261629344403	22.506134	4.744063
16.257966072678386	43.08031	6.5635595
16.275670906729868	38.175106	6.178601
16.293376131947387	2.5947459	1.6108215
16.31108174877957	2.5700912	1.6031504
16.328787757675133	2.5510213	1.5971917
16.34649415908287	2.5668836	1.6021497
16.364200953451657	2.5782409	1.6056901
16.38190814123048	2.6269124	1.6207752
16.39961572286839	2.6507778	1.6281209
16.41732369881455	2.7006443	1.6433637
16.43503206951817	2.7544162	1.6596434
16.45274083542859	2.7952518	1.6719006
16.47044999699522	2.8184328	1.6788188
16.488159554667558	2.8504956	1.688341
16.505869508895184	2.878503	1.6966152
16.523579860127786	2.9185958	1.7083899
16.541290608815117	2.9615514	1.7209159
16.559001755407035	3.0296857	1.7405993
16.57671330035348	3.106473	1.7625189
16.59442524410448	3.1292837	1.7689781
16.61213758711015	3.1830125	1.7840999
16.629850329820705	3.235351	1.7987082
16.647563472686436	3.3355727	1.826355
16.665277016157724	3.4399476	1.8547096
16.682990960685053	3.520506	1.8763012
16.70070530671898	3.513965	1.8745573
16.718420054710155	3.516502	1.8752338
16.736135205109335	3.5776615	1.8914707
16.753850758367335	3.6388202	1.9075692
16.771566714935087	3.6834865	1.9192411
16.789283075263597	3.6915016	1.9213281
16.80699983980398	3.7523289	1.9370929
16.82471700900741	3.8649158	1.9659389
16.84243458332518	3.9435008	1.985825
16.860152563208665	3.9916847	1.99792
16.87787094910932	4.0126443	2.0031586
16.89558974147871	4.089096	2.0221512
16.913308940768466	4.1513376	2.0374832
16.931028547430333	4.2397914	2.0590754
16.94874856191613	4.363366	2.0888672
16.966468984677785	4.4217563	2.1027973
16.98418981616729	4.4448934	2.1082916
17.00191105683676	4.4455905	2.1084569
17.019632707138374	4.5186987	2.1257231
17.03735476752442	4.5246525	2.127123
17.05507723844728	4.5397606	2.1306715
17.072800120359403	4.564993	2.1365845
17.090523413713353	4.6159396	2.1484737
17.108247118961785	4.640392	2.154157
17.125971236557437	4.6788564	2.1630664
17.143695766953133	4.6800594	2.1633444
17.161420710601806	4.7036266	2.1687846
17.179146067956477	4.743748	2.1780148
17.19687183947025	4.704822	2.1690602
17.21459802559634	4.646393	2.1555493
17.232324626788028	4.624122	2.1503773
17.25005164349871	4.6452656	2.1552877
17.267779076181863	4.6690516	2.1607988
17.285506925291074	4.6292624	2.151572
17.30323519127999	4.6112723	2.1473873
17.320963874602384	4.604508	2.1458118
17.33869297571211	4.6125774	2.1476912
17.356422495063114	4.638045	2.1536121
17.37415243310944	4.6293044	2.1515818
17.391882790305218	4.5728173	2.1384146
17.40961356710468	4.555638	2.134394
17.42734476396215	4.563335	2.1361964
17.445076381332044	4.57042	2.137854
17.462808419668868	4.6348534	2.152871
17.48054087942723	4.728203	2.174443
17.498273761061835	4.964513	2.2281187
17.51600706502747	5.447914	2.3340766
17.533740791779024	6.21694	2.493379
17.551474941771485	7.6746016	2.770307
17.56920951545993	8.803892	2.9671354
17.586944513299528	11.026487	3.3206155
17.60467993574556	12.676664	3.5604303
17.622415783253373	14.343738	3.7873127
17.64015205627843	15.699906	3.9623108
17.657888755276293	16.813824	4.1004663
17.675625880702604	17.369444	4.1676664
17.69336343301311	17.160208	4.142488
17.71110141266366	16.387873	4.048194
17.728839820110178	15.361915	3.9194279
17.746578655808705	14.389254	3.793317
17.764317920215372	12.928789	3.5956626
17.7820576137864	11.379448	3.3733437
17.79979773697811	9.422539	3.0696154
17.81753829024692	7.474834	2.7340143
17.835279274049356	5.8471627	2.4180908
17.85302068884201	4.839385	2.1998603
17.870762535081607	4.217687	2.053701
17.888504813224934	3.890419	1.9724145
17.90624752372891	3.689719	1.9208641
17.923990667050536	3.583552	1.8930272
17.941734243646895	3.534076	1.8799138
17.959478253975185	3.5160959	1.8751255
17.9772226984927	3.520837	1.8763894
17.994967577656833	3.4385257	1.8543262
18.01271289192506	3.3805857	1.8386369
18.030458641754965	3.365534	1.8345392
18.04820482760425	3.3993378	1.8437293
18.06595144993067	3.3994455	1.8437586
18.083698509192125	3.364377	1.8342239
18.101446005846576	3.2973723	1.8158668
18.119193940352105	3.2048755	1.7902166
18.136942313166887	3.1699872	1.7804458
18.1546911247492	3.1789348	1.7829567
18.1724403755574	3.1548882	1.7762005
18.19019006604997	3.141693	1.7724822
18.207940196685467	3.1547906	1.776173
18.225690767922575	3.158922	1.7773356
18.243441780220046	3.1199868	1.7663485
18.261193234036764	3.1077354	1.762877
18.278945129831676	3.1310756	1.7694845
18.29669746806386	3.120114	1.7663845
18.314450249192483	3.1163912	1.7653303
18.3322034736768	3.111655	1.7639884
18.349957141976184	3.10545	1.7622287
18.3677112545501	3.0564153	1.7482606
18.385465811858108	3.0902724	1.757917
18.403220814359884	3.1007977	1.7609082
18.420976262515172	3.1394837	1.7718588
18.43873215678387	3.1149952	1.7649349
18.456488497625923	3.1549046	1.7762051
18.474245285501407	3.2470806	1.8019657
18.492002520870486	3.3311923	1.8251554
18.50976020419343	3.405978	1.8455292
18.527518335930615	3.7192774	1.9285429
18.545276916542516	4.3261766	2.0799463
18.563035946489688	4.5062394	2.1227906
18.580795426232832	4.9833117	2.2323332
18.598555356232698	4.8900847	2.2113535
18.616315736950185	5.191803	2.2785528
18.63407656884626	4.774253	2.1850064
18.65183785238201	5.003631	2.2368798
18.669599588018617	4.7814026	2.186642
18.68736177621737	4.7754073	2.1852705
18.705124417439652	4.664671	2.159785
18.72288751214696	4.4813905	2.1169295
18.740651060800886	4.6631165	2.159425
18.758415063863115	4.4042583	2.0986326
18.77617952179546	4.576915	2.1393726
18.793944435059814	4.2641525	2.0649824
18.811709804118184	4.2691603	2.0661945
18.829475629432675	4.214759	2.0529878
18.8472419114655	4.053075	2.013225
18.86500865067897	4.1236367	2.030674
18.88277584753551	3.7735832	1.9425713
18.90054350249763	3.7754467	1.9430509
18.918311616027957	3.4957101	1.8696818
18.936080188589226	3.3936765	1.8421934
18.953849220644265	3.0807872	1.7552171
18.971618712656007	2.8841243	1.6982709
18.9893886650875	2.8514585	1.6886263
19.007159078401887	7.983812	2.825564
19.024929953062408	32.861507	5.732496
19.042701289532435	32.816444	5.728564
19.060473088275405	25.391302	5.038978
19.07824534975489	2.6590126	1.6306479
19.096018074434568	2.6462362	1.6267256
19.113791262778197	2.6494434	1.627711
19.13156491524966	2.6606672	1.6311551
19.149339032312945	2.6751122	1.6355771
19.167113614432136	2.6452177	1.6264125
19.184888662071433	2.6323764	1.62246
19.202664175695123	2.5890486	1.6090521
19.220440155767623	2.5656211	1.6017556
19.238216602753447	2.579037	1.6059381
19.2559935171172	2.5917888	1.6099033
19.27377089932361	2.5679486	1.602482
19.291548749837514	2.5352526	1.5922476
19.309327069123835	2.550664	1.5970799
19.32710585764763	2.5293148	1.590382
19.344885115874032	2.5188007	1.587073
19.362664844268313	2.4933767	1.579043
19.380445043295822	2.4833922	1.5758783
19.39822571342203	2.4813135	1.5752186
19.41600685511252	2.4601512	1.5684869
19.43378846883297	2.4641945	1.5697753
19.451570555049173	2.46829	1.5710793
19.469353114227037	2.511884	1.5848924
19.48713614683254	2.5349464	1.5921515
19.50491965333182	2.5511117	1.59722
19.52270363419109	2.5268767	1.5896152
19.540488089876686	2.5117033	1.5848354
19.55827302085503	2.5175707	1.5866854
19.576058427592674	2.49204	1.5786196
19.593844310556282	2.5018554	1.5817255
19.611630670212598	2.4901068	1.5780072
19.629417507028506	2.4852066	1.5764538
19.64720482147098	2.4852154	1.5764565
19.6649926140071	2.4958713	1.5798327
19.682780885104084	2.5236092	1.5885872
19.70056963522921	2.556593	1.5989349
19.718358864849908	2.5596051	1.5998766
19.7361485744337	2.5199385	1.5874314
19.753938764448215	2.502902	1.5820563
19.771729435361202	2.4745226	1.5730616
19.789520587640506	2.4879255	1.5773159
19.807312221754092	2.4899156	1.5779467
19.825104338170043	2.5129652	1.5852334
19.842896937356517	2.5388217	1.593368
19.860690019781824	2.5391767	1.5934794
19.87848358591436	2.5186324	1.5870199
19.896277636222635	2.5062044	1.5830996
19.914072171175278	2.478044	1.5741805
19.931867191241015	2.4589317	1.5680981
19.94966269688869	2.5038629	1.5823599
19.967458688587264	2.5116205	1.5848093
19.985255166805807	2.5246007	1.5888993
20.00305213201348	2.5069528	1.583336
20.020849584679578	2.5028937	1.5820537
20.038647525273507	2.5224223	1.5882136
20.05644595426477	2.5209174	1.5877397
20.07424487212299	2.501082	1.581481
20.092044279317903	2.4849138	1.576361
20.109844176319353	2.493178	1.57898
20.127644563597304	2.4720006	1.5722597
20.145445441621817	2.436298	1.5608644
20.16324681086307	2.4127855	1.5533143
20.181048671791373	2.4023395	1.5499482
20.198851024877122	2.4112701	1.5528265
20.216653870590836	2.4218292	1.5562228
20.234457209403146	2.4248574	1.5571953
20.252261041784802	2.400153	1.5492427
20.270065368206662	2.3947225	1.547489
20.287870189139685	2.3772647	1.541838
20.305675505054968	2.3579373	1.5355576
20.323481316423702	2.3528605	1.5339037
20.341287623717207	2.3836684	1.5439134
20.359094427406884	2.3916767	1.5465046
20.376901727964288	2.4005158	1.5493598
20.39470952586107	2.3744442	1.5409232
20.41251782156899	2.3694303	1.5392954
20.430326615559935	2.3663187	1.5382843
20.448135908305886	2.3833094	1.543797
20.465945700278965	2.3901005	1.545995
20.483755991951384	2.3791716	1.5424564
20.50156678379548	2.3507953	1.5332303
20.519378076283708	2.3376236	1.5289289
20.537189869888635	2.3641467	1.5375782
20.55500216508294	2.3437972	1.5309465
20.572814962339415	2.3422103	1.5304282
20.59062826213098	2.3227682	1.5240631
20.60844206493066	2.3541615	1.5343277
20.626256371211593	2.3174217	1.522308
20.644071181447032	2.3274622	1.5256022
20.66188649611036	2.3316288	1.5269672
20.67970231567506	2.3257983	1.5250568
20.697518640614742	2.317227	1.522244
20.715335471403122	2.312778	1.520782
20.73315280851404	2.3147	1.5214138
20.750970652421447	2.3131566	1.5209064
20.768789003599412	2.3369253	1.5287005
20.786607862522136	2.3845358	1.5441942
20.8044272296639	2.3795419	1.5425764
20.82224710549913	2.3144472	1.5213307
20.84006749050237	2.30733	1.5189898
20.857888385148268	3.850339	1.9622281
20.8757097899116	45.971817	6.780252
20.893531705267254	64.825134	8.051406
20.911354131690224	83.84444	9.156661
20.92917706965566	69.08715	8.311868
20.94700051963877	50.143524	7.081209
20.96482448211493	29.419336	5.4239593
20.982648957559622	4.1691995	2.0418618
21.00047394644843	2.3045197	1.5180645
21.01829944925707	2.2973003	1.5156847
21.036125466461375	2.2746675	1.5082
21.053951998537297	2.2495685	1.4998561
21.071779045960906	2.2246654	1.4915313
21.089606609208378	2.2085917	1.4861331
21.10743468875603	2.1831236	1.4775397
21.12526328508028	2.1655793	1.4715908
21.143092398657675	2.1442175	1.4643147
21.16092202996488	2.1629944	1.4707122
21.17875217947867	2.1702204	1.4731668
21.19658284767596	2.1848283	1.4781165
21.21441403503377	2.1815536	1.4770083
21.232245742029225	2.1919427	1.4805211
21.2500779691396	2.1933365	1.4809917
21.26791071684227	2.1741197	1.4744897
21.28574398561475	2.1479151	1.4655768
21.30357777593465	2.133017	1.4604852
21.321412088279704	2.1112068	1.4529992
21.339246923127792	2.0939803	1.4470592
21.357082280956888	2.1122792	1.4533682
21.3749181622451	2.135766	1.461426
21.392754567470647	2.1461022	1.4649581
21.41059149711187	2.1698432	1.4730388
21.42842895164726	2.1707363	1.473342
21.446266931555378	2.1451702	1.4646399
21.464105437314945	2.1421654	1.4636139
21.481944469404798	2.1388166	1.4624693
21.49978402830388	2.1382887	1.4622889
21.51762411449127	2.133485	1.4606454
21.53546472844617	2.156783	1.4685991
21.553305870647876	2.1517448	1.4668827
21.571147541575865	2.1186564	1.4555606
21.58898974170967	2.1134293	1.4537638
21.60683247152899	2.1277094	1.458667
21.62467573151363	2.1133404	1.4537332
21.642519522143523	2.0781326	1.441573
21.660363843898722	2.0649457	1.4369919
21.6782086972594	2.0766885	1.441072
21.696054082705864	2.0590992	1.4349562
21.713900000718535	2.0427604	1.4292517
21.73174645177795	2.0591342	1.4349684
21.749593436364794	2.078545	1.4417161
21.767440954959845	2.0826402	1.4431355
21.785289008044032	2.0694618	1.4385624
21.803137596098388	2.0794265	1.4420217
21.820986719604086	2.064444	1.4368173
21.838836379042412	2.042514	1.4291655
21.85668657489478	2.0087552	1.4173056
21.87453730764273	2.0103197	1.4178574
21.892388577767914	2.0331287	1.4258783
21.91024038575213	2.0733593	1.4399164
21.928092732077285	2.0937948	1.4469951
21.945945617225426	2.100518	1.4493164
21.963799041678694	2.0784292	1.4416758
21.981653005919398	31.349245	5.5990396
21.999507510429943	78.1127	8.838139
22.01736255569286	73.06436	8.54777
22.035218142190818	4.1984158	2.0490036
22.05307427040661	2.051325	1.4322448
22.07093094082315	2.0510437	1.4321465
22.088788153923474	2.0511572	1.4321861
22.106645910190746	2.024161	1.4227302
22.12450421010827	2.019741	1.421176
22.142363054159464	1.9942374	1.4121747
22.16022244282787	1.9546643	1.3980931
22.178082376597164	1.9313768	1.3897399
22.195942855951145	1.9597638	1.3999156
22.213803881373742	1.9594735	1.399812
22.231665453349002	1.9956174	1.4126632
22.24952757236111	1.9839257	1.408519
22.26739023889438	1.9607391	1.4002639
22.28525345343323	1.9188197	1.3852147
22.30311721646225	1.9395459	1.3926758
22.320981528466113	1.962324	1.4008298
22.33884638992964	1.9380679	1.392145
22.356711801337788	1.9333657	1.3904552
22.37457776317561	1.9514551	1.3969449
22.392444275928337	1.9725113	1.4044613
22.410311340081282	2.0043657	1.4157562
22.428178956119904	2.0028293	1.4152135
22.446047124529805	1.9966512	1.4130291
22.46391584579669	1.9508154	1.396716
22.481785120406414	1.9509697	1.3967712
22.49965494884496	1.9560395	1.3985848
22.51752533159841	1.99257	1.4115843
22.53539626915302	2.0009766	1.4145588
22.553267761995137	1.9641688	1.4014881
22.571139810611264	1.9296013	1.3891009
22.589012415488025	1.9235896	1.3869354
22.60688557711216	1.9549756	1.3982044
22.624759295970566	1.9237521	1.3869939
22.642633572550263	1.9435724	1.3941207
22.660508407338362	1.9626247	1.4009371
22.67838380082217	1.9886167	1.4101832
22.696259753489077	1.9740081	1.404994
22.714136265826614	1.9632765	1.4011697
22.73201333832246	1.9547198	1.3981129
22.74989097146439	1.9505373	1.3966163
22.76776916574035	1.9276875	1.3884119
22.785647921638393	1.9221555	1.3864182
22.803527239646712	1.9018729	1.3790841
22.82140712025363	1.9108456	1.3823334
22.839287563947593	1.8871243	1.3737265
22.85716857121719	1.8967017	1.3772079
22.875050142551135	1.8898278	1.3747101
22.892932278438277	1.891828	1.3754374
22.910814979367604	1.900004	1.3784063
22.928698245828222	1.9164561	1.3843613
22.946582078309387	1.9038265	1.3797922
22.96446647730047	1.8930776	1.3758916
22.98235144329098	1.9246475	1.3873166
23.000236976770562	1.9652907	1.4018883
23.018123078229	2.014314	1.4192653
23.03600974815619	2.0225725	1.4221717
23.053896987042194	1.9554878	1.3983876
23.071784795377173	1.8973504	1.3774434
23.08967317365145	1.9412987	1.393305
23.10756212235546	1.9876646	1.4098456
23.125451641979787	2.0032837	1.415374
23.143341733015134	1.9509718	1.3967719
23.161232395952357	1.9266931	1.3880537
23.179123631282426	1.9099313	1.3820026
23.197015439496468	1.9179789	1.3849112
23.214907821085717	1.8875475	1.3738805
23.23280077654157	1.8993422	1.3781662
23.250694306355538	1.9305376	1.3894379
23.268588411019277	1.9297011	1.3891368
23.28648309102458	1.9387887	1.392404
23.304378346863356	1.9198508	1.3855869
23.322274179027676	1.9260155	1.3878096
23.340170588009723	1.905114	1.3802587
23.358067574301852	1.9053012	1.3803265
23.37596513839651	1.9148293	1.3837736
23.39386328078629	1.9384769	1.392292
23.411762001963947	1.9721009	1.4043151
23.429661302422353	1.9766744	1.4059426
23.4475611826545	1.9710617	1.4039451
23.46546164315356	1.9717208	1.4041798
23.48336268441279	1.9665045	1.4023211
23.501264306925638	1.9545523	1.398053
23.51916651118564	1.966775	1.4024175
23.537069297686497	1.9786955	1.4066612
23.554972666922037	1.97347	1.4048024
23.57287661938623	1.9201721	1.3857027
23.59078115557318	1.8939636	1.3762136
23.608686275977128	1.9311345	1.3896526
23.62659198109246	1.9586062	1.3995022
23.6444982714137	1.9336414	1.3905543
23.66240514743549	1.8794223	1.3709203
23.68031260965263	1.8936468	1.3760984
23.698220658560068	1.8980098	1.3776828
23.716129294652845	1.9194295	1.3854347
23.7340385184262	1.9083736	1.381439
23.75194833037546	1.928548	1.3887217
23.769858730996123	1.9279336	1.3885005
23.78776972078382	1.925805	1.3877337
23.80568130023431	1.8344424	1.3544159
23.823593469843495	1.8114177	1.3458892
23.841506230107424	1.8310473	1.3531619
23.859419581522275	1.8819841	1.3718543
23.87733352458438	1.9070919	1.380975
23.89524805979019	1.9341983	1.3907546
23.913163187636318	1.907241	1.381029
23.931078908619508	1.9707847	1.4038464
23.948995223236633	2.0193398	1.4210348
23.966912131984735	2.0758975	1.4407974
23.98482963536096	2.053457	1.4329889
24.002747733862616	2.070235	1.4388311
24.020666427987155	2.0667083	1.437605
24.038585718232156	2.0191612	1.4209719
24.056505605095353	1.9955002	1.4126217
24.074426089074617	2.048266	1.4311764
24.092347170667946	2.0617368	1.4358749
24.110268850373515	2.1036932	1.4504114
24.128191128689586	2.098973	1.4487833
24.146114006114626	2.061034	1.4356302
24.164037483147187	2.028824	1.4243679
24.181961560286005	2.0500083	1.431785
24.199886238029926	2.080373	1.4423498
24.21781151687797	2.1065698	1.4514027
24.235737397329274	2.0853927	1.4440889
24.253663879883135	2.056598	1.4340844
24.271590965038975	2.047699	1.4309783
24.289518653296376	2.0362666	1.4269781
24.30744694515505	2.0618737	1.4359226
24.32537584111486	2.0348785	1.4264916
24.34330534167581	2.0283272	1.4241935
24.361235447338046	2.0586445	1.4347978
24.379166158601876	2.1001077	1.4491749
24.39709747596772	2.1256728	1.4579687
24.41502939993615	2.136099	1.46154
24.432961931007917	2.1039248	1.4504912
24.450895069683856	2.0268013	1.4236578
24.468828816465	1.9603341	1.4001193
24.4867631718525	1.9477917	1.3956331
24.504698136347656	1.9828331	1.4081311
24.52263371045192	1.9784127	1.4065607
24.540569894666874	2.0076354	1.4169105
24.558506689494266	1.9714533	1.4040846
24.57644409543597	1.9801245	1.407169
24.594382112994012	1.974728	1.4052502
24.61232074267057	2.0127077	1.4186993
24.630259984967953	2.0053668	1.4161098
24.64819984038863	2.0278907	1.4240403
24.66614030943522	1.9850307	1.4089111
24.684081392610462	1.9626925	1.4009613
24.702023090417274	1.940775	1.3931171
24.7199654033587	1.9830886	1.4082218
24.737908331937927	2.0114367	1.4182513
24.755851876658305	1.9844116	1.4086914
24.773796038023324	2.0190067	1.4209175
24.79174081653661	2.0694737	1.4385666
24.809686212701962	2.1116257	1.4531434
24.827632227023294	2.1425588	1.4637482
24.8455788600047	2.1495066	1.4661195
24.8635261121504	2.160896	1.4699987
24.88147398396475	2.1488695	1.4659023
24.899422475952303	2.1392395	1.4626139
24.917371588617698	2.1496406	1.4661653
24.935321322465768	2.2240264	1.491317
24.953271678001478	2.310332	1.5199777
24.97122265572994	2.4532974	1.5663005
24.989174256156414	2.7686207	1.6639173
25.00712647978632	3.2360542	1.7989036
25.02507932712521	3.7780945	1.9437321
25.043032798678798	4.2812104	2.0691087
25.060986894952933	4.909261	2.2156854
25.078941616453637	5.6594586	2.3789616
25.096896963687055	6.5761614	2.5644028
25.114852937159508	7.7990437	2.7926767
25.132809537377444	8.230084	2.8688123
25.150766764847468	8.250931	2.8724434
25.168724620076347	7.6196294	2.7603676
25.186683103570985	6.6415606	2.5771224
25.204642215838426	5.4739094	2.3396387
25.222601957385894	4.1606092	2.0397573
25.24056232872074	3.1829681	1.7840875
25.25852333035048	2.634349	1.6230679
25.276484962782778	2.2751448	1.5083584
25.294447226525435	2.0867066	1.4445437
25.312410122086423	2.0188868	1.4208753
25.330373649973843	1.978162	1.4064715
25.348337810695988	1.9618921	1.4006757
25.366302604761245	1.96311	1.4011103
25.384268032678207	1.9268428	1.3881077
25.40223409495558	1.9106222	1.3822526
25.420200792102257	1.8927133	1.3757591
25.438168124627246	1.9510518	1.3968005
25.45613609303974	1.9532042	1.3975708
25.474104697849057	1.9004939	1.378584
25.492073939564698	1.839715	1.3563609
25.510043818696285	1.8393146	1.3562133
25.528014335753614	1.8648267	1.3655865
25.54598549124664	1.919468	1.3854487
25.56395728568544	1.9161334	1.3842447
25.58192971958028	1.9166158	1.384419
25.59990279344156	1.8728881	1.368535
25.617876507779833	1.8524238	1.3610377
25.635850863105826	1.8408263	1.3567705
25.653825859930386	1.8411471	1.3568888
25.671801498764548	1.8354565	1.3547902
25.68977778011949	1.8445688	1.358149
25.707754704506524	1.9042524	1.3799465
25.725732272437153	1.9173099	1.3846695
25.743710484423012	1.8703394	1.3676035
25.761689340975888	1.8042731	1.3432324
25.77966884260774	1.8333586	1.3540157
25.797648989830662	1.9086138	1.3815259
25.815629783156922	1.9366862	1.3916488
25.83361122309895	1.8970774	1.3773444
25.85159331016929	1.8429676	1.3575594
25.869576044880695	1.8312545	1.3532385
25.887559427746034	1.8432913	1.3576787
25.90554345927836	1.8941822	1.376293
25.92352813999086	1.9132546	1.3832045
25.94151347039689	1.9048306	1.380156
25.959499451009965	1.8863738	1.3734533
25.97748608234374	1.8938837	1.3761845
25.995473364912062	1.8774806	1.3702118
26.013461299228904	1.9104278	1.3821822
26.03144988580839	1.8973302	1.377436
26.04943912516483	1.8468555	1.3589907
26.067429017812675	1.8200986	1.3491104
26.085419564266537	1.843243	1.3576609
26.103410765041186	1.8435423	1.357771
26.12140262065155	1.817372	1.3480994
26.139395131612723	1.8226712	1.3500634
26.157388298439948	1.8154142	1.3473731
26.17538212164861	1.8008848	1.3419706
26.193376601754295	1.7897204	1.3378043
26.211371739272714	1.8074301	1.344407
26.229367534719746	1.8388168	1.3560297
26.247363988611433	1.8392689	1.3561965
26.26536110146397	1.7852963	1.3361498
26.283358873793727	1.7643516	1.328289
26.301357306117204	1.745756	1.3212706
26.319356398951104	1.7805959	1.3343897
26.33735615281224	1.8156658	1.3474665
26.35535656821762	1.7991465	1.3413227
26.373357645684404	1.794437	1.339566
26.39135938572991	1.8059398	1.3438526
26.409361788871614	1.8070836	1.3442781
26.427364855627165	1.7833157	1.3354084
26.445368586514352	1.7642641	1.328256
26.46337298205115	1.7499115	1.3228422
26.48137804275568	1.7605621	1.3268617
26.499383769146217	1.8154008	1.3473681
26.517390161741215	1.8408535	1.3567805
26.53539722105928	1.8477936	1.3593357
26.553404947619182	1.8228371	1.3501248
26.571413341939856	1.8091283	1.3450384
26.589422404540397	1.841584	1.3570497
26.60743213594006	1.8728979	1.3685386
26.62544253665827	1.8833406	1.3723485
26.64345360721459	1.8418931	1.3571637
26.66146534812879	1.8168205	1.3478948
26.679477759920758	1.7871586	1.3368465
26.69749084311057	1.7809201	1.3345112
26.71550459821847	1.7711802	1.3308569
26.733519025764842	1.7842091	1.335743
26.751534126270258	1.8079782	1.3446108
26.769549900255434	1.8145599	1.347056
26.787566348241267	1.7945244	1.3395987
26.80558347074881	1.7805935	1.3343889
26.823601268299267	1.7391427	1.3187655
26.841619741414036	1.8001009	1.3416784
26.85963889061465	1.81288	1.3464323
26.877658716422832	1.8160236	1.3475991
26.89567921936045	1.8041278	1.3431783
26.913700399949544	1.793229	1.339115
26.93172225871233	1.7680494	1.3296802
26.949744796171174	1.7833849	1.3354343
26.967768012848605	1.8109534	1.3457167
26.98579190926733	1.8100525	1.345382
27.003816485950225	1.7783729	1.3335565
27.021841743420318	1.7841136	1.3357072
27.039867682200814	1.7963052	1.3402631
27.057894302815072	1.8009638	1.3419999
27.07592160578664	1.8112236	1.3458171
27.0939495916392	1.8501284	1.3601942
27.111978260896635	1.8079692	1.3446075
27.13000761408296	1.7459259	1.3213348
27.148037651722397	1.7586607	1.326145
27.166068374339304	1.788295	1.3372715
27.184099782458215	1.8291615	1.352465
27.20213187660384	1.8416101	1.3570594
27.22016465730105	1.8328018	1.3538101
27.23819812507487	1.8282685	1.3521348
27.256232280450533	1.8267636	1.3515782
27.274267123953383	1.832411	1.3536658
27.292302656108987	1.8455195	1.358499
27.31033887744306	1.8618494	1.364496
27.32837578848146	1.8373357	1.3554835
27.34641338975026	1.7827784	1.3352072
27.364451681775673	1.7873195	1.3369067
27.382490665084074	1.786963	1.3367734
27.400530340202046	1.7629741	1.3277704
27.41857070765629	1.7826171	1.3351468
27.436611767973726	1.8084455	1.3447845
27.454653521681404	1.8346486	1.3544921
27.472695969306564	1.7934525	1.3391985
27.490739111376627	1.8054868	1.3436841
27.508782948419153	1.8238674	1.3505063
27.526827480961902	1.8355374	1.3548201
27.54487270953279	1.8607273	1.3640848
27.562918634659898	1.8136392	1.3467143
27.580965256871508	1.7904001	1.3380584
27.599012576696026	1.7857469	1.3363184
27.617060594662068	1.8084105	1.3447715
27.63510931129842	1.8109742	1.3457245
27.65315872713401	1.8436477	1.3578099
27.67120884269797	1.8595518	1.3636538
27.68925965851958	1.8756393	1.3695399
27.707311175128307	1.8279737	1.3520257
27.725363393053787	1.8113191	1.3458526
27.74341631282583	1.9175954	1.3847727
27.7614699349744	1.9907337	1.4109336
27.77952426002968	2.1484027	1.4657431
27.797579288521973	2.1432288	1.463977
27.815635020981784	2.576728	1.605219
27.83369145793979	2.6617258	1.6314796
27.85174859992682	2.5087104	1.5838909
27.869806447473923	2.3190346	1.5228376
27.887865001112267	1.9966347	1.4130232
27.905924261373233	1.8672318	1.3664669
27.92398422878836	1.8544003	1.3617637
27.94204490388936	1.8722671	1.3683081
27.96010628720813	1.8894244	1.3745633
27.978168379276728	1.9206609	1.385879
27.9962311806274	1.8933877	1.3760042
28.014294691792568	1.8434509	1.3577374
28.0323589133048	1.8514795	1.3606908
28.050423845696887	1.8650849	1.365681
28.068489489501758	1.8650485	1.3656678
28.086555845252523	1.867999	1.3667476
28.104622913482487	1.9112216	1.3824694
28.122690694725115	1.8844297	1.3727453
28.14075918951405	1.8722279	1.3682938
28.15882839838312	1.8735955	1.3687935
28.176898321866304	1.8718624	1.3681602
28.1949689604978	1.9241816	1.3871487
28.213040314811945	1.9220665	1.3863862
28.23111238534327	1.8744376	1.369101
28.249185172626493	1.8944814	1.3764017
28.267258677196473	1.9241514	1.3871379
28.285332899588294	1.9093351	1.381787
28.303407840337172	1.9515516	1.3969795
28.321483499978545	1.9171475	1.384611
28.33955987904799	1.8853754	1.3730897
28.357636978081285	1.9002484	1.378495
28.37571479761439	1.9233903	1.3868635
28.393793338183425	1.9898833	1.4106323
28.41187260032469	1.985923	1.4092278
28.429952584574686	2.006417	1.4164805
28.448033291470065	2.0193574	1.421041
28.46611472154769	1.997893	1.4134685
28.484196875344566	2.0052822	1.4160799
28.502279753397914	2.027318	1.4238392
28.52036335624511	2.013388	1.418939
28.538447684423716	1.9429817	1.3939087
28.556532738471482	1.9953147	1.412556
28.574618518926325	2.015145	1.419558
28.59270502632635	2.0253327	1.4231418
28.61079226120985	2.0374842	1.4274046
28.628880224115274	2.0266376	1.4236002
28.646968915581287	1.984739	1.4088076
28.66505833614671	2.0235505	1.4225155
28.68314848635055	2.0514843	1.4323003
28.701239366732004	2.0665545	1.4375516
28.71933097783044	2.0793204	1.4419849
28.737423320185403	2.0553296	1.433642
28.75551639433665	2.094799	1.447342
28.773610200824074	2.1262443	1.4581647
28.791704740187793	2.091496	1.4462005
28.80980001296809	2.0498047	1.4317139
28.827896019705413	2.1225128	1.4568846
28.845992760940433	2.2111428	1.4869912
28.86409023721397	2.2239428	1.4912889
28.88218844906704	2.2527115	1.5009036
28.900287397040845	2.2474906	1.4991633
28.918387081676755	2.2546394	1.5015457
28.936487503516343	2.2566957	1.5022303
28.954588663101365	2.2238872	1.4912703
28.97269056097374	2.264395	1.5047907
28.990793197675597	2.329369	1.5262271
29.00889657374923	2.368289	1.5389246
29.027000689737125	2.3747458	1.541021
29.04510554618196	2.368233	1.5389065
29.06321114362659	2.3993924	1.5489972
29.08131748261405	2.4454937	1.5638075
29.099424563687567	2.5029564	1.5820735
29.11753238739057	2.5685565	1.6026717
29.13564095426663	2.5813336	1.606653
29.15375026485954	2.600113	1.6124866
29.171860319713275	2.6608	1.6311959
29.18997111937199	2.714492	1.6475716
29.20808266438002	2.745314	1.6568989
29.226194955281898	2.79608	1.6721483
29.244307992622335	2.927899	1.7111105
29.26242177694624	2.9736502	1.7244275
29.2805363087987	2.930189	1.7117795
29.29865158872498	2.9493601	1.7173702
29.316767617270557	3.0342019	1.741896
29.334884394981064	3.003784	1.7331427
29.353001922402367	2.9288368	1.7113845
29.37112020008047	2.977993	1.7256862
29.389239228561596	3.159959	1.7776273
29.407359008392152	3.394135	1.8423178
29.42547954011872	3.7312193	1.9316365
29.44360082428809	4.289627	2.0711415
29.46172286144722	5.211206	2.2828066
29.479845652143283	6.7911606	2.6059856
29.497969196923606	8.969575	2.9949248
29.516093496335728	11.522595	3.3944948
29.5342185509274	14.216197	3.7704372
29.55234436124651	16.578932	4.0717235
29.570470927841175	18.00798	4.2435813
29.588598251259686	17.827227	4.22223
29.60672633205055	16.453966	4.056349
29.624855170762405	14.267167	3.7771904
29.642984767944146	11.618174	3.4085443
29.66111512414481	8.875946	2.9792526
29.67924623991366	6.5683026	2.56287
29.697378115800138	5.0402293	2.2450454
29.71551075235387	4.20258	2.0500195
29.733644150124675	3.782029	1.9447439
29.751778309662576	3.6008873	1.8976004
29.769913231517766	3.4669724	1.8619808
29.78804891624066	3.383549	1.8394426
29.806185364381818	3.3364766	1.8266025
29.82432257649206	3.3488147	1.8299767
29.842460553122333	3.350299	1.8303821
29.86059929482382	3.2927487	1.8145933
29.878738802147872	3.2455497	1.801541
29.896879075646048	3.2837887	1.8121227
29.915020115870114	3.3026216	1.8173116
29.933161923371976	3.2645905	1.8068178
29.951304498703777	3.198544	1.7884474
29.969447842417857	3.23818	1.7994944
29.987591955066733	3.2029903	1.78969
30.005736837203123	3.1821496	1.7838581
30.023882489379943	3.1940932	1.7872026
30.04202891215028	3.1997094	1.7887732
30.060176106067455	3.188514	1.7856411
30.078324071684946	3.189794	1.7859994
30.09647280955646	3.1863093	1.7850236
30.114622320235863	3.2063358	1.7906244
30.132772604277257	3.22355	1.7954248
30.1509236622349	3.15212	1.7754211
30.16907549466328	3.1106653	1.7637079
30.18722810211705	3.1299913	1.7691782
30.205381485151097	3.0923343	1.7585034
30.22353564432045	3.0661595	1.7510452
30.241690580180403	3.0522997	1.7470832
30.25984629328638	3.05571	1.7480589
30.278002784194037	3.0169952	1.7369499
30.296160053459246	3.0064046	1.7338986
30.314318101638033	2.9830077	1.7271385
30.332476929286646	2.9925072	1.7298865
30.35063653696153	2.9171371	1.7079629
30.368796925219307	2.8914094	1.7004144
30.386958094616844	2.9042437	1.7041842
30.40512004571115	2.8453283	1.6868101
30.423282779059463	2.786307	1.6692235
30.441446295219233	2.8290794	1.6819867
30.459610594748067	2.9450257	1.7161077
30.47777567820382	2.9646347	1.7218114
30.495941546144504	2.871995	1.6946962
30.51410819912835	2.8799677	1.6970468
30.532275637713795	2.8797188	1.6969734
30.55044386245946	2.8603387	1.6912535
30.56861287392416	2.844509	1.6865672
30.586782672666956	2.90121	1.7032939
30.604953259247047	2.8559191	1.6899465
30.623124634223885	2.781195	1.6676915
30.641296798157075	2.7186618	1.6488365
30.659469751606462	2.7018588	1.6437331
30.677643495132074	2.7194312	1.6490698
30.695818029294152	2.7417567	1.655825
30.713993354653116	2.7356532	1.653981
30.73216947176962	2.7663915	1.6632472
30.75034638120448	2.7901971	1.6703883
30.768524083518756	2.7530673	1.6592369
30.786702579273673	2.849517	1.6880512
30.80488186903069	2.8896303	1.6998912
30.82306195335144	2.9223204	1.7094796
30.841242832797782	3.0950503	1.7592756
30.85942450793176	3.3842242	1.8396261
30.877606979315637	3.813491	1.9528162
30.895790247511883	4.2384915	2.0587597
30.913974313083134	4.5982256	2.1443474
30.932159176592283	4.910044	2.215862
30.95034483860237	4.9832325	2.2323155
30.968531299676698	4.722982	2.1732423
30.98671856037873	4.2100177	2.0518327
31.00490662127215	3.8867471	1.9714835
31.023095482920848	3.586213	1.8937299
31.04128514588892	3.1737819	1.7815111
31.059475610740662	2.82239	1.6799971
31.07766687804056	2.6575615	1.6302029
31.09585894835335	2.5898576	1.6093035
31.11405182224393	2.51998	1.5874444
31.132245500277417	2.5168276	1.5864513
31.15043998301914	2.557396	1.5991861
31.168635271034628	2.4943094	1.5793383
31.18683136488964	2.4628053	1.5693327
31.20502826515008	2.5033164	1.5821872
31.223225972382135	2.551092	1.5972137
31.241424487152155	2.5316362	1.5911117
31.259623810026692	2.4163926	1.5544751
31.27782394157253	2.4601183	1.5684764
31.296024882356644	2.55271	1.5977203
31.314226632946237	2.5679977	1.6024973
31.332429193908684	2.4934094	1.5790533
31.350632565811598	2.444556	1.5635076
31.368836749222787	2.43861	1.561605
31.387041744710295	2.4924037	1.5787349
31.40524755284232	2.5433931	1.5948019
31.423454174187317	2.6044421	1.6138284
31.441661609313922	2.559267	1.5997709
31.459869858791002	2.4515643	1.5657473
31.478078923187628	2.360275	1.5363187
31.496288803073064	2.3628113	1.537144
31.514499499016807	2.4244637	1.557069
31.532711011588546	2.4536703	1.5664196
31.550923341358178	2.4345465	1.5603033
31.56913648889584	2.3690293	1.5391651
31.587350454771844	2.3138795	1.5211442
31.605565239556732	2.3076334	1.5190897
31.62378084382127	2.3749576	1.5410898
31.641997268136382	2.3862674	1.5447549
31.660214513073274	2.3672278	1.5385798
31.67843257920331	2.3366518	1.5286111
31.6966514670981	2.3081357	1.519255
31.71487117732944	2.2953784	1.5150506
31.733091710469346	2.308843	1.5194877
31.751313067090052	2.290775	1.5135306
31.769535247764008	2.309059	1.5195588
31.787758253063878	2.3159146	1.5218129
31.805982083562526	2.3497634	1.5328938
31.824206739833024	2.2920852	1.5139633
31.84243222244869	2.1880715	1.4792131
31.860658531983013	2.184989	1.4781709
31.878885669009737	2.268868	1.5062762
31.897113634102784	2.3112614	1.5202833
31.91534242783632	2.261443	1.5038095
31.933572050784694	2.2361658	1.4953815
31.951802503522508	2.2785864	1.5094987
31.970033786624548	2.2410986	1.4970299
31.988265900665834	2.157642	1.4688914
32.006498846221575	2.0709608	1.4390833
32.02473262386724	2.1220458	1.4567243
32.04296723417845	2.1891577	1.4795803
32.0612026777311	2.173163	1.4741652
32.07943895510129	2.0772262	1.4412585
32.097676066865304	2.0472214	1.4308114
32.115914013599685	2.111962	1.4532591
32.13415279588115	2.1812396	1.476902
32.152392414286666	2.2193356	1.4897435
32.1706328693934	2.190587	1.4800632
32.18887416177875	2.1594758	1.4695154
32.20711629202032	2.1745892	1.4746488
32.225359260695924	2.1943245	1.4813253
32.243603068383614	2.1563025	1.4684354
32.26184771566166	2.120381	1.4561528
32.28009320310852	2.0609057	1.4355855
32.2983395313029	2.1217837	1.4566344
32.31658670082372	2.174958	1.4747739
32.33483471225012	2.2033193	1.4843582
32.35308356616143	2.164934	1.4713714
32.371333263137245	2.1161034	1.4546833
32.38958380375734	2.1019611	1.4498142
32.407835188601744	2.10566	1.4510893
32.42608741825067	2.0307496	1.4250437
32.444340493284585	2.0526824	1.4327185
32.46259441428416	2.1066148	1.4514182
32.48084918183028	2.207137	1.4856436
32.49910479650405	2.2387614	1.4962491
32.51736125888683	2.1386788	1.4624223
32.53561856956014	2.0410037	1.428637
32.5538767291058	2.0065212	1.4165173
32.572135738105764	1.9959339	1.4127753
32.59039559714228	2.011457	1.4182584
32.608656306797776	2.0904336	1.4458332
32.62691786765491	2.154795	1.467922
32.645180280296586	2.0614693	1.4357818
32.663443545305896	1.9661365	1.4021899
32.68170766326619	1.869897	1.3674418
32.69997263476099	1.8882972	1.3741533
32.7182384603741	1.8684224	1.3669025
32.7365051406895	1.9089777	1.3816576
32.75477267629144	1.9780892	1.4064456
32.77304106776434	2.0322614	1.4255741
32.79131031569289	2.0073705	1.4168171
32.809580420661966	2.0083377	1.4171584
32.827851383256714	2.0802999	1.4423245
32.84612320406245	2.1451046	1.4646176
32.86439588366476	2.030685	1.425021
32.88266942264945	1.9785535	1.4066106
32.9009438216025	2.0040336	1.4156389
32.9192190811102	1.976267	1.4057976
32.937495201758985	1.9779725	1.4064041
32.95577218413556	2.016799	1.4201405
32.974050028826866	2.0887544	1.4452524
32.992328736420035	2.081894	1.4428769
33.010608307502444	2.0210712	1.4216439
33.02888874266169	1.8955112	1.3767756
33.047170042485604	1.9114877	1.3825656
33.06545220756225	2.0495188	1.431614
33.083735238479896	2.1066248	1.4514216
33.10201913582707	2.0592327	1.4350027
33.12030390019248	2.0667045	1.4376037
33.138589532165135	2.008277	1.4171369
33.15687603233419	1.9188843	1.3852379
33.17516340128909	1.888868	1.3743609
33.19345163961947	1.9522531	1.3972305
33.211740747915215	2.0345266	1.4263684
33.23003072676643	1.9502015	1.3964962
33.248321576763466	1.8911451	1.3751891
33.266613298496885	1.8922046	1.3755744
33.28490589255747	1.9550198	1.3982202
33.30319935953626	1.9871924	1.4096781
33.32149370002451	1.9147923	1.3837602
33.339788914613706	1.8677229	1.3666465
33.358085003895575	1.931837	1.3899053
33.376381968462034	2.0050948	1.4160137
33.39467980890529	2.0294719	1.4245954
33.41297852581774	2.1144574	1.4541174
33.43127811979204	2.1326134	1.460347
33.44957859142105	2.0289555	1.424414
33.467879941297866	1.9816139	1.407698
33.486182170015844	1.9380549	1.3921404
33.50448527816853	1.9542619	1.3979492
33.522789266349754	1.9285303	1.3887154
33.541094135153514	1.9384979	1.3922995
33.55939988517411	1.9322922	1.3900691
33.57770651700602	1.8554769	1.3621589
33.59601403124398	1.8860854	1.3733482
33.61432242848296	1.9726337	1.4045048
33.632631709318154	1.9669377	1.4024756
33.650941874344994	1.9115199	1.3825773
33.66925292415916	1.917276	1.3846574
33.68756485935654	1.9107921	1.3823141
33.70587768053328	2.007621	1.4169054
33.724191388285746	2.127271	1.4585167
33.74250598321054	2.0630803	1.4363427
33.760821465904506	1.9218895	1.3863223
33.77913783696474	1.8709271	1.3678184
33.79745509698852	1.8029039	1.3427225
33.815773246573414	1.7762526	1.3327613
33.8340922863172	1.9605893	1.4002105
33.852412216817896	2.0193086	1.4210237
33.87073303867377	1.8716798	1.3680935
33.889054752483304	1.836303	1.3551025
33.907377358845245	1.936584	1.391612
33.92570085835853	1.973319	1.4047488
33.94402525162239	1.8980709	1.377705
33.96235053923627	1.8696918	1.3673668
33.980676721799824	1.9122992	1.3828591
33.999003799912984	1.9268563	1.3881125
34.01733177417592	1.9022728	1.3792291
34.03566064518901	1.9242543	1.387175
34.0539904135529	1.9604572	1.4001633
34.07232107986846	1.9097519	1.3819377
34.090652644736785	1.7983718	1.3410338
34.108985108759235	1.8536204	1.3614773
34.12731847253742	1.9271036	1.3882016
34.14565273667313	1.9581373	1.3993345
34.16398790176847	1.9507384	1.3966883
34.18232396842574	2.024619	1.4228911
34.20066093724749	1.9937142	1.4119895
34.21899880883651	1.8654759	1.3658242
34.23733758379583	1.8082613	1.3447161
34.25567726272874	1.8667122	1.3662767
34.27401784623872	1.9858313	1.4091953
34.29235933492957	2.00816	1.4170957
34.31070172940526	1.9925252	1.4115684
34.32904503027003	1.9359754	1.3913933
34.347389238128386	1.8309976	1.3531436
34.36573435358502	2.0005605	1.4144117
34.38408037724492	2.1404865	1.4630401
34.402427309713296	2.1283445	1.4588847
34.42077515159559	2.0300696	1.4248052
34.43912390349752	2.0647538	1.436925
34.45747356602499	1.9723518	1.4044044
34.47582413978423	1.8451053	1.3583466
34.49417562538163	1.8453034	1.3584194
34.51252802342388	1.8473446	1.3591706
34.53088133451789	1.8701162	1.3675219
34.54923555927084	2.0331216	1.4258758
34.567590698290104	2.0767717	1.4411008
34.58594675218336	2.082781	1.4431844
34.6043037215585	2.1301703	1.4595103
34.62266160702365	2.0320735	1.4255081
34.641020409187234	1.9109957	1.3823876
34.65938012865785	2.0198596	1.4212177
34.677740766044394	2.1489108	1.4659164
34.69610232195598	2.158194	1.4690794
34.714464797002016	2.141462	1.4633735
34.73282819179208	2.1004498	1.4492929
34.751192506936064	1.8691072	1.3671529
34.76955774304408	1.7047464	1.3056594
34.7879239007265	1.7349143	1.3171614
34.80629098059391	1.8330227	1.3538917
34.824658983257194	1.9907019	1.4109224
34.843027909327446	2.0662286	1.4374382
34.86139775941603	2.2008302	1.4835196
34.879768534134534	2.1771572	1.4755193
34.89814023409483	2.076992	1.4411774
34.91651285990901	2.1271565	1.4584775
34.93488641218944	2.1190512	1.4556961
34.95326089154871	2.1148915	1.4542667
34.97163629859967	2.124772	1.4576598
34.99001263395542	2.023911	1.4226422
35.00838989822934	1.9170012	1.3845582
35.02676809203499	1.9025613	1.3793336
35.04514721598624	1.9844246	1.408696
35.063527270697215	1.9577713	1.3992038
35.081908256782256	1.8610333	1.3641969
35.10029017485597	1.8748575	1.3692544
35.11867302553321	1.9270465	1.388181
35.137056809429104	1.952672	1.3973804
35.155441527159006	2.1026459	1.4500504
35.173827179338524	2.0482295	1.4311637
35.19221376658354	2.0457437	1.430295
35.21060128951017	2.1103425	1.4527018
35.2289897487348	2.0380728	1.4276109
35.24737914487405	1.9957789	1.4127204
35.26576947854479	1.9872552	1.4097004
35.28416075036418	1.8479582	1.3593962
35.30255296094958	1.949192	1.3961347
35.32094611091867	2.146655	1.4651468
35.33934020088932	2.030676	1.4250178
35.35773523147969	2.0870645	1.4446676
35.3761312033082	2.2677069	1.5058907
35.394528116993506	2.2052917	1.4850224
35.41292597315452	2.116248	1.4547329
35.431324772410434	1.9913169	1.4111403
35.449724515380666	1.9257512	1.3877144
35.46812520268491	1.7192017	1.3111833
35.486526834943106	1.7571179	1.3255632
35.504929412775454	1.875575	1.3695164
35.52333293680242	1.9617478	1.400624
35.54173740764471	1.8466754	1.3589244
35.560142825923286	1.7461079	1.3214037
35.5785491922594	1.79078	1.3382002
35.59695650727454	2.1610775	1.4700603
35.61536477159042	2.5998158	1.6123945
