0.008763373481513119	0.0	0.0
0.026290120649546365	0.0	0.0
0.043816868432600686	0.0	0.0
0.06134361724069026	0.0	0.0
0.07887036748382949	0.056929905	0.23859988
0.0963971195720331	0.19116102	0.43721965
0.11392387391531617	0.20698468	0.4549557
0.1314506309236943	0.17640305	0.42000362
0.1489773910071836	0.145428	0.38135025
0.16650415457580078	0.14711936	0.3835614
0.18403092203956356	0.17778239	0.42164248
0.20155769380849	0.18956132	0.43538642
0.2190844702925996	0.15115267	0.38878357
0.2366112519019124	0.12748387	0.35704884
0.2541380390464497	0.09620923	0.31017613
0.27166483213623416	0.09790731	0.31290144
0.28919163158128947	0.11957574	0.34579724
0.3067184377916406	0.12720974	0.35666475
0.324245251177314	0.13315578	0.36490515
0.34177207214833777	0.20403974	0.45170757
0.3592989011147415	0.21493465	0.46361044
0.37682573848655654	0.23250899	0.48219186
0.39435258467381573	0.21774046	0.46662667
0.41187944008655414	0.18589453	0.43115488
0.42940630513480854	0.16787791	0.40972906
0.446933180228618	0.11558725	0.33998126
0.4644600657780234	0.09267284	0.30442214
0.48198696219306775	0.10524877	0.32442066
0.49951386988379676	0.1387464	0.37248677
0.5170407892602581	0.1279557	0.35770896
0.5345677207325025	0.119095884	0.34510273
0.5520946647105822	0.13837187	0.3719837
0.5696216216045534	0.18356472	0.42844453
0.5871485918244737	0.21461037	0.4632606
0.6046755757804043	0.18711124	0.43256357
0.6222025738824094	0.17183653	0.4145317
0.6397295865405557	0.17004003	0.4123591
0.6572566141649129	0.15952452	0.3994052
0.6747836571655547	0.15544087	0.3942599
0.6923107159525568	0.1421757	0.37706193
0.7098377909359992	0.15457183	0.39315623
0.7273648825259653	0.15349662	0.39178646
0.7448919911325411	0.18581456	0.43106213
0.762419117165817	0.20038883	0.4476481
0.7799462610358868	0.1917988	0.4379484
0.7974734231528482	0.16830766	0.41025317
0.8150006039268024	0.17541578	0.41882667
0.8325278037678551	0.18153648	0.426071
0.8500550230861152	0.19865897	0.44571176
0.8675822622916969	0.2131933	0.4617286
0.8851095217947171	0.24239962	0.49234095
0.9026368020052984	0.22482812	0.47416043
0.9201641033335665	0.23239733	0.48207608
0.9376914261896523	0.22466335	0.47398666
0.9552187709836915	0.28595817	0.5347506
0.9727461381258234	0.29680273	0.54479605
0.990273528026193	0.31833228	0.56420946
1.0078009410949496	0.2891721	0.53774726
1.0253283777422473	0.29291502	0.54121625
1.0428558383782454	0.31356716	0.5599707
1.0603833234131086	0.34515056	0.58749515
1.0779108332570058	0.40958574	0.63998884
1.0954383683201119	0.38415524	0.6198026
1.112965929012607	0.42017576	0.64820963
1.1304935157446763	0.5222118	0.72264224
1.1480211289265108	0.5754239	0.758567
1.1655487689683062	1.5064446	1.227373
1.1830764362802655	1.829968	1.352763
1.200604131272596	2.18566	1.4783977
1.2181318543555117	2.4220996	1.5563096
1.235659605939232	2.4048219	1.5507488
1.253187386433982	3.8823242	1.9703615
1.270715196249994	6.0728583	2.464317
1.2882430357975057	11.579096	3.402807
1.3057709054867608	16.358934	4.044618
1.3232988057280106	22.565094	4.750273
1.3408267369315112	27.514639	5.24544
1.358354699507526	31.058006	5.572971
1.3758826938663256	35.294422	5.940911
1.3934107204181858	37.414707	6.1167564
1.410938779573391	37.887535	6.1552854
1.4284668717422309	38.100773	6.172582
1.4459949973350033	36.934853	6.077405
1.4635231567620117	36.43187	6.035882
1.4810513504335687	35.837887	5.9864755
1.4985795787599925	35.06465	5.921541
1.5161078421516088	34.684586	5.889362
1.5336361410187505	34.285053	5.855344
1.5511644757717598	34.18117	5.8464665
1.5686928468209842	34.79736	5.8989286
1.58622125457678	35.22359	5.9349465
1.6037496994495108	36.500668	6.0415783
1.621278181849548	36.875847	6.072549
1.6388067021872719	37.61921	6.13345
1.6563352608730693	37.1921	6.0985327
1.673863858317336	36.284344	6.0236487
1.6913924949304753	35.334606	5.944292
1.7089211711228998	34.14179	5.8430977
1.7264498873050296	33.2891	5.769671
1.7439786438872935	32.373257	5.68975
1.7615074412801288	31.58447	5.620006
1.779036279893981	30.778173	5.547808
1.796565160139305	30.112017	5.4874415
1.814094082426564	29.34433	5.417041
1.8316230471662298	28.952574	5.3807597
1.849152054768784	27.872341	5.279426
1.8666811056447168	27.257292	5.2208514
1.8842102002045273	26.472897	5.1451817
1.901739338858724	26.071642	5.1060395
1.9192685220178245	25.578808	5.0575495
1.9367977500923557	24.82418	4.982387
1.9543270234928547	24.286226	4.928106
1.971856342629867	23.582365	4.856168
1.9893857079139496	23.104605	4.806725
2.006915119755667	22.511465	4.744625
2.0244445785655945	21.797792	4.6688104
2.0419740847543175	21.427876	4.6290255
2.0595036387324317	21.080164	4.591314
2.0770332409105414	20.714258	4.551292
2.094562891699263	20.398363	4.5164547
2.1120925915092217	19.942135	4.4656615
2.129622340751053	19.39825	4.4043446
2.1471521398354043	187.40549	13.689612
2.1646819891729323	443.73843	21.0651
2.182211889174303	440.08322	20.97816
2.1997418402501974	452.794	21.278957
2.2172718428113023	432.70206	20.80149
2.234801897268317	320.52347	17.90317
2.2523320040319548	16.926495	4.114182
2.269862163512935	16.597902	4.0740523
2.287392376121992	16.489141	4.0606823
2.304922642269869	16.260845	4.032474
2.322452962367322	16.009811	4.0012264
2.3399833368251164	15.701379	3.9624965
2.357513766054032	15.304583	3.9121072
2.3750442504648586	14.946159	3.8660264
2.3925747904683963	14.64772	3.827234
2.410105386475459	14.455655	3.8020594
2.4276360388968707	14.163136	3.763394
2.445166748143469	13.950756	3.7350712
2.4626975146261025	13.739245	3.7066488
2.4802283387556323	13.422742	3.663706
2.4977592209429305	13.231617	3.637529
2.5152901615988825	13.012004	3.6072156
2.5328211611343865	12.963047	3.600423
2.5503522199603523	12.662438	3.558432
2.5678833384877024	12.379286	3.518421
2.5854145171273712	12.006188	3.4649947
2.6029457562903064	11.699989	3.4205246
2.620477056387469	11.571245	3.4016533
2.6380084178298326	11.576613	3.4024422
2.655539841028383	11.334723	3.366708
2.673071326394119	11.211709	3.348389
2.6906028743380523	10.97578	3.3129714
2.708134485271211	10.879434	3.2983987
2.7256661596046325	10.700981	3.2712355
2.743197897749369	10.544266	3.2471936
2.760729700116486	10.26562	3.2040007
2.778261567117063	10.326289	3.2134545
2.795793499162193	10.302143	3.209695
2.8133254966629817	10.30925	3.210802
2.830857560030551	10.005087	3.163082
2.8483896896760337	9.773373	3.1262393
2.865921886010578	9.486525	3.0800202
2.883454149445347	9.3502245	3.0578136
2.9009864803915177	9.383448	3.0632415
2.91851887926028	9.314245	3.051925
2.9360513464628384	9.216774	3.035914
2.953583882410413	9.034213	3.0056968
2.9711164875142373	8.791878	2.96511
2.9886491621855606	8.65899	2.9426162
3.0061819068356455	8.492939	2.9142647
3.023714721875769	8.420127	2.9017456
3.041247607717225	8.337059	2.8873966
3.0587805647713213	8.208173	2.864991
3.0763135934493806	8.107416	2.8473525
3.0938466941627407	8.029477	2.8336332
3.1113798673227544	7.96066	2.821464
3.1289131133407904	7.956428	2.820714
3.1464464326282315	7.883717	2.8077958
3.1639798255964786	7.8774376	2.8066773
3.1815132926569443	7.625568	2.7614431
3.1990468342210603	7.543475	2.7465389
3.216580450700272	7.389713	2.7184026
3.2341141425060416	7.3438673	2.7099571
3.251647910049847	7.2585754	2.6941743
3.2691817537431813	7.198401	2.6829836
3.286715673997555	7.1744547	2.6785173
3.3042496712244938	7.170749	2.6778255
3.32178374583554	7.0797796	2.6607854
3.339317898242251	6.9721956	2.6404915
3.3568521288562034	6.870768	2.621215
3.3743864380889876	6.813298	2.6102295
3.3919208263522127	6.769356	2.6017985
3.4094552940575023	6.739101	2.5959778
3.4269898416164972	6.691956	2.5868816
3.444524469440858	6.6126575	2.571509
3.4620591779422587	6.599289	2.5689082
3.479593967532391	6.552226	2.5597317
3.4971288386229658	6.5238385	2.5541806
3.5146637916257086	6.484304	2.5464296
3.5321988269523628	6.4034195	2.5304978
3.5497339450146903	6.346825	2.5192907
3.5672691462244708	6.3941574	2.5286672
3.5848044309934988	6.31858	2.5136786
3.60233979973359	6.293704	2.5087256
3.619875252856575	6.2005596	2.4900923
3.6374107907743034	6.1369476	2.4772863
3.6549464138986427	6.1891212	2.4877944
3.6724821226414788	6.2299566	2.4959881
3.690017917414714	6.248546	2.4997091
3.7075537986302702	6.2419415	2.4983878
3.7250897667000857	6.2766314	2.5053205
3.7426258220361235	6.498866	2.5492873
3.7601619650503553	6.820126	2.6115372
3.777698196154779	7.3569007	2.7123606
3.7952345157614067	8.2564125	2.8733974
3.8127709242822716	9.005483	3.0009136
3.830307422129425	11.095425	3.3309796
3.847844009714936	29.94972	5.472634
3.8653806874508954	97.477486	9.873069
3.882917455749409	96.73595	9.8354435
3.900454315022606	96.59343	9.828196
3.917991265682631	41.08869	6.410046
3.9355283081416506	10.762484	3.2806225
3.9530654428118495	8.709946	2.9512618
3.970602670105433	7.549131	2.7475681
3.9881399904346244	6.7102337	2.590412
4.005677404211669	6.509362	2.551345
4.023214911848827	6.44301	2.5383084
4.0407525137583855	6.4332137	2.5363781
4.058290210352644	6.523779	2.554169
4.075828002043927	6.5914755	2.5673869
4.0933658892445814	6.574464	2.5640717
4.110903872366966	6.4347854	2.5366879
4.128441951823468	6.3133726	2.5126426
4.145980128026488	6.191936	2.4883602
4.163518401388452	6.0667753	2.4630826
4.181056772321807	6.042028	2.4580536
4.1985952412390155	5.9688993	2.443133
4.216133808552567	6.0934916	2.4685
4.233672474674966	6.225722	2.4951396
4.251211240018741	6.5413957	2.5576153
4.268750104996445	6.827477	2.6129441
4.286289070020643	7.75503	2.7847855
4.303828135503928	9.298844	3.0494006
4.3213673018589125	29.463577	5.428036
4.3389065694982305	90.649925	9.521026
4.356445938834537	165.8112	12.87677
4.3739854102805085	171.7942	13.107029
4.391524984248844	172.64699	13.13952
4.409064661152262	136.871	11.699188
4.426604441403504	97.25028	9.861556
4.444144325415337	76.020485	8.718973
4.461684313600543	21.91025	4.6808386
4.47922440637193	22.041906	4.694881
4.496764604142329	20.188158	4.4931235
4.5143049073245916	18.53285	4.30498
4.531845316331589	16.382566	4.0475383
4.5493858315762195	13.615808	3.6899605
4.566926453471405	11.144084	3.3382757
4.584467182430081	9.200696	3.0332649
4.602008018865218	8.054713	2.8380828
4.619548963189798	7.348745	2.710857
4.637090015816834	6.9945693	2.6447248
4.654631177159353	6.835456	2.6144705
4.672172447630417	6.6692743	2.5824938
4.689713827643102	6.342007	2.5183342
4.7072553176105085	5.995655	2.4486027
4.724796917945764	5.7781253	2.403773
4.742338629062015	5.8069234	2.409756
4.759880451372434	5.8065615	2.4096808
4.777422385290215	5.6975694	2.3869581
4.794964431228581	5.6091175	2.3683577
4.812506589600768	5.535969	2.352864
4.830048860820047	5.528174	2.351207
4.847591245299709	5.5248585	2.3505018
4.8651337434530655	5.5054746	2.3463748
4.882676355693457	5.573673	2.3608627
4.900219082434242	5.5852704	2.3633177
4.917761924088813	5.546297	2.3550577
4.935304881070575	5.4307	2.3303862
4.952847953792969	5.3023086	2.3026743
4.970391142669449	5.2251463	2.285858
4.9879344481135055	5.2322283	2.2874064
5.005477870538642	5.2971516	2.3015542
5.023021410358394	5.304472	2.303144
5.040565067986324	5.383292	2.3201923
5.05810884383601	5.397112	2.3231685
5.075652738321066	5.4546204	2.3355129
5.09319675185512	5.4009175	2.3239875
5.110740884851836	5.4506493	2.3346627
5.128285137724894	5.4127173	2.3265247
5.145829510888007	5.375622	2.3185387
5.163374004754908	5.3491797	2.3128295
5.1809186197393595	5.37026	2.317382
5.198463356255145	5.359382	2.315034
5.216008214716077	5.318838	2.3062606
5.233553195535998	5.343768	2.311659
5.251098299128764	5.2873154	2.2994163
5.268643525908272	5.1983776	2.2799952
5.286188876288432	5.1343346	2.265907
5.3037343506831895	5.0957484	2.2573764
5.32127994950651	5.088758	2.2558277
5.3388256731723915	5.138696	2.2668693
5.356371522094851	5.184406	2.2769291
5.373917496687938	5.208293	2.2821684
5.391463597365729	5.220406	2.2848208
5.40900982454232	5.2670827	2.2950125
5.426556178631843	5.270404	2.295736
5.444102660048449	5.241875	2.289514
5.4616492692063225	5.1822934	2.2764652
5.479196006519669	5.182989	2.276618
5.496742872402727	5.145999	2.2684793
5.514289867269756	5.2088223	2.2822845
5.531836991535049	5.2286015	2.2866135
5.549384245612924	5.188793	2.2778924
5.566931629917724	5.1108484	2.2607186
5.584479144863822	5.044125	2.245913
5.6020267908656205	5.0148606	2.2393885
5.619574568337545	5.0578003	2.2489555
5.637122477694054	5.0721426	2.2521417
5.654670519349629	5.0823393	2.2544043
5.672218693718784	5.1426435	2.2677398
5.689767001216059	5.1169558	2.262069
5.707315442256021	5.0963864	2.2575178
5.724864017253266	5.0090294	2.238086
5.7424127266224225	5.1104774	2.2606366
5.75996157077814	5.163616	2.2723591
5.777510550135105	5.198224	2.2799613
5.795059665108022	5.1249137	2.2638273
5.812608916111639	5.133706	2.2657683
5.830158303560715	5.239998	2.2891042
5.847707827870055	5.2906237	2.3001356
5.86525748945448	5.3779545	2.3190417
5.8828072887288485	5.4670258	2.3381672
5.900357226108044	5.615569	2.3697193
5.917907302006979	5.5977283	2.3659518
5.9354575168406	6.1255627	2.4749875
5.9530078710238765	6.6495175	2.5786657
5.970558364971812	7.2071037	2.684605
5.988108999099438	7.499248	2.7384756
6.005659773821818	8.057554	2.8385832
6.023210689554039	7.8161235	2.795733
6.040761746711227	8.139266	2.8529398
6.058312945708531	7.4334645	2.726438
6.075864286961132	7.014377	2.6484668
6.093415770884244	6.439739	2.5376642
6.1109673978931065	6.0059185	2.4506977
6.128519168402993	5.548247	2.3554716
6.146071082829204	5.3890653	2.321436
6.163623141587075	5.238233	2.2887187
6.181175345091969	5.181574	2.276307
6.198727693759281	5.140878	2.2673504
6.216280188004435	5.1259136	2.264048
6.233832828242885	5.1324005	2.2654803
6.251385614890126	5.1676407	2.2732446
6.268938548361669	5.143045	2.2678282
6.286491629073067	5.1095347	2.260428
6.304044857439898	5.086977	2.2554328
6.321598233877777	5.1200957	2.2627628
6.339151758802344	5.1144533	2.2615156
6.356705432629277	5.1005816	2.2584467
6.37425925577428	4.99663	2.2353144
6.391813228653095	4.9962206	2.2352228
6.409367351681486	4.997439	2.2354953
6.426921625275259	4.97268	2.2299507
6.44447604985025	4.9118905	2.2162786
6.46203062582232	4.8121037	2.1936507
6.47958535360737	4.763578	2.1825624
6.497140233621328	4.794206	2.1895676
6.514695266280161	4.8664026	2.2059925
6.532250451999859	4.9581375	2.2266877
6.549805791196454	5.033964	2.2436497
6.567361284286002	5.061376	2.2497501
6.584916931684597	5.0140634	2.2392104
6.602472733808367	4.972553	2.229922
6.6200286910734665	5.00739	2.2377198
6.637584803896092	5.0424876	2.2455485
6.655141072692462	5.008491	2.2379658
6.672697497878842	4.9613557	2.22741
6.690254079871514	4.917805	2.2176125
6.707810819086808	4.897749	2.213086
6.725367715941078	4.9981003	2.2356431
6.742924770850719	4.990789	2.2340074
6.760481984232151	4.9457884	2.223913
6.778039356501836	4.8756056	2.2080774
6.795596888076266	4.836128	2.1991198
6.813154579371963	4.8860087	2.2104318
6.830712430805492	4.975256	2.230528
6.84827044279344	5.05235	2.2477434
6.865828615752445	5.016815	2.2398248
6.883386950099159	4.9338956	2.2212374
6.900945446250287	4.896801	2.2128716
6.918504104622553	4.946008	2.2239623
6.936062925632727	5.009069	2.238095
6.953621909697607	5.0449595	2.2460988
6.971181057234028	5.048408	2.2468662
6.988740368658859	5.039356	2.244851
7.006299844389007	5.1099906	2.2605288
7.023859484841407	5.2226644	2.285315
7.041419290433036	5.2767677	2.2971215
7.058979261580902	5.369462	2.31721
7.0765393987020495	5.6454363	2.3760128
7.094099702213559	6.089277	2.467646
7.111660172532549	6.4408407	2.5378811
7.129220810076164	6.7706366	2.6020446
7.146781615261595	7.3978586	2.7199004
7.16434258850606	7.583111	2.7537448
7.181903730226821	8.0999775	2.846046
7.1994650408411704	8.137583	2.852645
7.217026520766437	8.289016	2.879065
7.234588170419983	8.5868435	2.9303317
7.252149990219215	8.515065	2.9180584
7.269711980581568	8.41774	2.901334
7.2872741419245175	8.076339	2.84189
7.304836474665574	7.6181564	2.7601008
7.322398979222286	7.2574067	2.6939573
7.339961656012233	6.9918222	2.6442053
7.357524505453039	6.697101	2.5878758
7.375087527962357	6.479429	2.5454721
7.392650723957886	6.2097807	2.4919431
7.410214093857353	5.944904	2.4382174
7.427777638078528	5.7618904	2.4003937
7.445341357039213	5.607548	2.3680263
7.4629052511572525	5.4173107	2.3275118
7.480469320850524	5.2929044	2.3006313
7.498033566536948	5.2463655	2.2904947
7.5155979886344735	5.2089534	2.282313
7.5331625875610975	5.1145616	2.2615397
7.550727363734844	5.0591846	2.249263
7.568292317573788	5.029419	2.2426367
7.585857449496025	5.0958066	2.2573893
7.603422759919705	5.18824	2.2777708
7.620988249263007	5.1719093	2.2741833
7.638553917944147	5.1945667	2.2791593
7.656119766381391	5.1626945	2.2721562
7.673685794993023	5.161366	2.271864
7.691252004197388	5.154599	2.2703743
7.70881839441285	5.151007	2.269583
7.726384966057826	5.1199145	2.2627227
7.743951719550762	5.0954733	2.2573154
7.761518655310149	5.103291	2.2590466
7.779085773754511	5.146123	2.2685068
7.796653075302419	5.1439114	2.2680192
7.814220560372475	5.170183	2.2738037
7.831788229383323	5.248065	2.2908657
7.8493560827536495	5.332452	2.3092103
7.866924120902174	5.3759313	2.3186054
7.884492344247663	5.360472	2.3152695
7.9020607532089135	5.3828506	2.3200972
7.919629348204771	5.3885665	2.3213286
7.937198129654115	5.3691115	2.3171344
7.954767097975865	5.332841	2.3092945
7.972336253588986	5.3269076	2.3080094
7.989905596912472	5.4008923	2.323982
8.007475128365371	5.4387746	2.332118
8.025044848366756	5.398261	2.3234158
8.042614757335754	5.479388	2.3408093
8.060184855691523	5.5404625	2.3538187
8.07775514385327	5.708238	2.3891919
8.095325622240228	5.8685646	2.422512
8.112896291271687	5.922867	2.4336941
8.130467151366968	5.963764	2.442082
8.148038202945436	5.992583	2.4479752
8.165609446426497	6.014684	2.4524853
8.183180882229594	6.082175	2.4662066
8.200752510774217	6.049138	2.4594996
8.218324332479893	6.051879	2.4600568
8.235896347766193	6.0482154	2.459312
8.253468557052724	6.0131893	2.4521806
8.27104096075914	5.9719906	2.4437656
8.288613559305137	5.9466143	2.438568
8.306186353110448	6.03124	2.4558582
8.32375934259485	6.086793	2.4671426
8.341332528178162	6.0919967	2.468197
8.358905910280246	6.124628	2.4747987
8.376479489321003	6.182168	2.4863966
8.394053265720377	6.273009	2.5045974
8.411627239898356	6.228328	2.495662
8.42920141227497	6.2634554	2.5026896
8.44677578327029	6.177138	2.485385
8.464350353304427	6.1155276	2.4729593
8.48192512279754	6.0749054	2.4647324
8.499500092169827	6.056764	2.4610493
8.51707526184153	6.1146054	2.4727728
8.534650632232934	6.11373	2.4725957
8.552226203764365	6.1127553	2.4723988
8.569801976856192	6.0747113	2.4646928
8.587377951928834	6.156277	2.4811847
8.60495412940274	6.176836	2.4853241
8.622530509698416	6.234448	2.4968877
8.6401070932364	6.335639	2.5170696
8.657683880437283	6.4581375	2.5412865
8.675260871721695	6.6706204	2.5827544
8.692838067510303	6.8161144	2.610769
8.710415468223834	6.9142356	2.6294935
8.727993074283043	7.0432143	2.6539054
8.745570886108737	7.0858703	2.6619298
8.763148904121765	7.1851797	2.6805186
8.78072712874302	7.2122	2.685554
8.798305560393441	7.42127	2.7242007
8.815884199494006	7.5398273	2.7458746
8.833463046465745	7.7522707	2.78429
8.851042101729728	7.927705	2.815618
8.86862136570707	8.247393	2.8718274
8.886200838818924	8.335957	2.8872056
8.903780521486505	8.286068	2.8785532
8.921360414131055	8.378975	2.894646
8.938940517173874	8.496989	2.9149597
8.956520831036297	8.687585	2.947471
8.97410135613971	8.935385	2.9892113
8.99168209290554	9.106488	3.017696
9.009263041755265	9.40226	3.0663104
9.026844203110405	9.691264	3.1130795
9.044425577392525	9.851779	3.1387544
9.062007165023239	9.943547	3.1533391
9.079588966424197	10.095559	3.177351
9.097170982017108	10.18437	3.1912959
9.11475321222372	11.143244	3.3381498
9.132335657465825	11.99066	3.4627533
9.149918318165264	12.012904	3.4659636
9.167501194743924	12.403791	3.5219016
9.18508428762374	12.090173	3.4770925
9.202667597226693	12.125998	3.4822402
9.220251123974803	11.872405	3.4456356
9.237834868290143	11.745145	3.427119
9.255418830594836	11.590319	3.4044557
9.273003011311046	11.159892	3.3406425
9.290587410860985	10.881665	3.2987368
9.308172029666911	10.126174	3.182165
9.32575686815113	9.886103	3.1442173
9.343341926735997	8.727776	2.9542809
9.360927205843916	8.546975	2.923521
9.378512705897327	8.295074	2.8801172
9.396098427318728	8.094657	2.8451111
9.413684370530664	8.042003	2.8358426
9.431270535955722	7.9462442	2.8189085
9.448856924016539	7.911838	2.812799
9.466443535135806	7.7052803	2.7758386
9.484030369736251	7.7277594	2.7798848
9.501617428240658	7.72574	2.7795215
9.519204711071852	7.785981	2.790337
9.536792218652714	7.802784	2.7933464
9.55437995140617	7.79734	2.7923717
9.571967909755191	7.827709	2.7978044
9.589556094122802	7.886718	2.80833
9.60714450493207	7.8549504	2.8026683
9.624733142606116	7.8867064	2.8083282
9.642322007568108	7.8582325	2.803254
9.659911100241267	7.9105263	2.8125658
9.677500421048851	7.91207	2.8128402
9.695089970414175	7.912286	2.8128786
9.712679748760609	7.8485265	2.8015223
9.730269756511557	7.865127	2.8044834
9.747859994090492	7.889624	2.8088474
9.765450461920915	7.948439	2.8192976
9.78304116042639	7.952005	2.8199298
9.800632090030527	8.06536	2.8399577
9.81822325115699	8.128619	2.8510733
9.835814644229481	8.168586	2.8580737
9.853406269671762	8.167903	2.8579543
9.870998127907646	8.164025	2.857276
9.888590219360985	8.186357	2.861181
9.906182544455698	8.29385	2.8799045
9.923775103615734	8.285691	2.8784876
9.941367897265108	8.284297	2.8782454
9.958960925827878	8.231954	2.8691382
9.97655418972816	8.220107	2.8670728
9.994147689390106	8.2	2.8635643
10.011741425237934	8.131363	2.8515544
10.029335397695904	8.141578	2.853345
10.04692960718833	8.1484995	2.8545578
10.06452405413958	8.230191	2.868831
10.082118738974064	8.21273	2.865786
10.099713662116246	8.161833	2.856892
10.117308823990651	8.148454	2.8545496
10.134904225021844	8.111869	2.8481343
10.152499865634445	8.079709	2.8424828
10.170095746253125	8.049716	2.837202
10.18769186730261	8.015819	2.831222
10.205288229207675	8.00344	2.829035
10.222884832393145	7.9616213	2.8216345
10.2404816772839	7.912166	2.8128574
10.258078764304868	7.873446	2.8059661
10.275676093881035	7.873078	2.8059006
10.293273666437438	7.9120617	2.8128388
10.310871482399158	8.000779	2.828565
10.32846954219134	8.007347	2.8297257
10.346067846239173	8.097697	2.8456454
10.363666394967908	8.113264	2.8483791
10.38126518880283	8.111567	2.848081
10.398864228169298	8.161015	2.856749
10.416463513492713	8.166495	2.857708
10.434063045198531	8.168087	2.8579865
10.451662823712262	8.092161	2.8446724
10.469262849459467	8.042031	2.8358476
10.486863122865758	7.9295616	2.8159478
10.504463644356806	7.93361	2.8166664
10.522064414358338	7.912971	2.8130004
10.539665433296118	7.858417	2.8032868
10.557266701595987	7.811738	2.7949486
10.574868219683818	7.750651	2.783999
10.592469987985552	7.7042146	2.7756467
10.610072006927185	7.6428027	2.764562
10.627674276934751	7.5123105	2.7408595
10.64527679843435	7.3759494	2.71587
10.662879571852143	7.193486	2.6820676
10.680482597614331	7.0466495	2.6545527
10.698085876147173	6.958812	2.6379561
10.715689407876988	6.920293	2.630645
10.733293193230146	6.777066	2.6032798
10.750897232633072	6.679902	2.5845506
10.76850152651225	6.6231027	2.573539
10.786106075294207	6.5983305	2.5687215
10.803710879405534	6.542384	2.5578084
10.821315939272877	6.403027	2.5304203
10.83892125532294	6.2487264	2.4997454
10.856526827982472	6.190427	2.488057
10.874132657678285	6.1896725	2.4879053
10.891738744837243	6.0888195	2.4675534
10.909345089886271	5.9981065	2.449103
10.926951693252343	5.9631042	2.4419467
10.944558555362494	5.9727793	2.443927
10.96216567664381	5.8888497	2.4266953
10.979773057523436	5.750571	2.3980348
10.997380698428573	5.671239	2.3814363
11.014988599786477	5.6412926	2.3751404
11.032596762024461	5.6185856	2.3703556
11.050205185569892	5.6176796	2.3701644
11.067813870850198	5.5827284	2.3627799
11.085422818292859	5.500751	2.345368
11.10303202832541	5.464328	2.3375902
11.120641501375454	5.341028	2.3110664
11.138251237870636	5.2617793	2.2938569
11.155861238238671	5.220424	2.2848248
11.173471502907317	5.1412015	2.2674217
11.191082032304402	5.092791	2.2567213
11.208692826857805	5.001124	2.2363193
11.226303886995465	4.9480987	2.2244322
11.243915213145371	4.908845	2.2155914
11.261526805735578	4.8949747	2.212459
11.279138665194196	4.885937	2.2104156
11.296750791949393	4.8148923	2.1942863
11.314363186429393	4.7406287	2.1772985
11.331975849062479	4.7164497	2.1717389
11.34958878027699	4.6685963	2.1606934
11.36720198050133	4.583623	2.1409397
11.384815450163948	4.4815392	2.1169646
11.402429189693366	4.453253	2.1102731
11.420043199518153	4.443566	2.1079767
11.437657480066942	63.441574	7.965022
11.455272031768422	85.14876	9.227609
11.472886855051353	107.53596	10.369954
11.490501950344528	99.12304	9.956056
11.508117318076819	84.4514	9.189744
11.52573295867715	45.860718	6.772054
11.543348872574514	4.1190844	2.0295527
11.560965060197946	4.083089	2.0206654
11.57858152197655	3.9993472	1.9998368
11.59619825833949	3.9667969	1.9916819
11.613815269715985	3.958258	1.9895371
11.631432556535323	38.52418	6.206785
11.649050119226837	83.084946	9.115094
11.666667958219929	93.456535	9.667292
11.68428607394406	107.72686	10.379155
11.701904466828756	82.55075	9.085744
11.719523137303586	65.38078	8.085838
11.737142085798196	4.5982175	2.1443455
11.754761312742286	3.6995466	1.9234205
11.772380818565619	3.691913	1.9214351
11.790000603698015	3.661981	1.9136304
11.80762066856935	3.6413753	1.9082388
11.825241013609572	3.6003957	1.8974708
11.842861639248683	3.5519023	1.8846492
11.860482545916748	3.4592273	1.8598998
11.878103734043883	3.4194658	1.8491797
11.895725204060282	3.3630002	1.8338485
11.91334695639619	3.3472352	1.8295451
11.930968991481919	3.333385	1.825756
11.948591309747824	3.3415766	1.8279979
11.966213911624347	3.2963521	1.8155859
11.98383679754198	3.2956839	1.8154018
12.001459967931268	3.2880502	1.8132981
12.019083423222835	3.2369184	1.7991438
12.036707163847352	3.226461	1.7962352
12.05433119023556	3.1874905	1.7853545
12.071955502818259	3.1532838	1.7757488
12.089580102026313	3.1486566	1.7744454
12.107204988290643	3.14855	1.7744154
12.12483016204224	3.1675167	1.7797519
12.142455623712152	3.1049974	1.7621003
12.16008137373149	3.0702257	1.752206
12.177707412531431	3.0383573	1.7430885
12.19533374054321	3.0366478	1.742598
12.212960358198126	3.0273213	1.7399199
12.230587265927545	3.0306625	1.7408798
12.248214464162889	2.9978993	1.7314442
12.265841953335649	2.9493375	1.7173635
12.283469733877375	2.936425	1.7136
12.301097806219685	2.9524767	1.7182772
12.31872617079425	2.927363	1.7109538
12.336354828032825	2.902168	1.7035751
12.353983778367205	2.8806012	1.6972334
12.371613022229262	2.9017775	1.7034605
12.389242560050928	2.8999074	1.7029114
12.406872392264201	2.9120529	1.7064738
12.424502519301143	2.9106917	1.706075
12.442132941593874	2.913035	1.7067615
12.459763659574586	2.8583746	1.6906729
12.477394673675532	2.8160963	1.6781229
12.49502598432903	2.794428	1.6716543
12.51265759196746	2.767181	1.6634846
12.530289497023267	2.7718294	1.6648812
12.547921699928967	2.7694354	1.664162
12.565554201117134	2.8041568	1.6745616
12.583187001020404	2.8091733	1.6760589
12.600820100071486	2.7993064	1.6731128
12.618453498703152	2.7851994	1.6688917
12.636087197348235	2.7400224	1.6553013
12.65372119643964	2.7270145	1.6513674
12.671355496410326	2.7038732	1.6443458
12.68899009769333	2.7617724	1.6618581
12.706625000721749	2.8337896	1.6833863
12.724260205928752	2.9139812	1.7070388
12.741895713747551	2.9385104	1.7142084
12.759531524611454	2.9795802	1.7261461
12.777167638953818	2.9617546	1.7209749
12.794804057208072	3.0056164	1.7336714
12.812440779807702	3.0202007	1.7378725
12.830077807186271	3.1263735	1.7681555
12.847715139777405	3.1599307	1.7776194
12.865352778014795	3.350075	1.830321
12.882990722332197	3.461013	1.8603798
12.90062897316344	3.5488858	1.8838487
12.918267530942412	3.6460671	1.9094678
12.935906396103071	3.5655148	1.888257
12.953545569079449	3.808483	1.9515334
12.971185050305628	3.6528838	1.9112519
12.988824840215775	3.6583507	1.9126816
13.006464939244115	3.5680003	1.8889151
13.024105347824943	3.4234188	1.8502483
13.041746066392617	3.5022435	1.8714283
13.05938709538157	3.35399	1.8313903
13.077028435226296	3.3642557	1.8341907
13.094670086361363	3.2724237	1.8089842
13.112312049221401	3.1821039	1.7838453
13.129954324241112	3.0503304	1.7465196
13.147596911855258	2.8781424	1.6965089
13.165239812498685	2.8467498	1.6872314
13.182883026606293	2.7813756	1.6677457
13.200526554613058	2.7189157	1.6489135
13.218170396954017	2.67433	1.6353378
13.235814554064284	2.667665	1.6332988
13.253459026379034	2.6895828	1.6399947
13.271103814333523	2.6752927	1.6356322
13.288748918363058	2.6659513	1.6327741
13.306394338903031	2.6566558	1.6299251
13.32404007638889	2.643722	1.6259527
13.341686131256164	2.629576	1.6215967
13.359332503940449	2.5599713	1.5999911
13.376979194877402	2.5611227	1.6003507
13.394626204502751	2.5923197	1.6100682
13.412273533252307	2.6247706	1.6201144
13.429921181561937	2.61285	1.6164312
13.447569149867581	2.653967	1.6291001
13.465217438605247	2.6790192	1.636771
13.482866048211022	2.6764653	1.6359906
13.500514979121052	2.6552079	1.6294808
13.518164231771568	2.65192	1.6284717
13.535813806598844	2.6567836	1.6299642
13.553463704039254	2.6390676	1.6245208
13.571113924529229	2.5936916	1.6104943
13.588764468505275	2.6048784	1.6139636
13.606415336403956	2.638592	1.6243744
13.624066528661917	2.7197123	1.649155
13.641718045715882	2.7832212	1.668299
13.659369888002635	2.826049	1.6810857
13.67702205595903	2.829144	1.682006
13.694674550021993	2.8711097	1.6944349
13.712327370628532	2.918673	1.7084124
13.729980518215713	3.0610845	1.7495955
13.747633993220681	3.1516063	1.7752764
13.765287796080647	3.2110057	1.7919279
13.7829419272329	3.2209961	1.7947134
13.800596387114801	3.2537968	1.8038284
13.818251176163775	3.2688808	1.8080046
13.835906294817324	3.3062491	1.8183094
13.853561743513023	3.3640935	1.8341465
13.871217522688525	3.4016402	1.8443536
13.888873632781538	3.4169	1.8484858
13.906530074229858	3.418474	1.8489115
13.92418684747135	3.4451065	1.8560998
13.941843952943948	3.4569798	1.8592955
13.959501391085665	3.440454	1.8548461
13.977159162334578	3.3845224	1.8397071
13.994817267128846	3.3339274	1.8259045
14.012475705906693	3.2159202	1.7932987
14.030134479106424	3.0981596	1.760159
14.047793587166414	3.0342088	1.7418981
14.065453030525108	3.0006528	1.7322392
14.083112809621026	2.9899755	1.7291546
14.100772924892766	2.9481697	1.7170235
14.118433376778997	2.9061513	1.7047437
14.136094165718458	2.8172815	1.678476
14.153755292149969	2.740536	1.6554564
14.171416756512416	2.6798747	1.6370323
14.189078559244768	2.640337	1.6249114
14.20674070078606	2.5765681	1.6051692
14.224403181575408	2.536591	1.5926679
14.242066002051999	2.4737332	1.5728106
14.259729162655093	2.4342618	1.5602121
14.277392663824022	2.437885	1.5613728
14.295056505998208	2.4054053	1.5509369
14.312720689617128	2.418812	1.555253
14.330385215120348	2.402079	1.5498642
14.348050082947497	2.4262164	1.5576316
14.3657152935383	2.433318	1.5599096
14.383380847332528	2.3941803	1.5473139
14.401046744770051	2.3651917	1.537918
14.418712986290798	2.3759468	1.5414107
14.436379572334793	2.3830798	1.5437227
14.454046503342123	2.3876061	1.5451881
14.471713779752946	2.391122	1.5463253
14.489381402007504	2.390916	1.5462587
14.507049370546113	2.3623106	1.536981
14.524717685809168	2.3731914	1.5405166
14.542386348237134	2.368446	1.5389757
14.560055358270553	2.4056609	1.5510193
14.577724716350051	2.4492323	1.5650023
14.595394422916325	2.4694252	1.5714405
14.61306447841015	2.478032	1.5741767
14.63073488327237	2.448895	1.5648946
14.648405637943917	2.449242	1.5650054
14.6660767428658	2.4429476	1.5629932
14.683748198479094	2.462724	1.5693069
14.701420005224954	2.5181222	1.5868592
14.719092163544628	2.5948849	1.6108646
14.73676467387942	2.6606069	1.6311367
14.754437536670727	2.6600428	1.6309638
14.772110752360014	2.6439123	1.6260111
14.78978432138882	2.6212094	1.619015
14.807458244198777	2.6552956	1.6295078
14.82513252123159	2.6665885	1.6329693
14.842807152929028	2.6608818	1.6312209
14.860482139732962	2.6421046	1.6254553
14.87815748208531	2.5976048	1.6117086
14.8958331804281	2.5934813	1.6104289
14.91350923520342	2.6069212	1.6145962
14.931185646853438	2.6628866	1.6318353
14.948862415820408	2.6430852	1.6257569
14.966539542546656	2.6303663	1.6218404
14.98421702747459	2.6055686	1.6141773
15.001894871046696	2.6440392	1.6260501
15.019573073705542	2.6613715	1.631371
15.037251635893766	2.645966	1.6266426
15.054930558054092	2.6660106	1.6327922
15.072609840629323	2.718898	1.6489081
15.090289484062351	2.8738284	1.6952369
15.107969488796124	3.173642	1.7814718
15.125649855273691	3.602875	1.8981241
15.14333058393817	4.088644	2.0220397
15.161011675232768	5.04861	2.2469113
15.17869312960076	6.409854	2.531769
15.196374947485506	8.22806	2.8684595
15.214057129330447	11.207168	3.3477108
15.231739675579114	15.690124	3.961076
15.249422586675102	20.489363	4.526518
15.267105863062092	23.352629	4.8324556
15.284789505183847	23.433916	4.840859
15.302473513484218	21.132486	4.597008
15.320157888407127	17.596806	4.1948547
15.337842630396578	13.625133	3.6912236
15.355527739896656	10.599949	3.2557564
15.37321321735153	8.337397	2.887455
15.39089906320545	6.251944	2.5003889
15.408585277902748	4.83574	2.1990316
15.42627186188783	3.839294	1.9594116
15.443958815605198	3.333697	1.8258414
15.461646139499424	3.0427225	1.7443402
15.479333834015168	2.8691666	1.6938615
15.497021899597165	2.8184984	1.6788384
15.514710336690234	2.741674	1.6558001
15.53239914573928	2.6594574	1.6307843
15.550088327189297	2.566088	1.6019014
15.567777881485336	2.4824822	1.5755894
15.58546780907256	2.453911	1.5664964
15.6031581103962	2.4424553	1.5628357
15.620848785901568	2.4551473	1.566891
15.638539836034063	2.4279225	1.5581793
15.656231261239173	2.4202456	1.5557139
15.673923061962451	2.4024866	1.5499957
15.691615238649552	2.4362183	1.5608389
15.709307791746202	2.4112592	1.552823
15.727000721698221	2.3997326	1.5491071
15.744694028951498	2.3757086	1.5413333
15.76238771395202	2.3808582	1.543003
15.780081777145844	2.3790078	1.5424032
15.797776218979125	2.3611546	1.5366049
15.815471039898094	2.3395848	1.5295701
15.833166240349064	2.3532307	1.5340244
15.850861820778437	2.3505585	1.5331532
15.868557781632699	2.3358576	1.5283513
15.886254123358412	2.3136754	1.521077
15.903950846402232	2.3199573	1.5231405
15.921647951210897	2.3137534	1.5211027
15.939345438231225	2.3153005	1.5216111
15.957043307910133	2.3014696	1.5170596
15.974741560694602	2.354583	1.5344651
15.992440197031714	2.377088	1.5417808
16.01013921736862	2.3694956	1.5393167
16.02783862215259	2.3603191	1.536333
16.045538411830933	2.359808	1.5361667
16.06323858685107	2.3606272	1.5364332
16.080939147660512	2.373028	1.5404636
16.09864009470684	2.3683379	1.5389405
16.11634142843774	2.36462	1.5377321
16.134043149300954	2.3272986	1.5255486
16.15174525774433	2.3406737	1.5299261
16.169447754215817	2.3491325	1.532688
16.18715063916342	2.3834524	1.5438434
16.204853913035244	2.4357283	1.560682
16.222557576279478	2.4371164	1.5611266
16.240261629344403	22.428055	4.7358265
16.257966072678386	42.969193	6.555089
16.275670906729868	38.068604	6.1699758
16.293376131947387	2.4647763	1.5699606
16.31108174877957	2.4736714	1.572791
16.328787757675133	2.494761	1.5794812
16.34649415908287	2.5257845	1.5892717
16.364200953451657	2.5616574	1.6005179
16.38190814123048	2.578325	1.6057163
16.39961572286839	2.6107237	1.6157734
16.41732369881455	2.6027236	1.6132959
16.43503206951817	2.6375618	1.6240572
16.45274083542859	2.6966882	1.6421596
16.47044999699522	2.7490964	1.6580399
16.488159554667558	2.7922044	1.670989
16.505869508895184	2.8111029	1.6766344
16.523579860127786	2.8083467	1.6758122
16.541290608815117	2.8193903	1.679104
16.559001755407035	2.8818238	1.6975936
16.57671330035348	2.937966	1.7140496
16.59442524410448	3.0742297	1.7533481
16.61213758711015	3.1640484	1.7787772
16.629850329820705	3.2669578	1.8074727
16.647563472686436	3.3415306	1.8279854
16.665277016157724	3.3874726	1.8405088
16.682990960685053	3.3979263	1.8433465
16.70070530671898	3.3952594	1.842623
16.718420054710155	3.4872901	1.8674288
16.736135205109335	3.5590909	1.8865553
16.753850758367335	3.6024847	1.8980212
16.771566714935087	3.6114175	1.900373
16.789283075263597	3.664825	1.9143733
16.80699983980398	3.7459707	1.935451
16.82471700900741	3.8056386	1.9508046
16.84243458332518	3.8120828	1.9524555
16.860152563208665	3.7890599	1.9465507
16.87787094910932	3.8444018	1.9607146
16.89558974147871	3.9490478	1.9872211
16.913308940768466	4.0389757	2.0097203
16.931028547430333	4.1354265	2.0335748
16.94874856191613	4.2017837	2.0498252
16.966468984677785	4.290211	2.0712824
16.98418981616729	4.361297	2.088372
17.00191105683676	4.3997583	2.0975602
17.019632707138374	4.432098	2.105255
17.03735476752442	4.4326015	2.1053743
17.05507723844728	4.4396386	2.107045
17.072800120359403	4.4372973	2.1064894
17.090523413713353	4.473479	2.11506
17.108247118961785	4.519645	2.1259458
17.125971236557437	4.5377626	2.1302025
17.143695766953133	4.537475	2.130135
17.161420710601806	4.5443935	2.1317582
17.179146067956477	4.620016	2.1494222
17.19687183947025	4.6696186	2.16093
17.21459802559634	4.678363	2.1629524
17.232324626788028	4.636975	2.1533637
17.25005164349871	4.6040487	2.1457047
17.267779076181863	4.5447817	2.1318493
17.285506925291074	4.5288744	2.1281152
17.30323519127999	4.533066	2.1290998
17.320963874602384	4.5440707	2.1316826
17.33869297571211	4.479378	2.1164541
17.356422495063114	4.4202485	2.1024387
17.37415243310944	4.3987117	2.0973105
17.391882790305218	4.4268937	2.1040184
17.40961356710468	4.4444466	2.1081855
17.42734476396215	4.405903	2.0990243
17.445076381332044	4.4252286	2.1036227
17.462808419668868	4.52528	2.1272705
17.48054087942723	4.68081	2.163518
17.498273761061835	5.0080023	2.2378566
17.51600706502747	5.5191746	2.3492923
17.533740791779024	6.2666445	2.5033267
17.551474941771485	7.681452	2.7715433
17.56920951545993	8.763786	2.9603693
17.586944513299528	10.678462	3.2677915
17.60467993574556	12.1560955	3.4865592
17.622415783253373	13.595907	3.6872628
17.64015205627843	14.89751	3.8597293
17.657888755276293	15.811777	3.9764025
17.675625880702604	16.181494	4.0226226
17.69336343301311	15.897558	3.9871743
17.71110141266366	15.278319	3.908749
17.728839820110178	14.574699	3.8176825
17.746578655808705	13.915856	3.7303963
17.764317920215372	12.626429	3.5533686
17.7820576137864	11.226627	3.350616
17.79979773697811	9.3277645	3.054139
17.81753829024692	7.5230756	2.7428226
17.835279274049356	5.914493	2.431973
17.85302068884201	4.9262276	2.2195106
17.870762535081607	4.2710137	2.066643
17.888504813224934	3.9209726	1.9801446
17.90624752372891	3.714226	1.9272327
17.923990667050536	3.5958304	1.8962675
17.941734243646895	3.5349007	1.8801332
17.959478253975185	3.506205	1.8724864
17.9772226984927	3.4116898	1.847076
17.994967577656833	3.32725	1.8240751
18.01271289192506	3.252809	1.8035545
18.030458641754965	3.2588575	1.8052306
18.04820482760425	3.2701082	1.808344
18.06595144993067	3.2581916	1.8050462
18.083698509192125	3.1928558	1.7868564
18.101446005846576	3.1425521	1.7727245
18.119193940352105	3.121746	1.7668464
18.136942313166887	3.1229568	1.7671889
18.1546911247492	3.1448703	1.7733783
18.1724403755574	3.1465907	1.7738632
18.19019006604997	3.14123	1.7723516
18.207940196685467	3.1096625	1.7634236
18.225690767922575	3.0943346	1.7590721
18.243441780220046	3.06912	1.7518904
18.261193234036764	3.051437	1.7468363
18.278945129831676	3.0042806	1.733286
18.29669746806386	2.9681716	1.7228383
18.314450249192483	2.9124658	1.7065948
18.3322034736768	2.9203937	1.708916
18.349957141976184	2.939502	1.7144976
18.3677112545501	2.9632452	1.7214079
18.385465811858108	3.0223687	1.7384961
18.403220814359884	3.0569723	1.7484199
18.420976262515172	3.0757012	1.7537677
18.43873215678387	3.0656319	1.7508945
18.456488497625923	3.0671904	1.7513396
18.474245285501407	3.149289	1.7746236
18.492002520870486	3.2149212	1.7930201
18.50976020419343	3.305822	1.8181919
18.527518335930615	3.6072218	1.8992687
18.545276916542516	4.154881	2.0383525
18.563035946489688	4.285448	2.0701325
18.580795426232832	4.758832	2.1814747
18.598555356232698	4.6863694	2.1648023
18.616315736950185	5.0478067	2.2467325
18.63407656884626	4.668827	2.1607468
18.65183785238201	4.9149146	2.2169607
18.669599588018617	4.6423273	2.154606
18.68736177621737	4.675867	2.1623755
18.705124417439652	4.675341	2.1622536
18.72288751214696	4.5161986	2.125135
18.740651060800886	4.558747	2.1351223
18.758415063863115	4.229974	2.05669
18.77617952179546	4.424538	2.1034586
18.793944435059814	4.25243	2.0621421
18.811709804118184	4.276804	2.0680435
18.829475629432675	4.2090826	2.051605
18.8472419114655	4.038419	2.0095818
18.86500865067897	4.085536	2.021271
18.88277584753551	3.7480905	1.9359986
18.90054350249763	3.7418926	1.9343972
18.918311616027957	3.39623	1.8428863
18.936080188589226	3.2821057	1.8116583
18.953849220644265	3.0015407	1.7324955
18.971618712656007	2.8421648	1.6858721
18.9893886650875	2.7991402	1.6730632
19.007159078401887	7.984114	2.8256176
19.024929953062408	32.881638	5.7342515
19.042701289532435	32.833866	5.7300844
19.060473088275405	25.369392	5.0368037
19.07824534975489	2.5849059	1.6077642
19.096018074434568	2.5608354	1.600261
19.113791262778197	2.5621011	1.6006565
19.13156491524966	2.5767448	1.6052243
19.149339032312945	2.5662944	1.6019658
19.167113614432136	2.5675266	1.6023504
19.184888662071433	2.5431416	1.5947231
19.202664175695123	2.5191574	1.5871854
19.220440155767623	2.5294123	1.5904126
19.238216602753447	2.517412	1.5866355
19.2559935171172	2.4828935	1.57572
19.27377089932361	2.4613605	1.5688723
19.291548749837514	2.4163344	1.5544564
19.309327069123835	2.4536426	1.5664108
19.32710585764763	2.494418	1.5793726
19.344885115874032	2.5199428	1.5874327
19.362664844268313	2.4800234	1.574809
19.380445043295822	2.454301	1.566621
19.39822571342203	2.4657645	1.5702753
19.41600685511252	2.4661722	1.5704051
19.43378846883297	2.4525084	1.5660486
19.451570555049173	2.4266574	1.5577732
19.469353114227037	2.4265122	1.5577266
19.48713614683254	2.3995395	1.5490447
19.50491965333182	2.41349	1.5535412
19.52270363419109	2.4259405	1.5575432
19.540488089876686	2.4681656	1.5710397
19.55827302085503	2.4852219	1.5764587
19.576058427592674	2.492015	1.5786117
19.593844310556282	2.4843616	1.5761858
19.611630670212598	2.4769804	1.5738425
19.629417507028506	2.486007	1.5767076
19.64720482147098	2.473353	1.5726897
19.6649926140071	2.5258868	1.5893039
19.682780885104084	2.5224004	1.5882066
19.70056963522921	2.4945042	1.5794
19.718358864849908	2.4605367	1.5686098
19.7361485744337	2.4647224	1.5699434
19.753938764448215	2.475981	1.5735251
19.771729435361202	2.4806392	1.5750045
19.789520587640506	2.4801424	1.5748467
19.807312221754092	2.4833293	1.5758582
19.825104338170043	2.4507682	1.565493
19.842896937356517	2.4196458	1.555521
19.860690019781824	2.4420507	1.5627062
19.87848358591436	2.4737015	1.5728005
19.896277636222635	2.4344542	1.5602738
19.914072171175278	2.4066293	1.5513315
19.931867191241015	2.4214687	1.5561069
19.94966269688869	2.4858093	1.576645
19.967458688587264	2.5151353	1.5859178
19.985255166805807	2.4968383	1.5801387
20.00305213201348	2.43894	1.5617106
20.020849584679578	2.4085467	1.5519493
20.038647525273507	2.4038017	1.5504198
20.05644595426477	2.392841	1.5468811
20.07424487212299	2.4373548	1.561203
20.092044279317903	2.433778	1.560057
20.109844176319353	2.436783	1.5610199
20.127644563597304	2.3959563	1.5478877
20.145445441621817	2.3727407	1.5403703
20.16324681086307	2.320204	1.5232216
20.181048671791373	2.3178859	1.5224605
20.198851024877122	2.3126612	1.5207436
20.216653870590836	2.3350863	1.528099
20.234457209403146	2.3408356	1.529979
20.252261041784802	2.3132098	1.520924
20.270065368206662	2.3429499	1.5306697
20.287870189139685	2.3476956	1.5322192
20.305675505054968	2.350009	1.5329739
20.323481316423702	2.2966204	1.5154605
20.341287623717207	2.3212159	1.5235537
20.359094427406884	2.3278527	1.5257303
20.376901727964288	2.3326464	1.5273004
20.39470952586107	2.3403134	1.5298083
20.41251782156899	2.3270578	1.5254697
20.430326615559935	2.3210351	1.5234944
20.448135908305886	2.3248646	1.5247507
20.465945700278965	2.319238	1.5229044
20.483755991951384	2.3062403	1.5186311
20.50156678379548	2.3117852	1.5204556
20.519378076283708	2.3026178	1.5174379
20.537189869888635	2.296275	1.5153464
20.55500216508294	2.2782981	1.5094032
20.572814962339415	2.2574437	1.5024792
20.59062826213098	2.230217	1.4933912
20.60844206493066	2.2384121	1.4961324
20.626256371211593	2.253334	1.5011109
20.644071181447032	2.270911	1.5069542
20.66188649611036	2.2517393	1.5005796
20.67970231567506	2.279908	1.5099365
20.697518640614742	2.2554052	1.5018007
20.715335471403122	2.2783003	1.509404
20.73315280851404	2.2787974	1.5095686
20.750970652421447	2.2764206	1.5087812
20.768789003599412	2.2539093	1.5013026
20.786607862522136	2.275482	1.50847
20.8044272296639	2.3103988	1.5199996
20.82224710549913	2.2929628	1.5142533
20.84006749050237	2.2800312	1.5099772
20.857888385148268	3.800078	1.9493788
20.8757097899116	45.90448	6.7752843
20.893531705267254	64.78012	8.04861
20.911354131690224	83.801216	9.154301
20.92917706965566	69.041855	8.309143
20.94700051963877	50.11214	7.078993
20.96482448211493	29.385733	5.420861
20.982648957559622	4.1404433	2.034808
21.00047394644843	2.2471838	1.499061
21.01829944925707	2.2265444	1.492161
21.036125466461375	2.1843405	1.4779514
21.053951998537297	2.1615055	1.4702059
21.071779045960906	2.1590676	1.4693766
21.089606609208378	2.183523	1.4776748
21.10743468875603	2.2056918	1.4851571
21.12526328508028	2.1848361	1.4781191
21.143092398657675	2.1530483	1.4673269
21.16092202996488	2.12857	1.458962
21.17875217947867	2.1444223	1.4643846
21.19658284767596	2.1609929	1.4700316
21.21441403503377	2.1354744	1.4613262
21.232245742029225	2.1398623	1.4628268
21.2500779691396	2.1340985	1.4608554
21.26791071684227	2.1518207	1.4669086
21.28574398561475	2.1545875	1.4678513
21.30357777593465	2.1753216	1.4748971
21.321412088279704	2.1669137	1.4720441
21.339246923127792	2.1698782	1.4730507
21.357082280956888	2.1506944	1.4665246
21.3749181622451	2.1256936	1.4579759
21.392754567470647	2.112764	1.453535
21.41059149711187	2.118053	1.4553533
21.42842895164726	2.1306956	1.4596902
21.446266931555378	2.0719254	1.4394184
21.464105437314945	2.0628889	1.4362761
21.481944469404798	2.0629287	1.4362899
21.49978402830388	2.1061823	1.4512693
21.51762411449127	2.1040592	1.4505376
21.53546472844617	2.0973074	1.4482083
21.553305870647876	2.055762	1.433793
21.571147541575865	2.022273	1.4220665
21.58898974170967	2.0091805	1.4174557
21.60683247152899	2.0304224	1.4249289
21.62467573151363	2.0619924	1.435964
21.642519522143523	2.062668	1.4361992
21.660363843898722	2.0336869	1.4260739
21.6782086972594	2.0032582	1.4153651
21.696054082705864	2.01053	1.4179316
21.713900000718535	2.0204303	1.4214184
21.73174645177795	2.053886	1.4331385
21.749593436364794	2.0565264	1.4340594
21.767440954959845	2.0426986	1.4292301
21.785289008044032	1.9999306	1.414189
21.803137596098388	1.9747643	1.4052631
21.820986719604086	1.9603723	1.400133
21.838836379042412	1.9618372	1.400656
21.85668657489478	1.9695041	1.4033902
21.87453730764273	1.9893271	1.4104351
21.892388577767914	2.0100615	1.4177663
21.91024038575213	2.0005631	1.4144126
21.928092732077285	1.9868832	1.4095684
21.945945617225426	2.008872	1.4173468
21.963799041678694	2.030938	1.4251097
21.981653005919398	31.322918	5.5966883
21.999507510429943	78.102745	8.837576
22.01736255569286	73.03151	8.545848
22.035218142190818	4.138012	2.0342104
22.05307427040661	1.9726523	1.4045115
22.07093094082315	2.0233047	1.4224292
22.088788153923474	2.0206363	1.4214909
22.106645910190746	1.9782964	1.4065193
22.12450421010827	1.9556931	1.398461
22.142363054159464	1.9826875	1.4080794
22.16022244282787	1.9984074	1.4136504
22.178082376597164	1.945111	1.3946724
22.195942855951145	1.9453218	1.394748
22.213803881373742	1.9878132	1.4098983
22.231665453349002	1.9934705	1.4119031
22.24952757236111	1.9712374	1.4040077
22.26739023889438	1.9207761	1.3859206
22.28525345343323	1.9391824	1.3925453
22.30311721646225	1.9568806	1.3988855
22.320981528466113	1.9844525	1.408706
22.33884638992964	1.9702188	1.4036448
22.356711801337788	1.9741503	1.4050446
22.37457776317561	1.956655	1.3988049
22.392444275928337	1.9584277	1.3994384
22.410311340081282	1.9410435	1.3932134
22.428178956119904	1.9501153	1.3964653
22.446047124529805	1.9567199	1.398828
22.46391584579669	1.9346924	1.3909322
22.481785120406414	1.90492	1.3801883
22.49965494884496	1.8815941	1.3717121
22.51752533159841	1.9013171	1.3788825
22.53539626915302	1.8969651	1.3773036
22.553267761995137	1.9232905	1.3868275
22.571139810611264	1.9382429	1.392208
22.589012415488025	1.970994	1.4039209
22.60688557711216	1.9286956	1.3887749
22.624759295970566	1.9486392	1.3959366
22.642633572550263	1.9643564	1.401555
22.660508407338362	1.9833463	1.4083133
22.67838380082217	1.9744247	1.4051422
22.696259753489077	1.9499681	1.3964126
22.714136265826614	1.9026343	1.3793601
22.73201333832246	1.9247197	1.3873427
22.74989097146439	1.9369965	1.3917602
22.76776916574035	1.9271941	1.3882341
22.785647921638393	1.8940448	1.376243
22.803527239646712	1.8601048	1.3638566
22.82140712025363	1.8413367	1.3569586
22.839287563947593	1.8462005	1.3587496
22.85716857121719	1.8453021	1.358419
22.875050142551135	1.8281835	1.3521034
22.892932278438277	1.8114535	1.3459024
22.910814979367604	1.8301578	1.3528333
22.928698245828222	1.868529	1.3669415
22.946582078309387	1.8426455	1.3574408
22.96446647730047	1.8277553	1.351945
22.98235144329098	1.8083436	1.3447467
23.000236976770562	1.8426795	1.3574533
23.018123078229	1.8693545	1.3672434
23.03600974815619	1.8745174	1.3691301
23.053896987042194	1.8669914	1.3663789
23.071784795377173	1.8774694	1.3702078
23.08967317365145	1.8899721	1.3747625
23.10756212235546	1.8895614	1.3746132
23.125451641979787	1.8817593	1.3717723
23.143341733015134	1.874389	1.3690833
23.161232395952357	1.8822662	1.3719571
23.179123631282426	1.926069	1.387829
23.197015439496468	1.9379468	1.3921015
23.214907821085717	1.9299064	1.3892107
23.23280077654157	1.9132456	1.3832012
23.250694306355538	1.8904775	1.3749464
23.268588411019277	1.8889323	1.3743844
23.28648309102458	1.8769852	1.3700311
23.304378346863356	1.9055262	1.3804079
23.322274179027676	1.9083964	1.3814472
23.340170588009723	1.8836197	1.3724502
23.358067574301852	1.8857274	1.3732179
23.37596513839651	1.9177403	1.384825
23.39386328078629	1.9266845	1.3880506
23.411762001963947	1.9372504	1.3918514
23.429661302422353	1.9225315	1.3865538
23.4475611826545	1.9197537	1.3855518
23.46546164315356	1.9049747	1.3802083
23.48336268441279	1.8895626	1.3746136
23.501264306925638	1.8668225	1.3663172
23.51916651118564	1.8748553	1.3692535
23.537069297686497	1.8945922	1.3764418
23.554972666922037	1.8898021	1.3747008
23.57287661938623	1.8702571	1.3675735
23.59078115557318	1.8891729	1.3744719
23.608686275977128	1.8712113	1.3679223
23.62659198109246	1.8696914	1.3673666
23.6444982714137	1.8523161	1.3609983
23.66240514743549	1.8385739	1.3559402
23.68031260965263	1.8538799	1.3615726
23.698220658560068	1.9136564	1.3833497
23.716129294652845	1.9034263	1.3796471
23.7340385184262	1.8751389	1.3693571
23.75194833037546	1.8621538	1.3646076
23.769858730996123	1.8542296	1.361701
23.78776972078382	1.8701596	1.3675379
23.80568130023431	1.9004121	1.3785543
23.823593469843495	1.8871858	1.3737488
23.841506230107424	1.8489758	1.3597705
23.859419581522275	1.840457	1.3566344
23.87733352458438	1.8780401	1.370416
23.89524805979019	1.9058043	1.3805087
23.913163187636318	1.9028248	1.3794291
23.931078908619508	1.9292189	1.3889632
23.948995223236633	1.9756819	1.4055895
23.966912131984735	2.0225098	1.4221497
23.98482963536096	2.0391524	1.4279889
24.002747733862616	2.0313067	1.4252392
24.020666427987155	2.0304222	1.4249289
24.038585718232156	2.02129	1.4217209
24.056505605095353	2.0062594	1.4164249
24.074426089074617	2.0482635	1.4311756
24.092347170667946	2.0302699	1.4248754
24.110268850373515	2.0280275	1.4240884
24.128191128689586	2.0286922	1.4243217
24.146114006114626	2.0171425	1.4202614
24.164037483147187	2.027045	1.4237434
24.181961560286005	2.0527077	1.4327273
24.199886238029926	2.0750394	1.4404997
24.21781151687797	2.0693188	1.4385127
24.235737397329274	2.0302176	1.424857
24.253663879883135	1.9651014	1.4018208
24.271590965038975	1.955087	1.3982443
24.289518653296376	1.9772382	1.4061431
24.30744694515505	2.0115016	1.4182742
24.32537584111486	2.0037305	1.4155319
24.34330534167581	1.9955932	1.4126546
24.361235447338046	2.0096269	1.417613
24.379166158601876	1.9812164	1.4075569
24.39709747596772	1.9991901	1.4139272
24.41502939993615	2.0143554	1.4192799
24.432961931007917	1.9758496	1.4056492
24.450895069683856	1.9484011	1.3958514
24.468828816465	1.9576102	1.3991462
24.4867631718525	2.0250242	1.4230335
24.504698136347656	2.0092142	1.4174675
24.52263371045192	1.9499011	1.3963886
24.540569894666874	1.9307286	1.3895066
24.558506689494266	1.9039861	1.37985
24.57644409543597	1.9060143	1.3805847
24.594382112994012	1.8896863	1.3746586
24.61232074267057	1.8870944	1.3737155
24.630259984967953	1.9002148	1.3784828
24.64819984038863	1.8972301	1.3773998
24.66614030943522	1.9123603	1.3828812
24.684081392610462	1.9100046	1.3820292
24.702023090417274	1.9048504	1.3801632
24.7199654033587	1.9065394	1.380775
24.737908331937927	1.9062608	1.380674
24.755851876658305	1.9565226	1.3987575
24.773796038023324	1.9675249	1.4026849
24.79174081653661	2.0005639	1.4144129
24.809686212701962	2.0089395	1.4173707
24.827632227023294	2.0746934	1.4403796
24.8455788600047	2.0794327	1.4420239
24.8635261121504	2.1041253	1.4505603
24.88147398396475	2.1086378	1.4521149
24.899422475952303	2.1229243	1.4570259
24.917371588617698	2.0812452	1.4426521
24.935321322465768	2.1428292	1.4638406
24.953271678001478	2.2644532	1.50481
24.97122265572994	2.4500446	1.5652618
24.989174256156414	2.766915	1.6634047
25.00712647978632	3.154282	1.7760298
25.02507932712521	3.6450655	1.9092054
25.043032798678798	4.1070166	2.0265775
25.060986894952933	4.63814	2.153634
25.078941616453637	5.292645	2.300575
25.096896963687055	6.061448	2.4620008
25.114852937159508	7.156923	2.6752427
25.132809537377444	7.652208	2.7662625
25.150766764847468	7.8099537	2.7946293
25.168724620076347	7.346239	2.7103946
25.186683103570985	6.448264	2.5393434
25.204642215838426	5.386862	2.3209615
25.222601957385894	4.1042542	2.0258958
25.24056232872074	3.111873	1.7640501
25.25852333035048	2.5708654	1.6033919
25.276484962782778	2.2023668	1.4840374
25.294447226525435	2.0303729	1.4249115
25.312410122086423	1.9907379	1.4109352
25.330373649973843	1.9848081	1.4088322
25.348337810695988	1.9409771	1.3931895
25.366302604761245	1.9547913	1.3981385
25.384268032678207	1.9413799	1.3933342
25.40223409495558	1.8939326	1.3762022
25.420200792102257	1.8636267	1.3651471
25.438168124627246	1.8336972	1.3541408
25.45613609303974	1.8529407	1.3612276
25.474104697849057	1.8930428	1.3758789
25.492073939564698	1.8847969	1.372879
25.510043818696285	1.8993065	1.3781533
25.528014335753614	1.9148564	1.3837833
25.54598549124664	1.8945951	1.3764429
25.56395728568544	1.8282753	1.3521373
25.58192971958028	1.8108752	1.3456876
25.59990279344156	1.8048779	1.3434575
25.617876507779833	1.8258529	1.3512412
25.635850863105826	1.8179241	1.3483042
25.653825859930386	1.8342117	1.3543308
25.671801498764548	1.8298178	1.3527076
25.68977778011949	1.821932	1.3497896
25.707754704506524	1.8136269	1.3467096
25.725732272437153	1.8288875	1.3523637
25.743710484423012	1.8282484	1.3521273
25.761689340975888	1.7994794	1.3414468
25.77966884260774	1.807818	1.3445512
25.797648989830662	1.8571948	1.3627894
25.815629783156922	1.887511	1.3738672
25.83361122309895	1.8269739	1.351656
25.85159331016929	1.8510066	1.360517
25.869576044880695	1.8508724	1.3604677
25.887559427746034	1.8402009	1.3565401
25.90554345927836	1.8569026	1.3626821
25.92352813999086	1.8566096	1.3625746
25.94151347039689	1.8226285	1.3500476
25.959499451009965	1.8221145	1.3498572
25.97748608234374	1.8328285	1.35382
25.995473364912062	1.818684	1.348586
26.013461299228904	1.7741891	1.3319869
26.03144988580839	1.750579	1.3230945
26.04943912516483	1.7763765	1.3328078
26.067429017812675	1.8233849	1.3503277
26.085419564266537	1.8741832	1.3690081
26.103410765041186	1.8651786	1.3657154
26.12140262065155	1.7990963	1.341304
26.139395131612723	1.741195	1.3195435
26.157388298439948	1.7344552	1.3169872
26.17538212164861	1.7872586	1.3368839
26.193376601754295	1.798446	1.3410616
26.211371739272714	1.7596285	1.32651
26.229367534719746	1.7159895	1.3099579
26.247363988611433	1.7153223	1.3097031
26.26536110146397	1.7576463	1.3257625
26.283358873793727	1.7883971	1.3373096
26.301357306117204	1.8153734	1.347358
26.319356398951104	1.7971648	1.3405838
26.33735615281224	1.7564347	1.3253055
26.35535656821762	1.7739232	1.3318871
26.373357645684404	1.792938	1.3390063
26.39135938572991	1.7929449	1.3390089
26.409361788871614	1.7765489	1.3328724
26.427364855627165	1.7774904	1.3332256
26.445368586514352	1.8128598	1.3464248
26.46337298205115	1.807861	1.3445672
26.48137804275568	1.7599357	1.3266257
26.499383769146217	1.764381	1.3283001
26.517390161741215	1.8209677	1.3494323
26.53539722105928	1.8214241	1.3496015
26.553404947619182	1.8160063	1.3475928
26.571413341939856	1.8168464	1.3479044
26.589422404540397	1.7777597	1.3333266
26.60743213594006	1.7506932	1.3231376
26.62544253665827	1.7488891	1.3224556
26.64345360721459	1.7954069	1.3399279
26.66146534812879	1.8128445	1.3464191
26.679477759920758	1.8284092	1.3521868
26.69749084311057	1.8358487	1.3549349
26.71550459821847	1.8254296	1.3510846
26.733519025764842	1.8003783	1.3417817
26.751534126270258	1.7767979	1.3329659
26.769549900255434	1.7711122	1.3308314
26.787566348241267	1.7938877	1.339361
26.80558347074881	1.8162845	1.3476961
26.823601268299267	1.7696576	1.3302848
26.841619741414036	1.7581602	1.3259563
26.85963889061465	1.7761946	1.3327395
26.877658716422832	1.8081671	1.344681
26.89567921936045	1.7900918	1.3379431
26.913700399949544	1.7852566	1.3361349
26.93172225871233	1.7806244	1.3344004
26.949744796171174	1.7456069	1.3212142
26.967768012848605	1.7839985	1.335664
26.98579190926733	1.8288587	1.352353
27.003816485950225	1.8379357	1.3557049
27.021841743420318	1.8282584	1.352131
27.039867682200814	1.7855995	1.3362633
27.057894302815072	1.8186234	1.3485634
27.07592160578664	1.8284488	1.3522015
27.0939495916392	1.7971097	1.3405632
27.111978260896635	1.7605027	1.3268393
27.13000761408296	1.7305936	1.3155203
27.148037651722397	1.7637845	1.3280755
27.166068374339304	1.7943631	1.3395385
27.184099782458215	1.7758164	1.3325976
27.20213187660384	1.7219344	1.312225
27.22016465730105	1.7562724	1.3252443
27.23819812507487	1.774365	1.332053
27.256232280450533	1.8007284	1.3419123
27.274267123953383	1.8099618	1.3453482
27.292302656108987	1.7710152	1.3307949
27.31033887744306	1.7061573	1.3061996
27.32837578848146	1.6948385	1.3018596
27.34641338975026	1.7206411	1.311732
27.364451681775673	1.7343333	1.3169409
27.382490665084074	1.7244812	1.313195
27.400530340202046	1.7578423	1.3258364
27.41857070765629	1.7706115	1.3306433
27.436611767973726	1.7512913	1.3233637
27.454653521681404	1.7433473	1.3203588
27.472695969306564	1.7438201	1.3205378
27.490739111376627	1.7368075	1.3178799
27.508782948419153	1.7818962	1.3348769
27.526827480961902	1.7946714	1.3396535
27.54487270953279	1.7999641	1.3416274
27.562918634659898	1.7794679	1.333967
27.580965256871508	1.7567043	1.3254073
27.599012576696026	1.7490631	1.3225214
27.617060594662068	1.7872393	1.3368767
27.63510931129842	1.8122034	1.346181
27.65315872713401	1.8480258	1.3594211
27.67120884269797	1.8538804	1.3615727
27.68925965851958	1.8132367	1.3465648
27.707311175128307	1.8044454	1.3432964
27.725363393053787	1.8365357	1.3551885
27.74341631282583	1.8664742	1.3661896
27.7614699349744	1.8575612	1.3629237
27.77952426002968	2.0378041	1.4275168
27.797579288521973	2.1034477	1.4503268
27.815635020981784	2.6284719	1.6212562
27.83369145793979	2.718024	1.6486431
27.85174859992682	2.4893305	1.5777613
27.869806447473923	2.3346663	1.5279615
27.887865001112267	1.9996432	1.4140874
27.905924261373233	1.8964167	1.3771044
27.92398422878836	1.8754519	1.3694714
27.94204490388936	1.8634319	1.3650758
27.96010628720813	1.8293396	1.3525308
27.978168379276728	1.8306245	1.3530058
27.9962311806274	1.865492	1.3658302
28.014294691792568	1.8643696	1.3654193
28.0323589133048	1.8208921	1.3494043
28.050423845696887	1.8309121	1.353112
28.068489489501758	1.8497164	1.3600428
28.086555845252523	1.8563349	1.3624738
28.104622913482487	1.8546734	1.361864
28.122690694725115	1.8412614	1.3569309
28.14075918951405	1.827601	1.351888
28.15882839838312	1.8085622	1.3448279
28.176898321866304	1.8560967	1.3623865
28.1949689604978	1.9292569	1.3889769
28.213040314811945	1.8776127	1.3702601
28.23111238534327	1.8684801	1.3669236
28.249185172626493	1.8617305	1.3644525
28.267258677196473	1.9094745	1.3818374
28.285332899588294	1.904311	1.3799677
28.303407840337172	1.8977655	1.3775941
28.321483499978545	1.8498157	1.3600793
28.33955987904799	1.8756515	1.3695443
28.357636978081285	1.9537808	1.3977771
28.37571479761439	1.9657024	1.4020351
28.393793338183425	1.9431856	1.3939819
28.41187260032469	1.9361106	1.391442
28.429952584574686	1.8966874	1.3772027
28.448033291470065	1.8613734	1.3643216
28.46611472154769	1.8832815	1.372327
28.484196875344566	1.9006652	1.3786461
28.502279753397914	1.934606	1.3909011
28.52036335624511	1.9462997	1.3950984
28.538447684423716	1.9416596	1.3934344
28.556532738471482	1.9764591	1.405866
28.574618518926325	2.022496	1.4221449
28.59270502632635	2.0246117	1.4228885
28.61079226120985	2.0267203	1.4236293
28.628880224115274	2.0042727	1.4157234
28.646968915581287	2.0030046	1.4152755
28.66505833614671	2.026624	1.4235954
28.68314848635055	2.0284631	1.4242413
28.701239366732004	1.9854041	1.4090437
28.71933097783044	1.9831619	1.4082478
28.737423320185403	2.0160756	1.4198858
28.75551639433665	2.048195	1.4311516
28.773610200824074	2.0522218	1.4325578
28.791704740187793	2.0495439	1.4316229
28.80980001296809	2.0747929	1.4404141
28.827896019705413	2.1430275	1.4639083
28.845992760940433	2.1747828	1.4747145
28.86409023721397	2.1191182	1.4557191
28.88218844906704	2.0930045	1.446722
28.900287397040845	2.1590838	1.4693822
28.918387081676755	2.2165577	1.4888109
28.936487503516343	2.2761073	1.5086774
28.954588663101365	2.260963	1.5036498
28.97269056097374	2.1561675	1.4683894
28.990793197675597	2.1674032	1.4722103
29.00889657374923	2.2281215	1.4926894
29.027000689737125	2.276319	1.5087475
29.04510554618196	2.32676	1.5253721
29.06321114362659	2.3909395	1.5462663
29.08131748261405	2.4250913	1.5572704
29.099424563687567	2.4280035	1.5582052
29.11753238739057	2.411016	1.5527446
29.13564095426663	2.502827	1.5820326
29.15375026485954	2.5646684	1.6014582
29.171860319713275	2.5791335	1.6059681
29.18997111937199	2.5762136	1.6050588
29.20808266438002	2.6544013	1.6292334
29.226194955281898	2.695122	1.6416826
29.244307992622335	2.747422	1.657535
29.26242177694624	2.8318372	1.6828064
29.2805363087987	2.8305888	1.6824354
29.29865158872498	2.8346152	1.6836315
29.316767617270557	2.8931751	1.7009336
29.334884394981064	2.9691715	1.7231284
29.353001922402367	2.9557698	1.7192352
29.37112020008047	2.9456117	1.7162784
29.389239228561596	3.0887735	1.7574906
29.407359008392152	3.261432	1.8059435
29.42547954011872	3.6743731	1.9168655
29.44360082428809	4.1957946	2.048364
29.46172286144722	5.206561	2.281789
29.479845652143283	6.7775064	2.6033645
29.497969196923606	8.811949	2.9684927
29.516093496335728	11.050861	3.3242836
29.5342185509274	13.357915	3.654848
29.55234436124651	15.168044	3.8946173
29.570470927841175	16.366547	4.045559
29.588598251259686	16.322706	4.040137
29.60672633205055	15.215209	3.9006677
29.624855170762405	13.158267	3.6274326
29.642984767944146	10.702376	3.2714486
29.66111512414481	8.331514	2.8864362
29.67924623991366	6.228652	2.4957268
29.697378115800138	4.8136215	2.1939967
29.71551075235387	4.021999	2.0054922
29.733644150124675	3.7247946	1.9299726
29.751778309662576	3.4982536	1.8703619
29.769913231517766	3.3708758	1.8359945
29.78804891624066	3.3597984	1.8329753
29.806185364381818	3.3474548	1.8296051
29.82432257649206	3.3162575	1.8210595
29.842460553122333	3.2842138	1.81224
29.86059929482382	3.2613885	1.8059314
29.878738802147872	3.193377	1.7870022
29.896879075646048	3.1288652	1.7688599
29.915020115870114	3.1181915	1.7658402
29.933161923371976	3.1570075	1.7767969
29.951304498703777	3.2202985	1.7945191
29.969447842417857	3.2337704	1.7982687
29.987591955066733	3.1642942	1.7788464
30.005736837203123	3.1037393	1.7617432
30.023882489379943	3.1159317	1.7652003
30.04202891215028	3.0585334	1.7488663
30.060176106067455	3.0254352	1.7393779
30.078324071684946	3.036083	1.7424359
30.09647280955646	3.036662	1.7426021
30.114622320235863	3.0465753	1.7454442
30.132772604277257	3.045864	1.7452404
30.1509236622349	3.0595853	1.7491671
30.16907549466328	3.0072224	1.7341344
30.18722810211705	3.029255	1.7404755
30.205381485151097	3.0279434	1.7400987
30.22353564432045	3.0087578	1.7345772
30.241690580180403	2.9738278	1.724479
30.25984629328638	3.0346725	1.7420311
30.278002784194037	2.9566224	1.7194831
30.296160053459246	2.9101202	1.7059075
30.314318101638033	2.930703	1.7119296
30.332476929286646	2.9053333	1.7045038
30.35063653696153	2.8925984	1.7007641
30.368796925219307	2.8841448	1.698277
30.386958094616844	2.824353	1.6805811
30.40512004571115	2.859022	1.6908642
30.423282779059463	2.8978183	1.7022979
30.441446295219233	2.8532119	1.6891453
30.459610594748067	2.8119388	1.6768837
30.47777567820382	2.8480964	1.6876304
30.495941546144504	2.8631763	1.6920923
30.51410819912835	2.8250868	1.6807995
30.532275637713795	2.8005495	1.6734842
30.55044386245946	2.801485	1.6737638
30.56861287392416	2.7377665	1.6546197
30.586782672666956	2.679434	1.6368977
30.604953259247047	2.6668668	1.6330544
30.623124634223885	2.6627328	1.6317883
30.641296798157075	2.680222	1.6371384
30.659469751606462	2.7533388	1.6593188
30.677643495132074	2.7365108	1.6542403
30.695818029294152	2.6921313	1.6407715
30.713993354653116	2.6684968	1.6335534
30.73216947176962	2.655632	1.629611
30.75034638120448	2.6466248	1.626845
30.768524083518756	2.6775682	1.6363276
30.786702579273673	2.720592	1.6494217
30.80488186903069	2.7835577	1.6683997
30.82306195335144	2.8447452	1.6866373
30.841242832797782	2.9447277	1.7160208
30.85942450793176	3.2210004	1.7947146
30.877606979315637	3.5404081	1.8815973
30.895790247511883	3.8268473	1.9562329
30.913974313083134	4.315638	2.0774114
30.932159176592283	4.622781	2.1500652
30.95034483860237	4.6604156	2.1587996
30.968531299676698	4.484494	2.1176624
30.98671856037873	4.141533	2.0350757
31.00490662127215	3.7133763	1.9270123
31.023095482920848	3.4072037	1.8458612
31.04128514588892	3.0583768	1.7488215
31.059475610740662	2.7081697	1.6456517
31.07766687804056	2.535705	1.5923897
31.09585894835335	2.4729195	1.5725518
31.11405182224393	2.3986053	1.5487431
31.132245500277417	2.3290622	1.5261265
31.15043998301914	2.3846788	1.5442406
31.168635271034628	2.4517272	1.5657992
31.18683136488964	2.3838425	1.5439698
31.20502826515008	2.3143313	1.5212927
31.223225972382135	2.2840934	1.5113218
31.241424487152155	2.26074	1.5035758
31.259623810026692	2.270697	1.5068833
31.27782394157253	2.3109832	1.5201918
31.296024882356644	2.2906878	1.5135019
31.314226632946237	2.329051	1.5261229
31.332429193908684	2.4112864	1.5528318
31.350632565811598	2.3992605	1.5489546
31.368836749222787	2.3670428	1.5385196
31.387041744710295	2.4339447	1.5601104
31.40524755284232	2.497115	1.5802262
31.423454174187317	2.463362	1.5695101
31.441661609313922	2.4393325	1.5618362
31.459869858791002	2.43835	1.5615216
31.478078923187628	2.4410853	1.5623974
31.496288803073064	2.3749576	1.5410898
31.514499499016807	2.3047798	1.5181501
31.532711011588546	2.3124526	1.5206751
31.550923341358178	2.4379053	1.5613793
31.56913648889584	2.4320703	1.5595096
31.587350454771844	2.3505898	1.5331633
31.605565239556732	2.322134	1.523855
31.62378084382127	2.35239	1.5337503
31.641997268136382	2.325308	1.5248961
31.660214513073274	2.2900174	1.5132804
31.67843257920331	2.3282616	1.5258642
31.6966514670981	2.3273985	1.5255814
31.71487117732944	2.283747	1.5112071
31.733091710469346	2.246174	1.4987241
31.751313067090052	2.1724	1.4739064
31.769535247764008	2.1989474	1.4828849
31.787758253063878	2.2742212	1.5080521
31.805982083562526	2.3347085	1.5279753
31.824206739833024	2.255896	1.5019641
31.84243222244869	2.19284	1.4808241
31.860658531983013	2.27086	1.5069373
31.878885669009737	2.2621052	1.5040296
31.897113634102784	2.168457	1.4725682
31.91534242783632	2.2596467	1.5032121
31.933572050784694	2.3001592	1.5166276
31.951802503522508	2.2552507	1.5017492
31.970033786624548	2.1167657	1.4549109
31.988265900665834	1.9946141	1.4123081
32.006498846221575	1.9817224	1.4077367
32.02473262386724	2.0688963	1.4383658
32.04296723417845	2.1371293	1.4618924
32.0612026777311	2.1631346	1.4707599
32.07943895510129	2.191551	1.4803888
32.097676066865304	2.189236	1.4796066
32.115914013599685	2.2057204	1.4851668
32.13415279588115	2.2685425	1.5061681
32.152392414286666	2.2344105	1.4947945
32.1706328693934	2.145932	1.4649
32.18887416177875	2.0661347	1.4374056
32.20711629202032	2.0927184	1.4466231
32.225359260695924	2.0538564	1.4331281
32.243603068383614	2.0346556	1.4264135
32.26184771566166	2.0526328	1.4327012
32.28009320310852	2.084596	1.443813
32.2983395313029	2.0533264	1.4329432
32.31658670082372	2.1075644	1.4517453
32.33483471225012	2.109447	1.4523935
32.35308356616143	2.099465	1.448953
32.371333263137245	2.049245	1.4315184
32.38958380375734	2.094272	1.4471599
32.407835188601744	2.094845	1.447358
32.42608741825067	2.0006561	1.4144455
32.444340493284585	1.9161336	1.3842448
32.46259441428416	1.9815474	1.4076744
32.48084918183028	2.0038307	1.4155673
32.49910479650405	2.039827	1.4282252
32.51736125888683	2.0879188	1.4449632
32.53561856956014	2.1566522	1.4685545
32.5538767291058	2.1275456	1.4586109
32.572135738105764	2.1226826	1.4569429
32.59039559714228	2.0991106	1.4488307
32.608656306797776	2.0474665	1.4308971
32.62691786765491	1.9716182	1.4041432
32.645180280296586	2.031514	1.4253119
32.663443545305896	1.9996043	1.4140737
32.68170766326619	1.9548078	1.3981444
32.69997263476099	1.9505491	1.3966206
32.7182384603741	1.9836435	1.4084188
32.7365051406895	2.0008752	1.414523
32.75477267629144	2.0208006	1.4215486
32.77304106776434	1.9622699	1.4008105
32.79131031569289	1.9554839	1.3983862
32.809580420661966	1.9483361	1.3958281
32.827851383256714	1.9672945	1.4026028
32.84612320406245	1.9561104	1.3986101
32.86439588366476	1.974471	1.4051588
32.88266942264945	1.9679154	1.402824
32.9009438216025	1.9397936	1.3927647
32.9192190811102	1.9432126	1.3939916
32.937495201758985	1.9754739	1.4055156
32.95577218413556	1.9988698	1.413814
32.974050028826866	1.9379728	1.392111
32.992328736420035	1.89916	1.3781002
33.010608307502444	1.857789	1.3630073
33.02888874266169	1.8164743	1.3477664
33.047170042485604	1.8105315	1.34556
33.06545220756225	1.8957242	1.376853
33.083735238479896	1.9269732	1.3881546
33.10201913582707	1.919484	1.3854544
33.12030390019248	1.9478246	1.3956449
33.138589532165135	1.9430636	1.3939382
33.15687603233419	1.8683492	1.3668756
33.17516340128909	1.8357668	1.3549048
33.19345163961947	1.8501632	1.3602071
33.211740747915215	1.8898649	1.3747236
33.23003072676643	1.9770771	1.4060857
33.248321576763466	1.9943136	1.4122016
33.266613298496885	1.9680922	1.4028871
33.28490589255747	1.9916766	1.4112678
33.30319935953626	1.9388634	1.3924308
33.32149370002451	1.8190957	1.3487386
33.339788914613706	1.811781	1.3460242
33.358085003895575	1.8264778	1.3514725
33.376381968462034	1.8023064	1.3425001
33.39467980890529	1.824784	1.3508457
33.41297852581774	1.984888	1.4088606
33.43127811979204	1.9803144	1.4072365
33.44957859142105	1.93317	1.3903848
33.467879941297866	1.8447949	1.3582323
33.486182170015844	1.8722723	1.36831
33.50448527816853	2.0031495	1.4153266
33.522789266349754	2.0364997	1.4270598
33.541094135153514	1.9055195	1.3804055
33.55939988517411	1.8673525	1.3665111
33.57770651700602	1.9168777	1.3845135
33.59601403124398	1.9662957	1.4022467
33.61432242848296	1.9167312	1.3844607
33.632631709318154	1.9211804	1.3860666
33.650941874344994	1.9996067	1.4140745
33.66925292415916	2.0851154	1.4439929
33.68756485935654	2.0744615	1.440299
33.70587768053328	1.9699435	1.4035468
33.724191388285746	1.9087489	1.3815747
33.74250598321054	1.9040073	1.3798577
33.760821465904506	1.9687598	1.403125
33.77913783696474	2.007242	1.4167717
33.79745509698852	1.9489363	1.3960431
33.815773246573414	1.9000905	1.3784376
33.8340922863172	1.9093177	1.3817806
33.852412216817896	1.9742846	1.4050924
33.87073303867377	2.0365968	1.4270939
33.889054752483304	2.0342069	1.4262563
33.907377358845245	1.9505106	1.3966068
33.92570085835853	1.964083	1.4014574
33.94402525162239	2.037787	1.4275107
33.96235053923627	2.0425098	1.429164
33.980676721799824	1.9859083	1.4092226
33.999003799912984	1.9368602	1.3917112
34.01733177417592	2.039003	1.4279366
34.03566064518901	2.1371663	1.461905
34.0539904135529	2.078173	1.441587
34.07232107986846	1.9064417	1.3807396
34.090652644736785	1.857394	1.3628625
34.108985108759235	1.8299657	1.3527622
34.12731847253742	1.855441	1.3621458
34.14565273667313	1.8548225	1.3619187
34.16398790176847	1.8564513	1.3625165
34.18232396842574	1.854741	1.3618888
34.20066093724749	1.9179338	1.3848948
34.21899880883651	1.9626911	1.4009608
34.23733758379583	1.8750383	1.3693204
34.25567726272874	1.8745097	1.3691274
34.27401784623872	1.9051447	1.3802698
34.29235933492957	1.9118412	1.3826934
34.31070172940526	1.9331541	1.3903791
34.32904503027003	1.9219939	1.3863599
34.347389238128386	1.8446585	1.3581821
34.36573435358502	1.8838749	1.3725432
34.38408037724492	1.9657844	1.4020643
34.402427309713296	1.9207178	1.3858997
34.42077515159559	1.8074723	1.3444227
34.43912390349752	1.8353075	1.3547353
34.45747356602499	1.7317281	1.3159513
34.47582413978423	1.6621333	1.2892375
34.49417562538163	1.8473418	1.3591695
34.51252802342388	1.9522805	1.3972403
34.53088133451789	1.8476458	1.3592813
34.54923555927084	1.7634668	1.3279558
34.567590698290104	1.8705183	1.367669
34.58594675218336	1.8648144	1.3655821
34.6043037215585	1.9037749	1.3797735
34.62266160702365	1.9372237	1.3918418
34.641020409187234	1.9221263	1.3864077
34.65938012865785	1.7798746	1.3341194
34.677740766044394	1.7903721	1.3380479
34.69610232195598	1.8091185	1.3450347
34.714464797002016	1.7079638	1.3068908
34.73282819179208	1.7113708	1.3081937
34.751192506936064	1.7223839	1.3123962
34.76955774304408	1.7467458	1.3216451
34.7879239007265	1.8310324	1.3531564
34.80629098059391	1.8252158	1.3510054
34.824658983257194	1.8633068	1.3650299
34.843027909327446	1.9211112	1.3860415
34.86139775941603	1.9089388	1.3816435
34.879768534134534	2.0202982	1.4213719
34.89814023409483	1.9343642	1.3908142
34.91651285990901	1.9897959	1.4106013
34.93488641218944	2.0514271	1.4322804
34.95326089154871	1.924278	1.3871834
34.97163629859967	1.7942522	1.339497
34.99001263395542	1.9697211	1.4034675
35.00838989822934	2.042058	1.429006
35.02676809203499	1.9294407	1.3890431
35.04514721598624	1.8874748	1.373854
35.063527270697215	1.969944	1.4035469
35.081908256782256	1.894167	1.3762873
35.10029017485597	1.7428076	1.3201544
35.11867302553321	1.772681	1.3314207
35.137056809429104	1.9683437	1.4029768
35.155441527159006	1.8951418	1.3766415
35.173827179338524	1.7333488	1.3165671
35.19221376658354	1.7126836	1.3086953
35.21060128951017	1.7168045	1.3102689
35.2289897487348	1.7665108	1.3291016
35.24737914487405	1.7563068	1.3252573
35.26576947854479	1.9000511	1.3784235
35.28416075036418	1.9740512	1.4050094
35.30255296094958	1.826035	1.3513086
35.32094611091867	1.7911034	1.3383211
35.33934020088932	1.9949017	1.4124099
35.35773523147969	2.1120484	1.4532888
35.3761312033082	2.0406902	1.4285272
35.394528116993506	1.9021189	1.3791733
35.41292597315452	1.8665047	1.3662008
35.431324772410434	1.8120251	1.3461148
35.449724515380666	1.9328784	1.39028
35.46812520268491	2.4761891	1.5735911
35.486526834943106	2.6140382	1.6167988
35.504929412775454	2.0681188	1.4380956
35.52333293680242	1.7230018	1.3126316
35.54173740764471	1.4960723	1.2231404
35.560142825923286	1.3091271	1.1441709
35.5785491922594	1.1726998	1.0829127
35.59695650727454	1.2645262	1.1245116
35.61536477159042	1.8569168	1.3626873
