0.008763373481513119	0.0	0.0
0.026290120649546365	0.0	0.0
0.043816868432600686	0.03550094	0.18841693
0.06134361724069026	0.093738414	0.3061673
0.07887036748382949	0.16071567	0.4008936
0.0963971195720331	0.20038782	0.44764698
0.11392387391531617	0.15111051	0.38872936
0.1314506309236943	0.08705433	0.2950497
0.1489773910071836	0.042748477	0.20675705
0.16650415457580078	0.052950066	0.23010881
0.18403092203956356	0.08696565	0.2948994
0.20155769380849	0.117594704	0.34292084
0.2190844702925996	0.09658835	0.31078666
0.2366112519019124	0.09523413	0.30860028
0.2541380390464497	0.07092815	0.2663234
0.27166483213623416	0.14320998	0.37843093
0.28919163158128947	0.19829032	0.44529802
0.3067184377916406	0.20751175	0.45553458
0.324245251177314	0.2181796	0.46709698
0.34177207214833777	0.25273216	0.5027247
0.3592989011147415	0.21671009	0.4655213
0.37682573848655654	0.21282761	0.46133244
0.39435258467381573	0.1587255	0.3984037
0.41187944008655414	0.17731337	0.42108595
0.42940630513480854	0.20794359	0.45600832
0.446933180228618	0.17304884	0.4159914
0.4644600657780234	0.17120187	0.4137655
0.48198696219306775	0.16604568	0.40748703
0.49951386988379676	0.15845427	0.39806315
0.5170407892602581	0.16871452	0.41074872
0.5345677207325025	0.14195172	0.3767648
0.5520946647105822	0.13262245	0.36417365
0.5696216216045534	0.09888037	0.3144525
0.5871485918244737	0.11400334	0.3376438
0.6046755757804043	0.10569932	0.3251143
0.6222025738824094	0.1515794	0.389332
0.6397295865405557	0.17713371	0.42087257
0.6572566141649129	0.1882741	0.43390563
0.6747836571655547	0.17849666	0.42248866
0.6923107159525568	0.15386285	0.39225355
0.7098377909359992	0.17356084	0.41660634
0.7273648825259653	0.18696521	0.43239474
0.7448919911325411	0.20597064	0.4538399
0.762419117165817	0.17800702	0.4219088
0.7799462610358868	0.17150979	0.4141374
0.7974734231528482	0.17345889	0.41648397
0.8150006039268024	0.1862541	0.43157166
0.8325278037678551	0.15466408	0.39327356
0.8500550230861152	0.18394434	0.42888734
0.8675822622916969	0.18709135	0.43254057
0.8851095217947171	0.21143416	0.4598197
0.9026368020052984	0.22103193	0.47014034
0.9201641033335665	0.20197861	0.4494203
0.9376914261896523	0.18623236	0.43154648
0.9552187709836915	0.1979793	0.44494864
0.9727461381258234	0.23523773	0.48501313
0.990273528026193	0.30677804	0.5538755
1.0078009410949496	0.28679377	0.5355313
1.0253283777422473	0.31611723	0.56224304
1.0428558383782454	0.30226782	0.5497889
1.0603833234131086	0.33665204	0.58021724
1.0779108332570058	0.3511615	0.59258884
1.0954383683201119	0.37360334	0.611231
1.112965929012607	0.44482595	0.6669527
1.1304935157446763	0.5680408	0.7536848
1.1480211289265108	0.565249	0.75183046
1.1655487689683062	1.4272221	1.194664
1.1830764362802655	1.7395378	1.3189154
1.200604131272596	2.0572343	1.4343061
1.2181318543555117	2.0985265	1.4486291
1.235659605939232	2.1054327	1.451011
1.253187386433982	3.8564065	1.9637735
1.270715196249994	6.163513	2.4826424
1.2882430357975057	11.261558	3.3558245
1.3057709054867608	15.901853	3.9877126
1.3232988057280106	21.896193	4.6793365
1.3408267369315112	27.139788	5.209586
1.358354699507526	30.835115	5.5529375
1.3758826938663256	34.355526	5.8613586
1.3934107204181858	36.28322	6.0235553
1.410938779573391	36.690086	6.0572343
1.4284668717422309	37.16845	6.0965934
1.4459949973350033	36.46228	6.0384007
1.4635231567620117	36.70468	6.058439
1.4810513504335687	36.06146	6.0051193
1.4985795787599925	35.580666	5.964953
1.5161078421516088	35.303646	5.941687
1.5336361410187505	34.471405	5.8712354
1.5511644757717598	34.098614	5.8394017
1.5686928468209842	34.421043	5.866945
1.58622125457678	35.06478	5.921552
1.6037496994495108	36.569054	6.047235
1.621278181849548	36.743645	6.0616536
1.6388067021872719	37.995804	6.1640735
1.6563352608730693	37.43654	6.118541
1.673863858317336	36.306763	6.0255094
1.6913924949304753	35.359634	5.946397
1.7089211711228998	34.072834	5.837194
1.7264498873050296	33.536278	5.7910514
1.7439786438872935	32.559612	5.706103
1.7615074412801288	31.360859	5.6000767
1.779036279893981	30.496193	5.522336
1.796565160139305	29.75718	5.455014
1.814094082426564	29.301563	5.4130917
1.8316230471662298	28.597557	5.347668
1.849152054768784	27.750643	5.267888
1.8666811056447168	27.243881	5.2195673
1.8842102002045273	26.47417	5.1453056
1.901739338858724	26.007547	5.0997596
1.9192685220178245	25.253815	5.025317
1.9367977500923557	24.581762	4.9579997
1.9543270234928547	24.14427	4.913682
1.971856342629867	23.505167	4.8482127
1.9893857079139496	22.916164	4.787083
2.006915119755667	22.214527	4.713229
2.0244445785655945	21.82532	4.6717577
2.0419740847543175	21.259941	4.6108503
2.0595036387324317	21.137865	4.5975933
2.0770332409105414	20.76769	4.557158
2.094562891699263	20.595064	4.5381784
2.1120925915092217	19.886534	4.459432
2.129622340751053	19.4746	4.4130034
2.1471521398354043	187.3937	13.689182
2.1646819891729323	443.83984	21.067507
2.182211889174303	440.2936	20.983175
2.1997418402501974	452.7008	21.276768
2.2172718428113023	432.48022	20.79616
2.234801897268317	320.3138	17.897312
2.2523320040319548	16.71924	4.088917
2.269862163512935	16.56708	4.0702677
2.287392376121992	16.47582	4.059042
2.304922642269869	16.278349	4.0346437
2.322452962367322	16.139149	4.017356
2.3399833368251164	15.741768	3.9675896
2.357513766054032	15.40742	3.9252286
2.3750442504648586	14.839098	3.852155
2.3925747904683963	14.531912	3.8120744
2.410105386475459	14.365913	3.7902393
2.4276360388968707	14.09139	3.75385
2.445166748143469	13.946899	3.7345548
2.4626975146261025	13.715321	3.7034202
2.4802283387556323	13.58794	3.6861823
2.4977592209429305	13.38275	3.6582441
2.5152901615988825	13.117308	3.6217823
2.5328211611343865	12.836115	3.5827525
2.5503522199603523	12.536227	3.5406535
2.5678833384877024	12.335746	3.512228
2.5854145171273712	12.092363	3.4774075
2.6029457562903064	11.9130745	3.4515321
2.620477056387469	11.879737	3.4466994
2.6380084178298326	11.650205	3.4132397
2.655539841028383	11.363572	3.3709898
2.673071326394119	11.176259	3.3430912
2.6906028743380523	10.956577	3.3100722
2.708134485271211	10.801745	3.2866008
2.7256661596046325	10.617705	3.258482
2.743197897749369	10.316915	3.2119954
2.760729700116486	10.1574745	3.1870792
2.778261567117063	10.011561	3.1641052
2.795793499162193	9.9544525	3.1550677
2.8133254966629817	9.868639	3.141439
2.830857560030551	9.732762	3.1197376
2.8483896896760337	9.678737	3.1110668
2.865921886010578	9.555959	3.0912714
2.883454149445347	9.325083	3.0536997
2.9009864803915177	9.073533	3.0122306
2.91851887926028	8.902701	2.9837396
2.9360513464628384	8.850988	2.9750612
2.953583882410413	8.778902	2.9629211
2.9711164875142373	8.769245	2.961291
2.9886491621855606	8.718207	2.952661
3.0061819068356455	8.558451	2.925483
3.023714721875769	8.435676	2.9044235
3.041247607717225	8.24737	2.8718233
3.0587805647713213	8.196969	2.863035
3.0763135934493806	8.045652	2.8364859
3.0938466941627407	8.049553	2.8371735
3.1113798673227544	8.10767	2.847397
3.1289131133407904	8.104332	2.8468108
3.1464464326282315	7.9559903	2.8206365
3.1639798255964786	7.7221785	2.7788808
3.1815132926569443	7.524629	2.7431056
3.1990468342210603	7.5207906	2.742406
3.216580450700272	7.546562	2.7471006
3.2341141425060416	7.4554515	2.7304673
3.251647910049847	7.27479	2.697182
3.2691817537431813	7.0654716	2.6580956
3.286715673997555	6.946477	2.635617
3.3042496712244938	6.8646917	2.6200557
3.32178374583554	6.699064	2.588255
3.339317898242251	6.6924887	2.5869844
3.3568521288562034	6.6476326	2.5783002
3.3743864380889876	6.6035905	2.5697453
3.3919208263522127	6.5544534	2.5601666
3.4094552940575023	6.533777	2.5561254
3.4269898416164972	6.4939375	2.5483205
3.444524469440858	6.4413085	2.5379734
3.4620591779422587	6.4058356	2.5309753
3.479593967532391	6.441499	2.5380108
3.4971288386229658	6.4529104	2.540258
3.5146637916257086	6.373828	2.5246441
3.5321988269523628	6.331607	2.5162685
3.5497339450146903	6.222637	2.4945214
3.5672691462244708	6.208234	2.4916327
3.5848044309934988	6.2240405	2.4948027
3.60233979973359	6.1645164	2.4828444
3.619875252856575	6.1162896	2.4731133
3.6374107907743034	6.0637245	2.4624631
3.6549464138986427	6.1310215	2.47609
3.6724821226414788	6.33374	2.5166924
3.690017917414714	6.4135327	2.5324953
3.7075537986302702	6.4384656	2.5374131
3.7250897667000857	6.424372	2.5346346
3.7426258220361235	6.5749097	2.5641587
3.7601619650503553	6.805344	2.6087055
3.777698196154779	7.3182917	2.705234
3.7952345157614067	8.28153	2.877765
3.8127709242822716	9.001862	3.0003102
3.830307422129425	11.225567	3.3504577
3.847844009714936	12.618142	3.5522025
3.8653806874508954	16.135468	4.0168977
3.882917455749409	15.705603	3.9630294
3.900454315022606	15.664935	3.9578953
3.917991265682631	12.494883	3.53481
3.9355283081416506	10.56916	3.2510245
3.9530654428118495	8.518057	2.918571
3.970602670105433	7.435886	2.726882
3.9881399904346244	6.659651	2.5806298
4.005677404211669	6.5132113	2.5520995
4.023214911848827	6.4130588	2.5324018
4.0407525137583855	6.370852	2.5240548
4.058290210352644	6.3111606	2.5122023
4.075828002043927	6.246333	2.4992666
4.0933658892445814	6.19499	2.4889736
4.110903872366966	6.123835	2.4746385
4.128441951823468	6.1088667	2.4716122
4.145980128026488	6.1617494	2.4822872
4.163518401388452	6.1435804	2.4786248
4.181056772321807	6.197413	2.4894605
4.1985952412390155	6.093863	2.468575
4.216133808552567	6.072825	2.4643102
4.233672474674966	6.1059403	2.47102
4.251211240018741	6.2700443	2.5040057
4.268750104996445	6.4739733	2.5444005
4.286289070020643	7.4390173	2.727456
4.303828135503928	9.153841	3.0255315
4.3213673018589125	29.50837	5.432161
4.3389065694982305	90.75498	9.526541
4.356445938834537	165.88647	12.879692
4.3739854102805085	171.10634	13.080762
4.391524984248844	172.00198	13.114953
4.409064661152262	136.025	11.662975
4.426604441403504	96.34889	9.815747
4.444144325415337	75.5578	8.692399
4.461684313600543	21.700403	4.658369
4.47922440637193	22.035131	4.6941595
4.496764604142329	20.299294	4.5054736
4.5143049073245916	18.204857	4.266715
4.531845316331589	16.051855	4.006477
4.5493858315762195	13.086672	3.6175506
4.566926453471405	10.921379	3.304751
4.584467182430081	9.061512	3.0102346
4.602008018865218	8.054996	2.8381324
4.619548963189798	7.424904	2.7248676
4.637090015816834	6.8596716	2.6190975
4.654631177159353	6.620144	2.572964
4.672172447630417	6.351745	2.5202668
4.689713827643102	6.2074685	2.4914792
4.7072553176105085	5.965556	2.4424489
4.724796917945764	5.795113	2.407304
4.742338629062015	5.67102	2.3813903
4.759880451372434	5.7527127	2.3984814
4.777422385290215	5.8264265	2.4137993
4.794964431228581	5.8371544	2.4160204
4.812506589600768	5.736722	2.3951454
4.830048860820047	5.6389737	2.3746524
4.847591245299709	5.577995	2.3617778
4.8651337434530655	5.5288043	2.351341
4.882676355693457	5.5208445	2.3496478
4.900219082434242	5.5507603	2.3560052
4.917761924088813	5.4776783	2.340444
4.935304881070575	5.464016	2.3375235
4.952847953792969	5.4605784	2.3367882
4.970391142669449	5.4866123	2.342352
4.9879344481135055	5.4989634	2.344987
5.005477870538642	5.4057155	2.3250194
5.023021410358394	5.4035378	2.324551
5.040565067986324	5.3798323	2.3194466
5.05810884383601	5.357518	2.3146312
5.075652738321066	5.3808274	2.3196611
5.09319675185512	5.4574013	2.3361082
5.110740884851836	5.4868717	2.3424072
5.128285137724894	5.462723	2.337247
5.145829510888007	5.3366575	2.3101206
5.163374004754908	5.2560225	2.2926016
5.1809186197393595	5.147045	2.26871
5.198463356255145	5.169439	2.27364
5.216008214716077	5.18171	2.276337
5.233553195535998	5.190858	2.2783453
5.251098299128764	5.1507635	2.2695293
5.268643525908272	5.14432	2.2681093
5.286188876288432	5.1779027	2.2755005
5.3037343506831895	5.2062235	2.281715
5.32127994950651	5.1931458	2.2788475
5.3388256731723915	5.2235546	2.2855096
5.356371522094851	5.2116804	2.2829106
5.373917496687938	5.1362114	2.2663212
5.391463597365729	5.0668616	2.250969
5.40900982454232	5.0680075	2.2512236
5.426556178631843	5.137832	2.2666786
5.444102660048449	5.2204933	2.2848399
5.4616492692063225	5.299865	2.3021436
5.479196006519669	5.2698026	2.295605
5.496742872402727	5.228234	2.286533
5.514289867269756	5.1026487	2.2589042
5.531836991535049	5.09763	2.2577932
5.549384245612924	5.1105947	2.2606626
5.566931629917724	5.1468687	2.268671
5.584479144863822	5.1769886	2.2752998
5.6020267908656205	5.201486	2.2806766
5.619574568337545	5.241455	2.2894225
5.637122477694054	5.225765	2.2859933
5.654670519349629	5.2690234	2.2954354
5.672218693718784	5.241424	2.2894156
5.689767001216059	5.173406	2.2745123
5.707315442256021	5.075581	2.2529051
5.724864017253266	5.0322747	2.2432733
5.7424127266224225	5.028487	2.2424288
5.75996157077814	5.0708528	2.2518554
5.777510550135105	5.137253	2.2665508
5.795059665108022	5.1826262	2.2765381
5.812608916111639	5.2608895	2.293663
5.830158303560715	5.3151245	2.3054554
5.847707827870055	5.286624	2.2992659
5.86525748945448	5.3096166	2.3042605
5.8828072887288485	5.4451714	2.3334892
5.900357226108044	5.5554543	2.357001
5.917907302006979	5.6357613	2.3739758
5.9354575168406	6.2659245	2.503183
5.9530078710238765	6.8463974	2.6165621
5.970558364971812	7.359372	2.7128162
5.988108999099438	7.677252	2.7707853
6.005659773821818	8.221305	2.867282
6.023210689554039	8.02491	2.832827
6.040761746711227	8.449656	2.906829
6.058312945708531	7.7938867	2.7917533
6.075864286961132	7.304376	2.702661
6.093415770884244	6.651311	2.5790136
6.1109673978931065	6.069845	2.4637055
6.128519168402993	5.5143266	2.3482604
6.146071082829204	5.379569	2.3193898
6.163623141587075	5.277206	2.297217
6.181175345091969	5.2003155	2.28042
6.198727693759281	5.112765	2.2611425
6.216280188004435	5.11943	2.2626157
6.233832828242885	5.049591	2.2471294
6.251385614890126	5.016915	2.239847
6.268938548361669	4.9509463	2.2250721
6.286491629073067	4.926113	2.2194848
6.304044857439898	4.979375	2.2314513
6.321598233877777	4.957259	2.2264903
6.339151758802344	4.9372325	2.2219884
6.356705432629277	4.9232683	2.218844
6.37425925577428	4.878924	2.2088287
6.391813228653095	4.871906	2.2072394
6.409367351681486	4.7809043	2.186528
6.426921625275259	4.7966585	2.1901276
6.44447604985025	4.8382025	2.1995914
6.46203062582232	4.9587235	2.226819
6.47958535360737	4.9927745	2.2344518
6.497140233621328	5.0339174	2.2436392
6.514695266280161	4.995171	2.234988
6.532250451999859	5.026743	2.24204
6.549805791196454	4.984051	2.232499
6.567361284286002	5.0110974	2.238548
6.584916931684597	4.9627438	2.2277217
6.602472733808367	4.9697003	2.2292824
6.6200286910734665	4.96615	2.228486
6.637584803896092	4.9433246	2.2233589
6.655141072692462	4.895433	2.2125626
6.672697497878842	4.851431	2.2025964
6.690254079871514	4.8655396	2.2057967
6.707810819086808	4.8304477	2.197828
6.725367715941078	4.8647795	2.2056246
6.742924770850719	4.869048	2.206592
6.760481984232151	4.9051433	2.2147558
6.778039356501836	4.9111032	2.216101
6.795596888076266	4.8919024	2.2117646
6.813154579371963	4.934873	2.2214575
6.830712430805492	4.927354	2.2197645
6.84827044279344	4.969047	2.229136
6.865828615752445	4.9542136	2.2258062
6.883386950099159	4.9561696	2.2262456
6.900945446250287	4.8876863	2.2108111
6.918504104622553	4.855936	2.2036188
6.936062925632727	4.875086	2.2079597
6.953621909697607	4.9558563	2.2261753
6.971181057234028	5.0891013	2.2559037
6.988740368658859	5.156841	2.2708678
7.006299844389007	5.146503	2.2685905
7.023859484841407	5.18843	2.2778125
7.041419290433036	5.2475433	2.2907517
7.058979261580902	5.4214287	2.328396
7.0765393987020495	5.6578875	2.3786314
7.094099702213559	5.95465	2.440215
7.111660172532549	6.2371793	2.4974346
7.129220810076164	6.565266	2.5622776
7.146781615261595	7.151099	2.6741538
7.16434258850606	7.463158	2.731878
7.181903730226821	7.883583	2.807772
7.1994650408411704	7.932272	2.816429
7.217026520766437	8.030439	2.833803
7.234588170419983	8.285702	2.8784895
7.252149990219215	8.393366	2.8971307
7.269711980581568	8.298699	2.8807464
7.2872741419245175	8.117375	2.8491008
7.304836474665574	7.730529	2.7803829
7.322398979222286	7.402662	2.7207832
7.339961656012233	7.15931	2.6756887
7.357524505453039	6.835173	2.6144164
7.375087527962357	6.5472965	2.5587685
7.392650723957886	6.2435846	2.4987166
7.410214093857353	5.845646	2.417777
7.427777638078528	5.6628795	2.3796806
7.445341357039213	5.505911	2.3464677
7.4629052511572525	5.354987	2.3140845
7.480469320850524	5.2613606	2.2937655
7.498033566536948	5.1482863	2.2689836
7.5155979886344735	5.0480266	2.2467813
7.5331625875610975	5.027392	2.2421846
7.550727363734844	5.06481	2.2505133
7.568292317573788	5.0770617	2.2532337
7.585857449496025	5.127641	2.2644296
7.603422759919705	5.1621327	2.2720327
7.620988249263007	5.163762	2.2723913
7.638553917944147	5.085826	2.2551775
7.656119766381391	4.9830456	2.2322736
7.673685794993023	5.062299	2.2499552
7.691252004197388	5.1470084	2.268702
7.70881839441285	5.1966786	2.2796226
7.726384966057826	5.236409	2.28832
7.743951719550762	5.233716	2.2877316
7.761518655310149	5.249586	2.2911975
7.779085773754511	5.2385874	2.288796
7.796653075302419	5.1772294	2.2753525
7.814220560372475	5.1961184	2.2794995
7.831788229383323	5.182874	2.2765927
7.8493560827536495	5.2351284	2.2880404
7.866924120902174	5.298007	2.30174
7.884492344247663	5.3568635	2.3144898
7.9020607532089135	5.3658524	2.316431
7.919629348204771	5.314516	2.3053234
7.937198129654115	5.2922707	2.3004935
7.954767097975865	5.31553	2.3055432
7.972336253588986	5.396459	2.323028
7.989905596912472	5.458416	2.3363254
8.007475128365371	5.4601026	2.3366861
8.025044848366756	5.4258885	2.3293536
8.042614757335754	5.527684	2.3511028
8.060184855691523	5.570505	2.3601918
8.07775514385327	5.6615644	2.3794043
8.095325622240228	5.673676	2.381948
8.112896291271687	5.707211	2.388977
8.130467151366968	5.693001	2.386001
8.148038202945436	5.7292256	2.3935802
8.165609446426497	5.776433	2.4034212
8.183180882229594	5.842871	2.4172032
8.200752510774217	5.8133407	2.411087
8.218324332479893	5.8356066	2.4157
8.235896347766193	5.883985	2.4256928
8.253468557052724	5.980257	2.4454565
8.27104096075914	6.007873	2.4510963
8.288613559305137	5.9926534	2.4479897
8.306186353110448	6.0869555	2.4671757
8.32375934259485	6.2259517	2.4951856
8.341332528178162	6.2664437	2.5032866
8.358905910280246	6.2932954	2.508644
8.376479489321003	6.1757174	2.485099
8.394053265720377	6.154942	2.4809155
8.411627239898356	6.0720377	2.4641504
8.42920141227497	6.111999	2.4722457
8.44677578327029	6.152452	2.4804137
8.464350353304427	6.1539817	2.480722
8.48192512279754	6.185777	2.4871223
8.499500092169827	6.163202	2.4825797
8.51707526184153	6.1310825	2.4761024
8.534650632232934	6.147689	2.4794533
8.552226203764365	6.118343	2.4735284
8.569801976856192	6.1558466	2.481098
8.587377951928834	6.141048	2.478114
8.60495412940274	6.08481	2.4667406
8.622530509698416	6.1081343	2.471464
8.6401070932364	6.2354293	2.4970841
8.657683880437283	6.390404	2.5279248
8.675260871721695	6.6489425	2.5785544
8.692838067510303	6.7963443	2.6069798
8.710415468223834	6.8954377	2.6259165
8.727993074283043	6.938438	2.6340914
8.745570886108737	6.9705515	2.64018
8.763148904121765	7.0957913	2.6637926
8.78072712874302	7.155785	2.67503
8.798305560393441	7.4344893	2.726626
8.815884199494006	7.517439	2.7417948
8.833463046465745	7.6783066	2.7709758
8.851042101729728	7.695774	2.7741258
8.86862136570707	8.029889	2.833706
8.886200838818924	8.23059	2.8689005
8.903780521486505	8.368048	2.892758
8.921360414131055	8.5136175	2.9178104
8.938940517173874	8.623849	2.936639
8.956520831036297	8.769328	2.9613051
8.97410135613971	9.016326	3.0027196
8.99168209290554	9.079725	3.0132582
9.009263041755265	9.361889	3.0597203
9.026844203110405	9.583235	3.09568
9.044425577392525	9.781879	3.1275997
9.062007165023239	9.901573	3.1466765
9.079588966424197	10.126051	3.1821456
9.097170982017108	10.217612	3.1965
9.11475321222372	11.193136	3.3456144
9.132335657465825	12.139733	3.484212
9.149918318165264	12.282013	3.5045702
9.167501194743924	12.997527	3.6052084
9.18508428762374	12.676467	3.5604026
9.202667597226693	12.616126	3.5519187
9.220251123974803	12.137444	3.4838834
9.237834868290143	11.835985	3.4403467
9.255418830594836	11.764156	3.4298916
9.273003011311046	11.286506	3.3595395
9.290587410860985	10.9722185	3.312434
9.308172029666911	10.249225	3.201441
9.32575686815113	9.956009	3.1553144
9.343341926735997	8.645856	2.9403837
9.360927205843916	8.511104	2.9173796
9.378512705897327	8.303981	2.8816628
9.396098427318728	8.039998	2.835489
9.413684370530664	7.9302125	2.8160634
9.431270535955722	7.801391	2.793097
9.448856924016539	7.82459	2.797247
9.466443535135806	7.738371	2.7817926
9.484030369736251	7.7268724	2.7797253
9.501617428240658	7.668192	2.76915
9.519204711071852	7.661642	2.7679672
9.536792218652714	7.6457	2.765086
9.55437995140617	7.727723	2.7798781
9.571967909755191	7.831184	2.7984252
9.589556094122802	7.8854437	2.8081033
9.60714450493207	7.9022493	2.811094
9.624733142606116	7.871919	2.805694
9.642322007568108	7.9791856	2.8247452
9.659911100241267	8.104569	2.8468525
9.677500421048851	8.111572	2.8480823
9.695089970414175	8.076724	2.8419578
9.712679748760609	8.016928	2.831418
9.730269756511557	8.027594	2.8333008
9.747859994090492	7.9823627	2.8253076
9.765450461920915	7.9971733	2.8279274
9.78304116042639	8.066059	2.8400807
9.800632090030527	8.158909	2.8563805
9.81822325115699	8.210498	2.8653967
9.835814644229481	8.199433	2.8634653
9.853406269671762	8.153989	2.855519
9.870998127907646	8.203674	2.8642056
9.888590219360985	8.278972	2.8773203
9.906182544455698	8.328543	2.8859215
9.923775103615734	8.335704	2.887162
9.941367897265108	8.319127	2.8842897
9.958960925827878	8.385604	2.8957908
9.97655418972816	8.347952	2.8892822
9.994147689390106	8.265849	2.8750389
10.011741425237934	8.148081	2.8544843
10.029335397695904	8.143515	2.8536844
10.04692960718833	8.179586	2.8599975
10.06452405413958	8.214875	2.8661604
10.082118738974064	8.244476	2.8713195
10.099713662116246	8.205008	2.8644385
10.117308823990651	8.102416	2.8464744
10.134904225021844	8.098038	2.845705
10.152499865634445	8.063276	2.8395908
10.170095746253125	8.078172	2.8422124
10.18769186730261	8.009703	2.8301418
10.205288229207675	8.051118	2.837449
10.222884832393145	8.039973	2.8354847
10.2404816772839	8.093335	2.8448787
10.258078764304868	8.065129	2.8399172
10.275676093881035	7.9959564	2.8277123
10.293273666437438	7.9932256	2.8272293
10.310871482399158	8.060621	2.8391232
10.32846954219134	8.115846	2.8488324
10.346067846239173	8.068412	2.840495
10.363666394967908	8.053644	2.8378944
10.38126518880283	8.074971	2.8416493
10.398864228169298	8.158902	2.8563793
10.416463513492713	8.179276	2.8599434
10.434063045198531	8.135349	2.8522534
10.451662823712262	8.051314	2.837484
10.469262849459467	8.03205	2.8340871
10.486863122865758	7.971563	2.8233957
10.504463644356806	8.003695	2.82908
10.522064414358338	7.956577	2.8207405
10.539665433296118	7.9064436	2.8118398
10.557266701595987	7.91809	2.81391
10.574868219683818	7.814373	2.79542
10.592469987985552	7.7598677	2.7856538
10.610072006927185	7.5906777	2.7551184
10.627674276934751	7.482106	2.735344
10.64527679843435	7.385165	2.717566
10.662879571852143	7.263334	2.6950574
10.680482597614331	7.1426544	2.6725745
10.698085876147173	7.051004	2.6553726
10.715689407876988	6.9033685	2.6274261
10.733293193230146	6.7994804	2.6075814
10.750897232633072	6.620359	2.573006
10.76850152651225	6.514205	2.552294
10.786106075294207	6.4436207	2.5384288
10.803710879405534	6.4098167	2.5317616
10.821315939272877	6.4087515	2.5315511
10.83892125532294	6.324838	2.514923
10.856526827982472	6.3097553	2.5119226
10.874132657678285	6.2550793	2.5010157
10.891738744837243	6.174457	2.4848454
10.909345089886271	6.118728	2.4736063
10.926951693252343	6.1008325	2.4699864
10.944558555362494	6.029328	2.455469
10.96216567664381	5.9473934	2.4387279
10.979773057523436	5.819718	2.412409
10.997380698428573	5.7918596	2.4066284
11.014988599786477	5.7291574	2.393566
11.032596762024461	5.7102923	2.3896217
11.050205185569892	5.6058717	2.3676722
11.067813870850198	5.485738	2.3421652
11.085422818292859	5.414619	2.3269334
11.10303202832541	5.4613633	2.336956
11.120641501375454	5.473737	2.3396018
11.138251237870636	5.418566	2.3277814
11.155861238238671	5.3406596	2.3109868
11.173471502907317	5.230148	2.2869515
11.191082032304402	5.1899805	2.278153
11.208692826857805	5.161595	2.2719142
11.226303886995465	5.1073084	2.2599354
11.243915213145371	5.057474	2.2488828
11.261526805735578	4.956793	2.2263856
11.279138665194196	4.9385505	2.222285
11.296750791949393	4.8974495	2.2130182
11.314363186429393	4.8837476	2.2099202
11.331975849062479	4.8343463	2.1987147
11.34958878027699	4.693808	2.1665199
11.36720198050133	4.6113267	2.1474
11.384815450163948	4.537387	2.1301143
11.402429189693366	4.483448	2.1174154
11.420043199518153	4.438617	2.1068027
11.437657480066942	63.390858	7.961838
11.455272031768422	85.15808	9.228113
11.472886855051353	107.54099	10.370197
11.490501950344528	99.1697	9.958399
11.508117318076819	84.533646	9.194218
11.52573295867715	45.889896	6.774208
11.543348872574514	4.175923	2.0435076
11.560965060197946	4.127907	2.0317252
11.57858152197655	4.111727	2.0277395
11.59619825833949	4.054183	2.0135002
11.613815269715985	4.070607	2.0175745
11.631432556535323	38.55465	6.209239
11.649050119226837	83.09646	9.1157255
11.666667958219929	93.43807	9.666337
11.68428607394406	107.69205	10.377478
11.701904466828756	82.534035	9.084825
11.719523137303586	65.352196	8.08407
11.737142085798196	4.581762	2.140505
11.754761312742286	3.6569674	1.9123199
11.772380818565619	3.626207	1.9042603
11.790000603698015	3.6088157	1.8996884
11.80762066856935	3.6143472	1.9011437
11.825241013609572	3.5444148	1.8826616
11.842861639248683	3.5114298	1.873881
11.860482545916748	3.4946918	1.8694094
11.878103734043883	3.4431002	1.8555592
11.895725204060282	3.389291	1.8410027
11.91334695639619	3.3389764	1.8272866
11.930968991481919	3.331408	1.8252145
11.948591309747824	3.3242104	1.8232417
11.966213911624347	3.3473017	1.8295633
11.98383679754198	3.3598356	1.8329854
12.001459967931268	3.3565676	1.8320938
12.019083423222835	3.3519106	1.8308223
12.036707163847352	3.334717	1.8261207
12.05433119023556	3.2804563	1.811203
12.071955502818259	3.1940417	1.7871882
12.089580102026313	3.1249804	1.7677615
12.107204988290643	3.1251895	1.7678206
12.12483016204224	3.1247022	1.7676827
12.142455623712152	3.142956	1.7728384
12.16008137373149	3.1265502	1.7682054
12.177707412531431	3.0942807	1.7590568
12.19533374054321	3.0498595	1.7463847
12.212960358198126	3.0376363	1.7428817
12.230587265927545	3.048303	1.745939
12.248214464162889	3.0467613	1.7454975
12.265841953335649	3.0030308	1.7329255
12.283469733877375	2.9832876	1.7272196
12.301097806219685	2.947275	1.7167629
12.31872617079425	2.9646506	1.7218161
12.336354828032825	2.9537592	1.7186503
12.353983778367205	2.9182692	1.7082943
12.371613022229262	2.887526	1.6992722
12.389242560050928	2.860204	1.6912137
12.406872392264201	2.8698606	1.6940663
12.424502519301143	2.8791444	1.6968042
12.442132941593874	2.8759866	1.6958734
12.459763659574586	2.8618834	1.6917102
12.477394673675532	2.83693	1.6843189
12.49502598432903	2.799498	1.6731701
12.51265759196746	2.7783124	1.6668271
12.530289497023267	2.7650728	1.6628509
12.547921699928967	2.7657492	1.6630542
12.565554201117134	2.8075795	1.6755834
12.583187001020404	2.8459969	1.6870083
12.600820100071486	2.8533833	1.6891961
12.618453498703152	2.8247652	1.6807038
12.636087197348235	2.781225	1.6677005
12.65372119643964	2.7737248	1.6654503
12.671355496410326	2.7992005	1.6730812
12.68899009769333	2.8655944	1.6928066
12.706625000721749	2.8972743	1.7021382
12.724260205928752	2.9267807	1.7107836
12.741895713747551	2.9191012	1.7085377
12.759531524611454	2.9321258	1.7123451
12.777167638953818	2.928424	1.7112638
12.794804057208072	2.9683874	1.7229009
12.812440779807702	3.0005007	1.7321954
12.830077807186271	3.1227415	1.767128
12.847715139777405	3.1565628	1.7766719
12.865352778014795	3.3424745	1.8282435
12.882990722332197	3.4976625	1.8702039
12.90062897316344	3.5734117	1.890347
12.918267530942412	3.6974056	1.9228638
12.935906396103071	3.5764182	1.891142
12.953545569079449	3.7511857	1.9367977
12.971185050305628	3.569799	1.8893912
12.988824840215775	3.5892487	1.8945312
13.006464939244115	3.639806	1.9078276
13.024105347824943	3.4510584	1.8577025
13.041746066392617	3.5372312	1.8807528
13.05938709538157	3.3426855	1.8283012
13.077028435226296	3.3807628	1.838685
13.094670086361363	3.2997816	1.8165301
13.112312049221401	3.1823967	1.7839273
13.129954324241112	3.0861175	1.7567348
13.147596911855258	2.8973012	1.702146
13.165239812498685	2.8802397	1.6971269
13.182883026606293	2.8225353	1.6800402
13.200526554613058	2.7061074	1.645025
13.218170396954017	2.6204236	1.6187723
13.235814554064284	2.6091747	1.615294
13.253459026379034	2.6625528	1.6317331
13.271103814333523	2.6651483	1.6325282
13.288748918363058	2.6856563	1.6387972
13.306394338903031	2.703947	1.6443683
13.32404007638889	2.6788902	1.6367316
13.341686131256164	2.6631389	1.6319126
13.359332503940449	2.612381	1.6162862
13.376979194877402	2.6145322	1.6169515
13.394626204502751	2.6963336	1.6420517
13.412273533252307	2.7339025	1.6534517
13.429921181561937	2.7179701	1.6486267
13.447569149867581	2.687263	1.6392874
13.465217438605247	2.7019632	1.643765
13.482866048211022	2.6751802	1.6355978
13.500514979121052	2.6383584	1.6243024
13.518164231771568	2.599123	1.6121796
13.535813806598844	2.6006215	1.6126442
13.553463704039254	2.597551	1.611692
13.571113924529229	2.582809	1.607112
13.588764468505275	2.5760736	1.6050152
13.606415336403956	2.6263356	1.6205974
13.624066528661917	2.701868	1.643736
13.641718045715882	2.7797801	1.6672673
13.659369888002635	2.827098	1.6813976
13.67702205595903	2.8878405	1.6993648
13.694674550021993	2.9945455	1.7304755
13.712327370628532	3.0453649	1.7450974
13.729980518215713	3.0964377	1.7596698
13.747633993220681	3.1274405	1.768457
13.765287796080647	3.1692188	1.7802299
13.7829419272329	3.2293608	1.7970423
13.800596387114801	3.280198	1.8111317
13.818251176163775	3.312472	1.8200198
13.835906294817324	3.3478312	1.829708
13.853561743513023	3.3569126	1.8321879
13.871217522688525	3.3706017	1.8359199
13.888873632781538	3.4114995	1.8470244
13.906530074229858	3.4244623	1.8505303
13.92418684747135	3.4430993	1.855559
13.941843952943948	3.4459522	1.8563277
13.959501391085665	3.4431152	1.8555633
13.977159162334578	3.4093482	1.8464421
13.994817267128846	3.3496401	1.8302022
14.012475705906693	3.232531	1.797924
14.030134479106424	3.1472619	1.7740524
14.047793587166414	3.1113822	1.763911
14.065453030525108	3.0587788	1.7489364
14.083112809621026	2.9817743	1.7267815
14.100772924892766	2.9152536	1.7074114
14.118433376778997	2.8844018	1.6983527
14.136094165718458	2.845233	1.6867819
14.153755292149969	2.7953365	1.671926
14.171416756512416	2.689864	1.6400805
14.189078559244768	2.605255	1.6140802
14.20674070078606	2.5628247	1.6008825
14.224403181575408	2.526079	1.5893643
14.242066002051999	2.460383	1.5685608
14.259729162655093	2.4040306	1.5504936
14.277392663824022	2.3563807	1.5350507
14.295056505998208	2.385392	1.5444714
14.312720689617128	2.422112	1.5563136
14.330385215120348	2.4226456	1.556485
14.348050082947497	2.4262905	1.5576555
14.3657152935383	2.415991	1.5543458
14.383380847332528	2.4243474	1.5570316
14.401046744770051	2.4029422	1.5501426
14.418712986290798	2.3665233	1.5383508
14.436379572334793	2.3594518	1.5360507
14.454046503342123	2.36376	1.5374525
14.471713779752946	2.3479645	1.5323069
14.489381402007504	2.3631291	1.5372473
14.507049370546113	2.3868864	1.5449551
14.524717685809168	2.393047	1.5469477
14.542386348237134	2.4001071	1.549228
14.560055358270553	2.387386	1.5451169
14.577724716350051	2.4217353	1.5561925
14.595394422916325	2.4277391	1.5581204
14.61306447841015	2.4449375	1.5636296
14.63073488327237	2.4212866	1.5560484
14.648405637943917	2.4705164	1.5717877
14.6660767428658	2.519517	1.5872986
14.683748198479094	2.566439	1.6020108
14.701420005224954	2.5926073	1.6101575
14.719092163544628	2.6587427	1.6305652
14.73676467387942	2.6955512	1.6418134
14.754437536670727	2.7284317	1.6517965
14.772110752360014	2.6983044	1.6426517
14.78978432138882	2.6608233	1.631203
14.807458244198777	2.6866715	1.6391069
14.82513252123159	2.6987555	1.6427889
14.842807152929028	2.7360435	1.654099
14.860482139732962	2.6916296	1.6406187
14.87815748208531	2.6566727	1.6299303
14.8958331804281	2.651984	1.6284913
14.91350923520342	2.6291153	1.6214547
14.931185646853438	2.626745	1.6207236
14.948862415820408	2.640067	1.6248283
14.966539542546656	2.704189	1.6444418
14.98421702747459	2.7447217	1.6567202
15.001894871046696	2.7499788	1.658306
15.019573073705542	2.717027	1.6483407
15.037251635893766	2.6621265	1.6316024
15.054930558054092	2.6435862	1.6259109
15.072609840629323	2.7126918	1.6470251
15.090289484062351	2.838342	1.6847379
15.107969488796124	2.9832544	1.72721
15.125649855273691	3.162756	1.7784139
15.14333058393817	3.4819813	1.8660067
15.161011675232768	4.013078	2.0032668
15.17869312960076	4.60017	2.1448007
15.196374947485506	5.3096437	2.3042665
15.214057129330447	6.7026596	2.5889494
15.231739675579114	8.912176	2.9853268
15.249422586675102	13.685535	3.6993966
15.267105863062092	18.331964	4.2815843
15.284789505183847	25.700705	5.0695863
15.302473513484218	30.77133	5.547191
15.320157888407127	35.02669	5.918335
15.337842630396578	33.812492	5.814851
15.355527739896656	30.872211	5.556277
15.37321321735153	24.138674	4.9131126
15.39089906320545	16.336054	4.0417886
15.408585277902748	10.401731	3.2251713
15.42627186188783	6.3440256	2.518735
15.443958815605198	4.535684	2.1297145
15.461646139499424	3.6994603	1.9233981
15.479333834015168	3.2463648	1.8017671
15.497021899597165	2.9785352	1.7258433
15.514710336690234	2.7881067	1.6697625
15.53239914573928	2.6566417	1.6299207
15.550088327189297	2.5890381	1.6090488
15.567777881485336	2.5901608	1.6093976
15.58546780907256	2.589315	1.6091348
15.6031581103962	2.5569954	1.5990608
15.620848785901568	2.5189831	1.5871304
15.638539836034063	2.4681785	1.5710437
15.656231261239173	2.4483795	1.5647298
15.673923061962451	2.4225144	1.5564429
15.691615238649552	2.4165351	1.5545208
15.709307791746202	2.403569	1.5503448
15.727000721698221	2.3945832	1.5474441
15.744694028951498	2.3681397	1.5388762
15.76238771395202	2.3967822	1.5481545
15.780081777145844	2.411435	1.5528796
15.797776218979125	2.399311	1.5489709
15.815471039898094	2.4188387	1.5552616
15.833166240349064	2.4767327	1.5737638
15.850861820778437	2.4949355	1.5795364
15.868557781632699	2.509816	1.5842398
15.886254123358412	2.494193	1.5793015
15.903950846402232	2.510847	1.5845653
15.921647951210897	2.5366442	1.5926846
15.939345438231225	2.5581346	1.599417
15.957043307910133	2.5696034	1.6029983
15.974741560694602	2.5801566	1.6062865
15.992440197031714	2.5578122	1.5993161
16.01013921736862	2.5507824	1.597117
16.02783862215259	2.5135453	1.5854164
16.045538411830933	2.5018651	1.5817286
16.06323858685107	2.4972634	1.5802733
16.080939147660512	2.473053	1.5725944
16.09864009470684	2.434419	1.5602624
16.11634142843774	2.413281	1.5534738
16.134043149300954	2.4479046	1.564578
16.15174525774433	2.480424	1.5749362
16.169447754215817	2.4818587	1.5753917
16.18715063916342	2.4732199	1.5726475
16.204853913035244	2.440125	1.5620899
16.222557576279478	2.4253635	1.5573579
16.240261629344403	22.400663	4.732934
16.257966072678386	42.959133	6.554322
16.275670906729868	38.10032	6.1725454
16.293376131947387	2.539755	1.593661
16.31108174877957	2.522233	1.588154
16.328787757675133	2.5168574	1.5864606
16.34649415908287	2.5231912	1.5884556
16.364200953451657	2.547658	1.5961385
16.38190814123048	2.577513	1.6054635
16.39961572286839	2.5914094	1.6097856
16.41732369881455	2.64508	1.6263702
16.43503206951817	2.706884	1.645261
16.45274083542859	2.7479885	1.6577058
16.47044999699522	2.8107734	1.6765361
16.488159554667558	2.8467836	1.6872414
16.505869508895184	2.8646908	1.6925397
16.523579860127786	2.920945	1.7090772
16.541290608815117	3.0034873	1.7330573
16.559001755407035	3.1090646	1.7632539
16.57671330035348	3.215138	1.7930806
16.59442524410448	3.3031552	1.8174584
16.61213758711015	3.4331977	1.8528891
16.629850329820705	3.4648373	1.8614074
16.647563472686436	3.5114765	1.8738934
16.665277016157724	3.5204337	1.8762819
16.682990960685053	3.539334	1.8813118
16.70070530671898	3.5234451	1.8770843
16.718420054710155	3.5176916	1.875551
16.736135205109335	3.540829	1.8817091
16.753850758367335	3.6023924	1.8979969
16.771566714935087	3.6404824	1.9080049
16.789283075263597	3.7074296	1.9254687
16.80699983980398	3.7552667	1.9378511
16.82471700900741	3.8921916	1.9728638
16.84243458332518	3.934621	1.983588
16.860152563208665	3.978344	1.9945786
16.87787094910932	3.998573	1.9996432
16.89558974147871	4.0347676	2.0086732
16.913308940768466	4.1104875	2.0274336
16.931028547430333	4.136007	2.0337174
16.94874856191613	4.190565	2.047087
16.966468984677785	4.2939363	2.0721815
16.98418981616729	4.379595	2.0927482
17.00191105683676	4.4511046	2.109764
17.019632707138374	4.465649	2.1132083
17.03735476752442	4.53657	2.1299226
17.05507723844728	4.551093	2.1333292
17.072800120359403	4.5756245	2.139071
17.090523413713353	4.5555	2.1343617
17.108247118961785	4.5682654	2.13735
17.125971236557437	4.5747323	2.1388624
17.143695766953133	4.6131263	2.147819
17.161420710601806	4.621316	2.1497247
17.179146067956477	4.678565	2.1629992
17.19687183947025	4.679423	2.1631973
17.21459802559634	4.6677203	2.1604908
17.232324626788028	4.591233	2.1427162
17.25005164349871	4.5718117	2.1381795
17.267779076181863	4.53111	2.1286404
17.285506925291074	4.5220237	2.1265051
17.30323519127999	4.487463	2.1183634
17.320963874602384	4.5304384	2.1284826
17.33869297571211	4.540963	2.1309536
17.356422495063114	4.518424	2.1256585
17.37415243310944	4.4964147	2.120475
17.391882790305218	4.4916167	2.1193435
17.40961356710468	4.491376	2.1192865
17.42734476396215	4.5182805	2.1256247
17.445076381332044	4.6101704	2.1471307
17.462808419668868	4.737079	2.1764832
17.48054087942723	4.8718376	2.207224
17.498273761061835	5.0003495	2.2361462
17.51600706502747	5.3146205	2.305346
17.533740791779024	5.846889	2.418034
17.551474941771485	6.663139	2.5813057
17.56920951545993	8.54877	2.923828
17.586944513299528	9.814638	3.1328323
17.60467993574556	12.859376	3.585997
17.622415783253373	15.704037	3.962832
17.64015205627843	18.712784	4.3258276
17.657888755276293	21.134941	4.5972753
17.675625880702604	22.611814	4.755188
17.69336343301311	21.055414	4.588618
17.71110141266366	18.909067	4.348456
17.728839820110178	16.058939	4.0073605
17.746578655808705	12.758965	3.5719693
17.764317920215372	10.632194	3.2607045
17.7820576137864	8.840024	2.9732177
17.79979773697811	7.4047265	2.7211628
17.81753829024692	6.0190907	2.4533834
17.835279274049356	5.284635	2.2988334
17.85302068884201	4.559594	2.1353207
17.870762535081607	4.163187	2.0403888
17.888504813224934	3.9347627	1.9836236
17.90624752372891	3.7657416	1.9405519
17.923990667050536	3.673314	1.9165891
17.941734243646895	3.58458	1.8932987
17.959478253975185	3.537368	1.8807892
17.9772226984927	3.4684422	1.8623754
17.994967577656833	3.401521	1.8443213
18.01271289192506	3.3722618	1.8363719
18.030458641754965	3.3217056	1.8225547
18.04820482760425	3.263015	1.8063817
18.06595144993067	3.2683094	1.8078467
18.083698509192125	3.262595	1.8062655
18.101446005846576	3.2685585	1.8079156
18.119193940352105	3.2361765	1.7989376
18.136942313166887	3.2079265	1.7910686
18.1546911247492	3.1767225	1.7823362
18.1724403755574	3.1367183	1.7710782
18.19019006604997	3.1490612	1.7745595
18.207940196685467	3.1364663	1.7710072
18.225690767922575	3.1631007	1.7785108
18.243441780220046	3.1277356	1.7685405
18.261193234036764	3.129596	1.7690665
18.278945129831676	3.105399	1.7622142
18.29669746806386	3.0417824	1.7440706
18.314450249192483	3.0056684	1.7336863
18.3322034736768	3.0204167	1.7379346
18.349957141976184	3.046975	1.7455586
18.3677112545501	3.0628314	1.7500947
18.385465811858108	3.059326	1.7490929
18.403220814359884	3.0784357	1.7545471
18.420976262515172	3.1202254	1.766416
18.43873215678387	3.1547594	1.7761643
18.456488497625923	3.1804578	1.7833838
18.474245285501407	3.257778	1.8049315
18.492002520870486	3.320519	1.8222291
18.50976020419343	3.3476818	1.8296671
18.527518335930615	3.6091077	1.8997651
18.545276916542516	4.2473226	2.0609033
18.563035946489688	4.466147	2.113326
18.580795426232832	4.8916445	2.2117062
18.598555356232698	4.7355022	2.176121
18.616315736950185	5.0092897	2.2381442
18.63407656884626	4.6456313	2.1553726
18.65183785238201	4.8081737	2.1927547
18.669599588018617	4.6013107	2.1450665
18.68736177621737	4.5966034	2.143969
18.705124417439652	4.5698833	2.1377285
18.72288751214696	4.3651614	2.0892968
18.740651060800886	4.4939647	2.1198974
18.758415063863115	4.269261	2.066219
18.77617952179546	4.4407506	2.1073089
18.793944435059814	4.2240095	2.0552394
18.811709804118184	4.244604	2.0602436
18.829475629432675	4.231682	2.0571053
18.8472419114655	4.0168962	2.0042195
18.86500865067897	4.0667334	2.0166144
18.88277584753551	3.742791	1.9346294
18.90054350249763	3.7836142	1.9451514
18.918311616027957	3.4289038	1.85173
18.936080188589226	3.3022993	1.817223
18.953849220644265	3.0146956	1.736288
18.971618712656007	2.855594	1.6898502
18.9893886650875	2.7849908	1.6688292
19.007159078401887	7.9921894	2.8270462
19.024929953062408	32.933277	5.7387524
19.042701289532435	32.892483	5.735197
19.060473088275405	25.374908	5.037351
19.07824534975489	2.603766	1.6136189
19.096018074434568	2.5797243	1.606152
19.113791262778197	2.601027	1.61277
19.13156491524966	2.618351	1.618132
19.149339032312945	2.612503	1.616324
19.167113614432136	2.6195982	1.6185173
19.184888662071433	2.6091995	1.6153017
19.202664175695123	2.573672	1.6042669
19.220440155767623	2.5279517	1.5899534
19.238216602753447	2.4815865	1.5753052
19.2559935171172	2.4694068	1.5714346
19.27377089932361	2.4975057	1.5803498
19.291548749837514	2.522994	1.5883936
19.309327069123835	2.5072618	1.5834335
19.32710585764763	2.459281	1.5682095
19.344885115874032	2.4603581	1.5685529
19.362664844268313	2.4574883	1.5676378
19.380445043295822	2.4810374	1.5751309
19.39822571342203	2.4895859	1.5778421
19.41600685511252	2.4615967	1.5689477
19.43378846883297	2.4276013	1.5580761
19.451570555049173	2.4475365	1.5644604
19.469353114227037	2.4910147	1.5782949
19.48713614683254	2.5158074	1.5861297
19.50491965333182	2.5092916	1.5840744
19.52270363419109	2.4962385	1.5799489
19.540488089876686	2.4469845	1.5642841
19.55827302085503	2.4557834	1.567094
19.576058427592674	2.4818242	1.5753807
19.593844310556282	2.5448875	1.5952704
19.611630670212598	2.56025	1.6000781
19.629417507028506	2.5396976	1.5936428
19.64720482147098	2.506733	1.5832665
19.6649926140071	2.4809823	1.5751134
19.682780885104084	2.52202	1.588087
19.70056963522921	2.5073078	1.583448
19.718358864849908	2.5231073	1.5884292
19.7361485744337	2.5088556	1.5839367
19.753938764448215	2.5040343	1.582414
19.771729435361202	2.4992073	1.5808882
19.789520587640506	2.490188	1.578033
19.807312221754092	2.4778862	1.5741303
19.825104338170043	2.460799	1.5686934
19.842896937356517	2.4900873	1.578001
19.860690019781824	2.5112424	1.58469
19.87848358591436	2.5266614	1.5895475
19.896277636222635	2.5161662	1.5862428
19.914072171175278	2.509776	1.5842273
19.931867191241015	2.4978368	1.5804546
19.94966269688869	2.503112	1.5821227
19.967458688587264	2.4611998	1.5688212
19.985255166805807	2.451411	1.5656983
20.00305213201348	2.4487133	1.5648365
20.020849584679578	2.4481187	1.5646465
20.038647525273507	2.438772	1.5616568
20.05644595426477	2.4555836	1.5670302
20.07424487212299	2.4782963	1.5742606
20.092044279317903	2.5118933	1.5848954
20.109844176319353	2.4990573	1.5808407
20.127644563597304	2.4978266	1.5804514
20.145445441621817	2.47133	1.5720464
20.16324681086307	2.4537475	1.5664443
20.181048671791373	2.4314687	1.5593168
20.198851024877122	2.4154024	1.5541565
20.216653870590836	2.4005463	1.5493697
20.234457209403146	2.3895497	1.5458169
20.252261041784802	2.4290032	1.558526
20.270065368206662	2.4232194	1.5566694
20.287870189139685	2.3866873	1.5448906
20.305675505054968	2.337772	1.5289774
20.323481316423702	2.3473024	1.5320909
20.341287623717207	2.3484871	1.5324775
20.359094427406884	2.3257172	1.5250303
20.376901727964288	2.306744	1.5187969
20.39470952586107	2.3251166	1.5248333
20.41251782156899	2.3299644	1.5264221
20.430326615559935	2.3081164	1.5192486
20.448135908305886	2.326941	1.5254314
20.465945700278965	2.3633943	1.5373335
20.483755991951384	2.367826	1.5387741
20.50156678379548	2.3583906	1.5357052
20.519378076283708	2.336173	1.5284544
20.537189869888635	2.3481076	1.5323536
20.55500216508294	2.3637931	1.5374632
20.572814962339415	2.3896222	1.5458403
20.59062826213098	2.3886323	1.5455201
20.60844206493066	2.3430123	1.5306902
20.626256371211593	2.2965174	1.5154265
20.644071181447032	2.2740064	1.507981
20.66188649611036	2.2923923	1.5140648
20.67970231567506	2.280517	1.5101382
20.697518640614742	2.2716236	1.5071906
20.715335471403122	2.2881382	1.5126593
20.73315280851404	2.292951	1.5142493
20.750970652421447	2.3251076	1.5248303
20.768789003599412	2.311356	1.5203145
20.786607862522136	2.299279	1.5163374
20.8044272296639	2.3054452	1.5183692
20.82224710549913	2.3073208	1.5189868
20.84006749050237	2.3012497	1.5169871
20.857888385148268	3.8272622	1.956339
20.8757097899116	45.932083	6.7773213
20.893531705267254	64.77729	8.048434
20.911354131690224	83.81032	9.154798
20.92917706965566	69.0798	8.311426
20.94700051963877	50.134804	7.0805936
20.96482448211493	29.398851	5.422071
20.982648957559622	4.118055	2.029299
21.00047394644843	2.2197578	1.4898852
21.01829944925707	2.201904	1.4838815
21.036125466461375	2.2100163	1.4866123
21.053951998537297	2.1886153	1.4793969
21.071779045960906	2.1856933	1.478409
21.089606609208378	2.2024488	1.4840649
21.10743468875603	2.217142	1.4890071
21.12526328508028	2.2104123	1.4867455
21.143092398657675	2.204627	1.4847987
21.16092202996488	2.2053049	1.4850268
21.17875217947867	2.2083373	1.4860475
21.19658284767596	2.182667	1.4773852
21.21441403503377	2.1817234	1.4770658
21.232245742029225	2.21063	1.4868188
21.2500779691396	2.243868	1.4979546
21.26791071684227	2.2109823	1.4869373
21.28574398561475	2.1719825	1.4737648
21.30357777593465	2.154696	1.4678882
21.321412088279704	2.1813266	1.4769315
21.339246923127792	2.180086	1.4765114
21.357082280956888	2.1632643	1.470804
21.3749181622451	2.1365674	1.4617002
21.392754567470647	2.1247797	1.4576625
21.41059149711187	2.118467	1.4554955
21.42842895164726	2.1182163	1.4554093
21.446266931555378	2.1362085	1.4615774
21.464105437314945	2.138101	1.4622247
21.481944469404798	2.1174831	1.4551574
21.49978402830388	2.1066234	1.4514211
21.51762411449127	2.0792365	1.4419558
21.53546472844617	2.063064	1.436337
21.553305870647876	2.0616846	1.4358567
21.571147541575865	2.0736399	1.4400139
21.58898974170967	2.0660172	1.4373647
21.60683247152899	2.0571086	1.4342624
21.62467573151363	2.0498955	1.4317456
21.642519522143523	2.0387504	1.4278482
21.660363843898722	2.010229	1.4178255
21.6782086972594	2.021379	1.4217521
21.696054082705864	2.0072556	1.4167764
21.713900000718535	1.9987801	1.4137822
21.73174645177795	1.9794161	1.4069172
21.749593436364794	2.0085597	1.4172367
21.767440954959845	2.0278642	1.424031
21.785289008044032	2.0322418	1.4255672
21.803137596098388	2.0336773	1.4260706
21.820986719604086	2.0080466	1.4170556
21.838836379042412	1.9816023	1.407694
21.85668657489478	1.9924	1.411524
21.87453730764273	2.001433	1.41472
21.892388577767914	2.0103467	1.417867
21.91024038575213	2.0191302	1.420961
21.928092732077285	2.045788	1.4303105
21.945945617225426	2.0401716	1.4283458
21.963799041678694	2.002579	1.4151251
21.981653005919398	31.309158	5.5954585
21.999507510429943	78.100174	8.83743
22.01736255569286	73.069855	8.548091
22.035218142190818	4.19913	2.049178
22.05307427040661	2.0113256	1.418212
22.07093094082315	2.0178506	1.4205106
22.088788153923474	2.0329397	1.4258119
22.106645910190746	2.0280612	1.4241002
22.12450421010827	2.0038846	1.4155864
22.142363054159464	1.9942608	1.4121829
22.16022244282787	2.0041606	1.4156839
22.178082376597164	2.0048985	1.4159445
22.195942855951145	2.0025904	1.4151291
22.213803881373742	1.9620886	1.4007457
22.231665453349002	1.94984	1.3963667
22.24952757236111	1.955306	1.3983226
22.26739023889438	1.9571756	1.3989909
22.28525345343323	1.9696506	1.4034424
22.30311721646225	1.9738772	1.4049474
22.320981528466113	1.9423238	1.3936728
22.33884638992964	1.8984499	1.3778424
22.356711801337788	1.9218947	1.3863242
22.37457776317561	1.9642184	1.4015057
22.392444275928337	1.9609157	1.400327
22.410311340081282	1.9490067	1.3960683
22.428178956119904	1.9146404	1.3837054
22.446047124529805	1.88745	1.373845
22.46391584579669	1.90078	1.3786877
22.481785120406414	1.9630071	1.4010736
22.49965494884496	1.9764817	1.405874
22.51752533159841	1.9657191	1.4020411
22.53539626915302	1.9481205	1.3957509
22.553267761995137	1.9422754	1.3936554
22.571139810611264	1.9298834	1.3892025
22.589012415488025	1.9771972	1.4061284
22.60688557711216	2.0200741	1.4212931
22.624759295970566	2.0507128	1.432031
22.642633572550263	2.0395405	1.4281248
22.660508407338362	2.0316288	1.4253522
22.67838380082217	1.991955	1.4113663
22.696259753489077	1.9750439	1.4053626
22.714136265826614	1.9966825	1.4130402
22.73201333832246	1.9854563	1.4090623
22.74989097146439	1.9767834	1.4059813
22.76776916574035	1.9373125	1.3918737
22.785647921638393	1.9352763	1.3911421
22.803527239646712	1.9320891	1.389996
22.82140712025363	1.9147661	1.3837507
22.839287563947593	1.9444753	1.3944445
22.85716857121719	1.9619433	1.4006939
22.875050142551135	1.9490342	1.3960781
22.892932278438277	1.9293612	1.3890145
22.910814979367604	1.9357111	1.3912984
22.928698245828222	1.9572238	1.3990082
22.946582078309387	1.9212706	1.3860991
22.96446647730047	1.9470577	1.3953701
22.98235144329098	1.930724	1.3895049
23.000236976770562	1.9188792	1.3852361
23.018123078229	1.888821	1.3743439
23.03600974815619	1.9254913	1.3876207
23.053896987042194	1.9159876	1.384192
23.071784795377173	1.9206897	1.3858895
23.08967317365145	1.9482089	1.3957826
23.10756212235546	1.9999332	1.4141899
23.125451641979787	1.988419	1.4101131
23.143341733015134	1.9163996	1.3843409
23.161232395952357	1.8693055	1.3672255
23.179123631282426	1.888675	1.3742907
23.197015439496468	1.9347402	1.3909494
23.214907821085717	1.9587803	1.3995643
23.23280077654157	1.9467059	1.395244
23.250694306355538	1.9744728	1.4051594
23.268588411019277	1.9667946	1.4024246
23.28648309102458	1.9836702	1.4084283
23.304378346863356	1.9540939	1.3978891
23.322274179027676	1.9742141	1.4050673
23.340170588009723	1.9692128	1.4032865
23.358067574301852	1.9839787	1.4085377
23.37596513839651	1.9669143	1.4024673
23.39386328078629	1.9667022	1.4023916
23.411762001963947	1.9517989	1.397068
23.429661302422353	1.9709148	1.4038928
23.4475611826545	1.9643589	1.4015559
23.46546164315356	1.9637638	1.4013436
23.48336268441279	1.9634715	1.4012393
23.501264306925638	1.9843441	1.4086674
23.51916651118564	1.9994938	1.4140346
23.537069297686497	1.9648395	1.4017273
23.554972666922037	1.9407164	1.393096
23.57287661938623	1.9100698	1.3820528
23.59078115557318	1.8962487	1.3770435
23.608686275977128	1.8896554	1.3746474
23.62659198109246	1.8761501	1.3697263
23.6444982714137	1.9279251	1.3884975
23.66240514743549	1.9731163	1.4046766
23.68031260965263	1.9757237	1.4056044
23.698220658560068	1.9110563	1.3824096
23.716129294652845	1.8805422	1.3713286
23.7340385184262	1.8925542	1.3757013
23.75194833037546	1.9339637	1.3906702
23.769858730996123	1.9408923	1.3931592
23.78776972078382	1.919875	1.3855956
23.80568130023431	1.9144212	1.3836261
23.823593469843495	1.9101415	1.3820786
23.841506230107424	1.8927993	1.3757904
23.859419581522275	1.8685764	1.3669589
23.87733352458438	1.8805344	1.3713257
23.89524805979019	1.9143934	1.3836161
23.913163187636318	1.9454384	1.3947897
23.931078908619508	1.9393685	1.3926121
23.948995223236633	1.9369873	1.3917569
23.966912131984735	1.9984943	1.4136811
23.98482963536096	2.033662	1.4260652
24.002747733862616	2.0339296	1.426159
24.020666427987155	2.045016	1.4300406
24.038585718232156	2.1115305	1.4531107
24.056505605095353	2.1123798	1.4534029
24.074426089074617	2.1418428	1.4635036
24.092347170667946	2.11823	1.455414
24.110268850373515	2.0952735	1.447506
24.128191128689586	2.0757926	1.4407611
24.146114006114626	2.0528464	1.4327757
24.164037483147187	2.064614	1.4368765
24.181961560286005	2.040601	1.4284961
24.199886238029926	2.077778	1.44145
24.21781151687797	2.0626574	1.4361955
24.235737397329274	2.0770643	1.4412024
24.253663879883135	2.0456123	1.4302491
24.271590965038975	2.0231047	1.4223589
24.289518653296376	2.005785	1.4162574
24.30744694515505	2.0481777	1.4311455
24.32537584111486	2.0658023	1.43729
24.34330534167581	2.0673034	1.437812
24.361235447338046	2.031538	1.4253203
24.379166158601876	1.9892064	1.4103923
24.39709747596772	2.0097072	1.4176414
24.41502939993615	2.0198615	1.4212183
24.432961931007917	1.9498554	1.3963722
24.450895069683856	1.8873657	1.3738143
24.468828816465	1.8848705	1.3729059
24.4867631718525	1.934853	1.3909899
24.504698136347656	1.9980521	1.4135247
24.52263371045192	2.000269	1.4143087
24.540569894666874	1.9792882	1.4068718
24.558506689494266	1.9325353	1.3901566
24.57644409543597	1.9541687	1.3979158
24.594382112994012	2.0101187	1.4177866
24.61232074267057	2.0307257	1.4250354
24.630259984967953	2.0018194	1.4148567
24.64819984038863	2.013743	1.419064
24.66614030943522	2.00861	1.4172544
24.684081392610462	2.0068514	1.4166338
24.702023090417274	2.0249481	1.4230068
24.7199654033587	2.084343	1.4437253
24.737908331937927	2.076778	1.441103
24.755851876658305	2.0772514	1.4412673
24.773796038023324	2.0559573	1.433861
24.79174081653661	2.0494742	1.4315985
24.809686212701962	2.0738082	1.4400723
24.827632227023294	2.1275268	1.4586043
24.8455788600047	2.1399336	1.4628512
24.8635261121504	2.1115005	1.4531003
24.88147398396475	2.1117663	1.4531918
24.899422475952303	2.146937	1.465243
24.917371588617698	2.1701424	1.4731404
24.935321322465768	2.224093	1.4913393
24.953271678001478	2.326465	1.5252753
24.97122265572994	2.5146718	1.5857717
24.989174256156414	2.8369362	1.6843207
25.00712647978632	3.384493	1.8396991
25.02507932712521	4.397125	2.0969322
25.043032798678798	5.945713	2.4383833
25.060986894952933	7.6351404	2.7631757
25.078941616453637	9.114206	3.0189743
25.096896963687055	10.094119	3.1771243
25.114852937159508	10.875228	3.297761
25.132809537377444	10.6063595	3.2567406
25.150766764847468	9.832329	3.1356544
25.168724620076347	8.427747	2.9030583
25.186683103570985	7.186265	2.680721
25.204642215838426	5.7277236	2.3932662
25.222601957385894	4.599198	2.1445742
25.24056232872074	3.525444	1.8776165
25.25852333035048	2.8216782	1.6797851
25.276484962782778	2.3888178	1.54558
25.294447226525435	2.194626	1.4814271
25.312410122086423	2.105724	1.4511113
25.330373649973843	2.0275502	1.4239208
25.348337810695988	1.9149961	1.3838339
25.366302604761245	1.9133121	1.3832252
25.384268032678207	1.9065391	1.3807749
25.40223409495558	1.9195175	1.3854666
25.420200792102257	1.912961	1.3830984
25.438168124627246	1.968311	1.4029651
25.45613609303974	1.986446	1.4094133
25.474104697849057	1.9910269	1.4110376
25.492073939564698	1.9791636	1.4068276
25.510043818696285	1.9357253	1.3913034
25.528014335753614	1.9124806	1.3829247
25.54598549124664	1.9126686	1.3829926
25.56395728568544	1.8998111	1.3783363
25.58192971958028	1.8751439	1.3693589
25.59990279344156	1.846906	1.3590091
25.617876507779833	1.8216937	1.3497013
25.635850863105826	1.7793078	1.333907
25.653825859930386	1.7879951	1.3371594
25.671801498764548	1.8344896	1.3544333
25.68977778011949	1.8596483	1.3636892
25.707754704506524	1.8365351	1.3551883
25.725732272437153	1.8522257	1.360965
25.743710484423012	1.8840373	1.3726023
25.761689340975888	1.8590811	1.3634813
25.77966884260774	1.8069019	1.3442105
25.797648989830662	1.7920322	1.3386681
25.815629783156922	1.8159065	1.3475558
25.83361122309895	1.8547117	1.361878
25.85159331016929	1.8518043	1.3608102
25.869576044880695	1.8415034	1.35702
25.887559427746034	1.8336306	1.3541162
25.90554345927836	1.836102	1.3550284
25.92352813999086	1.8693775	1.3672518
25.94151347039689	1.8698351	1.3674191
25.959499451009965	1.8923705	1.3756346
25.97748608234374	1.8604598	1.3639867
25.995473364912062	1.9024624	1.3792977
26.013461299228904	1.9001322	1.3784528
26.03144988580839	1.8437383	1.3578433
26.04943912516483	1.846239	1.3587638
26.067429017812675	1.8959129	1.3769215
26.085419564266537	1.8950664	1.3766141
26.103410765041186	1.8613455	1.3643113
26.12140262065155	1.8561251	1.3623968
26.139395131612723	1.8545676	1.3618251
26.157388298439948	1.8804932	1.3713107
26.17538212164861	1.8522472	1.3609729
26.193376601754295	1.8366264	1.3552219
26.211371739272714	1.8087595	1.3449013
26.229367534719746	1.820452	1.3492413
26.247363988611433	1.8297219	1.3526721
26.26536110146397	1.8604025	1.3639657
26.283358873793727	1.8447157	1.3582032
26.301357306117204	1.7926759	1.3389084
26.319356398951104	1.7491789	1.3225653
26.33735615281224	1.7623589	1.3275386
26.35535656821762	1.7847457	1.3359437
26.373357645684404	1.8445238	1.3581325
26.39135938572991	1.8345728	1.354464
26.409361788871614	1.822116	1.3498578
26.427364855627165	1.8077909	1.3445412
26.445368586514352	1.8122915	1.3462138
26.46337298205115	1.819284	1.3488084
26.48137804275568	1.8186865	1.3485868
26.499383769146217	1.8285707	1.3522465
26.517390161741215	1.8636161	1.3651433
26.53539722105928	1.869301	1.3672239
26.553404947619182	1.86633	1.3661369
26.571413341939856	1.8357627	1.3549032
26.589422404540397	1.8472817	1.3591474
26.60743213594006	1.8489108	1.3597466
26.62544253665827	1.8261648	1.3513566
26.64345360721459	1.8083135	1.3447355
26.66146534812879	1.8002927	1.3417499
26.679477759920758	1.7767606	1.3329518
26.69749084311057	1.7886285	1.3373961
26.71550459821847	1.7849352	1.3360146
26.733519025764842	1.7930396	1.3390442
26.751534126270258	1.7714328	1.3309518
26.769549900255434	1.7778808	1.333372
26.787566348241267	1.8205439	1.3492754
26.80558347074881	1.8456836	1.3585594
26.823601268299267	1.8318672	1.3534648
26.841619741414036	1.7992501	1.3413613
26.85963889061465	1.7907442	1.3381869
26.877658716422832	1.7933385	1.3391559
26.89567921936045	1.8588656	1.3634022
26.913700399949544	1.8908151	1.3750691
26.93172225871233	1.8817139	1.3717557
26.949744796171174	1.8253589	1.3510585
26.967768012848605	1.810147	1.345417
26.98579190926733	1.7544643	1.324562
27.003816485950225	1.7319865	1.3160496
27.021841743420318	1.7667254	1.3291823
27.039867682200814	1.8080034	1.3446202
27.057894302815072	1.8332225	1.3539655
27.07592160578664	1.8122597	1.3462019
27.0939495916392	1.7790476	1.3338094
27.111978260896635	1.7833811	1.3354329
27.13000761408296	1.8518962	1.3608439
27.148037651722397	1.8759845	1.3696659
27.166068374339304	1.8819051	1.3718255
27.184099782458215	1.8445404	1.3581386
27.20213187660384	1.8565166	1.3625405
27.22016465730105	1.8683043	1.3668593
27.23819812507487	1.8527322	1.3611511
27.256232280450533	1.80685	1.3441912
27.274267123953383	1.7888726	1.3374875
27.292302656108987	1.7505257	1.3230743
27.31033887744306	1.765591	1.3287555
27.32837578848146	1.7806021	1.3343921
27.34641338975026	1.8440601	1.3579618
27.364451681775673	1.8273103	1.3517804
27.382490665084074	1.7421889	1.3199201
27.400530340202046	1.7468659	1.3216906
27.41857070765629	1.7851232	1.3360851
27.436611767973726	1.8461388	1.3587269
27.454653521681404	1.8265337	1.3514931
27.472695969306564	1.8575213	1.3629091
27.490739111376627	1.8669055	1.3663474
27.508782948419153	1.8753222	1.3694241
27.526827480961902	1.8761457	1.3697246
27.54487270953279	1.8113796	1.345875
27.562918634659898	1.815224	1.3473026
27.580965256871508	1.8547217	1.3618816
27.599012576696026	1.8514471	1.3606789
27.617060594662068	1.8368663	1.3553104
27.63510931129842	1.8512368	1.3606017
27.65315872713401	1.8477192	1.3593084
27.67120884269797	1.8245131	1.3507453
27.68925965851958	1.8003695	1.3417785
27.707311175128307	1.8528605	1.3611982
27.725363393053787	1.8656855	1.365901
27.74341631282583	1.8694148	1.3672655
27.7614699349744	1.8842192	1.3726686
27.77952426002968	2.0587277	1.4348267
27.797579288521973	2.1675708	1.4722673
27.815635020981784	2.5505106	1.5970318
27.83369145793979	2.595333	1.6110038
27.85174859992682	2.476263	1.5736146
27.869806447473923	2.3203118	1.523257
27.887865001112267	2.056846	1.4341708
27.905924261373233	1.9301814	1.3893096
27.92398422878836	1.9066464	1.3808137
27.94204490388936	1.9361616	1.3914603
27.96010628720813	1.968777	1.4031311
27.978168379276728	1.939592	1.3926923
27.9962311806274	1.897457	1.3774822
28.014294691792568	1.8770397	1.370051
28.0323589133048	1.8409643	1.3568214
28.050423845696887	1.8481348	1.3594612
28.068489489501758	1.8806669	1.3713741
28.086555845252523	1.8937575	1.3761386
28.104622913482487	1.8849853	1.3729477
28.122690694725115	1.8740178	1.3689477
28.14075918951405	1.8791143	1.3708079
28.15882839838312	1.9313161	1.389718
28.176898321866304	2.0014093	1.4147117
28.1949689604978	2.012232	1.4185317
28.213040314811945	1.9976405	1.4133791
28.23111238534327	1.9372822	1.3918629
28.249185172626493	1.927117	1.3882064
28.267258677196473	1.9392285	1.3925619
28.285332899588294	1.9904102	1.4108189
28.303407840337172	1.985656	1.4091331
28.321483499978545	1.9505345	1.3966154
28.33955987904799	1.9532338	1.3975815
28.357636978081285	1.9895064	1.4104986
28.37571479761439	2.02282	1.4222587
28.393793338183425	2.0207639	1.4215357
28.41187260032469	2.0048246	1.4159184
28.429952584574686	1.99718	1.4132162
28.448033291470065	2.0044587	1.415789
28.46611472154769	2.0490386	1.4314463
28.484196875344566	2.060027	1.4352794
28.502279753397914	2.0339315	1.4261597
28.52036335624511	2.0479612	1.43107
28.538447684423716	2.132641	1.4603565
28.556532738471482	2.098634	1.4486663
28.574618518926325	2.0241673	1.4227324
28.59270502632635	1.942262	1.3936507
28.61079226120985	1.9991446	1.4139111
28.628880224115274	2.0494773	1.4315996
28.646968915581287	2.0500815	1.4318106
28.66505833614671	2.091501	1.4462023
28.68314848635055	2.0983903	1.4485822
28.701239366732004	2.0754166	1.4406306
28.71933097783044	2.0879014	1.4449573
28.737423320185403	2.1481664	1.4656625
28.75551639433665	2.1834226	1.4776409
28.773610200824074	2.1623545	1.4704946
28.791704740187793	2.1487246	1.4658529
28.80980001296809	2.1690807	1.47278
28.827896019705413	2.1739032	1.4744163
28.845992760940433	2.166731	1.471982
28.86409023721397	2.1933665	1.4810019
28.88218844906704	2.2392519	1.496413
28.900287397040845	2.2550852	1.5016941
28.918387081676755	2.2453282	1.4984419
28.936487503516343	2.2250357	1.4916553
28.954588663101365	2.2437155	1.4979037
28.97269056097374	2.3157115	1.5217462
28.990793197675597	2.3745954	1.5409722
29.00889657374923	2.4151993	1.5540911
29.027000689737125	2.4050865	1.5508342
29.04510554618196	2.4195986	1.5555059
29.06321114362659	2.4760547	1.5735484
29.08131748261405	2.5706966	1.6033392
29.099424563687567	2.5654738	1.6017096
29.11753238739057	2.5503814	1.5969914
29.13564095426663	2.5448022	1.5952436
29.15375026485954	2.582642	1.6070601
29.171860319713275	2.5983465	1.6119387
29.18997111937199	2.6479802	1.6272615
29.20808266438002	2.7664056	1.6632515
29.226194955281898	2.8475492	1.6874683
29.244307992622335	2.8361025	1.6840732
29.26242177694624	2.8484945	1.6877483
29.2805363087987	2.8394897	1.6850785
29.29865158872498	2.8563228	1.6900659
29.316767617270557	2.8852599	1.6986053
29.334884394981064	2.9986665	1.7316658
29.353001922402367	3.0880003	1.7572707
29.37112020008047	3.0882187	1.7573328
29.389239228561596	3.117383	1.7656112
29.407359008392152	3.3098068	1.8192874
29.42547954011872	3.6432214	1.9087224
29.44360082428809	4.1173673	2.0291297
29.46172286144722	4.980838	2.231779
29.479845652143283	6.532533	2.555882
29.497969196923606	9.157564	3.0261467
29.516093496335728	13.032807	3.610098
29.5342185509274	16.647598	4.080147
29.55234436124651	19.765173	4.445804
29.570470927841175	21.293337	4.6144705
29.588598251259686	21.18645	4.602874
29.60672633205055	19.50998	4.4170103
29.624855170762405	16.40605	4.0504384
29.642984767944146	13.035333	3.6104476
29.66111512414481	9.706125	3.1154654
29.67924623991366	7.140015	2.6720808
29.697378115800138	5.3706565	2.3174677
29.71551075235387	4.4516993	2.109905
29.733644150124675	3.9446428	1.9861125
29.751778309662576	3.6576784	1.9125057
29.769913231517766	3.4974926	1.8701584
29.78804891624066	3.4308593	1.8522578
29.806185364381818	3.3507535	1.8305063
29.82432257649206	3.319589	1.8219739
29.842460553122333	3.2492824	1.8025765
29.86059929482382	3.275962	1.8099619
29.878738802147872	3.3447998	1.8288794
29.896879075646048	3.359544	1.8329059
29.915020115870114	3.3590102	1.8327602
29.933161923371976	3.362625	1.8337461
29.951304498703777	3.3538218	1.8313442
29.969447842417857	3.2768373	1.8102037
29.987591955066733	3.208887	1.7913367
30.005736837203123	3.2139378	1.7927458
30.023882489379943	3.2498112	1.8027233
30.04202891215028	3.2886927	1.8134754
30.060176106067455	3.253578	1.8037677
30.078324071684946	3.25894	1.8052534
30.09647280955646	3.2209446	1.7946991
30.114622320235863	3.2410011	1.8002781
30.132772604277257	3.2873254	1.8130983
30.1509236622349	3.2358327	1.7988421
30.16907549466328	3.1659617	1.779315
30.18722810211705	3.1363025	1.7709609
30.205381485151097	3.0975459	1.7599846
30.22353564432045	3.053701	1.7474842
30.241690580180403	3.014456	1.7362189
30.25984629328638	3.020685	1.7380118
30.278002784194037	3.020117	1.7378484
30.296160053459246	3.0219884	1.7383868
30.314318101638033	3.0220492	1.7384042
30.332476929286646	2.9779322	1.7256687
30.35063653696153	2.9095082	1.705728
30.368796925219307	2.8553424	1.6897758
30.386958094616844	2.8502312	1.6882628
30.40512004571115	2.9202476	1.7088732
30.423282779059463	2.9536793	1.7186272
30.441446295219233	2.9326644	1.7125024
30.459610594748067	2.9263725	1.7106644
30.47777567820382	2.897703	1.7022641
30.495941546144504	2.8538854	1.6893446
30.51410819912835	2.8131049	1.6772313
30.532275637713795	2.8222437	1.6799535
30.55044386245946	2.8712502	1.6944764
30.56861287392416	2.8999813	1.7029332
30.586782672666956	2.9623044	1.7211347
30.604953259247047	2.935943	1.7134594
30.623124634223885	2.840974	1.685519
30.641296798157075	2.8218968	1.6798502
30.659469751606462	2.7796924	1.667241
30.677643495132074	2.7608519	1.6615812
30.695818029294152	2.785003	1.6688328
30.713993354653116	2.8775008	1.6963198
30.73216947176962	2.8849611	1.6985173
30.75034638120448	2.8231115	1.6802118
30.768524083518756	2.8338833	1.6834142
30.786702579273673	2.94141	1.7150539
30.80488186903069	3.0248418	1.7392073
30.82306195335144	3.1359334	1.7708567
30.841242832797782	3.3885388	1.8407984
30.85942450793176	3.7069314	1.9253393
30.877606979315637	4.036595	2.0091279
30.895790247511883	4.394283	2.0962546
30.913974313083134	4.869246	2.206637
30.932159176592283	5.245755	2.2903614
30.95034483860237	5.5560803	2.3571339
30.968531299676698	5.567159	2.3594828
30.98671856037873	5.306912	2.3036735
31.00490662127215	4.891797	2.2117407
31.023095482920848	4.4162903	2.1014972
31.04128514588892	3.8002012	1.9494104
31.059475610740662	3.2688553	1.8079976
31.07766687804056	2.8865242	1.6989774
31.09585894835335	2.7052248	1.6447568
31.11405182224393	2.5944884	1.6107416
31.132245500277417	2.496907	1.5801604
31.15043998301914	2.4956872	1.5797744
31.168635271034628	2.4923635	1.5787221
31.18683136488964	2.4495714	1.5651107
31.20502826515008	2.4534373	1.5663452
31.223225972382135	2.435449	1.5605925
31.241424487152155	2.440041	1.5620631
31.259623810026692	2.4579155	1.567774
31.27782394157253	2.4828682	1.575712
31.296024882356644	2.505886	1.5829991
31.314226632946237	2.4578547	1.5677546
31.332429193908684	2.4308724	1.5591255
31.350632565811598	2.4491818	1.5649862
31.368836749222787	2.4922273	1.578679
31.387041744710295	2.5481691	1.5962986
31.40524755284232	2.611987	1.6161643
31.423454174187317	2.624907	1.6201565
31.441661609313922	2.6195617	1.618506
31.459869858791002	2.5714405	1.6035712
31.478078923187628	2.4919362	1.5785868
31.496288803073064	2.4510686	1.565589
31.514499499016807	2.404958	1.5507927
31.532711011588546	2.3469415	1.5319731
31.550923341358178	2.3468199	1.5319334
31.56913648889584	2.347314	1.5320946
31.587350454771844	2.3775656	1.5419357
31.605565239556732	2.3818393	1.5433209
31.62378084382127	2.346043	1.5316799
31.641997268136382	2.3386137	1.5292526
31.660214513073274	2.3296292	1.5263122
31.67843257920331	2.3834221	1.5438336
31.6966514670981	2.3552325	1.5346767
31.71487117732944	2.3600814	1.5362556
31.733091710469346	2.293822	1.5145369
31.751313067090052	2.2379668	1.4959836
31.769535247764008	2.2226553	1.4908572
31.787758253063878	2.2453175	1.4984384
31.805982083562526	2.270626	1.5068597
31.824206739833024	2.254294	1.5014306
31.84243222244869	2.2808983	1.5102643
31.860658531983013	2.2529283	1.5009757
31.878885669009737	2.194243	1.4812977
31.897113634102784	2.2365558	1.4955119
31.91534242783632	2.30266	1.5174518
31.933572050784694	2.2181225	1.4893363
31.951802503522508	2.168049	1.4724296
31.970033786624548	2.1789696	1.4761333
31.988265900665834	2.2097943	1.4865377
32.006498846221575	2.1610894	1.4700644
32.02473262386724	2.2127626	1.4875357
32.04296723417845	2.223712	1.4912115
32.0612026777311	2.2198577	1.4899187
32.07943895510129	2.1802967	1.4765828
32.097676066865304	2.0669117	1.4376758
32.115914013599685	2.0562856	1.4339755
32.13415279588115	2.0931108	1.4467587
32.152392414286666	2.1091363	1.4522866
32.1706328693934	2.1525297	1.4671502
32.18887416177875	2.1386328	1.4624065
32.20711629202032	2.1083362	1.4520111
32.225359260695924	2.1134512	1.4537714
32.243603068383614	2.1457896	1.4648514
32.26184771566166	2.1604676	1.4698529
32.28009320310852	2.152822	1.4672499
32.2983395313029	2.1245363	1.4575789
32.31658670082372	2.0641656	1.4367204
32.33483471225012	2.0046246	1.4158477
32.35308356616143	2.004099	1.415662
32.371333263137245	2.0176797	1.4204506
32.38958380375734	2.0214493	1.4217768
32.407835188601744	2.0241039	1.4227101
32.42608741825067	2.091647	1.4462527
32.444340493284585	2.1585217	1.4691908
32.46259441428416	2.1621795	1.4704351
32.48084918183028	2.1218991	1.456674
32.49910479650405	2.067277	1.4378028
32.51736125888683	1.9728924	1.4045969
32.53561856956014	1.9785727	1.4066175
32.5538767291058	1.998293	1.41361
32.572135738105764	1.9749131	1.405316
32.59039559714228	1.9625255	1.4009017
32.608656306797776	1.9839183	1.4085164
32.62691786765491	2.0245159	1.4228548
32.645180280296586	2.055377	1.4336586
32.663443545305896	2.0939107	1.4470352
32.68170766326619	2.048296	1.4311869
32.69997263476099	1.9750736	1.4053731
32.7182384603741	1.9306364	1.3894734
32.7365051406895	1.9465007	1.3951705
32.75477267629144	1.9773284	1.4061751
32.77304106776434	1.9868876	1.40957
32.79131031569289	2.0409887	1.4286318
32.809580420661966	2.0221553	1.4220251
32.827851383256714	1.9317265	1.3898656
32.84612320406245	1.9342831	1.3907851
32.86439588366476	1.9844712	1.4087126
32.88266942264945	2.0137663	1.4190724
32.9009438216025	2.023783	1.4225973
32.9192190811102	2.0207856	1.4215434
32.937495201758985	2.005804	1.4162642
32.95577218413556	1.9613185	1.4004709
32.974050028826866	1.9172132	1.3846347
32.992328736420035	1.9278119	1.3884567
33.010608307502444	1.9454702	1.3948011
33.02888874266169	2.0074375	1.4168407
33.047170042485604	2.018189	1.4206297
33.06545220756225	2.0508027	1.4320624
33.083735238479896	2.044619	1.4299017
33.10201913582707	2.015619	1.419725
33.12030390019248	1.9789178	1.4067402
33.138589532165135	2.0290532	1.4244484
33.15687603233419	1.9426565	1.3937922
33.17516340128909	1.9239569	1.3870677
33.19345163961947	1.9660971	1.4021759
33.211740747915215	2.0183005	1.4206691
33.23003072676643	1.9577287	1.3991886
33.248321576763466	1.8685	1.3669308
33.266613298496885	1.9752675	1.4054421
33.28490589255747	2.1241066	1.4574316
33.30319935953626	2.1440713	1.4642648
33.32149370002451	2.0385077	1.4277632
33.339788914613706	2.0388286	1.4278755
33.358085003895575	2.0605152	1.4354495
33.376381968462034	2.0119808	1.4184431
33.39467980890529	2.0284286	1.4242291
33.41297852581774	2.0830724	1.4432853
33.43127811979204	2.0692072	1.4384739
33.44957859142105	1.9569019	1.3988931
33.467879941297866	1.8125787	1.3463204
33.486182170015844	1.7942343	1.3394903
33.50448527816853	1.8452104	1.3583852
33.522789266349754	1.8352522	1.3547148
33.541094135153514	1.9024284	1.3792855
33.55939988517411	2.0000117	1.4142177
33.57770651700602	2.1091664	1.452297
33.59601403124398	2.0431454	1.4293864
33.61432242848296	1.8423805	1.3573432
33.632631709318154	1.8235655	1.3503946
33.650941874344994	1.841783	1.3571231
33.66925292415916	1.9208527	1.3859483
33.68756485935654	1.9364802	1.3915747
33.70587768053328	1.9312869	1.3897074
33.724191388285746	1.8937008	1.3761181
33.74250598321054	1.8684158	1.3669001
33.760821465904506	1.7541186	1.3244314
33.77913783696474	1.7378631	1.3182803
33.79745509698852	1.8435556	1.3577759
33.815773246573414	1.8739744	1.3689319
33.8340922863172	1.9806122	1.4073422
33.852412216817896	2.068246	1.4381397
33.87073303867377	2.0439606	1.4296715
33.889054752483304	1.9875158	1.4097928
33.907377358845245	1.9030048	1.3794944
33.92570085835853	1.9425864	1.393767
33.94402525162239	1.8907863	1.3750587
33.96235053923627	1.7746677	1.3321666
33.980676721799824	1.9220996	1.3863981
33.999003799912984	2.037861	1.4275367
34.01733177417592	2.0627728	1.4362357
34.03566064518901	2.0628283	1.436255
34.0539904135529	2.049821	1.4317195
34.07232107986846	2.0331297	1.4258785
34.090652644736785	1.8097496	1.3452693
34.108985108759235	1.7274196	1.3143134
34.12731847253742	1.9003421	1.378529
34.14565273667313	2.0209334	1.4215953
34.16398790176847	1.9305958	1.3894588
34.18232396842574	1.9181777	1.384983
34.20066093724749	1.8835069	1.3724091
34.21899880883651	1.8683921	1.3668914
34.23733758379583	1.8809199	1.3714664
34.25567726272874	1.9503381	1.396545
34.27401784623872	2.020181	1.4213307
34.29235933492957	2.0097516	1.417657
34.31070172940526	2.0296192	1.4246471
34.32904503027003	2.015266	1.4196006
34.347389238128386	2.0399027	1.4282516
34.36573435358502	2.143896	1.4642049
34.38408037724492	2.1682513	1.4724983
34.402427309713296	2.019801	1.4211969
34.42077515159559	1.8303838	1.3529167
34.43912390349752	1.9516578	1.3970175
34.45747356602499	1.9968522	1.4131002
34.47582413978423	1.9505867	1.3966341
34.49417562538163	2.0609028	1.4355845
34.51252802342388	2.1203694	1.4561489
34.53088133451789	1.9648516	1.4017316
34.54923555927084	1.7964072	1.3403012
34.567590698290104	1.7603778	1.3267922
34.58594675218336	1.8490609	1.3598018
34.6043037215585	1.953353	1.397624
34.62266160702365	2.0393622	1.4280624
34.641020409187234	2.0382001	1.4276555
34.65938012865785	2.05394	1.4331573
34.677740766044394	2.0660129	1.4373631
34.69610232195598	2.026052	1.4233946
34.714464797002016	2.133754	1.4607375
34.73282819179208	2.0751238	1.440529
34.751192506936064	1.9732902	1.4047384
34.76955774304408	1.9110839	1.3824196
34.7879239007265	1.87447	1.3691128
34.80629098059391	1.8397926	1.3563895
34.824658983257194	1.7971759	1.3405879
34.843027909327446	1.7920402	1.3386711
34.86139775941603	2.01605	1.4198768
34.879768534134534	2.1823447	1.4772761
34.89814023409483	2.0537546	1.4330927
34.91651285990901	2.0108712	1.4180518
34.93488641218944	2.0974667	1.4482633
34.95326089154871	2.0940518	1.447084
34.97163629859967	2.1148193	1.4542419
34.99001263395542	2.0262442	1.423462
35.00838989822934	1.9894519	1.4104793
35.02676809203499	2.041586	1.4288408
35.04514721598624	2.0712597	1.4391872
35.063527270697215	1.9231546	1.3867785
35.081908256782256	2.007598	1.4168973
35.10029017485597	2.1264937	1.4582502
35.11867302553321	2.1055436	1.4510491
35.137056809429104	2.0011122	1.4146067
35.155441527159006	2.0922616	1.4464651
35.173827179338524	1.93873	1.3923829
35.19221376658354	1.646615	1.283205
35.21060128951017	1.678202	1.2954544
35.2289897487348	1.7184222	1.310886
35.24737914487405	1.8643802	1.3654231
35.26576947854479	2.0834348	1.4434109
35.28416075036418	2.228994	1.4929816
35.30255296094958	2.1394331	1.4626801
35.32094611091867	1.9828528	1.408138
35.33934020088932	1.9783694	1.4065452
35.35773523147969	1.784929	1.3360124
35.3761312033082	1.5588144	1.2485249
35.394528116993506	1.6295379	1.2765336
35.41292597315452	2.1132388	1.4536983
35.431324772410434	2.254668	1.5015552
35.449724515380666	2.533831	1.5918012
35.46812520268491	2.496286	1.5799639
35.486526834943106	2.2397974	1.4965953
35.504929412775454	2.182924	1.4774722
35.52333293680242	2.435715	1.5606778
35.54173740764471	1.9191377	1.3853295
35.560142825923286	1.833165	1.3539443
35.5785491922594	2.1000063	1.4491398
35.59695650727454	2.0229206	1.4222941
35.61536477159042	0.6898081	0.83054686
