0.008763373481513119	0.56609195	0.7523908
0.026290120649546365	0.18888974	0.43461448
0.043816868432600686	0.0908709	0.30144802
0.06134361724069026	0.0	0.0
0.07887036748382949	0.008567456	0.09256055
0.0963971195720331	0.09202188	0.30335107
0.11392387391531617	0.14724545	0.38372576
0.1314506309236943	0.16900119	0.41109756
0.1489773910071836	0.1851604	0.43030268
0.16650415457580078	0.15159315	0.38934964
0.18403092203956356	0.14732933	0.38383502
0.20155769380849	0.15458182	0.39316893
0.2190844702925996	0.14464632	0.38032398
0.2366112519019124	0.10279073	0.32060993
0.2541380390464497	0.120052606	0.3464861
0.27166483213623416	0.13816974	0.3717119
0.28919163158128947	0.17246348	0.41528723
0.3067184377916406	0.16936983	0.41154566
0.324245251177314	0.12997769	0.36052418
0.34177207214833777	0.17803147	0.42193776
0.3592989011147415	0.19537377	0.44201106
0.37682573848655654	0.23632523	0.48613295
0.39435258467381573	0.19413099	0.440603
0.41187944008655414	0.15310365	0.3912846
0.42940630513480854	0.1436716	0.37904036
0.446933180228618	0.15716423	0.39643943
0.4644600657780234	0.16763152	0.4094283
0.48198696219306775	0.16671367	0.40830585
0.49951386988379676	0.17109856	0.41364062
0.5170407892602581	0.16586004	0.4072592
0.5345677207325025	0.17375058	0.416834
0.5520946647105822	0.15949847	0.3993726
0.5696216216045534	0.16761918	0.40941322
0.5871485918244737	0.19204704	0.43823174
0.6046755757804043	0.21513996	0.4638318
0.6222025738824094	0.22348829	0.47274548
0.6397295865405557	0.1916541	0.43778315
0.6572566141649129	0.14794026	0.38463002
0.6747836571655547	0.11743442	0.34268707
0.6923107159525568	0.11412558	0.33782476
0.7098377909359992	0.14858915	0.38547263
0.7273648825259653	0.19747859	0.44438565
0.7448919911325411	0.20082012	0.44812956
0.762419117165817	0.1839011	0.4288369
0.7799462610358868	0.1976354	0.44456202
0.7974734231528482	0.1907522	0.43675187
0.8150006039268024	0.19777459	0.44471854
0.8325278037678551	0.16608846	0.40753952
0.8500550230861152	0.18735512	0.43284538
0.8675822622916969	0.20162484	0.44902655
0.8851095217947171	0.22532499	0.4746841
0.9026368020052984	0.20567597	0.45351514
0.9201641033335665	0.2087337	0.45687383
0.9376914261896523	0.20374303	0.45137903
0.9552187709836915	0.22579205	0.4751758
0.9727461381258234	0.25353253	0.50352013
0.990273528026193	0.2504476	0.5004474
1.0078009410949496	0.23123671	0.48087078
1.0253283777422473	0.26121795	0.51109487
1.0428558383782454	0.27753478	0.5268157
1.0603833234131086	0.2569724	0.50692445
1.0779108332570058	0.26416323	0.5139681
1.0954383683201119	0.29068145	0.5391488
1.112965929012607	0.33958903	0.5827427
1.1304935157446763	0.44352522	0.6659769
1.1480211289265108	0.4951258	0.7036518
1.1655487689683062	1.4627638	1.2094477
1.1830764362802655	1.764265	1.3282564
1.200604131272596	2.1536322	1.4675258
1.2181318543555117	2.2889838	1.5129389
1.235659605939232	2.2431645	1.4977198
1.253187386433982	3.7717466	1.9420985
1.270715196249994	6.1641216	2.482765
1.2882430357975057	11.773242	3.4312158
1.3057709054867608	16.526363	4.065263
1.3232988057280106	22.29287	4.7215323
1.3408267369315112	27.060966	5.2020154
1.358354699507526	30.648823	5.536138
1.3758826938663256	34.778393	5.8973207
1.3934107204181858	36.798046	6.066139
1.410938779573391	37.368362	6.1129665
1.4284668717422309	37.817142	6.1495643
1.4459949973350033	37.397095	6.1153164
1.4635231567620117	37.567917	6.129267
1.4810513504335687	36.852016	6.070586
1.4985795787599925	36.261765	6.0217743
1.5161078421516088	36.023045	6.00192
1.5336361410187505	35.219334	5.934588
1.5511644757717598	34.77752	5.897247
1.5686928468209842	35.14822	5.9285936
1.58622125457678	35.718666	5.9765096
1.6037496994495108	37.450974	6.11972
1.621278181849548	37.5139	6.1248593
1.6388067021872719	38.216408	6.181942
1.6563352608730693	37.640343	6.1351724
1.673863858317336	36.428368	6.0355916
1.6913924949304753	35.383827	5.9484305
1.7089211711228998	34.1205	5.841275
1.7264498873050296	33.450375	5.78363
1.7439786438872935	32.806725	5.7277155
1.7615074412801288	31.836002	5.64234
1.779036279893981	31.143202	5.5806093
1.796565160139305	30.3098	5.5054336
1.814094082426564	29.618967	5.442331
1.8316230471662298	28.907194	5.376541
1.849152054768784	27.684584	5.2616143
1.8666811056447168	26.941015	5.1904736
1.8842102002045273	26.349573	5.1331835
1.901739338858724	25.976158	5.096681
1.9192685220178245	25.520893	5.0518208
1.9367977500923557	25.031597	5.0031586
1.9543270234928547	24.717243	4.971644
1.971856342629867	24.155458	4.91482
1.9893857079139496	23.656378	4.8637824
2.006915119755667	22.795988	4.774514
2.0244445785655945	22.114002	4.702553
2.0419740847543175	21.747559	4.663428
2.0595036387324317	21.214182	4.6058855
2.0770332409105414	20.728949	4.5529056
2.094562891699263	20.313612	4.5070624
2.1120925915092217	19.720776	4.440808
2.129622340751053	19.544855	4.420956
2.1471521398354043	187.73038	13.701473
2.1646819891729323	444.0854	21.073334
2.182211889174303	440.36945	20.984982
2.1997418402501974	452.71283	21.27705
2.2172718428113023	432.7171	20.801853
2.234801897268317	320.6164	17.905764
2.2523320040319548	17.184864	4.145463
2.269862163512935	16.599741	4.074278
2.287392376121992	16.444063	4.055128
2.304922642269869	15.965276	3.9956572
2.322452962367322	15.733518	3.9665499
2.3399833368251164	15.337844	3.9163558
2.357513766054032	15.089536	3.884525
2.3750442504648586	15.029789	3.8768272
2.3925747904683963	14.861533	3.8550658
2.410105386475459	14.654367	3.8281024
2.4276360388968707	14.414428	3.7966337
2.445166748143469	14.137765	3.760022
2.4626975146261025	13.611024	3.6893122
2.4802283387556323	13.463423	3.6692538
2.4977592209429305	13.279841	3.6441517
2.5152901615988825	13.036883	3.6106625
2.5328211611343865	12.769394	3.5734289
2.5503522199603523	12.442646	3.5274136
2.5678833384877024	12.278881	3.5041234
2.5854145171273712	12.126139	3.4822605
2.6029457562903064	11.866017	3.4447086
2.620477056387469	11.660178	3.4147003
2.6380084178298326	11.528012	3.3952928
2.655539841028383	11.523794	3.3946714
2.673071326394119	11.343044	3.3679435
2.6906028743380523	11.161859	3.3409367
2.708134485271211	10.900192	3.301544
2.7256661596046325	10.701222	3.2712722
2.743197897749369	10.593382	3.2547476
2.760729700116486	10.373957	3.2208626
2.778261567117063	10.147329	3.1854873
2.795793499162193	9.947789	3.1540115
2.8133254966629817	9.833009	3.135763
2.830857560030551	9.749263	3.122381
2.8483896896760337	9.701529	3.1147277
2.865921886010578	9.628137	3.1029239
2.883454149445347	9.54983	3.09028
2.9009864803915177	9.363771	3.060028
2.91851887926028	9.117289	3.0194848
2.9360513464628384	8.917822	2.9862723
2.953583882410413	8.902509	2.9837072
2.9711164875142373	8.9085	2.984711
2.9886491621855606	8.849161	2.9747539
3.0061819068356455	8.575084	2.9283245
3.023714721875769	8.405062	2.8991485
3.041247607717225	8.204923	2.8644235
3.0587805647713213	8.16112	2.8567674
3.0763135934493806	8.080291	2.8425853
3.0938466941627407	8.037096	2.8349771
3.1113798673227544	7.9539027	2.8202665
3.1289131133407904	7.870982	2.805527
3.1464464326282315	7.7075796	2.7762527
3.1639798255964786	7.701331	2.7751272
3.1815132926569443	7.5000825	2.738628
3.1990468342210603	7.3484397	2.7108006
3.216580450700272	7.215055	2.6860855
3.2341141425060416	7.1885533	2.6811478
3.251647910049847	7.1866765	2.6807978
3.2691817537431813	7.1860075	2.680673
3.286715673997555	7.1969395	2.6827111
3.3042496712244938	7.181304	2.6797955
3.32178374583554	7.1730294	2.6782513
3.339317898242251	6.9788237	2.6417463
3.3568521288562034	6.738925	2.595944
3.3743864380889876	6.629846	2.5748487
3.3919208263522127	6.5020895	2.5499196
3.4094552940575023	6.501909	2.549884
3.4269898416164972	6.4187417	2.5335236
3.444524469440858	6.439231	2.537564
3.4620591779422587	6.383005	2.526461
3.479593967532391	6.463538	2.5423489
3.4971288386229658	6.42286	2.5343363
3.5146637916257086	6.40018	2.5298576
3.5321988269523628	6.3451924	2.5189664
3.5497339450146903	6.291342	2.5082548
3.5672691462244708	6.3044486	2.5108662
3.5848044309934988	6.2355857	2.4971154
3.60233979973359	6.194932	2.488962
3.619875252856575	6.19123	2.4882183
3.6374107907743034	6.1546307	2.4808528
3.6549464138986427	6.09896	2.4696074
3.6724821226414788	6.03221	2.4560556
3.690017917414714	6.0881767	2.4674232
3.7075537986302702	6.2730584	2.5046074
3.7250897667000857	6.3927817	2.5283952
3.7426258220361235	6.5576143	2.5607839
3.7601619650503553	6.7637634	2.6007237
3.777698196154779	7.272615	2.6967785
3.7952345157614067	8.284868	2.8783448
3.8127709242822716	9.113019	3.0187778
3.830307422129425	11.385958	3.3743086
3.847844009714936	30.171606	5.4928684
3.8653806874508954	97.63894	9.881242
3.882917455749409	96.837906	9.840625
3.900454315022606	96.662476	9.831708
3.917991265682631	41.27254	6.424371
3.9355283081416506	11.011057	3.3182912
3.9530654428118495	8.769068	2.9612613
3.970602670105433	7.4748487	2.734017
3.9881399904346244	6.590088	2.5671167
4.005677404211669	6.51397	2.552248
4.023214911848827	6.4500628	2.5396974
4.0407525137583855	6.4877067	2.5470977
4.058290210352644	6.4854937	2.5466633
4.075828002043927	6.4693646	2.5434945
4.0933658892445814	6.3156614	2.513098
4.110903872366966	6.1738954	2.4847324
4.128441951823468	6.1565843	2.4812465
4.145980128026488	6.194532	2.4888816
4.163518401388452	6.2204757	2.4940882
4.181056772321807	6.2099695	2.491981
4.1985952412390155	6.0968027	2.4691703
4.216133808552567	6.0313654	2.4558837
4.233672474674966	6.1064916	2.4711316
4.251211240018741	6.4249125	2.5347412
4.268750104996445	6.730956	2.5944085
4.286289070020643	7.6709676	2.7696512
4.303828135503928	9.189072	3.0313482
4.3213673018589125	29.43848	5.425724
4.3389065694982305	90.55096	9.515826
4.356445938834537	165.91422	12.880769
4.3739854102805085	171.50461	13.095977
4.391524984248844	172.40866	13.130447
4.409064661152262	136.50597	11.683577
4.426604441403504	96.71959	9.834612
4.444144325415337	75.59327	8.694439
4.461684313600543	21.494556	4.6362224
4.47922440637193	22.050406	4.695786
4.496764604142329	20.477581	4.525216
4.5143049073245916	18.714888	4.326071
4.531845316331589	16.505564	4.062704
4.5493858315762195	13.592469	3.6867967
4.566926453471405	11.236426	3.352078
4.584467182430081	9.200204	3.0331838
4.602008018865218	8.116079	2.8488734
4.619548963189798	7.469843	2.7331014
4.637090015816834	7.039247	2.653158
4.654631177159353	6.798864	2.6074631
4.672172447630417	6.520304	2.5534887
4.689713827643102	6.310776	2.5121257
4.7072553176105085	6.1265244	2.4751818
4.724796917945764	6.0174813	2.4530556
4.742338629062015	5.957954	2.440892
4.759880451372434	5.84394	2.4174242
4.777422385290215	5.6965504	2.3867447
4.794964431228581	5.539479	2.3536098
4.812506589600768	5.493205	2.3437588
4.830048860820047	5.4749403	2.339859
4.847591245299709	5.4945245	2.3440402
4.8651337434530655	5.494797	2.3440983
4.882676355693457	5.463444	2.3374012
4.900219082434242	5.519626	2.3493884
4.917761924088813	5.5075917	2.3468258
4.935304881070575	5.4481435	2.3341258
4.952847953792969	5.4381037	2.3319743
4.970391142669449	5.477436	2.3403924
4.9879344481135055	5.5677743	2.3596132
5.005477870538642	5.5042305	2.3461096
5.023021410358394	5.444096	2.3332586
5.040565067986324	5.3815207	2.3198104
5.05810884383601	5.324438	2.3074744
5.075652738321066	5.322008	2.3069477
5.09319675185512	5.3639665	2.3160238
5.110740884851836	5.301294	2.302454
5.128285137724894	5.3307633	2.3088446
5.145829510888007	5.28919	2.2998238
5.163374004754908	5.365785	2.3164165
5.1809186197393595	5.3294272	2.3085551
5.198463356255145	5.293712	2.3008068
5.216008214716077	5.215175	2.283676
5.233553195535998	5.289365	2.299862
5.251098299128764	5.27058	2.2957742
5.268643525908272	5.233651	2.2877173
5.286188876288432	5.241818	2.2895017
5.3037343506831895	5.2990847	2.301974
5.32127994950651	5.3113465	2.3046358
5.3388256731723915	5.2625327	2.2940211
5.356371522094851	5.148403	2.2690094
5.373917496687938	5.11478	2.2615879
5.391463597365729	5.1720314	2.27421
5.40900982454232	5.2190742	2.2845292
5.426556178631843	5.27115	2.2958984
5.444102660048449	5.2310324	2.2871451
5.4616492692063225	5.1989393	2.2801182
5.479196006519669	5.0964026	2.2575214
5.496742872402727	5.109052	2.2603211
5.514289867269756	5.0298877	2.242741
5.531836991535049	5.002245	2.23657
5.549384245612924	4.9817348	2.23198
5.566931629917724	4.964896	2.2282047
5.584479144863822	4.9717126	2.2297337
5.6020267908656205	5.0209374	2.2407448
5.619574568337545	5.0359044	2.244082
5.637122477694054	5.1074514	2.259967
5.654670519349629	5.146704	2.2686348
5.672218693718784	5.0821977	2.254373
5.689767001216059	5.0990305	2.2581034
5.707315442256021	5.080258	2.2539427
5.724864017253266	5.0779567	2.2534323
5.7424127266224225	5.1161323	2.2618868
5.75996157077814	5.1520734	2.2698178
5.777510550135105	5.135702	2.2662086
5.795059665108022	5.085255	2.2550511
5.812608916111639	5.084997	2.254994
5.830158303560715	5.2780037	2.2973907
5.847707827870055	5.3656344	2.3163838
5.86525748945448	5.4850254	2.3420131
5.8828072887288485	5.560198	2.3580072
5.900357226108044	5.5757194	2.3612962
5.917907302006979	5.577275	2.3616254
5.9354575168406	6.154977	2.4809225
5.9530078710238765	6.798464	2.6073864
5.970558364971812	7.3561826	2.7122283
5.988108999099438	7.67703	2.7707455
6.005659773821818	8.203895	2.8642442
6.023210689554039	7.889356	2.8087997
6.040761746711227	8.354231	2.8903687
6.058312945708531	7.7808833	2.7894235
6.075864286961132	7.3599396	2.712921
6.093415770884244	6.681713	2.584901
6.1109673978931065	6.059208	2.461546
6.128519168402993	5.459093	2.3364701
6.146071082829204	5.3803325	2.3195543
6.163623141587075	5.2966714	2.3014498
6.181175345091969	5.2234116	2.2854784
6.198727693759281	5.227263	2.286321
6.216280188004435	5.2200985	2.2847536
6.233832828242885	5.131308	2.265239
6.251385614890126	5.2417727	2.289492
6.268938548361669	5.2148314	2.2836006
6.286491629073067	5.244484	2.290084
6.304044857439898	5.1506395	2.2695022
6.321598233877777	5.0425744	2.2455678
6.339151758802344	4.9887958	2.2335613
6.356705432629277	4.9288306	2.220097
6.37425925577428	4.924441	2.219108
6.391813228653095	4.886451	2.2105317
6.409367351681486	4.9387603	2.2223322
6.426921625275259	4.9152946	2.2170463
6.44447604985025	4.9555492	2.2261064
6.46203062582232	4.987949	2.2333717
6.47958535360737	5.0259895	2.2418718
6.497140233621328	5.1076803	2.2600179
6.514695266280161	5.1591644	2.2713795
6.532250451999859	5.103571	2.2591085
6.549805791196454	5.0012345	2.236344
6.567361284286002	4.95532	2.2260547
6.584916931684597	4.9399586	2.2226017
6.602472733808367	4.99058	2.2339606
6.6200286910734665	4.9110727	2.216094
6.637584803896092	4.9391007	2.2224088
6.655141072692462	4.9813466	2.231893
6.672697497878842	5.0369043	2.244305
6.690254079871514	5.080342	2.2539613
6.707810819086808	5.0152817	2.2394824
6.725367715941078	4.9875526	2.233283
6.742924770850719	4.94275	2.2232296
6.760481984232151	4.9770064	2.2309206
6.778039356501836	5.0030017	2.2367392
6.795596888076266	4.9942703	2.2347865
6.813154579371963	4.919517	2.2179985
6.830712430805492	4.9066086	2.2150867
6.84827044279344	4.939556	2.2225113
6.865828615752445	4.9128284	2.21649
6.883386950099159	4.9451413	2.2237673
6.900945446250287	4.9291687	2.2201731
6.918504104622553	4.9611807	2.2273707
6.936062925632727	4.9676266	2.2288172
6.953621909697607	4.9429007	2.2232635
6.971181057234028	4.9845433	2.232609
6.988740368658859	4.9966707	2.2353234
7.006299844389007	5.0225863	2.2411127
7.023859484841407	5.1219883	2.263181
7.041419290433036	5.237051	2.2884605
7.058979261580902	5.463327	2.337376
7.0765393987020495	5.65897	2.378859
7.094099702213559	6.0723414	2.4642122
7.111660172532549	6.4069963	2.5312045
7.129220810076164	6.6551113	2.5797503
7.146781615261595	7.1701264	2.677709
7.16434258850606	7.380421	2.7166932
7.181903730226821	7.866327	2.8046973
7.1994650408411704	8.013051	2.8307333
7.217026520766437	8.1263895	2.8506823
7.234588170419983	8.36405	2.8920667
7.252149990219215	8.429511	2.903362
7.269711980581568	8.326098	2.885498
7.2872741419245175	8.152482	2.8552551
7.304836474665574	7.7614646	2.7859404
7.322398979222286	7.4336023	2.7264633
7.339961656012233	7.1470566	2.673398
7.357524505453039	6.83828	2.6150105
7.375087527962357	6.6091976	2.570836
7.392650723957886	6.329467	2.5158432
7.410214093857353	5.898918	2.4287689
7.427777638078528	5.584926	2.3632448
7.445341357039213	5.3922286	2.3221173
7.4629052511572525	5.257178	2.2928536
7.480469320850524	5.189535	2.2780552
7.498033566536948	5.1962914	2.2795374
7.5155979886344735	5.1358476	2.2662408
7.5331625875610975	5.1384997	2.266826
7.550727363734844	5.082752	2.254496
7.568292317573788	5.0950484	2.2572215
7.585857449496025	5.0058546	2.2373767
7.603422759919705	5.0270452	2.2421074
7.620988249263007	5.0525336	2.2477841
7.638553917944147	5.090011	2.2561052
7.656119766381391	5.111636	2.2608929
7.673685794993023	5.0693293	2.251517
7.691252004197388	5.054425	2.2482047
7.70881839441285	5.1014	2.258628
7.726384966057826	5.083144	2.254583
7.743951719550762	5.1095996	2.2604423
7.761518655310149	5.170633	2.2739027
7.779085773754511	5.223097	2.2854095
7.796653075302419	5.2537637	2.292109
7.814220560372475	5.282415	2.2983506
7.831788229383323	5.297382	2.3016043
7.8493560827536495	5.3110466	2.304571
7.866924120902174	5.308125	2.303937
7.884492344247663	5.2932825	2.3007135
7.9020607532089135	5.3055153	2.3033705
7.919629348204771	5.2632685	2.2941813
7.937198129654115	5.186009	2.277281
7.954767097975865	5.154067	2.270257
7.972336253588986	5.1895404	2.2780564
7.989905596912472	5.270313	2.2957163
8.007475128365371	5.356495	2.3144102
8.025044848366756	5.4016905	2.3241537
8.042614757335754	5.547608	2.355336
8.060184855691523	5.6192102	2.3704875
8.07775514385327	5.716176	2.3908527
8.095325622240228	5.728153	2.393356
8.112896291271687	5.741599	2.3961635
8.130467151366968	5.8310466	2.414756
8.148038202945436	5.88447	2.4257927
8.165609446426497	5.8956094	2.4280877
8.183180882229594	5.945534	2.4383466
8.200752510774217	5.978839	2.4451663
8.218324332479893	6.046172	2.4588966
8.235896347766193	6.007016	2.4509215
8.253468557052724	5.9507346	2.4394128
8.27104096075914	5.9518085	2.439633
8.288613559305137	6.002012	2.4499004
8.306186353110448	6.113136	2.4724755
8.32375934259485	6.1716914	2.484289
8.341332528178162	6.148058	2.4795277
8.358905910280246	6.1434693	2.4786024
8.376479489321003	6.1793447	2.4858289
8.394053265720377	6.2960734	2.5091977
8.411627239898356	6.290344	2.508056
8.42920141227497	6.30223	2.5104241
8.44677578327029	6.3285723	2.5156653
8.464350353304427	6.3277335	2.5154986
8.48192512279754	6.313105	2.5125892
8.499500092169827	6.1507277	2.480066
8.51707526184153	6.0633807	2.4623933
8.534650632232934	6.0535316	2.4603925
8.552226203764365	6.0668178	2.4630911
8.569801976856192	6.1566644	2.4812627
8.587377951928834	6.2810926	2.5062108
8.60495412940274	6.298891	2.5097592
8.622530509698416	6.296414	2.5092657
8.6401070932364	6.3239675	2.51475
8.657683880437283	6.447429	2.5391788
8.675260871721695	6.615144	2.5719922
8.692838067510303	6.8053565	2.608708
8.710415468223834	6.9523716	2.636735
8.727993074283043	7.099047	2.6644037
8.745570886108737	7.1628594	2.6763518
8.763148904121765	7.269528	2.696206
8.78072712874302	7.2191305	2.6868439
8.798305560393441	7.4455633	2.728656
8.815884199494006	7.577921	2.7528024
8.833463046465745	7.7246165	2.7793195
8.851042101729728	7.835483	2.7991934
8.86862136570707	8.033509	2.8343446
8.886200838818924	8.162446	2.8569994
8.903780521486505	8.18527	2.8609912
8.921360414131055	8.32096	2.8846073
8.938940517173874	8.545063	2.923194
8.956520831036297	8.737211	2.9558773
8.97410135613971	8.939426	2.9898875
8.99168209290554	9.145471	3.024148
9.009263041755265	9.43775	3.072092
9.026844203110405	9.669397	3.1095655
9.044425577392525	9.80267	3.1309216
9.062007165023239	9.864152	3.1407247
9.079588966424197	10.190862	3.192313
9.097170982017108	10.331724	3.2143
9.11475321222372	11.31728	3.3641164
9.132335657465825	12.193646	3.4919403
9.149918318165264	12.3272505	3.5110185
9.167501194743924	12.911501	3.5932577
9.18508428762374	12.5141325	3.537532
9.202667597226693	12.42271	3.5245867
9.220251123974803	12.082549	3.475996
9.237834868290143	11.878961	3.4465868
9.255418830594836	11.716485	3.4229352
9.273003011311046	11.098292	3.33141
9.290587410860985	10.849561	3.293867
9.308172029666911	10.260615	3.2032194
9.32575686815113	10.010353	3.1639142
9.343341926735997	8.707631	2.9508696
9.360927205843916	8.403113	2.8988123
9.378512705897327	8.182536	2.8605132
9.396098427318728	7.978318	2.8245916
9.413684370530664	7.8826036	2.8075974
9.431270535955722	7.7814784	2.78953
9.448856924016539	7.8250184	2.7973235
9.466443535135806	7.7693806	2.787361
9.484030369736251	7.804931	2.7937307
9.501617428240658	7.7931657	2.7916243
9.519204711071852	7.748736	2.7836552
9.536792218652714	7.718888	2.7782886
9.55437995140617	7.689757	2.773041
9.571967909755191	7.7284904	2.7800162
9.589556094122802	7.7926984	2.7915406
9.60714450493207	7.836935	2.7994525
9.624733142606116	7.859632	2.8035035
9.642322007568108	7.876421	2.8064961
9.659911100241267	7.8861647	2.8082316
9.677500421048851	7.918657	2.8140109
9.695089970414175	7.9328356	2.816529
9.712679748760609	7.9189577	2.8140643
9.730269756511557	7.95621	2.8206754
9.747859994090492	8.019046	2.8317919
9.765450461920915	8.094239	2.8450377
9.78304116042639	8.23512	2.86969
9.800632090030527	8.265729	2.8750181
9.81822325115699	8.24143	2.870789
9.835814644229481	8.202438	2.8639898
9.853406269671762	8.166973	2.8577917
9.870998127907646	8.188655	2.8615825
9.888590219360985	8.207473	2.8648686
9.906182544455698	8.2487135	2.8720574
9.923775103615734	8.197969	2.8632097
9.941367897265108	8.164592	2.857375
9.958960925827878	8.129123	2.8511617
9.97655418972816	8.122957	2.8500803
9.994147689390106	8.201254	2.8637831
10.011741425237934	8.221497	2.8673153
10.029335397695904	8.254576	2.8730776
10.04692960718833	8.324992	2.8853064
10.06452405413958	8.319428	2.884342
10.082118738974064	8.306111	2.8820324
10.099713662116246	8.288789	2.8790257
10.117308823990651	8.285871	2.8785188
10.134904225021844	8.163635	2.8572075
10.152499865634445	8.113208	2.8483694
10.170095746253125	8.097065	2.8455343
10.18769186730261	8.110339	2.8478658
10.205288229207675	8.071152	2.8409772
10.222884832393145	8.084214	2.8432753
10.2404816772839	8.091951	2.8446355
10.258078764304868	8.114702	2.8486316
10.275676093881035	8.093668	2.8449373
10.293273666437438	8.024213	2.832704
10.310871482399158	8.090196	2.844327
10.32846954219134	8.085987	2.843587
10.346067846239173	8.051722	2.8375556
10.363666394967908	8.028283	2.8334224
10.38126518880283	8.05681	2.838452
10.398864228169298	8.234645	2.8696072
10.416463513492713	8.335058	2.8870502
10.434063045198531	8.273467	2.8763635
10.451662823712262	8.175531	2.8592887
10.469262849459467	8.127973	2.85096
10.486863122865758	8.012929	2.8307118
10.504463644356806	8.020986	2.8321345
10.522064414358338	7.9925456	2.827109
10.539665433296118	7.887891	2.808539
10.557266701595987	7.76212	2.7860582
10.574868219683818	7.62457	2.7612624
10.592469987985552	7.449915	2.7294533
10.610072006927185	7.4326077	2.726281
10.627674276934751	7.375844	2.7158506
10.64527679843435	7.237123	2.69019
10.662879571852143	7.1254835	2.6693602
10.680482597614331	7.0072947	2.6471295
10.698085876147173	6.8366346	2.6146958
10.715689407876988	6.7783585	2.603528
10.733293193230146	6.7318244	2.594576
10.750897232633072	6.7226925	2.5928156
10.76850152651225	6.735301	2.5952458
10.786106075294207	6.6126413	2.5715055
10.803710879405534	6.5190616	2.5532453
10.821315939272877	6.4072886	2.5312622
10.83892125532294	6.3365283	2.5172462
10.856526827982472	6.2444925	2.4988983
10.874132657678285	6.1765766	2.485272
10.891738744837243	6.187857	2.4875405
10.909345089886271	6.174042	2.484762
10.926951693252343	6.0943084	2.4686654
10.944558555362494	6.029192	2.4554412
10.96216567664381	6.0255165	2.4546928
10.979773057523436	5.9309645	2.435357
10.997380698428573	5.853652	2.4194322
11.014988599786477	5.7257824	2.3928607
11.032596762024461	5.7122884	2.3900394
11.050205185569892	5.6540003	2.3778143
11.067813870850198	5.5926075	2.3648694
11.085422818292859	5.515729	2.348559
11.10303202832541	5.449143	2.3343399
11.120641501375454	5.351769	2.313389
11.138251237870636	5.3074574	2.303792
11.155861238238671	5.2750163	2.2967403
11.173471502907317	5.1906734	2.2783048
11.191082032304402	5.167448	2.2732022
11.208692826857805	5.1567945	2.2708576
11.226303886995465	5.1678596	2.2732928
11.243915213145371	5.0843716	2.2548552
11.261526805735578	4.974446	2.2303467
11.279138665194196	4.8673563	2.2062085
11.296750791949393	4.8205605	2.1955774
11.314363186429393	4.8074217	2.1925833
11.331975849062479	4.764774	2.1828363
11.34958878027699	4.662711	2.159331
11.36720198050133	4.583568	2.1409268
11.384815450163948	4.5119276	2.1241298
11.402429189693366	4.473741	2.115122
11.420043199518153	4.419128	2.1021721
11.437657480066942	63.395683	7.9621406
11.455272031768422	85.176834	9.22913
11.472886855051353	107.5933	10.372719
11.490501950344528	99.16459	9.958142
11.508117318076819	84.468124	9.190654
11.52573295867715	45.82163	6.7691674
11.543348872574514	4.1298566	2.0322049
11.560965060197946	4.102753	2.0255253
11.57858152197655	4.05223	2.013015
11.59619825833949	4.0347533	2.0086696
11.613815269715985	4.015453	2.0038595
11.631432556535323	38.550613	6.208914
11.649050119226837	83.06347	9.113916
11.666667958219929	93.42066	9.665437
11.68428607394406	107.64206	10.375069
11.701904466828756	82.49385	9.082613
11.719523137303586	65.34397	8.083562
11.737142085798196	4.577301	2.1394627
11.754761312742286	3.65825	1.9126552
11.772380818565619	3.6110659	1.9002805
11.790000603698015	3.5936406	1.89569
11.80762066856935	3.5772648	1.8913659
11.825241013609572	3.5596168	1.8866947
11.842861639248683	3.523059	1.8769814
11.860482545916748	3.5366135	1.8805887
11.878103734043883	3.5343022	1.879974
11.895725204060282	3.4890783	1.8679074
11.91334695639619	3.4205277	1.8494669
11.930968991481919	3.3576734	1.8323956
11.948591309747824	3.3541486	1.8314335
11.966213911624347	3.28633	1.8128238
11.98383679754198	3.2347658	1.7985455
12.001459967931268	3.2180696	1.7938979
12.019083423222835	3.2218993	1.794965
12.036707163847352	3.2066574	1.7907143
12.05433119023556	3.1827374	1.7840228
12.071955502818259	3.1343052	1.770397
12.089580102026313	3.12309	1.7672267
12.107204988290643	3.1085165	1.7630986
12.12483016204224	3.1424396	1.7726928
12.142455623712152	3.1557932	1.7764553
12.16008137373149	3.1351156	1.7706258
12.177707412531431	3.0735307	1.7531488
12.19533374054321	3.0237951	1.7389063
12.212960358198126	3.0193465	1.7376267
12.230587265927545	3.0167625	1.7368829
12.248214464162889	2.9778814	1.7256539
12.265841953335649	2.9555266	1.7191645
12.283469733877375	2.9827273	1.7270575
12.301097806219685	3.011818	1.735459
12.31872617079425	2.9812808	1.7266386
12.336354828032825	2.9721088	1.7239805
12.353983778367205	2.9734743	1.7243764
12.371613022229262	2.9986496	1.731661
12.389242560050928	2.9593713	1.7202823
12.406872392264201	2.9073446	1.7050937
12.424502519301143	2.8729286	1.6949716
12.442132941593874	2.843178	1.6861726
12.459763659574586	2.8288596	1.6819214
12.477394673675532	2.812441	1.6770334
12.49502598432903	2.8009167	1.673594
12.51265759196746	2.818236	1.6787603
12.530289497023267	2.8495197	1.688052
12.547921699928967	2.8357887	1.68398
12.565554201117134	2.7999494	1.6733049
12.583187001020404	2.794394	1.6716441
12.600820100071486	2.7894218	1.6701562
12.618453498703152	2.7965093	1.6722766
12.636087197348235	2.7434402	1.6563333
12.65372119643964	2.7245562	1.650623
12.671355496410326	2.7687662	1.6639609
12.68899009769333	2.840041	1.685242
12.706625000721749	2.8509126	1.6884645
12.724260205928752	2.8890827	1.6997302
12.741895713747551	2.928113	1.7111729
12.759531524611454	2.9911532	1.729495
12.777167638953818	2.973676	1.724435
12.794804057208072	2.9917326	1.7296625
12.812440779807702	3.0698657	1.7521032
12.830077807186271	3.2314343	1.7976191
12.847715139777405	3.289777	1.8137742
12.865352778014795	3.4588633	1.8598019
12.882990722332197	3.5892067	1.8945202
12.90062897316344	3.6566772	1.9122441
12.918267530942412	3.7654183	1.9404685
12.935906396103071	3.6216774	1.9030706
12.953545569079449	3.7838001	1.9451993
12.971185050305628	3.5825942	1.8927742
12.988824840215775	3.5887666	1.894404
13.006464939244115	3.5960717	1.8963311
13.024105347824943	3.3937955	1.8422257
13.041746066392617	3.448975	1.8571416
13.05938709538157	3.2711167	1.8086228
13.077028435226296	3.3739722	1.8368375
13.094670086361363	3.320829	1.8223141
13.112312049221401	3.25289	1.8035771
13.129954324241112	3.133692	1.7702237
13.147596911855258	2.9023407	1.7036257
13.165239812498685	2.8621132	1.6917782
13.182883026606293	2.7967017	1.6723342
13.200526554613058	2.7382228	1.6547576
13.218170396954017	2.6962738	1.6420335
13.235814554064284	2.6676908	1.6333067
13.253459026379034	2.6873126	1.6393025
13.271103814333523	2.6656628	1.6326858
13.288748918363058	2.6575875	1.6302109
13.306394338903031	2.6375055	1.6240399
13.32404007638889	2.6306624	1.6219317
13.341686131256164	2.6535022	1.6289574
13.359332503940449	2.6355438	1.6234359
13.376979194877402	2.6792092	1.636829
13.394626204502751	2.6828277	1.637934
13.412273533252307	2.701067	1.6434923
13.429921181561937	2.681888	1.6376472
13.447569149867581	2.695487	1.6417938
13.465217438605247	2.7141342	1.647463
13.482866048211022	2.708196	1.6456597
13.500514979121052	2.697422	1.642383
13.518164231771568	2.6505811	1.6280606
13.535813806598844	2.625676	1.6203938
13.553463704039254	2.6331406	1.6226954
13.571113924529229	2.642874	1.6256919
13.588764468505275	2.669306	1.6338011
13.606415336403956	2.6975543	1.6424233
13.624066528661917	2.702334	1.6438777
13.641718045715882	2.766133	1.6631696
13.659369888002635	2.8100245	1.6763128
13.67702205595903	2.8562634	1.6900483
13.694674550021993	2.92482	1.7102104
13.712327370628532	2.9996326	1.7319448
13.729980518215713	3.0888524	1.7575132
13.747633993220681	3.146984	1.7739741
13.765287796080647	3.1741698	1.78162
13.7829419272329	3.2218187	1.7949425
13.800596387114801	3.2876832	1.813197
13.818251176163775	3.300088	1.8166144
13.835906294817324	3.3276637	1.8241885
13.853561743513023	3.3628788	1.8338153
13.871217522688525	3.4084358	1.846195
13.888873632781538	3.4264867	1.8510772
13.906530074229858	3.434523	1.8532467
13.92418684747135	3.464838	1.8614075
13.941843952943948	3.477979	1.8649341
13.959501391085665	3.4689555	1.8625132
13.977159162334578	3.3879943	1.8406506
13.994817267128846	3.357897	1.8324566
14.012475705906693	3.2929893	1.8146596
14.030134479106424	3.229014	1.7969457
14.047793587166414	3.1626222	1.7783763
14.065453030525108	3.0932	1.7587496
14.083112809621026	3.005607	1.7336686
14.100772924892766	2.9254196	1.7103858
14.118433376778997	2.8564653	1.6901081
14.136094165718458	2.8021724	1.673969
14.153755292149969	2.7691307	1.6640705
14.171416756512416	2.7316952	1.6527841
14.189078559244768	2.7047474	1.6446116
14.20674070078606	2.6404417	1.6249436
14.224403181575408	2.547574	1.5961121
14.242066002051999	2.4899523	1.5779582
14.259729162655093	2.4514961	1.5657254
14.277392663824022	2.4297392	1.5587621
14.295056505998208	2.406794	1.5513846
14.312720689617128	2.3451598	1.5313915
14.330385215120348	2.366102	1.5382138
14.348050082947497	2.3706384	1.5396878
14.3657152935383	2.3883748	1.5454367
14.383380847332528	2.3453896	1.5314665
14.401046744770051	2.3304043	1.5265661
14.418712986290798	2.3480108	1.532322
14.436379572334793	2.3697894	1.539412
14.454046503342123	2.3780832	1.5421035
14.471713779752946	2.36123	1.5366294
14.489381402007504	2.370716	1.539713
14.507049370546113	2.3873482	1.5451046
14.524717685809168	2.3933835	1.5470564
14.542386348237134	2.3859262	1.5446444
14.560055358270553	2.3683722	1.5389516
14.577724716350051	2.410855	1.5526929
14.595394422916325	2.4009662	1.5495051
14.61306447841015	2.4109066	1.5527095
14.63073488327237	2.44168	1.5625876
14.648405637943917	2.4819372	1.5754166
14.6660767428658	2.4678817	1.5709493
14.683748198479094	2.4877062	1.5772464
14.701420005224954	2.5304942	1.5907527
14.719092163544628	2.6007333	1.6126789
14.73676467387942	2.6356268	1.6234614
14.754437536670727	2.633024	1.6226596
14.772110752360014	2.6269271	1.6207798
14.78978432138882	2.6351318	1.6233089
14.807458244198777	2.6590064	1.630646
14.82513252123159	2.6389248	1.6244768
14.842807152929028	2.6638498	1.6321305
14.860482139732962	2.6439133	1.6260115
14.87815748208531	2.6385725	1.6243683
14.8958331804281	2.660379	1.6310668
14.91350923520342	2.6414757	1.6252618
14.931185646853438	2.6425855	1.6256031
14.948862415820408	2.628249	1.6211874
14.966539542546656	2.649705	1.6277914
14.98421702747459	2.623879	1.6198392
15.001894871046696	2.6381826	1.6242484
15.019573073705542	2.649685	1.6277853
15.037251635893766	2.6463294	1.6267543
15.054930558054092	2.6266015	1.6206794
15.072609840629323	2.6925704	1.6409054
15.090289484062351	2.8672278	1.693289
15.107969488796124	3.1887276	1.7857009
15.125649855273691	3.602947	1.898143
15.14333058393817	4.0892854	2.0221982
15.161011675232768	5.042168	2.2454772
15.17869312960076	6.328154	2.5155823
15.196374947485506	8.073215	2.8413403
15.214057129330447	11.02334	3.3201416
15.231739675579114	15.686066	3.960564
15.249422586675102	20.766611	4.5570397
15.267105863062092	24.076525	4.9067836
15.284789505183847	24.466635	4.946376
15.302473513484218	22.426374	4.735649
15.320157888407127	18.83399	4.3398147
15.337842630396578	14.712562	3.8356957
15.355527739896656	11.468897	3.386576
15.37321321735153	8.913256	2.9855077
15.39089906320545	6.5414586	2.5576274
15.408585277902748	4.9449034	2.2237139
15.42627186188783	3.8148594	1.9531665
15.443958815605198	3.2465162	1.8018092
15.461646139499424	2.892202	1.7006475
15.479333834015168	2.73424	1.6535537
15.497021899597165	2.6572268	1.6301003
15.514710336690234	2.6246662	1.6200821
15.53239914573928	2.6080518	1.6149464
15.550088327189297	2.565438	1.6016985
15.567777881485336	2.5374308	1.5929315
15.58546780907256	2.4885755	1.5775219
15.6031581103962	2.4509587	1.5655538
15.620848785901568	2.4187067	1.5552192
15.638539836034063	2.4313018	1.5592632
15.656231261239173	2.4655976	1.5702221
15.673923061962451	2.459242	1.5681971
15.691615238649552	2.4282348	1.5582794
15.709307791746202	2.373992	1.5407764
15.727000721698221	2.362764	1.5371284
15.744694028951498	2.3240879	1.524496
15.76238771395202	2.3158743	1.5217997
15.780081777145844	2.3012288	1.5169802
15.797776218979125	2.3136168	1.5210577
15.815471039898094	2.3651218	1.5378953
15.833166240349064	2.413336	1.5534916
15.850861820778437	2.4213538	1.55607
15.868557781632699	2.4151585	1.554078
15.886254123358412	2.4098446	1.5523674
15.903950846402232	2.3778374	1.5420238
15.921647951210897	2.3542323	1.5343508
15.939345438231225	2.3132024	1.5209216
15.957043307910133	2.3091893	1.5196017
15.974741560694602	2.3245249	1.5246392
15.992440197031714	2.3681352	1.5388746
16.01013921736862	2.3908517	1.546238
16.02783862215259	2.4264586	1.5577095
16.045538411830933	2.400659	1.549406
16.06323858685107	2.4074574	1.5515983
16.080939147660512	2.3909364	1.5462652
16.09864009470684	2.4094293	1.5522337
16.11634142843774	2.4031	1.5501935
16.134043149300954	2.4056063	1.5510017
16.15174525774433	2.3983073	1.5486469
16.169447754215817	2.3748097	1.5410417
16.18715063916342	2.3709671	1.5397946
16.204853913035244	2.3859868	1.544664
16.222557576279478	2.4384096	1.5615407
16.240261629344403	22.437914	4.7368674
16.257966072678386	42.982784	6.5561256
16.275670906729868	38.105312	6.1729503
16.293376131947387	2.5128393	1.5851938
16.31108174877957	2.491733	1.5785224
16.328787757675133	2.469261	1.5713882
16.34649415908287	2.474899	1.5731812
16.364200953451657	2.5343413	1.5919615
16.38190814123048	2.601713	1.6129826
16.39961572286839	2.6283436	1.6212167
16.41732369881455	2.705906	1.6449639
16.43503206951817	2.7612362	1.6616968
16.45274083542859	2.8176215	1.6785772
16.47044999699522	2.8455226	1.6868677
16.488159554667558	2.8516164	1.688673
16.505869508895184	2.8931208	1.7009176
16.523579860127786	2.9034464	1.7039503
16.541290608815117	2.957169	1.7196422
16.559001755407035	2.9903908	1.7292746
16.57671330035348	3.0459256	1.7452581
16.59442524410448	3.1029513	1.7615196
16.61213758711015	3.1331542	1.7700717
16.629850329820705	3.1686049	1.7800575
16.647563472686436	3.2104638	1.7917767
16.665277016157724	3.2451117	1.8014194
16.682990960685053	3.27682	1.8101989
16.70070530671898	3.3508747	1.8305395
16.718420054710155	3.435851	1.8536049
16.736135205109335	3.5338118	1.8798436
16.753850758367335	3.5928488	1.8954811
16.771566714935087	3.610433	1.9001139
16.789283075263597	3.686898	1.9201297
16.80699983980398	3.769556	1.9415344
16.82471700900741	3.8489554	1.9618754
16.84243458332518	3.9047885	1.9760537
16.860152563208665	3.941088	1.9852173
16.87787094910932	3.9951327	1.9987828
16.89558974147871	4.0181274	2.0045269
16.913308940768466	4.0232954	2.0058155
16.931028547430333	4.0939074	2.0233407
16.94874856191613	4.1751823	2.0433264
16.966468984677785	4.317939	2.077965
16.98418981616729	4.4456177	2.1084633
17.00191105683676	4.523634	2.1268835
17.019632707138374	4.553175	2.133817
17.03735476752442	4.5504303	2.1331737
17.05507723844728	4.5522866	2.1336088
17.072800120359403	4.5502405	2.1331294
17.090523413713353	4.567351	2.1371362
17.108247118961785	4.5881796	2.1420035
17.125971236557437	4.601238	2.1450496
17.143695766953133	4.6326966	2.15237
17.161420710601806	4.620454	2.1495242
17.179146067956477	4.658513	2.1583588
17.19687183947025	4.648894	2.1561294
17.21459802559634	4.6251054	2.150606
17.232324626788028	4.5758896	2.139133
17.25005164349871	4.6031013	2.145484
17.267779076181863	4.6546316	2.1574595
17.285506925291074	4.701961	2.1684005
17.30323519127999	4.6583138	2.1583128
17.320963874602384	4.5754967	2.139041
17.33869297571211	4.469706	2.114168
17.356422495063114	4.4581256	2.1114273
17.37415243310944	4.4666066	2.1134348
17.391882790305218	4.4951277	2.1201715
17.40961356710468	4.485308	2.1178546
17.42734476396215	4.4778614	2.1160958
17.445076381332044	4.481137	2.1168697
17.462808419668868	4.5952797	2.1436603
17.48054087942723	4.6920776	2.1661205
17.498273761061835	4.95743	2.2265286
17.51600706502747	5.45584	2.335774
17.533740791779024	6.1520586	2.4803343
17.551474941771485	7.506196	2.7397437
17.56920951545993	8.596996	2.9320636
17.586944513299528	10.895189	3.3007863
17.60467993574556	12.696292	3.5631857
17.622415783253373	14.468706	3.8037753
17.64015205627843	15.800066	3.9749296
17.657888755276293	16.791447	4.097737
17.675625880702604	17.270754	4.15581
17.69336343301311	17.119007	4.137512
17.71110141266366	16.188366	4.023477
17.728839820110178	15.141898	3.8912592
17.746578655808705	14.141392	3.7605042
17.764317920215372	12.731334	3.5680995
17.7820576137864	11.31841	3.3642845
17.79979773697811	9.443471	3.073023
17.81753829024692	7.614411	2.7594223
17.835279274049356	5.9460063	2.4384434
17.85302068884201	4.858043	2.2040968
17.870762535081607	4.197685	2.0488253
17.888504813224934	3.8594458	1.9645473
17.90624752372891	3.7287638	1.9310007
17.923990667050536	3.6339495	1.9062921
17.941734243646895	3.554024	1.885212
17.959478253975185	3.4973936	1.870132
17.9772226984927	3.4465384	1.8564855
17.994967577656833	3.3921046	1.8417667
18.01271289192506	3.3353899	1.826305
18.030458641754965	3.283468	1.8120342
18.04820482760425	3.2656806	1.8071194
18.06595144993067	3.2606204	1.8057188
18.083698509192125	3.2574828	1.8048497
18.101446005846576	3.219506	1.7942982
18.119193940352105	3.2003884	1.788963
18.136942313166887	3.1640348	1.7787734
18.1546911247492	3.1643698	1.7788676
18.1724403755574	3.1483457	1.7743578
18.19019006604997	3.1407845	1.7722259
18.207940196685467	3.1509714	1.7750976
18.225690767922575	3.1292496	1.7689685
18.243441780220046	3.0998566	1.760641
18.261193234036764	3.0940447	1.7589897
18.278945129831676	3.0885766	1.7574346
18.29669746806386	3.0664465	1.7511272
18.314450249192483	3.0182445	1.7373096
18.3322034736768	3.0077965	1.7343
18.349957141976184	3.0044258	1.733328
18.3677112545501	2.9903145	1.7292526
18.385465811858108	2.962253	1.7211198
18.403220814359884	2.9354854	1.7133259
18.420976262515172	2.9505088	1.7177045
18.43873215678387	2.9928448	1.729984
18.456488497625923	3.107817	1.7629001
18.474245285501407	3.232727	1.7979786
18.492002520870486	3.3171809	1.8213129
18.50976020419343	3.3638484	1.8340797
18.527518335930615	3.6227612	1.9033552
18.545276916542516	4.1618233	2.0400548
18.563035946489688	4.366205	2.0895467
18.580795426232832	4.8053393	2.1921084
18.598555356232698	4.6866384	2.1648645
18.616315736950185	4.9455714	2.223864
18.63407656884626	4.6701083	2.1610434
18.65183785238201	4.9090767	2.2156436
18.669599588018617	4.682531	2.1639156
18.68736177621737	4.648349	2.156003
18.705124417439652	4.6092415	2.1469145
18.72288751214696	4.4091907	2.0998073
18.740651060800886	4.5207253	2.1261997
18.758415063863115	4.2676287	2.065824
18.77617952179546	4.468689	2.1139274
18.793944435059814	4.3100543	2.076067
18.811709804118184	4.301838	2.0740871
18.829475629432675	4.210626	2.051981
18.8472419114655	3.9508393	1.9876719
18.86500865067897	4.026645	2.0066502
18.88277584753551	3.6975346	1.9228975
18.90054350249763	3.741761	1.9343632
18.918311616027957	3.46841	1.8623668
18.936080188589226	3.3638704	1.8340857
18.953849220644265	3.044263	1.7447816
18.971618712656007	2.9142952	1.7071307
18.9893886650875	2.8368907	1.6843072
19.007159078401887	7.957325	2.820873
19.024929953062408	32.79052	5.7263007
19.042701289532435	32.74405	5.7222414
19.060473088275405	25.318903	5.0317893
19.07824534975489	2.6219306	1.6192377
19.096018074434568	2.6222353	1.6193317
19.113791262778197	2.5976324	1.6117172
19.13156491524966	2.60264	1.6132699
19.149339032312945	2.6210444	1.618964
19.167113614432136	2.5930648	1.6102996
19.184888662071433	2.599206	1.6122053
19.202664175695123	2.5668895	1.6021515
19.220440155767623	2.5741904	1.6044284
19.238216602753447	2.5188992	1.5871041
19.2559935171172	2.4947546	1.5794792
19.27377089932361	2.4867883	1.5769554
19.291548749837514	2.5292358	1.5903572
19.309327069123835	2.5194793	1.5872867
19.32710585764763	2.5051103	1.582754
19.344885115874032	2.4743526	1.5730075
19.362664844268313	2.488569	1.5775199
19.380445043295822	2.4921477	1.5786538
19.39822571342203	2.4747705	1.5731404
19.41600685511252	2.4326158	1.5596845
19.43378846883297	2.4378757	1.5613698
19.451570555049173	2.479	1.5744841
19.469353114227037	2.5001526	1.5811871
19.48713614683254	2.508691	1.5838848
19.50491965333182	2.5331414	1.5915846
19.52270363419109	2.5145946	1.5857474
19.540488089876686	2.4766436	1.5737356
19.55827302085503	2.4724796	1.572412
19.576058427592674	2.4555795	1.5670289
19.593844310556282	2.4960158	1.5798784
19.611630670212598	2.4811246	1.5751586
19.629417507028506	2.4913447	1.5783994
19.64720482147098	2.472847	1.5725288
19.6649926140071	2.4577332	1.5677159
19.682780885104084	2.4902332	1.5780473
19.70056963522921	2.4995785	1.5810056
19.718358864849908	2.5056512	1.5829248
19.7361485744337	2.4987402	1.5807405
19.753938764448215	2.4785628	1.5743452
19.771729435361202	2.4967291	1.5801041
19.789520587640506	2.4989474	1.5808059
19.807312221754092	2.485775	1.576634
19.825104338170043	2.4713366	1.5720485
19.842896937356517	2.4840655	1.5760919
19.860690019781824	2.4994824	1.5809752
19.87848358591436	2.516375	1.5863086
19.896277636222635	2.5250561	1.5890425
19.914072171175278	2.4775183	1.5740135
19.931867191241015	2.4468043	1.5642264
19.94966269688869	2.412766	1.5533081
19.967458688587264	2.4397583	1.5619726
19.985255166805807	2.470585	1.5718095
20.00305213201348	2.516347	1.5862998
20.020849584679578	2.4845304	1.5762393
20.038647525273507	2.4669302	1.5706464
20.05644595426477	2.4680064	1.570989
20.07424487212299	2.5042994	1.5824978
20.092044279317903	2.4754455	1.5733548
20.109844176319353	2.4069722	1.5514419
20.127644563597304	2.3735347	1.540628
20.145445441621817	2.3709824	1.5397995
20.16324681086307	2.3918605	1.5465641
20.181048671791373	2.401308	1.5496155
20.198851024877122	2.4112449	1.5528184
20.216653870590836	2.423376	1.5567197
20.234457209403146	2.3964834	1.5480579
20.252261041784802	2.3589265	1.5358797
20.270065368206662	2.3080444	1.519225
20.287870189139685	2.3022392	1.5173131
20.305675505054968	2.3023875	1.517362
20.323481316423702	2.3280191	1.5257847
20.341287623717207	2.3282094	1.5258471
20.359094427406884	2.3253486	1.5249094
20.376901727964288	2.3077087	1.5191145
20.39470952586107	2.2788663	1.5095915
20.41251782156899	2.2976952	1.515815
20.430326615559935	2.3294291	1.5262468
20.448135908305886	2.356354	1.535042
20.465945700278965	2.347055	1.5320101
20.483755991951384	2.3561854	1.5349871
20.50156678379548	2.3691182	1.539194
20.519378076283708	2.355795	1.5348599
20.537189869888635	2.3120403	1.5205395
20.55500216508294	2.2760658	1.5086635
20.572814962339415	2.282995	1.5109583
20.59062826213098	2.3311777	1.5268195
20.60844206493066	2.354814	1.5345403
20.626256371211593	2.3714864	1.5399631
20.644071181447032	2.3351367	1.5281154
20.66188649611036	2.3117056	1.5204294
20.67970231567506	2.3158123	1.5217793
20.697518640614742	2.3058743	1.5185106
20.715335471403122	2.295743	1.5151709
20.73315280851404	2.3117828	1.5204548
20.750970652421447	2.3399813	1.5296998
20.768789003599412	2.3648899	1.5378199
20.786607862522136	2.3411515	1.5300822
20.8044272296639	2.3448124	1.531278
20.82224710549913	2.3347595	1.527992
20.84006749050237	2.3033042	1.5176641
20.857888385148268	3.820249	1.9545457
20.8757097899116	45.914883	6.776052
20.893531705267254	64.75689	8.047167
20.911354131690224	83.78243	9.153275
20.92917706965566	69.01213	8.307354
20.94700051963877	50.096573	7.0778933
20.96482448211493	29.356535	5.418167
20.982648957559622	4.0851207	2.0211682
21.00047394644843	2.1905293	1.4800436
21.01829944925707	2.2329912	1.4943197
21.036125466461375	2.2619119	1.5039654
21.053951998537297	2.290157	1.5133265
21.071779045960906	2.3044138	1.5180296
21.089606609208378	2.271981	1.5073092
21.10743468875603	2.2384555	1.4961469
21.12526328508028	2.1943555	1.4813358
21.143092398657675	2.2176263	1.4891697
21.16092202996488	2.193228	1.4809551
21.17875217947867	2.1874347	1.4789978
21.19658284767596	2.1460066	1.4649254
21.21441403503377	2.19716	1.482282
21.232245742029225	2.1907592	1.4801214
21.2500779691396	2.175752	1.475043
21.26791071684227	2.1623669	1.4704988
21.28574398561475	2.1770718	1.4754903
21.30357777593465	2.1672325	1.4721524
21.321412088279704	2.1622	1.470442
21.339246923127792	2.149288	1.466045
21.357082280956888	2.1590784	1.4693803
21.3749181622451	2.1550756	1.4680176
21.392754567470647	2.1632957	1.4708147
21.41059149711187	2.1876423	1.479068
21.42842895164726	2.1762109	1.4751986
21.446266931555378	2.157459	1.4688292
21.464105437314945	2.1091733	1.4522994
21.481944469404798	2.123814	1.4573312
21.49978402830388	2.109414	1.4523822
21.51762411449127	2.1244843	1.4575611
21.53546472844617	2.0940979	1.4470998
21.553305870647876	2.096297	1.4478594
21.571147541575865	2.062649	1.4361925
21.58898974170967	2.0710995	1.4391315
21.60683247152899	2.0743399	1.4402568
21.62467573151363	2.0545125	1.4333571
21.642519522143523	2.044096	1.4297189
21.660363843898722	2.0633483	1.4364359
21.6782086972594	2.0570648	1.4342471
21.696054082705864	2.0890641	1.4453595
21.713900000718535	2.1120224	1.4532799
21.73174645177795	2.110734	1.4528365
21.749593436364794	2.061275	1.4357141
21.767440954959845	2.0768056	1.4411126
21.785289008044032	2.1026592	1.4500549
21.803137596098388	2.0935192	1.4468999
21.820986719604086	2.053285	1.4329288
21.838836379042412	2.0380185	1.4275918
21.85668657489478	2.0203967	1.4214066
21.87453730764273	2.0141923	1.4192225
21.892388577767914	2.0139906	1.4191514
21.91024038575213	1.9710158	1.4039288
21.928092732077285	1.954772	1.3981316
21.945945617225426	1.9723467	1.4044026
21.963799041678694	1.9947276	1.4123483
21.981653005919398	31.319542	5.5963864
21.999507510429943	78.102806	8.837579
22.01736255569286	73.051605	8.547023
22.035218142190818	4.1287065	2.0319219
22.05307427040661	1.9889271	1.4102932
22.07093094082315	2.0161831	1.4199237
22.088788153923474	2.0202997	1.4213724
22.106645910190746	1.9998579	1.4141634
22.12450421010827	1.9965101	1.4129791
22.142363054159464	1.9980556	1.4135259
22.16022244282787	1.9737465	1.4049009
22.178082376597164	1.9362668	1.3914981
22.195942855951145	1.9154029	1.3839809
22.213803881373742	1.9069256	1.3809148
22.231665453349002	1.9339857	1.3906782
22.24952757236111	1.9769253	1.4060317
22.26739023889438	1.9826663	1.4080719
22.28525345343323	1.959734	1.399905
22.30311721646225	1.9531047	1.3975352
22.320981528466113	1.9705577	1.4037656
22.33884638992964	2.0001564	1.4142689
22.356711801337788	1.9997181	1.4141139
22.37457776317561	1.9686893	1.4030999
22.392444275928337	1.9515063	1.3969632
22.410311340081282	1.9382861	1.3922235
22.428178956119904	1.9275122	1.3883487
22.446047124529805	1.9387813	1.3924012
22.46391584579669	1.9462352	1.3950753
22.481785120406414	1.9352163	1.3911206
22.49965494884496	1.9226218	1.3865864
22.51752533159841	1.9136358	1.3833423
22.53539626915302	1.9412959	1.393304
22.553267761995137	1.971634	1.4041488
22.571139810611264	1.9694349	1.4033655
22.589012415488025	1.9534432	1.3976563
22.60688557711216	1.9675809	1.4027048
22.624759295970566	1.9685519	1.4030509
22.642633572550263	1.9519424	1.3971193
22.660508407338362	1.9148788	1.3837914
22.67838380082217	1.9041948	1.3799256
22.696259753489077	1.9023408	1.3792537
22.714136265826614	1.905113	1.3802583
22.73201333832246	1.9004581	1.378571
22.74989097146439	1.8896338	1.3746395
22.76776916574035	1.8965907	1.3771676
22.785647921638393	1.894291	1.3763324
22.803527239646712	1.9047163	1.3801146
22.82140712025363	1.928635	1.388753
22.839287563947593	1.9020478	1.3791475
22.85716857121719	1.8709714	1.3678346
22.875050142551135	1.8684502	1.3669126
22.892932278438277	1.9363809	1.391539
22.910814979367604	1.96605	1.4021591
22.928698245828222	1.9533974	1.39764
22.946582078309387	1.9124898	1.382928
22.96446647730047	1.9322093	1.3900393
22.98235144329098	1.9404073	1.392985
23.000236976770562	1.9359714	1.3913919
23.018123078229	1.9103274	1.382146
23.03600974815619	1.952796	1.3974248
23.053896987042194	1.9520868	1.397171
23.071784795377173	1.9455624	1.3948342
23.08967317365145	1.925015	1.3874491
23.10756212235546	1.9195726	1.3854864
23.125451641979787	1.9266621	1.3880426
23.143341733015134	1.9053383	1.3803399
23.161232395952357	1.9237407	1.3869898
23.179123631282426	1.9120651	1.3827745
23.197015439496468	1.87372	1.3688389
23.214907821085717	1.882906	1.3721902
23.23280077654157	1.9048792	1.3801736
23.250694306355538	1.9033538	1.3796209
23.268588411019277	1.908692	1.3815542
23.28648309102458	1.904092	1.3798884
23.304378346863356	1.9127223	1.383012
23.322274179027676	1.9366866	1.3916489
23.340170588009723	1.978905	1.4067355
23.358067574301852	1.9759182	1.4056736
23.37596513839651	1.9345433	1.3908786
23.39386328078629	1.920575	1.3858482
23.411762001963947	1.8916814	1.3753841
23.429661302422353	1.8709564	1.3678291
23.4475611826545	1.8684665	1.3669186
23.46546164315356	1.888764	1.3743231
23.48336268441279	1.8959211	1.3769245
23.501264306925638	1.9070553	1.3809617
23.51916651118564	1.8981278	1.3777256
23.537069297686497	1.8932517	1.3759549
23.554972666922037	1.888957	1.3743933
23.57287661938623	1.883527	1.3724165
23.59078115557318	1.8839438	1.3725684
23.608686275977128	1.8924127	1.3756499
23.62659198109246	1.9226348	1.3865911
23.6444982714137	1.9233532	1.3868501
23.66240514743549	1.8870258	1.3736906
23.68031260965263	1.8905139	1.3749596
23.698220658560068	1.8881546	1.3741014
23.716129294652845	1.9324197	1.390115
23.7340385184262	1.9211046	1.3860391
23.75194833037546	1.9202822	1.3857425
23.769858730996123	1.8944808	1.3764014
23.78776972078382	1.8760233	1.36968
23.80568130023431	1.8737642	1.368855
23.823593469843495	1.8841465	1.3726422
23.841506230107424	1.870592	1.3676959
23.859419581522275	1.8852466	1.3730428
23.87733352458438	1.8888242	1.3743451
23.89524805979019	1.9130986	1.3831481
23.913163187636318	1.8908759	1.3750912
23.931078908619508	1.8724926	1.3683904
23.948995223236633	1.8719665	1.3681983
23.966912131984735	1.9563177	1.3986843
23.98482963536096	2.0664668	1.4375211
24.002747733862616	2.0463333	1.4305011
24.020666427987155	2.0211492	1.4216713
24.038585718232156	2.0097175	1.4176451
24.056505605095353	2.0233896	1.422459
24.074426089074617	2.0318708	1.4254371
24.092347170667946	2.0711052	1.4391335
24.110268850373515	2.0966604	1.4479849
24.128191128689586	2.0828102	1.4431944
24.146114006114626	1.9931612	1.4117936
24.164037483147187	2.019135	1.4209627
24.181961560286005	2.0601883	1.4353356
24.199886238029926	2.0533407	1.4329482
24.21781151687797	2.031706	1.4253793
24.235737397329274	1.9869608	1.409596
24.253663879883135	1.9980509	1.4135243
24.271590965038975	2.0337017	1.4260792
24.289518653296376	2.0523746	1.4326111
24.30744694515505	2.0646713	1.4368964
24.32537584111486	2.0404837	1.428455
24.34330534167581	2.0104973	1.4179201
24.361235447338046	2.012562	1.418648
24.379166158601876	1.9826146	1.4080535
24.39709747596772	1.9878093	1.409897
24.41502939993615	2.015223	1.4195855
24.432961931007917	1.9892929	1.4104229
24.450895069683856	1.9776956	1.4063057
24.468828816465	1.9572134	1.3990045
24.4867631718525	1.9396751	1.3927221
24.504698136347656	1.92224	1.3864487
24.52263371045192	1.9460933	1.3950245
24.540569894666874	1.9705378	1.4037584
24.558506689494266	1.937911	1.3920888
24.57644409543597	1.9191101	1.3853195
24.594382112994012	1.9272174	1.3882426
24.61232074267057	1.9202864	1.385744
24.630259984967953	1.9168905	1.3845181
24.64819984038863	1.9310325	1.389616
24.66614030943522	1.9351836	1.3911088
24.684081392610462	1.9336866	1.3905706
24.702023090417274	1.9618556	1.4006625
24.7199654033587	1.9212588	1.3860948
24.737908331937927	1.9276675	1.3884046
24.755851876658305	1.9196936	1.3855301
24.773796038023324	1.9822282	1.4079162
24.79174081653661	2.0188162	1.4208505
24.809686212701962	2.0681314	1.4381
24.827632227023294	2.0456898	1.4302762
24.8455788600047	2.0577695	1.4344928
24.8635261121504	2.0774055	1.4413208
24.88147398396475	2.0632482	1.4364011
24.899422475952303	2.068575	1.4382541
24.917371588617698	2.052157	1.4325352
24.935321322465768	2.1239932	1.4573926
24.953271678001478	2.2169466	1.4889414
24.97122265572994	2.4136305	1.5535864
24.989174256156414	2.7116692	1.6467147
25.00712647978632	3.1612198	1.777982
25.02507932712521	3.711658	1.9265664
25.043032798678798	4.258961	2.063725
25.060986894952933	4.922206	2.2186046
25.078941616453637	5.647486	2.376444
25.096896963687055	6.5677757	2.5627673
25.114852937159508	7.7671337	2.7869577
25.132809537377444	8.378813	2.8946178
25.150766764847468	8.446646	2.9063113
25.168724620076347	7.804172	2.7935948
25.186683103570985	6.74343	2.5968115
25.204642215838426	5.5243034	2.3503838
25.222601957385894	4.1621094	2.040125
25.24056232872074	3.1121407	1.7641261
25.25852333035048	2.5214782	1.5879163
25.276484962782778	2.1637683	1.4709753
25.294447226525435	2.008717	1.4172921
25.312410122086423	1.9482417	1.3957943
25.330373649973843	1.9368062	1.3916918
25.348337810695988	1.9549612	1.3981993
25.366302604761245	1.9352372	1.3911281
25.384268032678207	1.9116831	1.3826363
25.40223409495558	1.8915229	1.3753265
25.420200792102257	1.9273311	1.3882835
25.438168124627246	1.8874439	1.3738427
25.45613609303974	1.8857464	1.3732249
25.474104697849057	1.8532529	1.3613423
25.492073939564698	1.8451136	1.3583496
25.510043818696285	1.8081714	1.3446827
25.528014335753614	1.788625	1.3373948
25.54598549124664	1.8174053	1.3481117
25.56395728568544	1.8665378	1.366213
25.58192971958028	1.8238956	1.3505168
25.59990279344156	1.8312845	1.3532497
25.617876507779833	1.8536236	1.3614784
25.635850863105826	1.8675334	1.3665773
25.653825859930386	1.8357481	1.3548979
25.671801498764548	1.8136575	1.346721
25.68977778011949	1.8452003	1.3583815
25.707754704506524	1.8514243	1.3606706
25.725732272437153	1.8769165	1.3700061
25.743710484423012	1.9034153	1.3796432
25.761689340975888	1.939763	1.3927537
25.77966884260774	1.9011986	1.3788396
25.797648989830662	1.9077802	1.3812242
25.815629783156922	1.9068171	1.3808755
25.83361122309895	1.8549038	1.3619485
25.85159331016929	1.7924302	1.3388166
25.869576044880695	1.783963	1.3356508
25.887559427746034	1.8027868	1.342679
25.90554345927836	1.8261749	1.3513603
25.92352813999086	1.8474368	1.3592044
25.94151347039689	1.8953363	1.3767121
25.959499451009965	1.897108	1.3773555
25.97748608234374	1.8909284	1.3751103
25.995473364912062	1.8814476	1.3716587
26.013461299228904	1.9045702	1.3800616
26.03144988580839	1.8791078	1.3708055
26.04943912516483	1.8342216	1.3543344
26.067429017812675	1.7839944	1.3356626
26.085419564266537	1.7501421	1.3229294
26.103410765041186	1.7380893	1.3183662
26.12140262065155	1.7912827	1.3383881
26.139395131612723	1.8113278	1.3458558
26.157388298439948	1.8699826	1.3674731
26.17538212164861	1.905563	1.3804213
26.193376601754295	1.8723668	1.3683445
26.211371739272714	1.7960047	1.340151
26.229367534719746	1.7935289	1.339227
26.247363988611433	1.8224119	1.3499674
26.26536110146397	1.8426222	1.3574322
26.283358873793727	1.8285558	1.352241
26.301357306117204	1.7945331	1.3396019
26.319356398951104	1.788736	1.3374363
26.33735615281224	1.843782	1.3578594
26.35535656821762	1.8370856	1.3553913
26.373357645684404	1.7813969	1.3346899
26.39135938572991	1.7816173	1.3347723
26.409361788871614	1.7769281	1.3330146
26.427364855627165	1.7842208	1.3357472
26.445368586514352	1.767195	1.3293588
26.46337298205115	1.7620542	1.3274239
26.48137804275568	1.7641749	1.3282225
26.499383769146217	1.7875158	1.3369801
26.517390161741215	1.8281411	1.3520877
26.53539722105928	1.8199227	1.3490452
26.553404947619182	1.7961209	1.3401943
26.571413341939856	1.7871354	1.3368378
26.589422404540397	1.8303137	1.3528908
26.60743213594006	1.803498	1.3429438
26.62544253665827	1.7758616	1.3326145
26.64345360721459	1.7786214	1.3336496
26.66146534812879	1.7602856	1.3267576
26.679477759920758	1.7605929	1.3268734
26.69749084311057	1.7896028	1.3377603
26.71550459821847	1.8142967	1.3469583
26.733519025764842	1.8042655	1.3432295
26.751534126270258	1.7647586	1.3284422
26.769549900255434	1.7750189	1.3322984
26.787566348241267	1.784301	1.3357773
26.80558347074881	1.8059225	1.3438462
26.823601268299267	1.7846353	1.3359025
26.841619741414036	1.7905507	1.3381146
26.85963889061465	1.8039417	1.343109
26.877658716422832	1.8183948	1.3484787
26.89567921936045	1.7966564	1.3403941
26.913700399949544	1.7856389	1.336278
26.93172225871233	1.7594591	1.326446
26.949744796171174	1.7736197	1.3317732
26.967768012848605	1.7477665	1.3220313
26.98579190926733	1.781211	1.3346201
27.003816485950225	1.8078225	1.3445529
27.021841743420318	1.8458283	1.3586127
27.039867682200814	1.8457363	1.3585788
27.057894302815072	1.8426375	1.3574378
27.07592160578664	1.8250699	1.3509514
27.0939495916392	1.7829404	1.3352679
27.111978260896635	1.775857	1.3326129
27.13000761408296	1.8000336	1.3416533
27.148037651722397	1.816331	1.3477132
27.166068374339304	1.8029791	1.3427505
27.184099782458215	1.8169726	1.3479513
27.20213187660384	1.8358195	1.3549242
27.22016465730105	1.8402449	1.3565563
27.23819812507487	1.8558631	1.3623006
27.256232280450533	1.8519028	1.3608464
27.274267123953383	1.8529028	1.3612137
27.292302656108987	1.8066067	1.3441007
27.31033887744306	1.7840976	1.3357011
27.32837578848146	1.7884719	1.3373376
27.34641338975026	1.802568	1.3425975
27.364451681775673	1.8321474	1.3535684
27.382490665084074	1.856458	1.362519
27.400530340202046	1.8371137	1.3554016
27.41857070765629	1.7803091	1.3342823
27.436611767973726	1.7458931	1.3213224
27.454653521681404	1.788595	1.3373836
27.472695969306564	1.8174438	1.348126
27.490739111376627	1.8060697	1.3439009
27.508782948419153	1.783367	1.3354276
27.526827480961902	1.7977034	1.3407847
27.54487270953279	1.8080795	1.3446485
27.562918634659898	1.8057746	1.3437911
27.580965256871508	1.7873914	1.3369336
27.599012576696026	1.8154831	1.3473986
27.617060594662068	1.8537015	1.361507
27.63510931129842	1.8645834	1.3654975
27.65315872713401	1.8146333	1.3470832
27.67120884269797	1.7535251	1.3242073
27.68925965851958	1.7753092	1.3324074
27.707311175128307	1.7878758	1.3371147
27.725363393053787	1.7984583	1.3410661
27.74341631282583	1.8504661	1.3603184
27.7614699349744	1.8573902	1.362861
27.77952426002968	1.9929093	1.4117044
27.797579288521973	2.0837111	1.4435066
27.815635020981784	2.5365145	1.5926439
27.83369145793979	2.575132	1.6047218
27.85174859992682	2.3625636	1.5370634
27.869806447473923	2.2239022	1.4912753
27.887865001112267	1.9779127	1.4063828
27.905924261373233	1.9100299	1.3820384
27.92398422878836	1.9215605	1.3862036
27.94204490388936	1.8917677	1.3754154
27.96010628720813	1.8133931	1.3466228
27.978168379276728	1.8109258	1.3457065
27.9962311806274	1.8372264	1.3554432
28.014294691792568	1.8421043	1.3572414
28.0323589133048	1.8557789	1.3622698
28.050423845696887	1.8334322	1.3540429
28.068489489501758	1.859734	1.3637207
28.086555845252523	1.8838414	1.372531
28.104622913482487	1.9284434	1.388684
28.122690694725115	1.9329038	1.3902891
28.14075918951405	1.9377509	1.3920312
28.15882839838312	1.8988047	1.3779712
28.176898321866304	1.8744208	1.3690948
28.1949689604978	1.8609076	1.3641509
28.213040314811945	1.896538	1.3771485
28.23111238534327	1.8857061	1.3732102
28.249185172626493	1.8727666	1.3684906
28.267258677196473	1.9032257	1.3795744
28.285332899588294	1.901555	1.3789688
28.303407840337172	1.9116647	1.3826296
28.321483499978545	1.9247448	1.3873518
28.33955987904799	1.9316161	1.3898259
28.357636978081285	1.9176612	1.3847965
28.37571479761439	1.9302473	1.3893334
28.393793338183425	1.9421917	1.3936254
28.41187260032469	1.9799426	1.4071044
28.429952584574686	1.9834653	1.4083556
28.448033291470065	1.9576813	1.3991716
28.46611472154769	1.9827646	1.4081067
28.484196875344566	2.0132246	1.4188814
28.502279753397914	2.0054476	1.4161383
28.52036335624511	1.9548794	1.39817
28.538447684423716	1.9522127	1.3972161
28.556532738471482	1.9905219	1.4108585
28.574618518926325	1.9527929	1.3974236
28.59270502632635	1.9521401	1.3971901
28.61079226120985	1.9984635	1.4136702
28.628880224115274	2.0540547	1.4331974
28.646968915581287	2.048052	1.4311017
28.66505833614671	2.032845	1.4257787
28.68314848635055	2.0097399	1.417653
28.701239366732004	2.0276983	1.4239727
28.71933097783044	2.0803158	1.44233
28.737423320185403	2.0874987	1.4448179
28.75551639433665	2.1070771	1.4515774
28.773610200824074	2.138084	1.4622189
28.791704740187793	2.1544213	1.4677948
28.80980001296809	2.109733	1.452492
28.827896019705413	2.070401	1.4388888
28.845992760940433	2.1097896	1.4525114
28.86409023721397	2.1184897	1.4555032
28.88218844906704	2.0940871	1.4470961
28.900287397040845	2.1492548	1.4660337
28.918387081676755	2.2005477	1.4834243
28.936487503516343	2.2266138	1.4921843
28.954588663101365	2.2890034	1.5129453
28.97269056097374	2.329362	1.5262247
28.990793197675597	2.32971	1.5263388
29.00889657374923	2.2849023	1.5115893
29.027000689737125	2.280706	1.5102006
29.04510554618196	2.31367	1.5210752
29.06321114362659	2.3895652	1.5458219
29.08131748261405	2.412486	1.553218
29.099424563687567	2.4049523	1.5507909
29.11753238739057	2.4715576	1.5721189
29.13564095426663	2.4857295	1.5766196
29.15375026485954	2.4944725	1.5793899
29.171860319713275	2.5675356	1.6023532
29.18997111937199	2.6591036	1.6306758
29.20808266438002	2.7503722	1.6584246
29.226194955281898	2.7902217	1.6703956
29.244307992622335	2.826285	1.6811558
29.26242177694624	2.874646	1.6954781
29.2805363087987	2.9350452	1.7131974
29.29865158872498	3.0089033	1.734619
29.316767617270557	3.026294	1.7396246
29.334884394981064	2.9725015	1.7240944
29.353001922402367	2.9294844	1.7115736
29.37112020008047	2.9756732	1.725014
29.389239228561596	3.0801558	1.7550373
29.407359008392152	3.354302	1.8314754
29.42547954011872	3.750112	1.9365206
29.44360082428809	4.3296905	2.0807908
29.46172286144722	5.393213	2.3223293
29.479845652143283	6.96694	2.639496
29.497969196923606	8.895254	2.9824913
29.516093496335728	11.4493685	3.3836915
29.5342185509274	14.289332	3.7801232
29.55234436124651	16.590528	4.0731473
29.570470927841175	17.998972	4.2425194
29.588598251259686	17.866629	4.2268934
29.60672633205055	16.533216	4.066106
29.624855170762405	14.380702	3.7921896
29.642984767944146	11.679712	3.4175594
29.66111512414481	8.925903	2.9876251
29.67924623991366	6.6897006	2.5864456
29.697378115800138	5.1854672	2.277162
29.71551075235387	4.22198	2.0547457
29.733644150124675	3.6667352	1.914872
29.751778309662576	3.4629908	1.8609113
29.769913231517766	3.3648338	1.8343483
29.78804891624066	3.2551951	1.8042159
29.806185364381818	3.2118413	1.7921611
29.82432257649206	3.3173363	1.8213556
29.842460553122333	3.3468962	1.8294524
29.86059929482382	3.3672817	1.8350154
29.878738802147872	3.3607795	1.8332429
29.896879075646048	3.3940165	1.8422856
29.915020115870114	3.4136627	1.84761
29.933161923371976	3.282285	1.8117077
29.951304498703777	3.2606351	1.8057228
29.969447842417857	3.3099747	1.8193336
29.987591955066733	3.3069527	1.8185029
30.005736837203123	3.2453234	1.8014781
30.023882489379943	3.2287445	1.7968707
30.04202891215028	3.2433941	1.8009425
30.060176106067455	3.2146246	1.7929374
30.078324071684946	3.1888313	1.7857299
30.09647280955646	3.1054938	1.7622411
30.114622320235863	3.0372174	1.7427614
30.132772604277257	3.0200279	1.7378228
30.1509236622349	3.0336785	1.7417458
30.16907549466328	3.0919518	1.7583947
30.18722810211705	3.094114	1.7590094
30.205381485151097	3.0779204	1.7544003
30.22353564432045	3.080732	1.7552015
30.241690580180403	2.9952388	1.7306758
30.25984629328638	2.984758	1.7276452
30.278002784194037	2.984546	1.7275839
30.296160053459246	2.8909278	1.7002728
30.314318101638033	2.8271818	1.6814226
30.332476929286646	2.8410385	1.685538
30.35063653696153	2.8365579	1.6842084
30.368796925219307	2.8254805	1.6809165
30.386958094616844	2.8360503	1.6840577
30.40512004571115	2.8496032	1.6880767
30.423282779059463	2.8475122	1.6874573
30.441446295219233	2.9098518	1.7058288
30.459610594748067	2.8977935	1.7022907
30.47777567820382	2.893867	1.701137
30.495941546144504	2.905953	1.7046856
30.51410819912835	2.8364053	1.6841631
30.532275637713795	2.7874315	1.6695603
30.55044386245946	2.8067865	1.6753467
30.56861287392416	2.809471	1.6761476
30.586782672666956	2.8019593	1.6739054
30.604953259247047	2.7762861	1.6662191
30.623124634223885	2.7899275	1.6703076
30.641296798157075	2.8073516	1.6755153
30.659469751606462	2.8526585	1.6889815
30.677643495132074	2.811998	1.6769012
30.695818029294152	2.7242749	1.6505377
30.713993354653116	2.738395	1.6548096
30.73216947176962	2.773668	1.6654333
30.75034638120448	2.7624319	1.6620566
30.768524083518756	2.77263	1.6651216
30.786702579273673	2.7483962	1.6578287
30.80488186903069	2.7655144	1.6629835
30.82306195335144	2.9008014	1.7031739
30.841242832797782	3.1077092	1.7628696
30.85942450793176	3.3485215	1.8298966
30.877606979315637	3.6499481	1.9104837
30.895790247511883	3.9839535	1.9959843
30.913974313083134	4.4185896	2.102044
30.932159176592283	4.7955675	2.1898785
30.95034483860237	4.9023643	2.2141283
30.968531299676698	4.687918	2.1651602
30.98671856037873	4.331237	2.0811625
31.00490662127215	4.006704	2.0016754
31.023095482920848	3.6068294	1.8991654
31.04128514588892	3.107313	1.7627572
31.059475610740662	2.7545753	1.6596913
31.07766687804056	2.5509303	1.5971632
31.09585894835335	2.463823	1.569657
31.11405182224393	2.4531536	1.5662546
31.132245500277417	2.39882	1.5488124
31.15043998301914	2.3800764	1.5427496
31.168635271034628	2.4765143	1.5736945
31.18683136488964	2.5320044	1.5912273
31.20502826515008	2.4970264	1.5801983
31.223225972382135	2.4340975	1.5601594
31.241424487152155	2.4213274	1.5560615
31.259623810026692	2.4115767	1.5529252
31.27782394157253	2.4214098	1.556088
31.296024882356644	2.3655472	1.5380335
31.314226632946237	2.329087	1.5261346
31.332429193908684	2.4174309	1.554809
31.350632565811598	2.4984531	1.5806496
31.368836749222787	2.4311056	1.5592003
31.387041744710295	2.4075906	1.5516412
31.40524755284232	2.5950508	1.6109161
31.423454174187317	2.6640255	1.6321843
31.441661609313922	2.5797658	1.6061649
31.459869858791002	2.4402094	1.562117
31.478078923187628	2.3468094	1.53193
31.496288803073064	2.2796364	1.5098464
31.514499499016807	2.316072	1.5218647
31.532711011588546	2.2991016	1.5162789
31.550923341358178	2.2584813	1.5028244
31.56913648889584	2.2176113	1.4891646
31.587350454771844	2.3100407	1.5198818
31.605565239556732	2.3255818	1.5249858
31.62378084382127	2.3108313	1.5201418
31.641997268136382	2.2742167	1.5080506
31.660214513073274	2.2074451	1.4857473
31.67843257920331	2.2075667	1.4857882
31.6966514670981	2.2546802	1.5015593
31.71487117732944	2.3035476	1.5177443
31.733091710469346	2.2739532	1.5079633
31.751313067090052	2.1963272	1.4820011
31.769535247764008	2.211858	1.4872316
31.787758253063878	2.267559	1.5058416
31.805982083562526	2.2699735	1.5066432
31.824206739833024	2.235404	1.4951267
31.84243222244869	2.2781663	1.5093596
31.860658531983013	2.3008218	1.516846
31.878885669009737	2.2468235	1.4989408
31.897113634102784	2.199421	1.4830445
31.91534242783632	2.172104	1.4738059
31.933572050784694	2.1236243	1.4572661
31.951802503522508	2.1475308	1.4654456
31.970033786624548	2.2269788	1.4923065
31.988265900665834	2.2080846	1.4859625
32.006498846221575	2.1071856	1.4516149
32.02473262386724	2.111651	1.4531521
32.04296723417845	2.2239752	1.4912999
32.0612026777311	2.2396922	1.4965601
32.07943895510129	2.1124046	1.4534113
32.097676066865304	2.0366042	1.4270964
32.115914013599685	2.0857627	1.444217
32.13415279588115	2.135875	1.4614633
32.152392414286666	2.1230965	1.4570849
32.1706328693934	2.1422014	1.4636261
32.18887416177875	2.1271913	1.4584894
32.20711629202032	2.1484518	1.4657598
32.225359260695924	2.215769	1.4885459
32.243603068383614	2.1620224	1.4703817
32.26184771566166	2.1285255	1.4589467
32.28009320310852	2.121273	1.456459
32.2983395313029	2.174409	1.4745877
32.31658670082372	2.1643062	1.4711581
32.33483471225012	2.0988264	1.4487327
32.35308356616143	2.138175	1.46225
32.371333263137245	2.1549401	1.4679714
32.38958380375734	2.157465	1.4688312
32.407835188601744	2.123473	1.4572141
32.42608741825067	2.117241	1.4550742
32.444340493284585	2.0711603	1.4391526
32.46259441428416	2.0603278	1.4353842
32.48084918183028	2.1567483	1.4685872
32.49910479650405	2.1391456	1.4625819
32.51736125888683	1.9951439	1.4124956
32.53561856956014	2.0553517	1.4336498
32.5538767291058	2.1479208	1.4655787
32.572135738105764	2.1656349	1.4716096
32.59039559714228	2.0704348	1.4389006
32.608656306797776	1.9943495	1.4122144
32.62691786765491	1.9808772	1.4074364
32.645180280296586	2.009404	1.4175345
32.663443545305896	2.0310428	1.4251466
32.68170766326619	2.0358899	1.4268461
32.69997263476099	1.9627223	1.4009719
32.7182384603741	1.8799181	1.371101
32.7365051406895	1.8630221	1.3649256
32.75477267629144	1.924187	1.3871506
32.77304106776434	1.931467	1.3897723
32.79131031569289	1.9493728	1.3961993
32.809580420661966	1.9214838	1.386176
32.827851383256714	1.8997962	1.378331
32.84612320406245	1.8991024	1.3780793
32.86439588366476	2.001981	1.4149138
32.88266942264945	2.0118897	1.418411
32.9009438216025	2.051819	1.4324173
32.9192190811102	2.0734472	1.439947
32.937495201758985	2.011766	1.4183674
32.95577218413556	1.9604385	1.4001566
32.974050028826866	1.9890417	1.4103339
32.992328736420035	1.9749278	1.4053212
33.010608307502444	1.9144176	1.3836248
33.02888874266169	1.853383	1.3613901
33.047170042485604	1.8998983	1.378368
33.06545220756225	1.9134743	1.3832839
33.083735238479896	1.8992541	1.3781343
33.10201913582707	1.9713463	1.4040464
33.12030390019248	2.0150363	1.4195198
33.138589532165135	2.0375204	1.4274174
33.15687603233419	2.0090277	1.4174018
33.17516340128909	1.9181546	1.3849746
33.19345163961947	1.86511	1.3656904
33.211740747915215	1.8984371	1.3778379
33.23003072676643	1.9667021	1.4023916
33.248321576763466	2.0033917	1.4154122
33.266613298496885	1.9502169	1.3965017
33.28490589255747	1.8757336	1.3695742
33.30319935953626	1.8897372	1.3746772
33.32149370002451	1.8764172	1.3698238
33.339788914613706	1.9281815	1.3885897
33.358085003895575	1.9547062	1.3981081
33.376381968462034	2.0250316	1.423036
33.39467980890529	1.9775221	1.406244
33.41297852581774	1.9209286	1.3859757
33.43127811979204	1.894497	1.3764073
33.44957859142105	1.8299557	1.3527585
33.467879941297866	1.8781952	1.3704726
33.486182170015844	1.9015077	1.3789517
33.50448527816853	1.8729241	1.3685482
33.522789266349754	1.9366502	1.3916358
33.541094135153514	2.0105493	1.4179384
33.55939988517411	2.0094483	1.4175501
33.57770651700602	1.9995526	1.4140553
33.59601403124398	1.9931409	1.4117864
33.61432242848296	1.938782	1.3924015
33.632631709318154	1.9215188	1.3861886
33.650941874344994	1.9057219	1.3804789
33.66925292415916	1.8658159	1.3659487
33.68756485935654	1.91061	1.3822482
33.70587768053328	1.9057399	1.3804854
33.724191388285746	1.8430865	1.3576032
33.74250598321054	1.8129988	1.3464764
33.760821465904506	1.8613166	1.3643007
33.77913783696474	1.7952771	1.3398795
33.79745509698852	1.7419777	1.3198401
33.815773246573414	1.8679804	1.3667408
33.8340922863172	1.9800838	1.4071546
33.852412216817896	2.0043037	1.4157343
33.87073303867377	1.9680672	1.4028782
33.889054752483304	1.978661	1.4066489
33.907377358845245	1.9612682	1.4004529
33.92570085835853	1.9070737	1.3809685
33.94402525162239	1.8770696	1.3700619
33.96235053923627	1.8362515	1.3550836
33.980676721799824	1.8247279	1.350825
33.999003799912984	1.9029219	1.3794644
34.01733177417592	1.9954203	1.4125935
34.03566064518901	1.8954794	1.3767642
34.0539904135529	1.7944943	1.3395873
34.07232107986846	1.9761323	1.4057497
34.090652644736785	2.131379	1.4599242
34.108985108759235	2.0259457	1.4233571
34.12731847253742	1.8853279	1.3730724
34.14565273667313	1.9364799	1.3915746
34.16398790176847	2.0811608	1.4426229
34.18232396842574	2.1152005	1.4543729
34.20066093724749	1.9866698	1.4094927
34.21899880883651	1.9388273	1.3924178
34.23733758379583	1.9897487	1.4105846
34.25567726272874	1.8770795	1.3700655
34.27401784623872	1.8820995	1.3718963
34.29235933492957	2.0016413	1.4147937
34.31070172940526	1.9416815	1.3934423
34.32904503027003	1.9561181	1.398613
34.347389238128386	1.9903992	1.4108151
34.36573435358502	2.0515642	1.4323282
34.38408037724492	1.9395498	1.3926772
34.402427309713296	1.9883085	1.410074
34.42077515159559	2.0235527	1.4225163
34.43912390349752	2.025653	1.4232544
34.45747356602499	1.9471648	1.3954085
34.47582413978423	1.8439518	1.3579218
34.49417562538163	1.9224201	1.3865137
34.51252802342388	1.8998282	1.3783425
34.53088133451789	1.9694563	1.4033732
34.54923555927084	2.0718153	1.4393802
34.567590698290104	2.133082	1.4605074
34.58594675218336	2.1494732	1.4661082
34.6043037215585	2.0864062	1.4444398
34.62266160702365	2.1089635	1.4522271
34.641020409187234	2.172315	1.4738775
34.65938012865785	2.1724536	1.4739245
34.677740766044394	2.0233958	1.4224612
34.69610232195598	1.8916856	1.3753856
34.714464797002016	1.8780446	1.3704177
34.73282819179208	2.015364	1.4196352
34.751192506936064	2.0238764	1.4226301
34.76955774304408	1.9650865	1.4018154
34.7879239007265	1.9655126	1.4019674
34.80629098059391	2.0310345	1.4251437
34.824658983257194	1.9285319	1.3887159
34.843027909327446	1.8958389	1.3768946
34.86139775941603	1.9348989	1.3910065
34.879768534134534	1.9697193	1.4034669
34.89814023409483	1.9064841	1.380755
34.91651285990901	1.8087671	1.3449041
34.93488641218944	1.8098857	1.34532
34.95326089154871	1.8248895	1.3508847
34.97163629859967	1.8906127	1.3749956
34.99001263395542	1.9596056	1.3998591
35.00838989822934	2.0109186	1.4180686
35.02676809203499	2.1966553	1.4821118
35.04514721598624	2.3297656	1.5263569
35.063527270697215	2.2157676	1.4885454
35.081908256782256	1.9601853	1.4000661
35.10029017485597	1.8687302	1.3670151
35.11867302553321	2.092099	1.446409
35.137056809429104	2.079591	1.4420787
35.155441527159006	2.003806	1.4155586
35.173827179338524	1.9042513	1.3799461
35.19221376658354	1.873768	1.3688564
35.21060128951017	1.9083667	1.3814365
35.2289897487348	1.9748015	1.4052763
35.24737914487405	2.016113	1.419899
35.26576947854479	1.8866203	1.373543
35.28416075036418	1.9149346	1.3838116
35.30255296094958	1.9306532	1.3894795
35.32094611091867	1.9028653	1.3794439
35.33934020088932	2.0853817	1.4440851
35.35773523147969	2.0027294	1.4151782
35.3761312033082	1.8953223	1.3767071
35.394528116993506	1.9869542	1.4095936
35.41292597315452	2.4836907	1.5759729
35.431324772410434	2.4689221	1.5712804
35.449724515380666	2.1474087	1.4654039
35.46812520268491	1.9347581	1.3909558
35.486526834943106	1.920495	1.3858193
35.504929412775454	2.1341288	1.4608657
35.52333293680242	1.9195014	1.3854607
35.54173740764471	1.1357005	1.0656924
35.560142825923286	1.0091833	1.0045811
35.5785491922594	1.3805757	1.174979
35.59695650727454	1.4841261	1.2182472
35.61536477159042	2.20624	1.4853417
