0.008763373481513119	0.051685803	0.22734512
0.026290120649546365	0.18429624	0.4292974
0.043816868432600686	0.25537768	0.50534904
0.06134361724069026	0.18456003	0.4296045
0.07887036748382949	0.106035955	0.32563162
0.0963971195720331	0.06024602	0.24545065
0.11392387391531617	0.059823208	0.24458784
0.1314506309236943	0.11624085	0.34094113
0.1489773910071836	0.09633828	0.3103841
0.16650415457580078	0.091522284	0.3025265
0.18403092203956356	0.06451567	0.25399935
0.20155769380849	0.05357222	0.23145673
0.2190844702925996	0.060211897	0.24538113
0.2366112519019124	0.095607296	0.30920428
0.2541380390464497	0.12164165	0.34877163
0.27166483213623416	0.14438595	0.37998152
0.28919163158128947	0.15552434	0.39436576
0.3067184377916406	0.14962414	0.3868128
0.324245251177314	0.1495807	0.38675666
0.34177207214833777	0.16549213	0.40680724
0.3592989011147415	0.13550387	0.3681085
0.37682573848655654	0.15541773	0.39423054
0.39435258467381573	0.11770848	0.3430867
0.41187944008655414	0.13904747	0.3728907
0.42940630513480854	0.17099759	0.41351855
0.446933180228618	0.160799	0.4009975
0.4644600657780234	0.16168693	0.40210313
0.48198696219306775	0.14366744	0.37903488
0.49951386988379676	0.13983575	0.3739462
0.5170407892602581	0.14870186	0.3856188
0.5345677207325025	0.15654503	0.39565772
0.5520946647105822	0.19727944	0.4441615
0.5696216216045534	0.20616734	0.45405653
0.5871485918244737	0.21619117	0.46496361
0.6046755757804043	0.18940093	0.43520218
0.6222025738824094	0.19260946	0.43887293
0.6397295865405557	0.17944321	0.42360738
0.6572566141649129	0.15175664	0.38955954
0.6747836571655547	0.11175065	0.33429125
0.6923107159525568	0.13638967	0.36930972
0.7098377909359992	0.17134883	0.41394302
0.7273648825259653	0.18821926	0.43384245
0.7448919911325411	0.21981116	0.4688402
0.762419117165817	0.20759715	0.4556283
0.7799462610358868	0.22463582	0.47395763
0.7974734231528482	0.21320195	0.46173796
0.8150006039268024	0.18568785	0.43091515
0.8325278037678551	0.20246625	0.4499625
0.8500550230861152	0.20084971	0.4481626
0.8675822622916969	0.20850492	0.45662338
0.8851095217947171	0.26082328	0.51070863
0.9026368020052984	0.27861494	0.5278399
0.9201641033335665	0.2802713	0.52940655
0.9376914261896523	0.26270288	0.51254547
0.9552187709836915	0.25015682	0.5001568
0.9727461381258234	0.24274017	0.4926867
0.990273528026193	0.2717735	0.521319
1.0078009410949496	0.28732938	0.5360311
1.0253283777422473	0.27649263	0.5258257
1.0428558383782454	0.2800422	0.5291901
1.0603833234131086	0.25824898	0.50818205
1.0779108332570058	0.3241892	0.5693761
1.0954383683201119	0.31093794	0.5576181
1.112965929012607	0.3558761	0.5965535
1.1304935157446763	0.46196198	0.67967784
1.1480211289265108	0.5584799	0.7473151
1.1655487689683062	1.4368181	1.1986735
1.1830764362802655	1.7479794	1.3221117
1.200604131272596	2.1438668	1.4641949
1.2181318543555117	2.4486504	1.5648164
1.235659605939232	2.432338	1.5595955
1.253187386433982	3.946479	1.9865748
1.270715196249994	6.2644444	2.5028872
1.2882430357975057	11.603676	3.406417
1.3057709054867608	16.424543	4.0527205
1.3232988057280106	22.154099	4.7068143
1.3408267369315112	27.499773	5.2440224
1.358354699507526	31.498297	5.6123343
1.3758826938663256	35.204952	5.9333763
1.3934107204181858	37.157417	6.0956883
1.410938779573391	37.51188	6.1246943
1.4284668717422309	38.548115	6.2087126
1.4459949973350033	38.30927	6.1894484
1.4635231567620117	38.166042	6.177867
1.4810513504335687	37.25801	6.103934
1.4985795787599925	36.497974	6.041355
1.5161078421516088	36.273335	6.0227346
1.5336361410187505	35.33949	5.9447026
1.5511644757717598	35.02825	5.918467
1.5686928468209842	36.234657	6.019523
1.58622125457678	36.889297	6.073656
1.6037496994495108	38.39917	6.1967063
1.621278181849548	38.25992	6.18546
1.6388067021872719	39.13407	6.255723
1.6563352608730693	38.35786	6.1933722
1.673863858317336	37.1482	6.0949326
1.6913924949304753	35.74735	5.9789085
1.7089211711228998	34.505177	5.8741107
1.7264498873050296	33.655243	5.801314
1.7439786438872935	32.856693	5.7320757
1.7615074412801288	31.999523	5.656812
1.779036279893981	31.705223	5.630739
1.796565160139305	30.703371	5.5410624
1.814094082426564	30.21324	5.4966574
1.8316230471662298	29.517418	5.4329934
1.849152054768784	28.642265	5.3518467
1.8666811056447168	28.04565	5.2958145
1.8842102002045273	27.187317	5.2141457
1.901739338858724	27.058014	5.2017317
1.9192685220178245	26.436422	5.1416364
1.9367977500923557	25.653372	5.0649157
1.9543270234928547	24.756187	4.975559
1.971856342629867	24.123081	4.9115252
1.9893857079139496	23.75584	4.8739963
2.006915119755667	23.158014	4.8122773
2.0244445785655945	22.510992	4.744575
2.0419740847543175	21.898335	4.6795654
2.0595036387324317	21.643108	4.6522155
2.0770332409105414	21.119371	4.5955815
2.094562891699263	20.73474	4.553541
2.1120925915092217	20.103365	4.4836774
2.129622340751053	19.788715	4.448451
2.1471521398354043	188.0211	13.712079
2.1646819891729323	444.38016	21.080326
2.182211889174303	440.66232	20.991959
2.1997418402501974	453.2625	21.289963
2.2172718428113023	433.09982	20.81105
2.234801897268317	320.92233	17.914305
2.2523320040319548	17.142677	4.140372
2.269862163512935	17.034246	4.1272564
2.287392376121992	16.810059	4.100007
2.304922642269869	16.591791	4.0733023
2.322452962367322	16.227488	4.0283356
2.3399833368251164	15.661086	3.957409
2.357513766054032	15.257435	3.9060767
2.3750442504648586	14.895924	3.8595238
2.3925747904683963	14.741535	3.8394706
2.410105386475459	14.691515	3.8329513
2.4276360388968707	14.474521	3.8045394
2.445166748143469	14.342028	3.787087
2.4626975146261025	14.186805	3.7665374
2.4802283387556323	13.797665	3.7145207
2.4977592209429305	13.463189	3.6692219
2.5152901615988825	13.192773	3.6321857
2.5328211611343865	13.040938	3.611224
2.5503522199603523	12.852485	3.5850363
2.5678833384877024	12.665568	3.5588717
2.5854145171273712	12.489029	3.533982
2.6029457562903064	12.148056	3.4854062
2.620477056387469	11.790212	3.4336877
2.6380084178298326	11.512773	3.3930476
2.655539841028383	11.309327	3.3629344
2.673071326394119	11.236793	3.3521326
2.6906028743380523	11.156451	3.3401275
2.708134485271211	11.001599	3.316866
2.7256661596046325	10.758897	3.2800758
2.743197897749369	10.606108	3.256702
2.760729700116486	10.563594	3.2501683
2.778261567117063	10.659554	3.264897
2.795793499162193	10.493217	3.2393236
2.8133254966629817	10.327707	3.213675
2.830857560030551	10.046795	3.169668
2.8483896896760337	9.934175	3.1518526
2.865921886010578	9.815348	3.1329455
2.883454149445347	9.716496	3.1171296
2.9009864803915177	9.559253	3.091804
2.91851887926028	9.394257	3.065005
2.9360513464628384	9.209902	3.034782
2.953583882410413	8.987035	2.9978383
2.9711164875142373	8.882515	2.9803548
2.9886491621855606	8.799819	2.9664488
3.0061819068356455	8.72182	2.9532728
3.023714721875769	8.662791	2.943262
3.041247607717225	8.459507	2.908523
3.0587805647713213	8.456259	2.9079647
3.0763135934493806	8.189743	2.8617728
3.0938466941627407	7.9216228	2.8145378
3.1113798673227544	7.7691236	2.7873147
3.1289131133407904	7.739352	2.781969
3.1464464326282315	7.936944	2.8172584
3.1639798255964786	7.9865017	2.82604
3.1815132926569443	7.920796	2.814391
3.1990468342210603	7.7485714	2.7836256
3.216580450700272	7.598807	2.7565932
3.2341141425060416	7.4609976	2.7314827
3.251647910049847	7.253422	2.6932178
3.2691817537431813	7.062235	2.6574867
3.286715673997555	7.0049815	2.6466925
3.3042496712244938	7.0113273	2.647891
3.32178374583554	7.0345516	2.652273
3.339317898242251	6.96853	2.6397974
3.3568521288562034	6.943873	2.635123
3.3743864380889876	6.935138	2.633465
3.3919208263522127	6.8404384	2.6154232
3.4094552940575023	6.69211	2.5869112
3.4269898416164972	6.565977	2.5624163
3.444524469440858	6.450458	2.5397751
3.4620591779422587	6.4461284	2.5389228
3.479593967532391	6.4666104	2.542953
3.4971288386229658	6.4136	2.5325086
3.5146637916257086	6.3795	2.525767
3.5321988269523628	6.390876	2.5280182
3.5497339450146903	6.362492	2.522398
3.5672691462244708	6.3378143	2.5175016
3.5848044309934988	6.290264	2.50804
3.60233979973359	6.294758	2.5089357
3.619875252856575	6.385695	2.5269933
3.6374107907743034	6.417199	2.533219
3.6549464138986427	6.35493	2.5208986
3.6724821226414788	6.350153	2.5199509
3.690017917414714	6.3848066	2.5268176
3.7075537986302702	6.422582	2.5342815
3.7250897667000857	6.498726	2.54926
3.7426258220361235	6.6483064	2.578431
3.7601619650503553	6.899597	2.6267085
3.777698196154779	7.3850064	2.717537
3.7952345157614067	8.318933	2.884256
3.8127709242822716	9.012505	3.0020833
3.830307422129425	11.148695	3.3389661
3.847844009714936	30.035563	5.480471
3.8653806874508954	97.628944	9.880736
3.882917455749409	96.922775	9.844936
3.900454315022606	96.744316	9.835869
3.917991265682631	41.32116	6.4281535
3.9355283081416506	11.12128	3.3348582
3.9530654428118495	8.914789	2.9857645
3.970602670105433	7.6989846	2.7747045
3.9881399904346244	6.69039	2.5865788
4.005677404211669	6.579202	2.5649955
4.023214911848827	6.597384	2.5685372
4.0407525137583855	6.526408	2.5546837
4.058290210352644	6.449068	2.5395014
4.075828002043927	6.2631283	2.5026243
4.0933658892445814	6.224638	2.4949224
4.110903872366966	6.18728	2.4874244
4.128441951823468	6.183341	2.4866326
4.145980128026488	6.204861	2.4909558
4.163518401388452	6.189388	2.487848
4.181056772321807	6.2011333	2.4902074
4.1985952412390155	6.225995	2.4951944
4.216133808552567	6.342729	2.5184774
4.233672474674966	6.3793273	2.525733
4.251211240018741	6.610726	2.5711331
4.268750104996445	6.8019476	2.6080544
4.286289070020643	7.6916246	2.773378
4.303828135503928	9.242315	3.0401177
4.3213673018589125	29.433994	5.4253106
4.3389065694982305	90.72484	9.524959
4.356445938834537	166.04752	12.885942
4.3739854102805085	171.7803	13.106499
4.391524984248844	172.65083	13.139667
4.409064661152262	136.67021	11.690603
4.426604441403504	96.95689	9.846669
4.444144325415337	75.85658	8.709568
4.461684313600543	21.990547	4.689408
4.47922440637193	22.305384	4.7228575
4.496764604142329	20.604502	4.539218
4.5143049073245916	18.768358	4.3322463
4.531845316331589	16.595032	4.0737
4.5493858315762195	13.730695	3.705495
4.566926453471405	11.39458	3.3755858
4.584467182430081	9.418118	3.068895
4.602008018865218	8.382724	2.8952935
4.619548963189798	7.6956286	2.7740996
4.637090015816834	7.1757584	2.6787605
4.654631177159353	6.861679	2.6194806
4.672172447630417	6.6157455	2.5721092
4.689713827643102	6.469845	2.5435889
4.7072553176105085	6.247814	2.4995627
4.724796917945764	6.0733905	2.464425
4.742338629062015	5.959453	2.441199
4.759880451372434	5.873723	2.4235766
4.777422385290215	5.7569885	2.3993726
4.794964431228581	5.721121	2.3918865
4.812506589600768	5.759136	2.39982
4.830048860820047	5.7304535	2.3938365
4.847591245299709	5.664843	2.380093
4.8651337434530655	5.536856	2.3530526
4.882676355693457	5.528287	2.3512309
4.900219082434242	5.4632235	2.337354
4.917761924088813	5.4907174	2.343228
4.935304881070575	5.4905	2.3431816
4.952847953792969	5.5175686	2.3489506
4.970391142669449	5.491953	2.3434916
4.9879344481135055	5.5068884	2.346676
5.005477870538642	5.4954915	2.3442464
5.023021410358394	5.600784	2.3665974
5.040565067986324	5.5847807	2.363214
5.05810884383601	5.5423236	2.354214
5.075652738321066	5.5365176	2.3529806
5.09319675185512	5.560758	2.358126
5.110740884851836	5.633887	2.373581
5.128285137724894	5.5961137	2.3656106
5.145829510888007	5.459243	2.3365023
5.163374004754908	5.3597226	2.3151076
5.1809186197393595	5.2849555	2.2989032
5.198463356255145	5.370899	2.3175201
5.216008214716077	5.393408	2.3223712
5.233553195535998	5.3823047	2.3199794
5.251098299128764	5.361778	2.3155513
5.268643525908272	5.352229	2.3134885
5.286188876288432	5.360022	2.3151722
5.3037343506831895	5.378993	2.3192656
5.32127994950651	5.3237753	2.3073308
5.3388256731723915	5.3206286	2.3066487
5.356371522094851	5.307613	2.3038256
5.373917496687938	5.300668	2.3023179
5.391463597365729	5.227339	2.2863374
5.40900982454232	5.1428366	2.2677822
5.426556178631843	5.183056	2.2766325
5.444102660048449	5.2121043	2.2830033
5.4616492692063225	5.2316384	2.2872775
5.479196006519669	5.2162147	2.2839034
5.496742872402727	5.2163634	2.283936
5.514289867269756	5.2289944	2.2866995
5.531836991535049	5.1927233	2.2787547
5.549384245612924	5.209059	2.2823362
5.566931629917724	5.223532	2.2855048
5.584479144863822	5.293792	2.3008242
5.6020267908656205	5.2040195	2.281232
5.619574568337545	5.1802154	2.2760086
5.637122477694054	5.193441	2.2789123
5.654670519349629	5.20555	2.2815676
5.672218693718784	5.1807714	2.2761307
5.689767001216059	5.11879	2.2624743
5.707315442256021	5.153599	2.270154
5.724864017253266	5.189696	2.2780905
5.7424127266224225	5.2024713	2.2808926
5.75996157077814	5.256332	2.292669
5.777510550135105	5.3138967	2.3051891
5.795059665108022	5.297789	2.3016927
5.812608916111639	5.301447	2.3024871
5.830158303560715	5.380295	2.3195462
5.847707827870055	5.4640093	2.337522
5.86525748945448	5.524069	2.3503337
5.8828072887288485	5.6000333	2.3664389
5.900357226108044	5.643049	2.3755102
5.917907302006979	5.7782016	2.403789
5.9354575168406	6.3275795	2.5154681
5.9530078710238765	6.929087	2.6323159
5.970558364971812	7.424876	2.7248626
5.988108999099438	7.670116	2.7694974
6.005659773821818	8.138354	2.85278
6.023210689554039	7.840915	2.8001635
6.040761746711227	8.412432	2.9004192
6.058312945708531	7.865211	2.8044984
6.075864286961132	7.39555	2.719476
6.093415770884244	6.736033	2.5953867
6.1109673978931065	6.128662	2.4756136
6.128519168402993	5.5297527	2.3515427
6.146071082829204	5.358541	2.3148522
6.163623141587075	5.2291064	2.2867239
6.181175345091969	5.2213874	2.2850356
6.198727693759281	5.2045045	2.2813382
6.216280188004435	5.1800056	2.2759626
6.233832828242885	5.1264043	2.2641563
6.251385614890126	5.1742353	2.2746944
6.268938548361669	5.1747713	2.2748125
6.286491629073067	5.1432405	2.2678714
6.304044857439898	5.1853967	2.2771466
6.321598233877777	5.1400414	2.267166
6.339151758802344	5.133386	2.2656977
6.356705432629277	5.023369	2.2412872
6.37425925577428	5.0103364	2.238378
6.391813228653095	5.038974	2.2447658
6.409367351681486	5.051338	2.2475183
6.426921625275259	5.0700736	2.2516823
6.44447604985025	5.0703607	2.2517462
6.46203062582232	5.0693436	2.2515204
6.47958535360737	5.085023	2.2549996
6.497140233621328	5.080971	2.2541008
6.514695266280161	5.0562854	2.2486186
6.532250451999859	5.046877	2.2465255
6.549805791196454	5.0498366	2.247184
6.567361284286002	5.0766864	2.2531502
6.584916931684597	5.1001368	2.2583482
6.602472733808367	5.151027	2.2695875
6.6200286910734665	5.1604695	2.2716668
6.637584803896092	5.1425686	2.2677233
6.655141072692462	5.122614	2.2633193
6.672697497878842	5.0625343	2.2500076
6.690254079871514	5.001687	2.2364452
6.707810819086808	5.0271316	2.2421265
6.725367715941078	4.983163	2.2322998
6.742924770850719	5.0166802	2.2397947
6.760481984232151	4.9927855	2.2344542
6.778039356501836	5.0035973	2.2368722
6.795596888076266	5.009932	2.2382877
6.813154579371963	5.036182	2.244144
6.830712430805492	5.007581	2.2377625
6.84827044279344	5.066875	2.250972
6.865828615752445	5.123151	2.2634377
6.883386950099159	5.154714	2.2703996
6.900945446250287	5.1360884	2.266294
6.918504104622553	5.1117997	2.2609289
6.936062925632727	5.0550294	2.2483392
6.953621909697607	5.062306	2.2499568
6.971181057234028	5.092572	2.2566729
6.988740368658859	5.128413	2.2646
7.006299844389007	5.1929607	2.278807
7.023859484841407	5.254753	2.2923248
7.041419290433036	5.341725	2.311217
7.058979261580902	5.45608	2.3358254
7.0765393987020495	5.6241436	2.3715277
7.094099702213559	6.046645	2.4589927
7.111660172532549	6.484083	2.5463862
7.129220810076164	6.891661	2.6251974
7.146781615261595	7.5517154	2.7480385
7.16434258850606	7.6448927	2.76494
7.181903730226821	8.045273	2.836419
7.1994650408411704	8.2328415	2.869293
7.217026520766437	8.450051	2.9068973
7.234588170419983	8.675947	2.945496
7.252149990219215	8.643179	2.9399283
7.269711980581568	8.432608	2.9038951
7.2872741419245175	8.189983	2.8618147
7.304836474665574	7.6822515	2.7716875
7.322398979222286	7.3675494	2.714323
7.339961656012233	7.155449	2.674967
7.357524505453039	6.8725295	2.621551
7.375087527962357	6.686255	2.5857794
7.392650723957886	6.3176785	2.5134993
7.410214093857353	5.9694543	2.4432466
7.427777638078528	5.71801	2.391236
7.445341357039213	5.5669794	2.3594446
7.4629052511572525	5.397892	2.3233364
7.480469320850524	5.3344903	2.3096516
7.498033566536948	5.2883487	2.299641
7.5155979886344735	5.229961	2.2869108
7.5331625875610975	5.13252	2.2655065
7.550727363734844	5.120058	2.2627544
7.568292317573788	5.1365275	2.2663908
7.585857449496025	5.213629	2.283337
7.603422759919705	5.2022614	2.2808466
7.620988249263007	5.164365	2.2725239
7.638553917944147	5.1965113	2.2795858
7.656119766381391	5.254422	2.2922525
7.673685794993023	5.303522	2.3029377
7.691252004197388	5.303031	2.3028312
7.70881839441285	5.2813673	2.2981226
7.726384966057826	5.2786136	2.2975233
7.743951719550762	5.2489333	2.291055
7.761518655310149	5.239647	2.2890275
7.779085773754511	5.233714	2.2877312
7.796653075302419	5.324292	2.3074427
7.814220560372475	5.371012	2.3175445
7.831788229383323	5.3361816	2.3100176
7.8493560827536495	5.3006124	2.302306
7.866924120902174	5.286378	2.2992125
7.884492344247663	5.3796782	2.3194134
7.9020607532089135	5.415254	2.3270698
7.919629348204771	5.4483304	2.3341658
7.937198129654115	5.391579	2.3219774
7.954767097975865	5.3879695	2.3212
7.972336253588986	5.373561	2.3180943
7.989905596912472	5.414924	2.326999
8.007475128365371	5.457614	2.3361537
8.025044848366756	5.5471644	2.355242
8.042614757335754	5.7049975	2.3885136
8.060184855691523	5.761108	2.400231
8.07775514385327	5.8432918	2.4172902
8.095325622240228	5.8503485	2.4187493
8.112896291271687	5.846983	2.4180536
8.130467151366968	5.890203	2.426974
8.148038202945436	5.941168	2.4374511
8.165609446426497	5.952209	2.439715
8.183180882229594	5.9892654	2.4472976
8.200752510774217	5.947322	2.438713
8.218324332479893	6.003043	2.450111
8.235896347766193	6.0182514	2.4532125
8.253468557052724	6.0644794	2.4626164
8.27104096075914	6.073091	2.4643643
8.288613559305137	6.112643	2.4723759
8.306186353110448	6.1405325	2.4780097
8.32375934259485	6.182767	2.486517
8.341332528178162	6.2144585	2.4928815
8.358905910280246	6.263339	2.5026665
8.376479489321003	6.3449335	2.5189152
8.394053265720377	6.3970423	2.5292375
8.411627239898356	6.360816	2.5220659
8.42920141227497	6.3172617	2.5134163
8.44677578327029	6.330023	2.5159535
8.464350353304427	6.320066	2.5139742
8.48192512279754	6.3314843	2.5162442
8.499500092169827	6.3064537	2.5112653
8.51707526184153	6.267581	2.5035138
8.534650632232934	6.2034693	2.4906764
8.552226203764365	6.161267	2.48219
8.569801976856192	6.2255487	2.495105
8.587377951928834	6.255727	2.5011451
8.60495412940274	6.2933836	2.5086617
8.622530509698416	6.3931427	2.5284665
8.6401070932364	6.543424	2.5580118
8.657683880437283	6.6925597	2.5869982
8.675260871721695	6.7619066	2.6003666
8.692838067510303	6.8128943	2.6101522
8.710415468223834	6.9343925	2.6333234
8.727993074283043	7.0727606	2.6594663
8.745570886108737	7.1602235	2.6758595
8.763148904121765	7.1903653	2.6814857
8.78072712874302	7.2125506	2.685619
8.798305560393441	7.4408092	2.7277846
8.815884199494006	7.5769043	2.7526178
8.833463046465745	7.7686143	2.7872233
8.851042101729728	7.8860416	2.8082097
8.86862136570707	8.147196	2.8543293
8.886200838818924	8.323814	2.885102
8.903780521486505	8.424432	2.9024873
8.921360414131055	8.546373	2.923418
8.938940517173874	8.705344	2.9504821
8.956520831036297	8.853415	2.9754689
8.97410135613971	9.111179	3.018473
8.99168209290554	9.267152	3.0441997
9.009263041755265	9.610274	3.1000443
9.026844203110405	9.910718	3.1481292
9.044425577392525	10.155623	3.1867888
9.062007165023239	10.196213	3.193151
9.079588966424197	10.327096	3.21358
9.097170982017108	10.355221	3.217953
9.11475321222372	11.336621	3.3669899
9.132335657465825	12.281949	3.5045612
9.149918318165264	12.330403	3.5114675
9.167501194743924	12.792745	3.5766947
9.18508428762374	12.488544	3.5339134
9.202667597226693	12.460757	3.5299797
9.220251123974803	12.108092	3.4796684
9.237834868290143	11.824622	3.4386947
9.255418830594836	11.717575	3.4230943
9.273003011311046	11.259694	3.3555467
9.290587410860985	11.131737	3.3364258
9.308172029666911	10.445694	3.2319798
9.32575686815113	10.209381	3.1952121
9.343341926735997	8.913192	2.985497
9.360927205843916	8.616988	2.9354706
9.378512705897327	8.360258	2.891411
9.396098427318728	8.172001	2.8586712
9.413684370530664	8.101145	2.846251
9.431270535955722	8.046327	2.8366048
9.448856924016539	8.001165	2.828633
9.466443535135806	7.8806176	2.8072438
9.484030369736251	7.8749485	2.806234
9.501617428240658	7.8772497	2.806644
9.519204711071852	7.840377	2.8000672
9.536792218652714	7.839658	2.799939
9.55437995140617	7.8814735	2.8073962
9.571967909755191	7.93378	2.8166966
9.589556094122802	7.9678903	2.822745
9.60714450493207	7.971786	2.823435
9.624733142606116	7.955166	2.8204904
9.642322007568108	7.9353848	2.8169816
9.659911100241267	7.9700522	2.823128
9.677500421048851	7.9895544	2.82658
9.695089970414175	8.082149	2.842912
9.712679748760609	8.092256	2.8446891
9.730269756511557	8.142201	2.8534544
9.747859994090492	8.207809	2.8649275
9.765450461920915	8.219127	2.8669019
9.78304116042639	8.266814	2.8752067
9.800632090030527	8.296216	2.8803153
9.81822325115699	8.295419	2.8801768
9.835814644229481	8.2852335	2.8784082
9.853406269671762	8.293192	2.8797903
9.870998127907646	8.3598385	2.8913386
9.888590219360985	8.365327	2.8922875
9.906182544455698	8.2797785	2.8774605
9.923775103615734	8.284685	2.8783128
9.941367897265108	8.353791	2.8902926
9.958960925827878	8.342136	2.8882756
9.97655418972816	8.320355	2.8845026
9.994147689390106	8.315776	2.8837087
10.011741425237934	8.33237	2.8865845
10.029335397695904	8.354069	2.8903406
10.04692960718833	8.361003	2.8915398
10.06452405413958	8.306238	2.8820546
10.082118738974064	8.266857	2.8752143
10.099713662116246	8.26665	2.8751783
10.117308823990651	8.290955	2.8794017
10.134904225021844	8.231763	2.8691049
10.152499865634445	8.264418	2.87479
10.170095746253125	8.3419285	2.8882396
10.18769186730261	8.378544	2.8945715
10.205288229207675	8.34605	2.8889532
10.222884832393145	8.264291	2.874768
10.2404816772839	8.237557	2.8701146
10.258078764304868	8.153251	2.8553898
10.275676093881035	8.074033	2.8414843
10.293273666437438	8.112003	2.848158
10.310871482399158	8.231249	2.8690152
10.32846954219134	8.264343	2.874777
10.346067846239173	8.213997	2.866007
10.363666394967908	8.230225	2.8688369
10.38126518880283	8.272675	2.8762257
10.398864228169298	8.362031	2.8917177
10.416463513492713	8.35315	2.8901818
10.434063045198531	8.295558	2.880201
10.451662823712262	8.283289	2.8780704
10.469262849459467	8.245619	2.8715186
10.486863122865758	8.085917	2.8435748
10.504463644356806	8.05892	2.8388238
10.522064414358338	7.93615	2.8171175
10.539665433296118	7.901347	2.8109336
10.557266701595987	7.9491267	2.8194196
10.574868219683818	7.891354	2.8091555
10.592469987985552	7.8512964	2.8020165
10.610072006927185	7.691216	2.7733042
10.627674276934751	7.6065845	2.7580037
10.64527679843435	7.4670777	2.7325954
10.662879571852143	7.3870325	2.7179096
10.680482597614331	7.2204356	2.6870868
10.698085876147173	7.1058536	2.6656806
10.715689407876988	7.033609	2.652095
10.733293193230146	6.931046	2.632688
10.750897232633072	6.8431296	2.6159377
10.76850152651225	6.7526603	2.5985882
10.786106075294207	6.711072	2.5905738
10.803710879405534	6.6171675	2.5723855
10.821315939272877	6.5604324	2.5613341
10.83892125532294	6.4340506	2.5365431
10.856526827982472	6.3258605	2.5151262
10.874132657678285	6.2943683	2.508858
10.891738744837243	6.224529	2.4949005
10.909345089886271	6.173143	2.484581
10.926951693252343	6.081245	2.466018
10.944558555362494	6.0067687	2.450871
10.96216567664381	5.9885654	2.4471545
10.979773057523436	5.9994917	2.449386
10.997380698428573	5.9554105	2.440371
11.014988599786477	5.855605	2.4198358
11.032596762024461	5.7491593	2.3977404
11.050205185569892	5.6854815	2.3844247
11.067813870850198	5.654114	2.3778381
11.085422818292859	5.561516	2.3582866
11.10303202832541	5.545767	2.3549452
11.120641501375454	5.4969	2.3445468
11.138251237870636	5.4871793	2.3424728
11.155861238238671	5.423905	2.3289278
11.173471502907317	5.3614144	2.3154728
11.191082032304402	5.269052	2.2954416
11.208692826857805	5.180542	2.2760804
11.226303886995465	5.0268383	2.2420611
11.243915213145371	4.9370065	2.2219377
11.261526805735578	4.8946433	2.212384
11.279138665194196	4.9091296	2.2156556
11.296750791949393	4.8462105	2.201411
11.314363186429393	4.822425	2.196002
11.331975849062479	4.7516117	2.179819
11.34958878027699	4.720707	2.1727188
11.36720198050133	4.7250147	2.1737099
11.384815450163948	4.668555	2.1606839
11.402429189693366	4.6155047	2.1483727
11.420043199518153	4.5271664	2.127714
11.437657480066942	63.444374	7.9651976
11.455272031768422	85.104126	9.22519
11.472886855051353	107.486885	10.367588
11.490501950344528	99.09503	9.954649
11.508117318076819	84.48317	9.191473
11.52573295867715	45.94269	6.778104
11.543348872574514	4.219586	2.054163
11.560965060197946	4.1286607	2.0319107
11.57858152197655	4.045431	2.0113256
11.59619825833949	4.0458207	2.0114226
11.613815269715985	4.077254	2.019221
11.631432556535323	38.591526	6.212208
11.649050119226837	83.13677	9.117937
11.666667958219929	93.510345	9.670074
11.68428607394406	107.77524	10.381485
11.701904466828756	82.55919	9.086208
11.719523137303586	65.36606	8.084928
11.737142085798196	4.594085	2.1433818
11.754761312742286	3.7317967	1.931786
11.772380818565619	3.7399106	1.9338849
11.790000603698015	3.725076	1.9300456
11.80762066856935	3.6671932	1.9149917
11.825241013609572	3.6297746	1.9051968
11.842861639248683	3.5288289	1.8785177
11.860482545916748	3.4828997	1.8662529
11.878103734043883	3.4783719	1.8650393
11.895725204060282	3.4942906	1.8693022
11.91334695639619	3.5071404	1.8727361
11.930968991481919	3.4526076	1.8581194
11.948591309747824	3.373449	1.8366952
11.966213911624347	3.3247204	1.8233815
11.98383679754198	3.306627	1.8184134
12.001459967931268	3.320393	1.8221946
12.019083423222835	3.2966866	1.815678
12.036707163847352	3.2494836	1.8026325
12.05433119023556	3.2564518	1.8045641
12.071955502818259	3.2719793	1.8088614
12.089580102026313	3.2921016	1.814415
12.107204988290643	3.2627733	1.8063148
12.12483016204224	3.1800947	1.783282
12.142455623712152	3.1266537	1.7682346
12.16008137373149	3.082128	1.755599
12.177707412531431	3.0965514	1.7597021
12.19533374054321	3.0847955	1.7563586
12.212960358198126	3.0395572	1.7434326
12.230587265927545	3.0096228	1.7348264
12.248214464162889	3.032225	1.7413285
12.265841953335649	3.0278943	1.7400845
12.283469733877375	3.0036526	1.733105
12.301097806219685	2.9657388	1.7221321
12.31872617079425	2.980904	1.7265295
12.336354828032825	2.9781313	1.7257264
12.353983778367205	2.9941535	1.7303623
12.371613022229262	2.9537845	1.7186577
12.389242560050928	2.9611042	1.7207859
12.406872392264201	2.9003277	1.7030349
12.424502519301143	2.8672814	1.6933049
12.442132941593874	2.857483	1.6904091
12.459763659574586	2.8693008	1.6939011
12.477394673675532	2.8794107	1.6968826
12.49502598432903	2.8742301	1.6953554
12.51265759196746	2.8785565	1.696631
12.530289497023267	2.8685145	1.693669
12.547921699928967	2.8602364	1.6912234
12.565554201117134	2.8132887	1.6772861
12.583187001020404	2.8182366	1.6787604
12.600820100071486	2.7895465	1.6701936
12.618453498703152	2.7983704	1.6728331
12.636087197348235	2.8109548	1.6765902
12.65372119643964	2.8327923	1.6830901
12.671355496410326	2.818915	1.6789625
12.68899009769333	2.8120818	1.6769263
12.706625000721749	2.8308113	1.6825014
12.724260205928752	2.8726785	1.6948978
12.741895713747551	2.8854961	1.6986748
12.759531524611454	2.948923	1.7172428
12.777167638953818	2.9666266	1.7223898
12.794804057208072	3.0228498	1.7386345
12.812440779807702	3.0718622	1.7526729
12.830077807186271	3.2680328	1.8077701
12.847715139777405	3.2864885	1.8128675
12.865352778014795	3.4617474	1.8605772
12.882990722332197	3.582019	1.8926222
12.90062897316344	3.7112968	1.9264727
12.918267530942412	3.837032	1.9588344
12.935906396103071	3.6978254	1.922973
12.953545569079449	3.8086808	1.9515842
12.971185050305628	3.6116383	1.900431
12.988824840215775	3.6398728	1.907845
13.006464939244115	3.6868181	1.9201089
13.024105347824943	3.522647	1.8768716
13.041746066392617	3.5847383	1.8933405
13.05938709538157	3.4149413	1.847956
13.077028435226296	3.522903	1.8769398
13.094670086361363	3.4578428	1.8595276
13.112312049221401	3.344987	1.8289305
13.129954324241112	3.1942554	1.787248
13.147596911855258	2.9644403	1.721755
13.165239812498685	2.8659894	1.6929233
13.182883026606293	2.7630234	1.6622344
13.200526554613058	2.6907494	1.6403503
13.218170396954017	2.689643	1.6400131
13.235814554064284	2.726246	1.6511348
13.253459026379034	2.7310734	1.652596
13.271103814333523	2.7444408	1.6566354
13.288748918363058	2.7480972	1.6577386
13.306394338903031	2.7369764	1.6543809
13.32404007638889	2.7168999	1.6483021
13.341686131256164	2.714828	1.6476735
13.359332503940449	2.7084544	1.6457382
13.376979194877402	2.687729	1.6394295
13.394626204502751	2.7255905	1.6509362
13.412273533252307	2.758636	1.6609142
13.429921181561937	2.7420492	1.6559134
13.447569149867581	2.720149	1.6492875
13.465217438605247	2.739187	1.655049
13.482866048211022	2.7572563	1.6604989
13.500514979121052	2.7876768	1.6696337
13.518164231771568	2.7364414	1.6542193
13.535813806598844	2.7185295	1.6487963
13.553463704039254	2.7120907	1.6468426
13.571113924529229	2.7183568	1.648744
13.588764468505275	2.708571	1.6457736
13.606415336403956	2.7399738	1.6552867
13.624066528661917	2.776682	1.6663378
13.641718045715882	2.835422	1.6838712
13.659369888002635	2.8767304	1.6960927
13.67702205595903	2.9265797	1.710725
13.694674550021993	3.0033727	1.7330241
13.712327370628532	3.0509214	1.7466887
13.729980518215713	3.143338	1.7729461
13.747633993220681	3.2175531	1.793754
13.765287796080647	3.2644901	1.80679
13.7829419272329	3.2999468	1.8165755
13.800596387114801	3.3017004	1.8170582
13.818251176163775	3.299763	1.816525
13.835906294817324	3.350691	1.8304893
13.853561743513023	3.4784052	1.8650483
13.871217522688525	3.5208538	1.8763938
13.888873632781538	3.5457833	1.883025
13.906530074229858	3.5356297	1.880327
13.92418684747135	3.5223541	1.8767936
13.941843952943948	3.5203168	1.8762507
13.959501391085665	3.5309055	1.8790704
13.977159162334578	3.5079522	1.8729528
13.994817267128846	3.5039337	1.8718797
14.012475705906693	3.4226696	1.8500458
14.030134479106424	3.3244052	1.8232951
14.047793587166414	3.218925	1.7941363
14.065453030525108	3.1483896	1.7743702
14.083112809621026	3.0529408	1.7472667
14.100772924892766	2.9578645	1.7198443
14.118433376778997	2.8674695	1.6933604
14.136094165718458	2.8118253	1.6768498
14.153755292149969	2.7512496	1.6586891
14.171416756512416	2.7027059	1.6439909
14.189078559244768	2.6564505	1.6298621
14.20674070078606	2.6216557	1.6191528
14.224403181575408	2.5713198	1.6035335
14.242066002051999	2.51301	1.5852476
14.259729162655093	2.4791427	1.5745293
14.277392663824022	2.4219582	1.5562642
14.295056505998208	2.3809547	1.5430343
14.312720689617128	2.3584778	1.5357337
14.330385215120348	2.3978167	1.5484885
14.348050082947497	2.4340801	1.5601538
14.3657152935383	2.436973	1.5610807
14.383380847332528	2.4268997	1.557851
14.401046744770051	2.410848	1.5526905
14.418712986290798	2.38892	1.5456132
14.436379572334793	2.4148073	1.553965
14.454046503342123	2.426404	1.5576919
14.471713779752946	2.4336457	1.5600146
14.489381402007504	2.4568448	1.5674325
14.507049370546113	2.4363768	1.5608897
14.524717685809168	2.4513156	1.5656677
14.542386348237134	2.4210892	1.555985
14.560055358270553	2.4436	1.5632018
14.577724716350051	2.4356751	1.560665
14.595394422916325	2.4590228	1.5681272
14.61306447841015	2.4612522	1.5688379
14.63073488327237	2.456658	1.5673729
14.648405637943917	2.5022686	1.581856
14.6660767428658	2.5327008	1.5914462
14.683748198479094	2.5816457	1.60675
14.701420005224954	2.6094081	1.6153662
14.719092163544628	2.6891577	1.6398652
14.73676467387942	2.7573688	1.6605327
14.754437536670727	2.773088	1.6652591
14.772110752360014	2.743288	1.6562874
14.78978432138882	2.7096038	1.6460874
14.807458244198777	2.7344189	1.6536078
14.82513252123159	2.7098322	1.6461568
14.842807152929028	2.7799876	1.6673294
14.860482139732962	2.77608	1.6661572
14.87815748208531	2.7687902	1.6639682
14.8958331804281	2.6771135	1.6361887
14.91350923520342	2.6246727	1.6200842
14.931185646853438	2.6712863	1.634407
14.948862415820408	2.66221	1.631628
14.966539542546656	2.6832173	1.6380529
14.98421702747459	2.616278	1.6174912
15.001894871046696	2.6426442	1.6256212
15.019573073705542	2.6589382	1.6306251
15.037251635893766	2.6877947	1.6394495
15.054930558054092	2.712223	1.6468828
15.072609840629323	2.74963	1.6582009
15.090289484062351	2.8647182	1.6925478
15.107969488796124	3.1283417	1.7687119
15.125649855273691	3.541015	1.8817585
15.14333058393817	4.0384593	2.0095918
15.161011675232768	5.034102	2.2436805
15.17869312960076	6.4033785	2.5304897
15.196374947485506	8.196777	2.8630013
15.214057129330447	11.219679	3.3495789
15.231739675579114	15.860765	3.9825575
15.249422586675102	20.935963	4.5755835
15.267105863062092	24.01673	4.9006867
15.284789505183847	24.329082	4.932452
15.302473513484218	22.232862	4.7151737
15.320157888407127	18.665125	4.3203154
15.337842630396578	14.515892	3.8099728
15.355527739896656	11.309232	3.36292
15.37321321735153	8.814624	2.968943
15.39089906320545	6.467899	2.5432065
15.408585277902748	4.872942	2.2074742
15.42627186188783	3.81515	1.9532409
15.443958815605198	3.2724977	1.8090045
15.461646139499424	2.9648454	1.7218727
15.479333834015168	2.8352346	1.6838155
15.497021899597165	2.7857273	1.6690499
15.514710336690234	2.744834	1.656754
15.53239914573928	2.67753	1.636316
15.550088327189297	2.6032565	1.613461
15.567777881485336	2.5385067	1.5932692
15.58546780907256	2.5089884	1.5839787
15.6031581103962	2.460091	1.5684677
15.620848785901568	2.4363225	1.5608723
15.638539836034063	2.4417303	1.5626037
15.656231261239173	2.4534807	1.566359
15.673923061962451	2.452947	1.5661887
15.691615238649552	2.4318826	1.5594494
15.709307791746202	2.4132836	1.5534747
15.727000721698221	2.406131	1.5511708
15.744694028951498	2.420897	1.5559232
15.76238771395202	2.4445705	1.5635122
15.780081777145844	2.4505842	1.5654342
15.797776218979125	2.4306254	1.5590463
15.815471039898094	2.4257166	1.5574713
15.833166240349064	2.4035728	1.550346
15.850861820778437	2.417069	1.5546925
15.868557781632699	2.4024467	1.5499828
15.886254123358412	2.395025	1.5475868
15.903950846402232	2.3792307	1.5424756
15.921647951210897	2.3554294	1.5347408
15.939345438231225	2.323249	1.5242208
15.957043307910133	2.2804437	1.5101138
15.974741560694602	2.3303816	1.5265588
15.992440197031714	2.3785977	1.5422703
16.01013921736862	2.397964	1.5485361
16.02783862215259	2.4188573	1.5552676
16.045538411830933	2.4063814	1.5512515
16.06323858685107	2.4408133	1.5623102
16.080939147660512	2.4406807	1.5622678
16.09864009470684	2.4344854	1.5602838
16.11634142843774	2.4054706	1.5509579
16.134043149300954	2.3994858	1.5490273
16.15174525774433	2.4462607	1.5640527
16.169447754215817	2.510969	1.5846037
16.18715063916342	2.5238318	1.5886573
16.204853913035244	2.4935493	1.5790976
16.222557576279478	2.46815	1.5710347
16.240261629344403	22.422012	4.735189
16.257966072678386	42.925926	6.551788
16.275670906729868	38.019585	6.1660023
16.293376131947387	2.4660354	1.5703615
16.31108174877957	2.5309496	1.5908959
16.328787757675133	2.609081	1.615265
16.34649415908287	2.619088	1.6183597
16.364200953451657	2.6234078	1.6196938
16.38190814123048	2.6359901	1.6235733
16.39961572286839	2.6851346	1.638638
16.41732369881455	2.7129927	1.6471164
16.43503206951817	2.7172804	1.6484176
16.45274083542859	2.7184908	1.6487846
16.47044999699522	2.722253	1.6499252
16.488159554667558	2.7828133	1.6681767
16.505869508895184	2.8250396	1.6807854
16.523579860127786	2.8621747	1.6917963
16.541290608815117	2.9088392	1.705532
16.559001755407035	2.9802132	1.7263294
16.57671330035348	3.0486078	1.7460263
16.59442524410448	3.0824845	1.7557006
16.61213758711015	3.166641	1.7795058
16.629850329820705	3.2577522	1.8049244
16.647563472686436	3.386002	1.8401092
16.665277016157724	3.43547	1.8535022
16.682990960685053	3.4345424	1.8532518
16.70070530671898	3.4607754	1.8603159
16.718420054710155	3.5123463	1.8741255
16.736135205109335	3.6082687	1.8995444
16.753850758367335	3.6208563	1.9028548
16.771566714935087	3.6611276	1.9134073
16.789283075263597	3.7120771	1.9266752
16.80699983980398	3.837387	1.958925
16.82471700900741	3.9966955	1.9991738
16.84243458332518	4.041272	2.0102916
16.860152563208665	4.0807996	2.020099
16.87787094910932	4.0784426	2.0195155
16.89558974147871	4.121422	2.0301285
16.913308940768466	4.142088	2.035212
16.931028547430333	4.185465	2.045841
16.94874856191613	4.3038254	2.0745664
16.966468984677785	4.460978	2.1121027
16.98418981616729	4.518719	2.125728
17.00191105683676	4.5164194	2.125187
17.019632707138374	4.4410253	2.107374
17.03735476752442	4.42934	2.1045997
17.05507723844728	4.483678	2.1174698
17.072800120359403	4.5635867	2.1362553
17.090523413713353	4.6335325	2.1525643
17.108247118961785	4.694457	2.1666696
17.125971236557437	4.719639	2.172473
17.143695766953133	4.738939	2.1769104
17.161420710601806	4.761234	2.1820252
17.179146067956477	4.755462	2.1807022
17.19687183947025	4.7876306	2.1880655
17.21459802559634	4.756612	2.180966
17.232324626788028	4.7809854	2.1865463
17.25005164349871	4.764779	2.1828375
17.267779076181863	4.789429	2.1884766
17.285506925291074	4.75792	2.1812656
17.30323519127999	4.7043905	2.1689608
17.320963874602384	4.6132293	2.147843
17.33869297571211	4.575023	2.1389303
17.356422495063114	4.5801187	2.1401212
17.37415243310944	4.6042905	2.145761
17.391882790305218	4.5947003	2.1435251
17.40961356710468	4.5887527	2.1421375
17.42734476396215	4.5798826	2.1400661
17.445076381332044	4.5548677	2.1342137
17.462808419668868	4.5969815	2.1440573
17.48054087942723	4.7654023	2.18298
17.498273761061835	5.121928	2.2631679
17.51600706502747	5.6715612	2.381504
17.533740791779024	6.3577213	2.5214522
17.551474941771485	7.8072424	2.7941444
17.56920951545993	8.813015	2.9686723
17.586944513299528	10.845275	3.2932165
17.60467993574556	12.401386	3.5215602
17.622415783253373	14.064319	3.7502425
17.64015205627843	15.411921	3.925802
17.657888755276293	16.4574	4.056772
17.675625880702604	17.01848	4.125346
17.69336343301311	16.880503	4.1085887
17.71110141266366	16.132542	4.0165334
17.728839820110178	15.155848	3.8930511
17.746578655808705	14.3147135	3.783479
17.764317920215372	12.999411	3.6054695
17.7820576137864	11.550641	3.3986235
17.79979773697811	9.6101675	3.100027
17.81753829024692	7.715953	2.7777605
17.835279274049356	6.0487514	2.459421
17.85302068884201	4.9791207	2.2313943
17.870762535081607	4.313972	2.0770104
17.888504813224934	3.9840648	1.9960122
17.90624752372891	3.7346883	1.9325342
17.923990667050536	3.598364	1.8969355
17.941734243646895	3.4999244	1.8708085
17.959478253975185	3.4888747	1.8678529
17.9772226984927	3.413877	1.847668
17.994967577656833	3.3956454	1.8427277
18.01271289192506	3.3956077	1.8427175
18.030458641754965	3.421326	1.8496827
18.04820482760425	3.397782	1.8433074
18.06595144993067	3.3339303	1.8259053
18.083698509192125	3.3074532	1.8186405
18.101446005846576	3.2970746	1.8157848
18.119193940352105	3.319009	1.8218148
18.136942313166887	3.3008313	1.816819
18.1546911247492	3.246001	1.8016661
18.1724403755574	3.1826847	1.784008
18.19019006604997	3.165755	1.7792568
18.207940196685467	3.166282	1.779405
18.225690767922575	3.1657763	1.7792628
18.243441780220046	3.1510625	1.7751232
18.261193234036764	3.1256456	1.7679496
18.278945129831676	3.0612836	1.7496524
18.29669746806386	3.0512066	1.7467704
18.314450249192483	3.0479372	1.7458342
18.3322034736768	3.057281	1.7485082
18.349957141976184	3.0709355	1.7524085
18.3677112545501	3.0742853	1.753364
18.385465811858108	3.026274	1.7396189
18.403220814359884	3.0263271	1.7396342
18.420976262515172	3.0724802	1.7528492
18.43873215678387	3.130568	1.7693411
18.456488497625923	3.1621127	1.778233
18.474245285501407	3.2207968	1.7946578
18.492002520870486	3.3189545	1.8217998
18.50976020419343	3.4367347	1.8538432
18.527518335930615	3.7599928	1.9390701
18.545276916542516	4.305996	2.0750895
18.563035946489688	4.475535	2.115546
18.580795426232832	4.950807	2.225041
18.598555356232698	4.9038663	2.2144675
18.616315736950185	5.231364	2.2872174
18.63407656884626	4.9056807	2.2148771
18.65183785238201	5.139454	2.2670364
18.669599588018617	4.884698	2.2101352
18.68736177621737	4.8126254	2.1937697
18.705124417439652	4.697426	2.1673546
18.72288751214696	4.454134	2.110482
18.740651060800886	4.6602793	2.158768
18.758415063863115	4.39277	2.0958936
18.77617952179546	4.624683	2.1505077
18.793944435059814	4.345296	2.0845373
18.811709804118184	4.373741	2.0913491
18.829475629432675	4.333134	2.081618
18.8472419114655	4.1536283	2.0380452
18.86500865067897	4.202856	2.0500867
18.88277584753551	3.8378546	1.9590443
18.90054350249763	3.8438804	1.9605817
18.918311616027957	3.5356696	1.8803376
18.936080188589226	3.4659863	1.8617159
18.953849220644265	3.1097846	1.7634581
18.971618712656007	2.9235637	1.7098432
18.9893886650875	2.8842645	1.6983123
19.007159078401887	8.083116	2.843082
19.024929953062408	32.92058	5.737646
19.042701289532435	32.787716	5.726056
19.060473088275405	25.337873	5.033674
19.07824534975489	2.6353536	1.6233772
19.096018074434568	2.6450915	1.6263738
19.113791262778197	2.6102045	1.6156127
19.13156491524966	2.5919125	1.6099417
19.149339032312945	2.5964246	1.6113424
19.167113614432136	2.5866053	1.6082927
19.184888662071433	2.5863342	1.6082084
19.202664175695123	2.5809867	1.606545
19.220440155767623	2.5935214	1.6104413
19.238216602753447	2.5734577	1.6042
19.2559935171172	2.5683024	1.6025923
19.27377089932361	2.5642278	1.6013206
19.291548749837514	2.5680637	1.602518
19.309327069123835	2.5379007	1.593079
19.32710585764763	2.506299	1.5831295
19.344885115874032	2.5247014	1.5889308
19.362664844268313	2.5150142	1.5858796
19.380445043295822	2.5222535	1.5881604
19.39822571342203	2.5115848	1.584798
19.41600685511252	2.5477068	1.5961537
19.43378846883297	2.5514176	1.5973158
19.451570555049173	2.5354502	1.5923097
19.469353114227037	2.5478458	1.5961972
19.48713614683254	2.5615034	1.6004697
19.50491965333182	2.542526	1.59453
19.52270363419109	2.528849	1.5902355
19.540488089876686	2.528312	1.5900667
19.55827302085503	2.51734	1.5866127
19.576058427592674	2.5151772	1.5859311
19.593844310556282	2.5138447	1.5855108
19.611630670212598	2.5264897	1.5894935
19.629417507028506	2.5398772	1.5936992
19.64720482147098	2.5283246	1.5900706
19.6649926140071	2.56324	1.6010122
19.682780885104084	2.5443633	1.595106
19.70056963522921	2.5056043	1.5829101
19.718358864849908	2.504336	1.5825094
19.7361485744337	2.5087705	1.5839099
19.753938764448215	2.5272079	1.5897194
19.771729435361202	2.527738	1.5898862
19.789520587640506	2.5791845	1.605984
19.807312221754092	2.5736248	1.6042521
19.825104338170043	2.5611687	1.6003652
19.842896937356517	2.5541418	1.5981683
19.860690019781824	2.5853128	1.6078908
19.87848358591436	2.5936577	1.6104836
19.896277636222635	2.5842748	1.607568
19.914072171175278	2.542594	1.5945513
19.931867191241015	2.5083566	1.5837792
19.94966269688869	2.5365384	1.5926514
19.967458688587264	2.5260513	1.5893556
19.985255166805807	2.535349	1.5922779
20.00305213201348	2.5110006	1.5846137
20.020849584679578	2.517707	1.5867285
20.038647525273507	2.5216649	1.587975
20.05644595426477	2.4967787	1.5801198
20.07424487212299	2.4720693	1.5722816
20.092044279317903	2.4290378	1.5585371
20.109844176319353	2.415346	1.5541383
20.127644563597304	2.4353528	1.5605617
20.145445441621817	2.440352	1.5621626
20.16324681086307	2.4072125	1.5515194
20.181048671791373	2.3790462	1.5424157
20.198851024877122	2.3962004	1.5479666
20.216653870590836	2.4032443	1.55024
20.234457209403146	2.387443	1.5451353
20.252261041784802	2.354704	1.5345044
20.270065368206662	2.3466177	1.5318674
20.287870189139685	2.342377	1.5304825
20.305675505054968	2.3274632	1.5256026
20.323481316423702	2.3290706	1.5261292
20.341287623717207	2.3448899	1.5313033
20.359094427406884	2.3294094	1.5262402
20.376901727964288	2.3250573	1.5248139
20.39470952586107	2.3461199	1.5317049
20.41251782156899	2.360639	1.5364372
20.430326615559935	2.333894	1.5277088
20.448135908305886	2.3409197	1.5300064
20.465945700278965	2.3639712	1.5375211
20.483755991951384	2.3837063	1.5439256
20.50156678379548	2.3954039	1.5477092
20.519378076283708	2.341049	1.5300487
20.537189869888635	2.3085454	1.5193897
20.55500216508294	2.2830124	1.510964
20.572814962339415	2.2912958	1.5137026
20.59062826213098	2.2935421	1.5144445
20.60844206493066	2.3002145	1.5166458
20.626256371211593	2.2863905	1.5120815
20.644071181447032	2.2811637	1.5103521
20.66188649611036	2.29506	1.5149455
20.67970231567506	2.3174634	1.5223217
20.697518640614742	2.3138614	1.5211382
20.715335471403122	2.3125045	1.5206921
20.73315280851404	2.3063502	1.5186672
20.750970652421447	2.337279	1.5288162
20.768789003599412	2.3340971	1.5277752
20.786607862522136	2.3117702	1.5204507
20.8044272296639	2.2944055	1.5147295
20.82224710549913	2.2815795	1.5104898
20.84006749050237	2.2743003	1.5080783
20.857888385148268	3.8077657	1.9513497
20.8757097899116	45.943043	6.7781296
20.893531705267254	64.80665	8.050258
20.911354131690224	83.85681	9.157336
20.92917706965566	69.11273	8.313407
20.94700051963877	50.182026	7.083927
20.96482448211493	29.420492	5.424066
20.982648957559622	4.177922	2.0439966
21.00047394644843	2.268669	1.5062101
21.01829944925707	2.2748723	1.508268
21.036125466461375	2.260611	1.5035329
21.053951998537297	2.2661383	1.5053698
21.071779045960906	2.2702436	1.5067328
21.089606609208378	2.2828293	1.5109035
21.10743468875603	2.2487285	1.4995761
21.12526328508028	2.2247703	1.4915664
21.143092398657675	2.1969655	1.4822164
21.16092202996488	2.2005472	1.4834242
21.17875217947867	2.2025635	1.4841036
21.19658284767596	2.218686	1.4895254
21.21441403503377	2.2219315	1.4906144
21.232245742029225	2.200251	1.4833243
21.2500779691396	2.1734142	1.4742504
21.26791071684227	2.183344	1.4776143
21.28574398561475	2.1900682	1.479888
21.30357777593465	2.1971302	1.482272
21.321412088279704	2.1975763	1.4824225
21.339246923127792	2.2006907	1.4834726
21.357082280956888	2.1882803	1.4792837
21.3749181622451	2.1952362	1.481633
21.392754567470647	2.170259	1.4731799
21.41059149711187	2.167639	1.4722904
21.42842895164726	2.163486	1.4708793
21.446266931555378	2.1517549	1.4668862
21.464105437314945	2.135487	1.4613305
21.481944469404798	2.1098704	1.4525393
21.49978402830388	2.1170871	1.4550214
21.51762411449127	2.12439	1.4575287
21.53546472844617	2.1015916	1.4496868
21.553305870647876	2.1095166	1.4524175
21.571147541575865	2.1263597	1.4582043
21.58898974170967	2.119033	1.4556899
21.60683247152899	2.1026297	1.4500448
21.62467573151363	2.0663514	1.4374809
21.642519522143523	2.0292625	1.4245219
21.660363843898722	2.030875	1.4250877
21.6782086972594	2.0761647	1.4408903
21.696054082705864	2.096207	1.4478283
21.713900000718535	2.0766928	1.4410735
21.73174645177795	2.0675604	1.4379014
21.749593436364794	2.0462613	1.430476
21.767440954959845	2.0218208	1.4219074
21.785289008044032	2.0053086	1.4160892
21.803137596098388	2.0255816	1.4232293
21.820986719604086	2.0298822	1.4247394
21.838836379042412	2.0106547	1.4179755
21.85668657489478	1.9750657	1.4053704
21.87453730764273	1.9983271	1.413622
21.892388577767914	2.0187237	1.420818
21.91024038575213	2.0375042	1.4274117
21.928092732077285	2.0571866	1.4342896
21.945945617225426	2.0633214	1.4364266
21.963799041678694	2.0470684	1.430758
21.981653005919398	31.32034	5.596458
21.999507510429943	78.115845	8.838317
22.01736255569286	73.08039	8.548707
22.035218142190818	4.1819954	2.0449927
22.05307427040661	1.9847919	1.4088265
22.07093094082315	1.9684215	1.4030044
22.088788153923474	2.0180542	1.4205824
22.106645910190746	2.0356975	1.4267787
22.12450421010827	2.0161145	1.4198995
22.142363054159464	2.0129151	1.4187725
22.16022244282787	2.020638	1.4214915
22.178082376597164	2.0201263	1.4213115
22.195942855951145	2.0104089	1.4178889
22.213803881373742	1.9981036	1.413543
22.231665453349002	1.9843405	1.4086663
22.24952757236111	1.9583678	1.3994169
22.26739023889438	1.9450583	1.3946534
22.28525345343323	1.983577	1.4083952
22.30311721646225	1.9884837	1.4101361
22.320981528466113	1.9752753	1.4054449
22.33884638992964	1.978463	1.4065785
22.356711801337788	1.9675833	1.4027057
22.37457776317561	1.9400554	1.3928587
22.392444275928337	1.9167032	1.3844506
22.410311340081282	1.9123495	1.3828772
22.428178956119904	1.9277415	1.3884313
22.446047124529805	1.9340247	1.3906921
22.46391584579669	1.9246528	1.3873186
22.481785120406414	1.8852651	1.3730496
22.49965494884496	1.8782463	1.3704913
22.51752533159841	1.874012	1.3689456
22.53539626915302	1.8942684	1.3763242
22.553267761995137	1.9404597	1.3930038
22.571139810611264	2.009795	1.4176724
22.589012415488025	1.9822072	1.4079088
22.60688557711216	1.949306	1.3961755
22.624759295970566	1.9328698	1.3902769
22.642633572550263	1.9506936	1.3966724
22.660508407338362	1.9355491	1.3912401
22.67838380082217	1.9402896	1.3929428
22.696259753489077	1.9401873	1.3929061
22.714136265826614	1.897135	1.3773652
22.73201333832246	1.8786293	1.370631
22.74989097146439	1.93067	1.3894855
22.76776916574035	1.9515612	1.3969829
22.785647921638393	1.9336791	1.3905679
22.803527239646712	1.931183	1.3896701
22.82140712025363	1.9444063	1.3944197
22.839287563947593	1.9391338	1.3925278
22.85716857121719	1.949581	1.396274
22.875050142551135	1.9305053	1.3894262
22.892932278438277	1.9081273	1.3813498
22.910814979367604	1.8715641	1.3680512
22.928698245828222	1.8982079	1.3777547
22.946582078309387	1.9236591	1.3869604
22.96446647730047	1.9468075	1.3952805
22.98235144329098	1.9605005	1.4001788
23.000236976770562	1.9583181	1.3993992
23.018123078229	1.9404491	1.393
23.03600974815619	1.936541	1.3915966
23.053896987042194	1.9025309	1.3793226
23.071784795377173	1.8902085	1.3748485
23.08967317365145	1.891671	1.3753803
23.10756212235546	1.899358	1.378172
23.125451641979787	1.8694425	1.3672756
23.143341733015134	1.8964325	1.3771102
23.161232395952357	1.9147875	1.3837584
23.179123631282426	1.9264369	1.3879614
23.197015439496468	1.9207584	1.3859143
23.214907821085717	1.9535549	1.3976963
23.23280077654157	1.9668005	1.4024266
23.250694306355538	1.9816798	1.4077215
23.268588411019277	2.0078413	1.4169831
23.28648309102458	2.0105956	1.4179547
23.304378346863356	2.0166154	1.4200759
23.322274179027676	1.9551213	1.3982565
23.340170588009723	1.8915061	1.3753203
23.358067574301852	1.8795044	1.3709502
23.37596513839651	1.9101212	1.3820714
23.39386328078629	1.9537015	1.3977487
23.411762001963947	1.9869429	1.4095896
23.429661302422353	2.025608	1.4232386
23.4475611826545	1.9956495	1.4126745
23.46546164315356	1.954515	1.3980397
23.48336268441279	1.9213687	1.3861345
23.501264306925638	1.9212933	1.3861072
23.51916651118564	1.8778119	1.3703327
23.537069297686497	1.8779722	1.3703912
23.554972666922037	1.876435	1.3698303
23.57287661938623	1.8861214	1.3733613
23.59078115557318	1.900914	1.3787364
23.608686275977128	1.9171245	1.3846027
23.62659198109246	1.92516	1.3875014
23.6444982714137	1.8984332	1.3778365
23.66240514743549	1.9080135	1.3813086
23.68031260965263	1.8960915	1.3769864
23.698220658560068	1.8849064	1.372919
23.716129294652845	1.8944396	1.3763864
23.7340385184262	1.9314301	1.3897591
23.75194833037546	1.9524634	1.3973057
23.769858730996123	1.9327396	1.3902301
23.78776972078382	1.9255662	1.3876477
23.80568130023431	1.9329314	1.3902991
23.823593469843495	1.9433285	1.3940332
23.841506230107424	1.9480746	1.3957344
23.859419581522275	1.9688995	1.4031748
23.87733352458438	1.9650556	1.4018044
23.89524805979019	1.9451069	1.3946708
23.913163187636318	1.912278	1.3828515
23.931078908619508	1.9496962	1.3963152
23.948995223236633	2.0146213	1.4193735
23.966912131984735	2.0406299	1.4285061
23.98482963536096	2.0627625	1.4362321
24.002747733862616	2.0190692	1.4209396
24.020666427987155	2.0103981	1.4178851
24.038585718232156	2.0438166	1.4296211
24.056505605095353	2.0944757	1.4472303
24.074426089074617	2.1207685	1.4562858
24.092347170667946	2.075345	1.4406058
24.110268850373515	2.061156	1.4356726
24.128191128689586	2.1337833	1.4607475
24.146114006114626	2.1379285	1.4621657
24.164037483147187	2.06817	1.4381133
24.181961560286005	2.037926	1.4275595
24.199886238029926	1.9989648	1.4138476
24.21781151687797	1.9957582	1.412713
24.235737397329274	2.0481267	1.4311278
24.253663879883135	2.1021583	1.4498821
24.271590965038975	2.1171844	1.4550548
24.289518653296376	2.067901	1.4380198
24.30744694515505	2.0296655	1.4246633
24.32537584111486	2.0381021	1.4276211
24.34330534167581	2.055131	1.4335728
24.361235447338046	2.0612864	1.435718
24.379166158601876	2.0334234	1.4259815
24.39709747596772	2.045036	1.4300476
24.41502939993615	2.0338392	1.4261273
24.432961931007917	2.0445044	1.4298617
24.450895069683856	2.0556335	1.4337481
24.468828816465	2.064513	1.4368414
24.4867631718525	2.0374713	1.4274002
24.504698136347656	1.9952569	1.4125357
24.52263371045192	1.9299362	1.3892214
24.540569894666874	1.8862845	1.3734207
24.558506689494266	1.9278716	1.3884782
24.57644409543597	1.9457072	1.3948861
24.594382112994012	1.912865	1.3830637
24.61232074267057	1.8962396	1.3770401
24.630259984967953	1.9256282	1.38767
24.64819984038863	1.8967676	1.3772318
24.66614030943522	1.9203327	1.3857607
24.684081392610462	1.9376789	1.3920053
24.702023090417274	1.9609058	1.4003235
24.7199654033587	1.9918911	1.4113437
24.737908331937927	2.0255864	1.423231
24.755851876658305	2.0664983	1.4375321
24.773796038023324	2.0717072	1.4393426
24.79174081653661	2.1244552	1.4575511
24.809686212701962	2.1578577	1.4689648
24.827632227023294	2.128652	1.4589901
24.8455788600047	2.063475	1.43648
24.8635261121504	2.0713956	1.4392344
24.88147398396475	2.0899632	1.4456705
24.899422475952303	2.081436	1.4427183
24.917371588617698	2.0893002	1.4454411
24.935321322465768	2.1099231	1.4525574
24.953271678001478	2.2450595	1.4983523
24.97122265572994	2.4519157	1.5658594
24.989174256156414	2.7635489	1.6623925
25.00712647978632	3.1395023	1.771864
25.02507932712521	3.6932726	1.9217889
25.043032798678798	4.298491	2.0732803
25.060986894952933	4.9577756	2.2266064
25.078941616453637	5.6039658	2.3672698
25.096896963687055	6.4391575	2.5375495
25.114852937159508	7.5797534	2.7531352
25.132809537377444	8.184997	2.8609433
25.150766764847468	8.293912	2.8799152
25.168724620076347	7.7999134	2.7928326
25.186683103570985	6.8249097	2.6124527
25.204642215838426	5.645372	2.3759992
25.222601957385894	4.282641	2.0694542
25.24056232872074	3.234925	1.7985897
25.25852333035048	2.646704	1.6268693
25.276484962782778	2.2752192	1.5083829
25.294447226525435	2.0869682	1.4446343
25.312410122086423	1.9706156	1.4037862
25.330373649973843	1.9410135	1.3932025
25.348337810695988	1.942289	1.3936603
25.366302604761245	1.8761667	1.3697324
25.384268032678207	1.8706884	1.3677311
25.40223409495558	1.8933504	1.3759906
25.420200792102257	1.8962084	1.3770288
25.438168124627246	1.8589242	1.3634237
25.45613609303974	1.8488652	1.3597298
25.474104697849057	1.8571348	1.3627673
25.492073939564698	1.8961588	1.3770108
25.510043818696285	1.8958831	1.3769107
25.528014335753614	1.874663	1.3691833
25.54598549124664	1.8598318	1.3637565
25.56395728568544	1.8421229	1.3572483
25.58192971958028	1.85779	1.3630077
25.59990279344156	1.8934017	1.3760093
25.617876507779833	1.9226929	1.386612
25.635850863105826	1.9256469	1.3876768
25.653825859930386	1.9094867	1.3818418
25.671801498764548	1.8689488	1.367095
25.68977778011949	1.8551049	1.3620224
25.707754704506524	1.8480754	1.3594394
25.725732272437153	1.8541983	1.3616896
25.743710484423012	1.8894066	1.3745569
25.761689340975888	1.8774812	1.3702121
25.77966884260774	1.8520956	1.3609172
25.797648989830662	1.8223128	1.3499306
25.815629783156922	1.814853	1.3471648
25.83361122309895	1.8573201	1.3628353
25.85159331016929	1.8618839	1.3645086
25.869576044880695	1.8578471	1.3630286
25.887559427746034	1.8255553	1.3511311
25.90554345927836	1.8251362	1.350976
25.92352813999086	1.8424045	1.357352
25.94151347039689	1.8464617	1.3588457
25.959499451009965	1.8463161	1.3587922
25.97748608234374	1.8753909	1.3694491
25.995473364912062	1.8315028	1.3533303
26.013461299228904	1.8160896	1.3476237
26.03144988580839	1.7787637	1.333703
26.04943912516483	1.7913824	1.3384254
26.067429017812675	1.8005159	1.341833
26.085419564266537	1.811451	1.3459015
26.103410765041186	1.8478371	1.3593518
26.12140262065155	1.8979042	1.3776444
26.139395131612723	1.9024364	1.3792883
26.157388298439948	1.9214717	1.3861716
26.17538212164861	1.9358531	1.3913494
26.193376601754295	1.9153181	1.3839502
26.211371739272714	1.830485	1.3529541
26.229367534719746	1.7480028	1.3221205
26.247363988611433	1.7286347	1.3147756
26.26536110146397	1.7715458	1.3309942
26.283358873793727	1.8148929	1.3471797
26.301357306117204	1.8724921	1.3683903
26.319356398951104	1.8824043	1.3720074
26.33735615281224	1.8185649	1.3485417
26.35535656821762	1.7837151	1.3355579
26.373357645684404	1.8087734	1.3449064
26.39135938572991	1.8474433	1.3592069
26.409361788871614	1.8423312	1.357325
26.427364855627165	1.8187048	1.3485937
26.445368586514352	1.8135638	1.3466862
26.46337298205115	1.790461	1.3380811
26.48137804275568	1.7563392	1.3252695
26.499383769146217	1.7367052	1.317841
26.517390161741215	1.7460524	1.3213828
26.53539722105928	1.7816732	1.3347933
26.553404947619182	1.7661297	1.3289582
26.571413341939856	1.7529738	1.3239992
26.589422404540397	1.7416586	1.3197191
26.60743213594006	1.7866006	1.3366377
26.62544253665827	1.8487267	1.3596789
26.64345360721459	1.8588777	1.3634067
26.66146534812879	1.8260095	1.3512992
26.679477759920758	1.8309077	1.3531104
26.69749084311057	1.8351551	1.354679
26.71550459821847	1.8474414	1.3592062
26.733519025764842	1.8539408	1.3615949
26.751534126270258	1.8578092	1.3630147
26.769549900255434	1.8604772	1.3639932
26.787566348241267	1.8443267	1.3580599
26.80558347074881	1.7848158	1.3359699
26.823601268299267	1.7402241	1.3191756
26.841619741414036	1.8091962	1.3450637
26.85963889061465	1.8652408	1.3657382
26.877658716422832	1.8458949	1.3586372
26.89567921936045	1.8303316	1.3528975
26.913700399949544	1.8255337	1.3511231
26.93172225871233	1.8425366	1.3574007
26.949744796171174	1.8343694	1.354389
26.967768012848605	1.8559096	1.3623177
26.98579190926733	1.8175056	1.348149
27.003816485950225	1.794817	1.3397079
27.021841743420318	1.7887187	1.3374299
27.039867682200814	1.7834095	1.3354435
27.057894302815072	1.7668236	1.3292192
27.07592160578664	1.7773898	1.3331878
27.0939495916392	1.7740093	1.3319194
27.111978260896635	1.7344849	1.3169985
27.13000761408296	1.7201843	1.311558
27.148037651722397	1.7509018	1.3232164
27.166068374339304	1.7956977	1.3400364
27.184099782458215	1.8350418	1.3546371
27.20213187660384	1.8480662	1.359436
27.22016465730105	1.8810328	1.3715075
27.23819812507487	1.8505154	1.3603365
27.256232280450533	1.8529794	1.3612418
27.274267123953383	1.826458	1.3514651
27.292302656108987	1.7738508	1.33186
27.31033887744306	1.7714851	1.3309715
27.32837578848146	1.7765695	1.3328801
27.34641338975026	1.8078858	1.3445765
27.364451681775673	1.8072015	1.344322
27.382490665084074	1.822639	1.3500515
27.400530340202046	1.7980409	1.3409104
27.41857070765629	1.7797327	1.3340663
27.436611767973726	1.7668037	1.3292117
27.454653521681404	1.7984558	1.3410652
27.472695969306564	1.8079793	1.3446112
27.490739111376627	1.824086	1.3505872
27.508782948419153	1.8498104	1.3600774
27.526827480961902	1.8188326	1.348641
27.54487270953279	1.8017108	1.3422782
27.562918634659898	1.7817479	1.3348213
27.580965256871508	1.7870702	1.3368134
27.599012576696026	1.8045272	1.3433269
27.617060594662068	1.8137414	1.3467522
27.63510931129842	1.848741	1.3596842
27.65315872713401	1.8546337	1.3618493
27.67120884269797	1.8335648	1.3540919
27.68925965851958	1.8859857	1.373312
27.707311175128307	1.8985835	1.377891
27.725363393053787	1.8918866	1.3754587
27.74341631282583	1.8678085	1.3666779
27.7614699349744	1.907692	1.3811922
27.77952426002968	2.0660892	1.4373897
27.797579288521973	2.1388295	1.4624738
27.815635020981784	2.668484	1.6335495
27.83369145793979	2.7548735	1.6597812
27.85174859992682	2.5310423	1.590925
27.869806447473923	2.3562176	1.5349976
27.887865001112267	2.033041	1.4258474
27.905924261373233	1.9224408	1.3865211
27.92398422878836	1.888819	1.3743432
27.94204490388936	1.86895	1.3670955
27.96010628720813	1.8338087	1.3541819
27.978168379276728	1.818468	1.3485059
27.9962311806274	1.7968196	1.3404549
28.014294691792568	1.7709539	1.3307719
28.0323589133048	1.768598	1.3298864
28.050423845696887	1.8249482	1.3509065
28.068489489501758	1.8486074	1.359635
28.086555845252523	1.8464438	1.3588392
28.104622913482487	1.8323159	1.3536307
28.122690694725115	1.8343061	1.3543656
28.14075918951405	1.8837438	1.3724954
28.15882839838312	1.900226	1.3784869
28.176898321866304	1.8785148	1.3705893
28.1949689604978	1.9021269	1.3791761
28.213040314811945	1.9416988	1.3934485
28.23111238534327	1.9614184	1.4005065
28.249185172626493	1.9441217	1.3943176
28.267258677196473	1.9023288	1.3792493
28.285332899588294	1.9192638	1.385375
28.303407840337172	1.9417748	1.3934758
28.321483499978545	1.9612852	1.4004589
28.33955987904799	1.9259342	1.3877803
28.357636978081285	1.9208505	1.3859475
28.37571479761439	1.9597951	1.3999268
28.393793338183425	1.9346153	1.3909044
28.41187260032469	1.9335701	1.3905287
28.429952584574686	1.976648	1.4059331
28.448033291470065	2.0450008	1.4300352
28.46611472154769	2.0702286	1.438829
28.484196875344566	2.0573208	1.4343364
28.502279753397914	2.0070956	1.41672
28.52036335624511	1.9617212	1.4006146
28.538447684423716	2.0029063	1.4152408
28.556532738471482	2.020256	1.4213572
28.574618518926325	1.9458339	1.3949316
28.59270502632635	1.9965663	1.412999
28.61079226120985	2.0414436	1.4287909
28.628880224115274	2.0369778	1.4272273
28.646968915581287	2.0753157	1.4405956
28.66505833614671	2.1112974	1.4530305
28.68314848635055	2.1217978	1.4566392
28.701239366732004	2.0822754	1.4430091
28.71933097783044	2.0351155	1.4265747
28.737423320185403	2.077711	1.4414268
28.75551639433665	2.128662	1.4589936
28.773610200824074	2.1542623	1.4677405
28.791704740187793	2.1478586	1.4655575
28.80980001296809	2.1253555	1.4578599
28.827896019705413	2.1352897	1.4612631
28.845992760940433	2.159299	1.4694554
28.86409023721397	2.1987464	1.482817
28.88218844906704	2.211005	1.4869448
28.900287397040845	2.1978605	1.4825183
28.918387081676755	2.2286456	1.4928648
28.936487503516343	2.240102	1.4966971
28.954588663101365	2.280283	1.5100605
28.97269056097374	2.3047276	1.5181329
28.990793197675597	2.2592916	1.5030941
29.00889657374923	2.307024	1.5188891
29.027000689737125	2.363449	1.5373514
29.04510554618196	2.3874948	1.5451521
29.06321114362659	2.3939452	1.5472379
29.08131748261405	2.460713	1.568666
29.099424563687567	2.4820805	1.575462
29.11753238739057	2.5131814	1.5853016
29.13564095426663	2.5220068	1.5880827
29.15375026485954	2.557922	1.5993505
29.171860319713275	2.6332712	1.6227357
29.18997111937199	2.705641	1.6448833
29.20808266438002	2.7634711	1.6623691
29.226194955281898	2.8139105	1.6774714
29.244307992622335	2.8869762	1.6991104
29.26242177694624	2.9527144	1.7183465
29.2805363087987	2.9403923	1.7147572
29.29865158872498	2.930254	1.7117984
29.316767617270557	2.9101532	1.7059171
29.334884394981064	2.9033172	1.7039124
29.353001922402367	2.9171863	1.7079773
29.37112020008047	2.9734824	1.7243788
29.389239228561596	3.103995	1.7618159
29.407359008392152	3.2760215	1.8099784
29.42547954011872	3.6755326	1.9171679
29.44360082428809	4.4293838	2.1046102
29.46172286144722	5.455684	2.3357406
29.479845652143283	6.789328	2.605634
29.497969196923606	8.769022	2.9612534
29.516093496335728	11.3793955	3.373336
29.5342185509274	14.109493	3.7562606
29.55234436124651	16.276386	4.0344005
29.570470927841175	17.557693	4.1901903
29.588598251259686	17.313316	4.1609273
29.60672633205055	16.044054	4.005503
29.624855170762405	14.093817	3.7541733
29.642984767944146	11.513239	3.3931165
29.66111512414481	8.836268	2.9725862
29.67924623991366	6.6538463	2.579505
29.697378115800138	5.174154	2.2746766
29.71551075235387	4.202629	2.0500314
29.733644150124675	3.7551563	1.9378226
29.751778309662576	3.527074	1.8780506
29.769913231517766	3.4382062	1.8542401
29.78804891624066	3.3974435	1.8432156
29.806185364381818	3.4001398	1.8439468
29.82432257649206	3.3812375	1.8388141
29.842460553122333	3.275517	1.8098389
29.86059929482382	3.215573	1.7932019
29.878738802147872	3.2233574	1.795371
29.896879075646048	3.2887745	1.8134979
29.915020115870114	3.3686452	1.835387
29.933161923371976	3.3022816	1.8172181
29.951304498703777	3.2415338	1.800426
29.969447842417857	3.259229	1.8053335
29.987591955066733	3.3007624	1.8168
30.005736837203123	3.193785	1.7871164
30.023882489379943	3.0671031	1.7513146
30.04202891215028	3.1187265	1.7659917
30.060176106067455	3.2026494	1.7895948
30.078324071684946	3.221214	1.794774
30.09647280955646	3.1239824	1.7674791
30.114622320235863	3.1704488	1.7805754
30.132772604277257	3.1964507	1.7878621
30.1509236622349	3.184257	1.7844486
30.16907549466328	3.15785	1.777034
30.18722810211705	3.0980628	1.7601315
30.205381485151097	3.020934	1.7380835
30.22353564432045	3.0957792	1.7594826
30.241690580180403	3.077974	1.7544156
30.25984629328638	2.9908004	1.7293931
30.278002784194037	2.985657	1.7279054
30.296160053459246	3.0028605	1.7328764
30.314318101638033	3.060571	1.7494488
30.332476929286646	3.0882053	1.757329
30.35063653696153	3.076069	1.7538726
30.368796925219307	3.0815113	1.7554234
30.386958094616844	3.0381024	1.7430153
30.40512004571115	2.8935146	1.7010334
30.423282779059463	2.8343794	1.6835616
30.441446295219233	2.8401225	1.6852663
30.459610594748067	2.8886287	1.6995966
30.47777567820382	2.9162965	1.7077167
30.495941546144504	2.8879838	1.6994069
30.51410819912835	2.8524861	1.6889305
30.532275637713795	2.827732	1.6815861
30.55044386245946	2.8659346	1.6929071
30.56861287392416	2.8223002	1.6799703
30.586782672666956	2.72865	1.6518626
30.604953259247047	2.763758	1.6624554
30.623124634223885	2.8084073	1.6758304
30.641296798157075	2.761978	1.66192
30.659469751606462	2.8035533	1.6743815
30.677643495132074	2.826241	1.6811428
30.695818029294152	2.7116148	1.6466981
30.713993354653116	2.6538916	1.629077
30.73216947176962	2.7230854	1.6501774
30.75034638120448	2.7717142	1.6648467
30.768524083518756	2.8251662	1.6808231
30.786702579273673	2.8108325	1.6765537
30.80488186903069	2.847965	1.6875914
30.82306195335144	2.8964086	1.7018838
30.841242832797782	3.0661597	1.7510453
30.85942450793176	3.387375	1.8404824
30.877606979315637	3.6760762	1.9173096
30.895790247511883	3.99132	1.9978288
30.913974313083134	4.3694897	2.0903325
30.932159176592283	4.7625356	2.1823235
30.95034483860237	4.815875	2.1945102
30.968531299676698	4.549759	2.1330163
30.98671856037873	4.2405047	2.0592487
31.00490662127215	3.950579	1.9876063
31.023095482920848	3.5816324	1.8925201
31.04128514588892	3.0692482	1.751927
31.059475610740662	2.7356024	1.6539657
31.07766687804056	2.6495306	1.6277379
31.09585894835335	2.592404	1.6100944
31.11405182224393	2.4771209	1.5738872
31.132245500277417	2.3774102	1.5418853
31.15043998301914	2.3995566	1.5490502
31.168635271034628	2.4114637	1.5528889
31.18683136488964	2.3974166	1.5483593
31.20502826515008	2.3894396	1.5457813
31.223225972382135	2.4022326	1.5499138
31.241424487152155	2.4696648	1.5715168
31.259623810026692	2.486071	1.576728
31.27782394157253	2.4069414	1.551432
31.296024882356644	2.309496	1.5197026
31.314226632946237	2.3122692	1.5206147
31.332429193908684	2.3946955	1.5474803
31.350632565811598	2.4005218	1.5493617
31.368836749222787	2.392939	1.5469128
31.387041744710295	2.4140372	1.5537173
31.40524755284232	2.4618514	1.5690287
31.423454174187317	2.4787586	1.5744073
31.441661609313922	2.4828029	1.5756912
31.459869858791002	2.431416	1.5592998
31.478078923187628	2.4002626	1.5492781
31.496288803073064	2.3091419	1.5195861
31.514499499016807	2.2800066	1.5099691
31.532711011588546	2.342445	1.5305048
31.550923341358178	2.4280653	1.558225
31.56913648889584	2.4760914	1.5735601
31.587350454771844	2.4100392	1.55243
31.605565239556732	2.381573	1.5432346
31.62378084382127	2.351971	1.5336137
31.641997268136382	2.3702958	1.5395765
31.660214513073274	2.318705	1.5227295
31.67843257920331	2.305998	1.5185513
31.6966514670981	2.319924	1.5231297
31.71487117732944	2.3168318	1.5221143
31.733091710469346	2.2935953	1.5144621
31.751313067090052	2.2472034	1.4990675
31.769535247764008	2.193293	1.480977
31.787758253063878	2.2331154	1.4943612
31.805982083562526	2.2681208	1.5060282
31.824206739833024	2.2751524	1.5083609
31.84243222244869	2.3255656	1.5249805
31.860658531983013	2.3583415	1.5356892
31.878885669009737	2.3229067	1.5241085
31.897113634102784	2.3181968	1.5225626
31.91534242783632	2.2613342	1.5037733
31.933572050784694	2.2342544	1.4947423
31.951802503522508	2.1980197	1.482572
31.970033786624548	2.2242792	1.4914018
31.988265900665834	2.1823359	1.4772731
32.006498846221575	2.0637565	1.436578
32.02473262386724	2.0838332	1.4435488
32.04296723417845	2.2141256	1.4879938
32.0612026777311	2.264208	1.5047286
32.07943895510129	2.2126715	1.4875051
32.097676066865304	2.2010062	1.4835788
32.115914013599685	2.1915784	1.480398
32.13415279588115	2.1333003	1.4605821
32.152392414286666	2.0893824	1.4454696
32.1706328693934	2.0548925	1.4334897
32.18887416177875	2.0744596	1.4402984
32.20711629202032	2.124854	1.457688
32.225359260695924	2.1915476	1.4803877
32.243603068383614	2.24281	1.4976014
32.26184771566166	2.1461031	1.4649584
32.28009320310852	2.0225046	1.4221479
32.2983395313029	2.0180945	1.4205966
32.31658670082372	2.0719283	1.4394194
32.33483471225012	2.1193147	1.4557866
32.35308356616143	2.1452374	1.4646629
32.371333263137245	2.1660807	1.4717611
32.38958380375734	2.233974	1.4946485
32.407835188601744	2.2123024	1.4873811
32.42608741825067	2.2106392	1.4868219
32.444340493284585	2.2143514	1.4880697
32.46259441428416	2.1420472	1.4635735
32.48084918183028	2.1042128	1.4505905
32.49910479650405	2.0447912	1.4299619
32.51736125888683	2.0594952	1.4350941
32.53561856956014	2.0270474	1.4237442
32.5538767291058	1.9869691	1.409599
32.572135738105764	1.9401629	1.3928972
32.59039559714228	1.9699913	1.4035637
32.608656306797776	2.0071867	1.4167521
32.62691786765491	1.9980392	1.4135202
32.645180280296586	1.9843282	1.4086618
32.663443545305896	1.9952228	1.4125235
32.68170766326619	1.9807229	1.4073815
32.69997263476099	2.0160537	1.419878
32.7182384603741	2.0399387	1.4282643
32.7365051406895	2.0663865	1.4374931
32.75477267629144	2.0315943	1.42534
32.77304106776434	2.0203295	1.4213829
32.79131031569289	2.0332866	1.4259336
32.809580420661966	2.0246994	1.4229194
32.827851383256714	1.9157045	1.3840898
32.84612320406245	1.9076926	1.3811924
32.86439588366476	1.9641908	1.4014959
32.88266942264945	2.010502	1.4179218
32.9009438216025	1.9148622	1.3837855
32.9192190811102	1.9604648	1.400166
32.937495201758985	2.0726373	1.4396657
32.95577218413556	2.0915766	1.4462284
32.974050028826866	2.0368571	1.427185
32.992328736420035	1.9779189	1.4063851
33.010608307502444	1.9810251	1.407489
33.02888874266169	2.0105555	1.4179406
33.047170042485604	2.0221107	1.4220093
33.06545220756225	2.0242636	1.4227662
33.083735238479896	2.0744936	1.4403102
33.10201913582707	2.0705354	1.4389355
33.12030390019248	2.0564985	1.4340497
33.138589532165135	2.0078888	1.4169999
33.15687603233419	1.9093186	1.381781
33.17516340128909	1.9562391	1.3986561
33.19345163961947	1.972347	1.4044027
33.211740747915215	2.0509882	1.4321271
33.23003072676643	2.0229566	1.4223068
33.248321576763466	1.9068247	1.3808782
33.266613298496885	1.8435857	1.357787
33.28490589255747	1.9020194	1.3791372
33.30319935953626	1.9749324	1.4053229
33.32149370002451	2.0192773	1.4210128
33.339788914613706	2.0183852	1.4206989
33.358085003895575	1.9928648	1.4116887
33.376381968462034	1.963405	1.4012156
33.39467980890529	1.9706799	1.4038091
33.41297852581774	1.9534196	1.3976479
33.43127811979204	2.006936	1.4166638
33.44957859142105	1.9899899	1.41067
33.467879941297866	1.8601255	1.3638642
33.486182170015844	1.8763734	1.3698078
33.50448527816853	1.9407216	1.3930979
33.522789266349754	1.9620794	1.4007424
33.541094135153514	1.8733028	1.3686866
33.55939988517411	1.8519073	1.360848
33.57770651700602	1.8435221	1.3577636
33.59601403124398	1.8280051	1.3520374
33.61432242848296	1.8950893	1.3766224
33.632631709318154	2.0037472	1.4155378
33.650941874344994	1.9407195	1.393097
33.66925292415916	1.9228837	1.3866808
33.68756485935654	1.8804457	1.3712934
33.70587768053328	1.8880736	1.3740718
33.724191388285746	1.8749375	1.3692836
33.74250598321054	1.8543037	1.3617282
33.760821465904506	1.8190976	1.3487393
33.77913783696474	1.8140924	1.3468825
33.79745509698852	1.8822939	1.3719672
33.815773246573414	1.9426106	1.3937757
33.8340922863172	1.8390424	1.356113
33.852412216817896	1.8898776	1.3747282
33.87073303867377	2.0111854	1.4181627
33.889054752483304	2.11818	1.4553969
33.907377358845245	2.0726035	1.439654
33.92570085835853	2.0285304	1.4242649
33.94402525162239	2.0337417	1.4260932
33.96235053923627	2.0951126	1.4474504
33.980676721799824	2.0746999	1.4403819
33.999003799912984	1.915651	1.3840704
34.01733177417592	1.80539	1.3436481
34.03566064518901	1.8180916	1.3483663
34.0539904135529	1.8625995	1.3647709
34.07232107986846	2.0173593	1.4203377
34.090652644736785	2.00324	1.4153587
34.108985108759235	1.9881755	1.4100268
34.12731847253742	2.0089002	1.4173567
34.14565273667313	2.0060208	1.4163406
34.16398790176847	1.9131436	1.3831644
34.18232396842574	1.8944564	1.3763925
34.20066093724749	1.9772323	1.4061409
34.21899880883651	2.066524	1.437541
34.23733758379583	2.1225398	1.4568939
34.25567726272874	2.1626878	1.470608
34.27401784623872	2.004158	1.4156829
34.29235933492957	1.8900336	1.374785
34.31070172940526	1.9873579	1.4097368
34.32904503027003	2.1025953	1.4500328
34.347389238128386	1.9993967	1.4140003
34.36573435358502	1.8737271	1.3688415
34.38408037724492	1.8942299	1.3763102
34.402427309713296	1.970582	1.4037741
34.42077515159559	1.9275999	1.3883803
34.43912390349752	1.9445192	1.3944602
34.45747356602499	1.9769455	1.406039
34.47582413978423	1.9846714	1.4087837
34.49417562538163	1.883486	1.3724016
34.51252802342388	1.8936085	1.3760844
34.53088133451789	1.9292997	1.3889923
34.54923555927084	1.9064107	1.3807284
34.567590698290104	1.918476	1.3850906
34.58594675218336	1.9683455	1.4029773
34.6043037215585	1.965003	1.4017856
34.62266160702365	1.9414749	1.3933682
34.641020409187234	1.9899975	1.4106727
34.65938012865785	1.9093077	1.381777
34.677740766044394	1.8745769	1.369152
34.69610232195598	1.7685089	1.3298529
34.714464797002016	1.7742014	1.3319916
34.73282819179208	1.9308552	1.3895521
34.751192506936064	2.075271	1.44058
34.76955774304408	2.128442	1.4589181
34.7879239007265	2.1025267	1.4500092
34.80629098059391	2.2189288	1.489607
34.824658983257194	2.2556775	1.5018913
34.843027909327446	2.214624	1.4881612
34.86139775941603	2.0821748	1.4429743
34.879768534134534	1.8552159	1.362063
34.89814023409483	1.9963917	1.4129373
34.91651285990901	2.0654216	1.4371575
34.93488641218944	1.9230502	1.3867408
34.95326089154871	1.8697691	1.367395
34.97163629859967	1.8401375	1.3565167
34.99001263395542	1.919684	1.3855267
35.00838989822934	1.8487186	1.3596759
35.02676809203499	1.7244309	1.3131759
35.04514721598624	1.8182415	1.3484218
35.063527270697215	1.8982236	1.3777604
35.081908256782256	1.8106744	1.345613
35.10029017485597	1.9561781	1.3986343
35.11867302553321	2.1699367	1.4730705
35.137056809429104	2.0184038	1.4207053
35.155441527159006	1.8738505	1.3688866
35.173827179338524	1.8826847	1.3721095
35.19221376658354	1.8905753	1.3749819
35.21060128951017	1.8801328	1.3711793
35.2289897487348	1.9348164	1.3909768
35.24737914487405	1.8739028	1.3689057
35.26576947854479	1.5852417	1.2590638
35.28416075036418	1.6625289	1.2893909
35.30255296094958	1.8892908	1.3745147
35.32094611091867	2.0682502	1.4381412
35.33934020088932	2.10272	1.4500759
35.35773523147969	2.0348227	1.4264721
35.3761312033082	1.7209942	1.3118666
35.394528116993506	1.7159901	1.309958
35.41292597315452	1.8724086	1.3683598
35.431324772410434	2.122569	1.4569039
35.449724515380666	2.2526438	1.500881
35.46812520268491	1.8950938	1.3766241
35.486526834943106	1.7886285	1.3373961
35.504929412775454	2.142167	1.4636143
35.52333293680242	2.3572478	1.5353332
35.54173740764471	2.075461	1.440646
35.560142825923286	1.8901917	1.3748424
35.5785491922594	1.8334337	1.3540435
35.59695650727454	1.8960519	1.376972
35.61536477159042	2.5998158	1.6123945
