0.008763373481513119	0.0	0.0
0.026290120649546365	0.0	0.0
0.043816868432600686	0.0	0.0
0.06134361724069026	0.0	0.0
0.07887036748382949	0.046105098	0.21472098
0.0963971195720331	0.05331249	0.23089498
0.11392387391531617	0.12234273	0.34977525
0.1314506309236943	0.1518165	0.38963637
0.1489773910071836	0.16330205	0.40410647
0.16650415457580078	0.2784634	0.5276963
0.18403092203956356	0.32260832	0.5679862
0.20155769380849	0.31425485	0.56058437
0.2190844702925996	0.21848011	0.46741855
0.2366112519019124	0.14615129	0.3822974
0.2541380390464497	0.1713585	0.4139547
0.27166483213623416	0.17793459	0.42182294
0.28919163158128947	0.17918023	0.42329687
0.3067184377916406	0.14915797	0.38620976
0.324245251177314	0.14288095	0.37799597
0.34177207214833777	0.1284429	0.35838932
0.3592989011147415	0.15209305	0.3899911
0.37682573848655654	0.1807638	0.42516327
0.39435258467381573	0.19222224	0.43843156
0.41187944008655414	0.17748475	0.42128938
0.42940630513480854	0.17180602	0.4144949
0.446933180228618	0.16461557	0.40572846
0.4644600657780234	0.18459319	0.4296431
0.48198696219306775	0.2232817	0.47252694
0.49951386988379676	0.2474306	0.49742395
0.5170407892602581	0.23386505	0.48359597
0.5345677207325025	0.20267828	0.45019805
0.5520946647105822	0.17875691	0.42279652
0.5696216216045534	0.16701087	0.40866965
0.5871485918244737	0.16337004	0.4041906
0.6046755757804043	0.14027621	0.37453467
0.6222025738824094	0.13283277	0.3644623
0.6397295865405557	0.09689535	0.3112802
0.6572566141649129	0.12755384	0.3571468
0.6747836571655547	0.16476417	0.40591154
0.6923107159525568	0.15730461	0.39661646
0.7098377909359992	0.14756611	0.38414335
0.7273648825259653	0.13271748	0.3643041
0.7448919911325411	0.16657928	0.40814126
0.762419117165817	0.19058882	0.4365648
0.7799462610358868	0.18071038	0.42510042
0.7974734231528482	0.19131401	0.43739456
0.8150006039268024	0.21434523	0.46297434
0.8325278037678551	0.1998249	0.4470178
0.8500550230861152	0.20219101	0.44965655
0.8675822622916969	0.22009951	0.46914765
0.8851095217947171	0.24384417	0.4938058
0.9026368020052984	0.25437504	0.5043561
0.9201641033335665	0.2175845	0.46645954
0.9376914261896523	0.2029921	0.45054644
0.9552187709836915	0.18419105	0.42917484
0.9727461381258234	0.22818093	0.4776829
0.990273528026193	0.252133	0.5021285
1.0078009410949496	0.26668653	0.516417
1.0253283777422473	0.25731024	0.5072576
1.0428558383782454	0.26756617	0.517268
1.0603833234131086	0.27418277	0.52362466
1.0779108332570058	0.30225807	0.54978
1.0954383683201119	0.31582448	0.56198263
1.112965929012607	0.36611083	0.60507095
1.1304935157446763	0.50949544	0.71378946
1.1480211289265108	0.5697121	0.75479275
1.1655487689683062	1.385492	1.1770692
1.1830764362802655	1.6164311	1.2713895
1.200604131272596	1.9680672	1.4028782
1.2181318543555117	2.2606046	1.5035307
1.235659605939232	2.3802993	1.5428219
1.253187386433982	3.9286633	1.9820856
1.270715196249994	6.2842145	2.5068336
1.2882430357975057	11.42024	3.3793845
1.3057709054867608	16.101936	4.012722
1.3232988057280106	21.710863	4.6594915
1.3408267369315112	26.803242	5.1771846
1.358354699507526	30.28515	5.503195
1.3758826938663256	34.472336	5.8713145
1.3934107204181858	36.91348	6.0756464
1.410938779573391	37.73031	6.1425004
1.4284668717422309	38.274677	6.186653
1.4459949973350033	37.72937	6.1424236
1.4635231567620117	37.67516	6.1380095
1.4810513504335687	37.17215	6.0968966
1.4985795787599925	36.300995	6.0250306
1.5161078421516088	35.5925	5.965945
1.5336361410187505	34.464046	5.870609
1.5511644757717598	34.794773	5.8987093
1.5686928468209842	35.83558	5.9862823
1.58622125457678	36.76824	6.063682
1.6037496994495108	37.85228	6.1524205
1.621278181849548	37.59299	6.1313124
1.6388067021872719	38.304253	6.189043
1.6563352608730693	37.75604	6.144594
1.673863858317336	36.30535	6.025392
1.6913924949304753	35.359287	5.9463677
1.7089211711228998	34.277256	5.854678
1.7264498873050296	33.633057	5.7994013
1.7439786438872935	32.650124	5.714029
1.7615074412801288	31.669304	5.6275487
1.779036279893981	30.898106	5.5586066
1.796565160139305	30.106016	5.486895
1.814094082426564	29.59542	5.4401674
1.8316230471662298	29.208704	5.4045076
1.849152054768784	28.42675	5.331674
1.8666811056447168	27.928312	5.284724
1.8842102002045273	26.59437	5.156973
1.901739338858724	25.912931	5.0904746
1.9192685220178245	25.038357	5.0038342
1.9367977500923557	24.59226	4.9590583
1.9543270234928547	24.35292	4.934868
1.971856342629867	23.832344	4.8818383
1.9893857079139496	23.38311	4.8356085
2.006915119755667	22.757982	4.7705326
2.0244445785655945	22.281914	4.720372
2.0419740847543175	21.936586	4.683651
2.0595036387324317	21.51855	4.638809
2.0770332409105414	21.27391	4.612365
2.094562891699263	21.171228	4.60122
2.1120925915092217	20.462717	4.5235734
2.129622340751053	19.741476	4.443138
2.1471521398354043	187.6692	13.699241
2.1646819891729323	444.14304	21.074701
2.182211889174303	440.48605	20.98776
2.1997418402501974	452.96365	21.282944
2.2172718428113023	432.71655	20.80184
2.234801897268317	320.6332	17.906235
2.2523320040319548	17.03034	4.1267834
2.269862163512935	16.760248	4.0939283
2.287392376121992	16.517756	4.064204
2.304922642269869	16.237474	4.029575
2.322452962367322	15.952743	3.9940884
2.3399833368251164	15.519858	3.9395251
2.357513766054032	15.239336	3.9037592
2.3750442504648586	15.038191	3.8779106
2.3925747904683963	14.945299	3.865915
2.410105386475459	14.81545	3.8490844
2.4276360388968707	14.5450945	3.8138032
2.445166748143469	14.275842	3.7783384
2.4626975146261025	13.873435	3.724706
2.4802283387556323	13.657929	3.6956637
2.4977592209429305	13.445765	3.6668468
2.5152901615988825	13.199589	3.6331239
2.5328211611343865	12.953571	3.599107
2.5503522199603523	12.768607	3.5733187
2.5678833384877024	12.444804	3.5277195
2.5854145171273712	12.152915	3.486103
2.6029457562903064	11.926865	3.4535294
2.620477056387469	11.635296	3.4110548
2.6380084178298326	11.3524685	3.3693423
2.655539841028383	11.228382	3.3508778
2.673071326394119	11.067477	3.3267817
2.6906028743380523	10.929307	3.3059502
2.708134485271211	10.782685	3.2837
2.7256661596046325	10.690729	3.269668
2.743197897749369	10.657353	3.2645602
2.760729700116486	10.587661	3.2538686
2.778261567117063	10.3835535	3.2223523
2.795793499162193	10.217961	3.1965547
2.8133254966629817	10.032271	3.167376
2.830857560030551	9.738523	3.1206605
2.8483896896760337	9.611591	3.1002567
2.865921886010578	9.473099	3.0778399
2.883454149445347	9.499429	3.0821142
2.9009864803915177	9.374356	3.061757
2.91851887926028	9.2515335	3.0416334
2.9360513464628384	9.09266	3.0154037
2.953583882410413	9.010089	3.001681
2.9711164875142373	9.062544	3.010406
2.9886491621855606	9.076412	3.0127084
3.0061819068356455	8.830262	2.9715757
3.023714721875769	8.514491	2.9179602
3.041247607717225	8.343011	2.888427
3.0587805647713213	8.281613	2.8777792
3.0763135934493806	8.16608	2.8576355
3.0938466941627407	8.016628	2.831365
3.1113798673227544	8.008843	2.82999
3.1289131133407904	7.978441	2.8246136
3.1464464326282315	7.9697814	2.82308
3.1639798255964786	7.9116874	2.8127723
3.1815132926569443	7.892436	2.8093479
3.1990468342210603	7.7335157	2.78092
3.216580450700272	7.4863906	2.736127
3.2341141425060416	7.3709507	2.7149494
3.251647910049847	7.3660693	2.7140503
3.2691817537431813	7.338134	2.708899
3.286715673997555	7.2918434	2.7003415
3.3042496712244938	7.262701	2.6949399
3.32178374583554	7.224133	2.6877747
3.339317898242251	7.0478535	2.6547794
3.3568521288562034	6.8306384	2.613549
3.3743864380889876	6.637282	2.5762923
3.3919208263522127	6.519992	2.5534275
3.4094552940575023	6.443755	2.5384552
3.4269898416164972	6.425539	2.5348647
3.444524469440858	6.4590907	2.541474
3.4620591779422587	6.38358	2.5265749
3.479593967532391	6.32871	2.5156927
3.4971288386229658	6.300201	2.51002
3.5146637916257086	6.400728	2.529966
3.5321988269523628	6.5022316	2.5499473
3.5497339450146903	6.4634423	2.54233
3.5672691462244708	6.3745522	2.5247877
3.5848044309934988	6.325943	2.5151427
3.60233979973359	6.341802	2.5182934
3.619875252856575	6.3775625	2.5253837
3.6374107907743034	6.329723	2.515894
3.6549464138986427	6.3504815	2.5200162
3.6724821226414788	6.281366	2.5062654
3.690017917414714	6.3167567	2.513316
3.7075537986302702	6.2839236	2.5067756
3.7250897667000857	6.271693	2.504335
3.7426258220361235	6.2658434	2.5031667
3.7601619650503553	6.5370812	2.5567718
3.777698196154779	7.1178365	2.6679273
3.7952345157614067	8.260549	2.874117
3.8127709242822716	9.224306	3.0371542
3.830307422129425	11.425839	3.380213
3.847844009714936	30.3654	5.510481
3.8653806874508954	97.76038	9.887385
3.882917455749409	96.96911	9.847289
3.900454315022606	96.62805	9.829957
3.917991265682631	41.122257	6.412664
3.9355283081416506	10.812531	3.2882414
3.9530654428118495	8.766916	2.960898
3.970602670105433	7.6639805	2.7683895
3.9881399904346244	6.773291	2.6025548
4.005677404211669	6.586248	2.5663686
4.023214911848827	6.390108	2.5278664
4.0407525137583855	6.280164	2.5060256
4.058290210352644	6.289787	2.5079448
4.075828002043927	6.2941566	2.5088158
4.0933658892445814	6.3236504	2.5146868
4.110903872366966	6.301093	2.5101979
4.128441951823468	6.267162	2.5034301
4.145980128026488	6.229679	2.4959326
4.163518401388452	6.2755337	2.5051014
4.181056772321807	6.277693	2.5055325
4.1985952412390155	6.302982	2.510574
4.216133808552567	6.248155	2.499631
4.233672474674966	6.228688	2.495734
4.251211240018741	6.417338	2.5332465
4.268750104996445	6.660761	2.5808449
4.286289070020643	7.5520167	2.7480934
4.303828135503928	9.167875	3.02785
4.3213673018589125	29.44207	5.426055
4.3389065694982305	90.532005	9.514831
4.356445938834537	165.85924	12.878635
4.3739854102805085	171.44327	13.093635
4.391524984248844	172.29501	13.12612
4.409064661152262	136.3635	11.677478
4.426604441403504	96.725746	9.834925
4.444144325415337	75.63268	8.696705
4.461684313600543	21.629026	4.6507015
4.47922440637193	21.864496	4.6759486
4.496764604142329	20.286936	4.504102
4.5143049073245916	18.636473	4.316998
4.531845316331589	16.577696	4.071572
4.5493858315762195	13.779981	3.7121396
4.566926453471405	11.3707695	3.3720572
4.584467182430081	9.349116	3.0576324
4.602008018865218	8.116253	2.848904
4.619548963189798	7.4080195	2.7217677
4.637090015816834	6.97774	2.6415412
4.654631177159353	6.792566	2.606255
4.672172447630417	6.57744	2.564652
4.689713827643102	6.4458704	2.5388718
4.7072553176105085	6.098338	2.4694812
4.724796917945764	5.8138847	2.4111998
4.742338629062015	5.6871476	2.3847742
4.759880451372434	5.702945	2.388084
4.777422385290215	5.71634	2.3908868
4.794964431228581	5.714814	2.3905678
4.812506589600768	5.661183	2.379324
4.830048860820047	5.6578965	2.3786333
4.847591245299709	5.604907	2.3674686
4.8651337434530655	5.568805	2.3598316
4.882676355693457	5.563906	2.3587933
4.900219082434242	5.5711308	2.3603244
4.917761924088813	5.577669	2.3617089
4.935304881070575	5.579861	2.362173
4.952847953792969	5.518211	2.3490872
4.970391142669449	5.459606	2.33658
4.9879344481135055	5.457798	2.336193
5.005477870538642	5.492943	2.3437028
5.023021410358394	5.5234194	2.3501956
5.040565067986324	5.5084295	2.3470044
5.05810884383601	5.5195107	2.3493638
5.075652738321066	5.510161	2.3473732
5.09319675185512	5.428798	2.3299782
5.110740884851836	5.388588	2.3213332
5.128285137724894	5.3399377	2.3108306
5.145829510888007	5.4077587	2.3254588
5.163374004754908	5.403055	2.3244474
5.1809186197393595	5.363014	2.3158183
5.198463356255145	5.3763523	2.3186963
5.216008214716077	5.337053	2.3102062
5.233553195535998	5.309384	2.30421
5.251098299128764	5.289651	2.2999241
5.268643525908272	5.306151	2.3035083
5.286188876288432	5.369904	2.3173053
5.3037343506831895	5.351666	2.313367
5.32127994950651	5.308576	2.3040347
5.3388256731723915	5.2507625	2.2914543
5.356371522094851	5.1187105	2.2624567
5.373917496687938	5.142513	2.267711
5.391463597365729	5.1677995	2.2732794
5.40900982454232	5.214298	2.2834837
5.426556178631843	5.1844954	2.2769487
5.444102660048449	5.1295195	2.2648442
5.4616492692063225	5.1243343	2.2636993
5.479196006519669	5.1345224	2.2659485
5.496742872402727	5.145766	2.268428
5.514289867269756	5.1163783	2.2619412
5.531836991535049	5.1696563	2.2736878
5.549384245612924	5.2055545	2.2815685
5.566931629917724	5.191441	2.2784734
5.584479144863822	5.1832366	2.2766724
5.6020267908656205	5.141886	2.2675729
5.619574568337545	5.1347775	2.2660048
5.637122477694054	5.200942	2.2805574
5.654670519349629	5.2230844	2.2854068
5.672218693718784	5.2418466	2.2895079
5.689767001216059	5.1767516	2.2752476
5.707315442256021	5.182336	2.2764745
5.724864017253266	5.1482058	2.2689657
5.7424127266224225	5.103724	2.2591424
5.75996157077814	5.137067	2.2665098
5.777510550135105	5.1570997	2.2709248
5.795059665108022	5.217074	2.2840915
5.812608916111639	5.2136474	2.2833412
5.830158303560715	5.3364697	2.31008
5.847707827870055	5.3311195	2.3089218
5.86525748945448	5.330664	2.308823
5.8828072887288485	5.477673	2.340443
5.900357226108044	5.4940867	2.343947
5.917907302006979	5.595568	2.3654954
5.9354575168406	6.0689154	2.463517
5.9530078710238765	6.7363195	2.595442
5.970558364971812	7.3475537	2.710637
5.988108999099438	7.7406635	2.7822049
6.005659773821818	8.18809	2.861484
6.023210689554039	7.945412	2.8187606
6.040761746711227	8.342597	2.8883555
6.058312945708531	7.7418904	2.7824252
6.075864286961132	7.246744	2.6919777
6.093415770884244	6.598618	2.5687776
6.1109673978931065	6.132418	2.476372
6.128519168402993	5.670409	2.381262
6.146071082829204	5.5039535	2.3460505
6.163623141587075	5.3145533	2.3053315
6.181175345091969	5.2672663	2.2950525
6.198727693759281	5.226438	2.2861404
6.216280188004435	5.221208	2.2849963
6.233832828242885	5.1974154	2.279784
6.251385614890126	5.171781	2.2741551
6.268938548361669	5.111539	2.2608712
6.286491629073067	5.0078673	2.2378266
6.304044857439898	4.977897	2.23112
6.321598233877777	4.882347	2.2096033
6.339151758802344	4.901668	2.2139711
6.356705432629277	4.974734	2.230411
6.37425925577428	5.011064	2.2385406
6.391813228653095	5.074928	2.25276
6.409367351681486	5.1011596	2.2585747
6.426921625275259	5.075164	2.2528124
6.44447604985025	5.0773506	2.2532978
6.46203062582232	5.09822	2.2579238
6.47958535360737	5.0706434	2.251809
6.497140233621328	5.0306215	2.2429047
6.514695266280161	4.990679	2.2339828
6.532250451999859	4.9446816	2.223664
6.549805791196454	4.8886194	2.2110221
6.567361284286002	4.969789	2.2293024
6.584916931684597	5.025125	2.241679
6.602472733808367	5.0742626	2.2526124
6.6200286910734665	5.0184836	2.2401972
6.637584803896092	4.9508667	2.2250543
6.655141072692462	4.9863496	2.2330136
6.672697497878842	5.0570188	2.2487817
6.690254079871514	5.0144897	2.2393057
6.707810819086808	4.959212	2.2269287
6.725367715941078	4.9520574	2.2253218
6.742924770850719	4.97215	2.2298317
6.760481984232151	4.9393	2.2224536
6.778039356501836	4.9307775	2.2205355
6.795596888076266	4.8903313	2.2114093
6.813154579371963	4.9500084	2.2248614
6.830712430805492	5.012127	2.238778
6.84827044279344	5.023939	2.2414145
6.865828615752445	4.996795	2.2353513
6.883386950099159	4.9519434	2.2252963
6.900945446250287	4.979685	2.2315207
6.918504104622553	4.96067	2.227256
6.936062925632727	4.9672375	2.22873
6.953621909697607	4.928771	2.2200835
6.971181057234028	4.9754043	2.2305615
6.988740368658859	4.9624395	2.2276533
7.006299844389007	5.0444393	2.245983
7.023859484841407	5.2043676	2.2813084
7.041419290433036	5.3402915	2.3109071
7.058979261580902	5.4889765	2.3428564
7.0765393987020495	5.760515	2.4001074
7.094099702213559	6.0839763	2.4665718
7.111660172532549	6.46591	2.5428154
7.129220810076164	6.7845855	2.6047237
7.146781615261595	7.402445	2.7207434
7.16434258850606	7.594434	2.7558
7.181903730226821	7.982606	2.8253505
7.1994650408411704	8.1246395	2.8503754
7.217026520766437	8.266596	2.8751688
7.234588170419983	8.460943	2.90877
7.252149990219215	8.456917	2.908078
7.269711980581568	8.367711	2.8926997
7.2872741419245175	8.164208	2.857308
7.304836474665574	7.732172	2.7806783
7.322398979222286	7.444604	2.72848
7.339961656012233	7.2064376	2.684481
7.357524505453039	6.8879085	2.6244826
7.375087527962357	6.637982	2.5764282
7.392650723957886	6.3298507	2.5159194
7.410214093857353	5.9958167	2.4486356
7.427777638078528	5.6772275	2.3826933
7.445341357039213	5.547438	2.3553
7.4629052511572525	5.4612184	2.336925
7.480469320850524	5.404839	2.324831
7.498033566536948	5.268771	2.2953804
7.5155979886344735	5.2200265	2.2847378
7.5331625875610975	5.184051	2.2768512
7.550727363734844	5.2402406	2.2891572
7.568292317573788	5.191498	2.2784858
7.585857449496025	5.1738763	2.2746155
7.603422759919705	5.1341968	2.2658765
7.620988249263007	5.1033783	2.2590659
7.638553917944147	5.0519114	2.2476459
7.656119766381391	5.035115	2.243906
7.673685794993023	5.1407037	2.267312
7.691252004197388	5.2088103	2.2822819
7.70881839441285	5.2133393	2.283274
7.726384966057826	5.205661	2.2815917
7.743951719550762	5.1877103	2.2776546
7.761518655310149	5.2183146	2.284363
7.779085773754511	5.2025714	2.2809145
7.796653075302419	5.201326	2.2806416
7.814220560372475	5.218052	2.2843056
7.831788229383323	5.298514	2.30185
7.8493560827536495	5.389148	2.3214538
7.866924120902174	5.418236	2.3277104
7.884492344247663	5.369363	2.3171885
7.9020607532089135	5.2849655	2.2989054
7.919629348204771	5.208968	2.2823164
7.937198129654115	5.189145	2.2779696
7.954767097975865	5.216146	2.2838883
7.972336253588986	5.3014693	2.302492
7.989905596912472	5.367826	2.3168569
8.007475128365371	5.5504727	2.3559442
8.025044848366756	5.577186	2.3616066
8.042614757335754	5.6502275	2.3770208
8.060184855691523	5.6154795	2.3697002
8.07775514385327	5.727728	2.3932672
8.095325622240228	5.825852	2.41368
8.112896291271687	5.867263	2.4222434
8.130467151366968	5.870587	2.4229293
8.148038202945436	5.892161	2.4273775
8.165609446426497	5.9629474	2.4419148
8.183180882229594	6.056429	2.4609814
8.200752510774217	6.1443443	2.4787788
8.218324332479893	6.1066856	2.471171
8.235896347766193	6.05492	2.4606748
8.253468557052724	5.9578643	2.4408736
8.27104096075914	5.9651065	2.4423568
8.288613559305137	5.9445515	2.4381452
8.306186353110448	6.0665364	2.463034
8.32375934259485	6.1542954	2.4807851
8.341332528178162	6.1109514	2.472034
8.358905910280246	6.1167135	2.4731991
8.376479489321003	6.1183033	2.4735205
8.394053265720377	6.19363	2.4887004
8.411627239898356	6.1962104	2.4892187
8.42920141227497	6.126275	2.4751313
8.44677578327029	6.188569	2.4876835
8.464350353304427	6.203484	2.4906795
8.48192512279754	6.237189	2.4974365
8.499500092169827	6.109598	2.47176
8.51707526184153	6.0737495	2.4644978
8.534650632232934	6.1115165	2.4721482
8.552226203764365	6.190321	2.4880357
8.569801976856192	6.202397	2.490461
8.587377951928834	6.212411	2.4924707
8.60495412940274	6.2059617	2.4911768
8.622530509698416	6.2404804	2.4980953
8.6401070932364	6.315307	2.5130274
8.657683880437283	6.4203577	2.5338426
8.675260871721695	6.647377	2.578251
8.692838067510303	6.8587503	2.6189215
8.710415468223834	7.074196	2.6597362
8.727993074283043	7.284957	2.699066
8.745570886108737	7.2745237	2.6971326
8.763148904121765	7.214804	2.6860387
8.78072712874302	7.1217833	2.6686668
8.798305560393441	7.3742514	2.7155573
8.815884199494006	7.5543466	2.7485173
8.833463046465745	7.7317495	2.7806025
8.851042101729728	7.859907	2.8035526
8.86862136570707	8.228364	2.8685124
8.886200838818924	8.387604	2.896136
8.903780521486505	8.504838	2.9163055
8.921360414131055	8.489609	2.9136934
8.938940517173874	8.5752945	2.9283605
8.956520831036297	8.672322	2.9448807
8.97410135613971	8.998443	2.9997404
8.99168209290554	9.309214	3.0511005
9.009263041755265	9.599084	3.098239
9.026844203110405	9.773412	3.1262457
9.044425577392525	9.867227	3.1412141
9.062007165023239	9.957613	3.1555686
9.079588966424197	10.183806	3.1912076
9.097170982017108	10.312702	3.2113397
9.11475321222372	11.288906	3.3598967
9.132335657465825	12.186665	3.4909403
9.149918318165264	12.230817	3.4972584
9.167501194743924	12.884083	3.5894403
9.18508428762374	12.579553	3.5467665
9.202667597226693	12.522687	3.5387409
9.220251123974803	12.030104	3.4684439
9.237834868290143	11.706887	3.4215329
9.255418830594836	11.568822	3.401297
9.273003011311046	11.137451	3.337282
9.290587410860985	10.973016	3.3125544
9.308172029666911	10.347985	3.2168283
9.32575686815113	10.080875	3.1750395
9.343341926735997	8.891375	2.9818408
9.360927205843916	8.692263	2.9482644
9.378512705897327	8.518765	2.9186924
9.396098427318728	8.238833	2.8703368
9.413684370530664	8.063649	2.8396566
9.431270535955722	7.9436297	2.8184445
9.448856924016539	7.858572	2.8033144
9.466443535135806	7.7207785	2.7786288
9.484030369736251	7.716062	2.77778
9.501617428240658	7.6987066	2.7746544
9.519204711071852	7.782343	2.789685
9.536792218652714	7.8583536	2.8032756
9.55437995140617	7.8964634	2.8100646
9.571967909755191	7.9425263	2.8182487
9.589556094122802	7.955546	2.8205578
9.60714450493207	7.9904194	2.8267329
9.624733142606116	7.990806	2.8268013
9.642322007568108	8.027916	2.8333578
9.659911100241267	7.9893794	2.826549
9.677500421048851	7.914232	2.8132246
9.695089970414175	7.90618	2.811793
9.712679748760609	7.928547	2.8157675
9.730269756511557	7.990326	2.8267164
9.747859994090492	8.091702	2.8445919
9.765450461920915	8.200042	2.8635714
9.78304116042639	8.278406	2.877222
9.800632090030527	8.215661	2.8662975
9.81822325115699	8.227976	2.868445
9.835814644229481	8.206079	2.8646255
9.853406269671762	8.257089	2.8735151
9.870998127907646	8.311834	2.8830252
9.888590219360985	8.334937	2.8870292
9.906182544455698	8.371165	2.8932967
9.923775103615734	8.352537	2.8900757
9.941367897265108	8.363719	2.8920095
9.958960925827878	8.34772	2.8892422
9.97655418972816	8.282005	2.8778474
9.994147689390106	8.290782	2.879372
10.011741425237934	8.258187	2.873706
10.029335397695904	8.322941	2.8849506
10.04692960718833	8.30601	2.882015
10.06452405413958	8.316886	2.8839011
10.082118738974064	8.286993	2.8787138
10.099713662116246	8.200614	2.8636713
10.117308823990651	8.169345	2.8582065
10.134904225021844	8.153593	2.8554497
10.152499865634445	8.187999	2.8614678
10.170095746253125	8.178102	2.859738
10.18769186730261	8.212572	2.8657587
10.205288229207675	8.2262	2.8681352
10.222884832393145	8.201099	2.8637562
10.2404816772839	8.051989	2.8376026
10.258078764304868	8.032366	2.834143
10.275676093881035	8.01167	2.8304894
10.293273666437438	7.99582	2.8276882
10.310871482399158	7.9927983	2.8271537
10.32846954219134	7.961726	2.8216531
10.346067846239173	8.001337	2.8286636
10.363666394967908	8.039649	2.8354275
10.38126518880283	8.065413	2.8399673
10.398864228169298	8.07742	2.8420804
10.416463513492713	8.140355	2.8531308
10.434063045198531	8.128029	2.8509698
10.451662823712262	8.10732	2.8473356
10.469262849459467	8.109894	2.8477876
10.486863122865758	8.076809	2.8419728
10.504463644356806	8.077554	2.8421037
10.522064414358338	7.9875355	2.826223
10.539665433296118	7.9330764	2.8165717
10.557266701595987	7.8981066	2.810357
10.574868219683818	7.915484	2.813447
10.592469987985552	7.827388	2.797747
10.610072006927185	7.7497644	2.78384
10.627674276934751	7.62617	2.761552
10.64527679843435	7.4307094	2.7259328
10.662879571852143	7.307041	2.7031538
10.680482597614331	7.131956	2.6705723
10.698085876147173	6.9580054	2.637803
10.715689407876988	6.792255	2.6061954
10.733293193230146	6.7278004	2.5938003
10.750897232633072	6.695201	2.5875087
10.76850152651225	6.6509924	2.5789518
10.786106075294207	6.568528	2.562914
10.803710879405534	6.484145	2.5463984
10.821315939272877	6.4049625	2.5308027
10.83892125532294	6.343629	2.5186563
10.856526827982472	6.276166	2.5052278
10.874132657678285	6.232956	2.496589
10.891738744837243	6.194078	2.4887905
10.909345089886271	6.12531	2.4749362
10.926951693252343	6.046866	2.4590375
10.944558555362494	5.9655504	2.4424477
10.96216567664381	5.927625	2.4346714
10.979773057523436	5.891813	2.4273057
10.997380698428573	5.8062825	2.409623
11.014988599786477	5.765503	2.4011462
11.032596762024461	5.7684016	2.4017496
11.050205185569892	5.70322	2.3881416
11.067813870850198	5.6274266	2.3722198
11.085422818292859	5.47806	2.3405256
11.10303202832541	5.413184	2.326625
11.120641501375454	5.363277	2.315875
11.138251237870636	5.310621	2.3044784
11.155861238238671	5.2295504	2.2868211
11.173471502907317	5.186467	2.2773817
11.191082032304402	5.13512	2.2660804
11.208692826857805	5.0626855	2.2500412
11.226303886995465	4.974877	2.2304432
11.243915213145371	4.9840407	2.2324965
11.261526805735578	5.0157375	2.2395842
11.279138665194196	4.974381	2.2303321
11.296750791949393	4.9047523	2.2146676
11.314363186429393	4.803946	2.1917906
11.331975849062479	4.7319093	2.175295
11.34958878027699	4.6655335	2.1599846
11.36720198050133	4.6347675	2.152851
11.384815450163948	4.562509	2.136003
11.402429189693366	4.518411	2.1256554
11.420043199518153	4.4312544	2.1050544
11.437657480066942	63.434444	7.9645743
11.455272031768422	85.193535	9.230035
11.472886855051353	107.5864	10.372387
11.490501950344528	99.130455	9.956428
11.508117318076819	84.40085	9.186994
11.52573295867715	45.767555	6.765172
11.543348872574514	4.086827	2.0215902
11.560965060197946	4.109147	2.0271032
11.57858152197655	4.0917087	2.0227973
11.59619825833949	4.0475163	2.011844
11.613815269715985	3.9747472	1.9936768
11.631432556535323	38.49866	6.204729
11.649050119226837	82.99786	9.110316
11.666667958219929	93.404305	9.66459
11.68428607394406	107.65636	10.375758
11.701904466828756	82.48154	9.081935
11.719523137303586	65.344696	8.083607
11.737142085798196	4.6142545	2.1480815
11.754761312742286	3.753596	1.93742
11.772380818565619	3.7600276	1.939079
11.790000603698015	3.7089612	1.9258664
11.80762066856935	3.6367514	1.9070269
11.825241013609572	3.5825179	1.8927541
11.842861639248683	3.5549998	1.8854707
11.860482545916748	3.5216353	1.876602
11.878103734043883	3.4714284	1.863177
11.895725204060282	3.426852	1.8511758
11.91334695639619	3.396459	1.8429484
11.930968991481919	3.3777297	1.8378601
11.948591309747824	3.3009918	1.8168632
11.966213911624347	3.2742453	1.8094876
11.98383679754198	3.2652054	1.8069879
12.001459967931268	3.3114736	1.8197454
12.019083423222835	3.3507261	1.8304988
12.036707163847352	3.353764	1.8313285
12.05433119023556	3.292493	1.8145229
12.071955502818259	3.2169096	1.7935746
12.089580102026313	3.160408	1.7777536
12.107204988290643	3.1361375	1.7709143
12.12483016204224	3.1082597	1.7630258
12.142455623712152	3.1127222	1.7642908
12.16008137373149	3.0959942	1.7595438
12.177707412531431	3.1170716	1.7655231
12.19533374054321	3.0702598	1.7522157
12.212960358198126	3.0644622	1.7505605
12.230587265927545	3.057485	1.7485666
12.248214464162889	3.0633512	1.7502432
12.265841953335649	3.0814888	1.755417
12.283469733877375	3.059561	1.74916
12.301097806219685	3.0257974	1.7394819
12.31872617079425	2.9754362	1.7249453
12.336354828032825	2.9466894	1.7165923
12.353983778367205	2.9383535	1.7141626
12.371613022229262	2.9395423	1.7145094
12.389242560050928	2.9044785	1.7042531
12.406872392264201	2.900081	1.7029624
12.424502519301143	2.9092903	1.7056642
12.442132941593874	2.86874	1.6937356
12.459763659574586	2.839265	1.6850119
12.477394673675532	2.8012495	1.6736934
12.49502598432903	2.8224735	1.6800219
12.51265759196746	2.829507	1.6821139
12.530289497023267	2.7889879	1.6700263
12.547921699928967	2.7594604	1.6611624
12.565554201117134	2.7294033	1.6520905
12.583187001020404	2.7618232	1.6618733
12.600820100071486	2.77721	1.6664963
12.618453498703152	2.7650325	1.6628387
12.636087197348235	2.7399786	1.6552881
12.65372119643964	2.7881374	1.6697717
12.671355496410326	2.8050735	1.6748353
12.68899009769333	2.8639677	1.6923261
12.706625000721749	2.8835192	1.6980928
12.724260205928752	2.9626627	1.7212387
12.741895713747551	2.970952	1.723645
12.759531524611454	2.9874065	1.7284116
12.777167638953818	2.9547338	1.7189339
12.794804057208072	2.967406	1.7226161
12.812440779807702	3.0314171	1.7410965
12.830077807186271	3.2357652	1.7988232
12.847715139777405	3.2891495	1.8136013
12.865352778014795	3.4543025	1.8585755
12.882990722332197	3.5517304	1.8846035
12.90062897316344	3.6694064	1.9155694
12.918267530942412	3.756578	1.9381894
12.935906396103071	3.5899649	1.8947203
12.953545569079449	3.726967	1.9305354
12.971185050305628	3.5442648	1.8826218
12.988824840215775	3.571321	1.8897939
13.006464939244115	3.600958	1.897619
13.024105347824943	3.5005586	1.870978
13.041746066392617	3.6320415	1.9057915
13.05938709538157	3.4141567	1.8477436
13.077028435226296	3.3821542	1.8390634
13.094670086361363	3.267904	1.8077345
13.112312049221401	3.2075372	1.7909598
13.129954324241112	3.1189244	1.7660477
13.147596911855258	2.9155543	1.7074994
13.165239812498685	2.8294404	1.6820941
13.182883026606293	2.7672937	1.6635184
13.200526554613058	2.6950102	1.6416487
13.218170396954017	2.665854	1.6327443
13.235814554064284	2.6962738	1.6420335
13.253459026379034	2.7415957	1.6557765
13.271103814333523	2.752963	1.6592056
13.288748918363058	2.721165	1.6495954
13.306394338903031	2.6864283	1.6390327
13.32404007638889	2.6461158	1.6266886
13.341686131256164	2.6814368	1.6375093
13.359332503940449	2.631466	1.6221794
13.376979194877402	2.6212618	1.6190312
13.394626204502751	2.6479163	1.627242
13.412273533252307	2.7180464	1.6486499
13.429921181561937	2.7566297	1.6603101
13.447569149867581	2.7759526	1.666119
13.465217438605247	2.7104626	1.6463482
13.482866048211022	2.678583	1.6366377
13.500514979121052	2.6501431	1.627926
13.518164231771568	2.6345334	1.6231246
13.535813806598844	2.6231282	1.6196074
13.553463704039254	2.6341746	1.6230141
13.571113924529229	2.672678	1.6348327
13.588764468505275	2.6990142	1.6428677
13.606415336403956	2.734204	1.6535429
13.624066528661917	2.7157927	1.6479663
13.641718045715882	2.7469106	1.6573806
13.659369888002635	2.7936485	1.671421
13.67702205595903	2.879542	1.6969213
13.694674550021993	2.9408739	1.7148976
13.712327370628532	3.0208678	1.7380644
13.729980518215713	3.1001797	1.7607327
13.747633993220681	3.1880045	1.7854984
13.765287796080647	3.1815825	1.783699
13.7829419272329	3.233061	1.7980715
13.800596387114801	3.266162	1.8072526
13.818251176163775	3.3412247	1.8279017
13.835906294817324	3.3941276	1.8423158
13.853561743513023	3.4297333	1.8519539
13.871217522688525	3.4323747	1.852667
13.888873632781538	3.4187517	1.8489866
13.906530074229858	3.4664981	1.8618534
13.92418684747135	3.4997268	1.8707557
13.941843952943948	3.513395	1.8744053
13.959501391085665	3.4655108	1.8615882
13.977159162334578	3.3861656	1.8401537
13.994817267128846	3.3055627	1.8181207
14.012475705906693	3.2401872	1.800052
14.030134479106424	3.1915603	1.7864939
14.047793587166414	3.135259	1.7706662
14.065453030525108	3.0804026	1.7551075
14.083112809621026	3.0262313	1.7396066
14.100772924892766	2.920831	1.7090439
14.118433376778997	2.800377	1.6734327
14.136094165718458	2.7150946	1.6477544
14.153755292149969	2.7046437	1.6445801
14.171416756512416	2.6760294	1.6358573
14.189078559244768	2.6427174	1.6256437
14.20674070078606	2.5831368	1.607214
14.224403181575408	2.5503433	1.5969794
14.242066002051999	2.4836144	1.5759487
14.259729162655093	2.4293263	1.5586296
14.277392663824022	2.3949146	1.5475512
14.295056505998208	2.3971062	1.548259
14.312720689617128	2.3919737	1.5466007
14.330385215120348	2.3939023	1.547224
14.348050082947497	2.4165676	1.5545313
14.3657152935383	2.4143815	1.553828
14.383380847332528	2.4121544	1.5531112
14.401046744770051	2.4092524	1.5521767
14.418712986290798	2.3965673	1.5480851
14.436379572334793	2.3769066	1.5417219
14.454046503342123	2.3804872	1.5428828
14.471713779752946	2.383043	1.5437108
14.489381402007504	2.38675	1.544911
14.507049370546113	2.3859386	1.5446484
14.524717685809168	2.4046032	1.5506784
14.542386348237134	2.414567	1.5538877
14.560055358270553	2.4068856	1.551414
14.577724716350051	2.4541137	1.5665611
14.595394422916325	2.4485862	1.5647959
14.61306447841015	2.450836	1.5655146
14.63073488327237	2.425304	1.5573387
14.648405637943917	2.4750957	1.5732437
14.6660767428658	2.5042937	1.582496
14.683748198479094	2.5460093	1.595622
14.701420005224954	2.5317292	1.5911409
14.719092163544628	2.60954	1.6154071
14.73676467387942	2.677595	1.6363358
14.754437536670727	2.7237515	1.6503792
14.772110752360014	2.7154236	1.6478542
14.78978432138882	2.694268	1.6414225
14.807458244198777	2.7092085	1.6459674
14.82513252123159	2.722758	1.6500782
14.842807152929028	2.7339153	1.6534556
14.860482139732962	2.7134972	1.6472696
14.87815748208531	2.6890895	1.6398444
14.8958331804281	2.697328	1.6423545
14.91350923520342	2.7217035	1.6497586
14.931185646853438	2.7299488	1.6522557
14.948862415820408	2.7125378	1.6469784
14.966539542546656	2.7046523	1.6445827
14.98421702747459	2.6672885	1.6331836
15.001894871046696	2.6429336	1.6257101
15.019573073705542	2.6627667	1.6317986
15.037251635893766	2.6435096	1.6258874
15.054930558054092	2.669732	1.6339315
15.072609840629323	2.7046008	1.644567
15.090289484062351	2.8297098	1.6821741
15.107969488796124	3.1153	1.7650212
15.125649855273691	3.541869	1.8819854
15.14333058393817	4.0942683	2.0234299
15.161011675232768	5.1519456	2.2697897
15.17869312960076	6.7180758	2.5919251
15.196374947485506	8.87862	2.9797013
15.214057129330447	12.363235	3.5161393
15.231739675579114	17.32206	4.161978
15.249422586675102	22.19792	4.711467
15.267105863062092	24.64169	4.96404
15.284789505183847	24.112104	4.9104075
15.302473513484218	21.609152	4.6485643
15.320157888407127	18.08441	4.252577
15.337842630396578	14.05405	3.7488732
15.355527739896656	10.853446	3.294457
15.37321321735153	8.419886	2.9017038
15.39089906320545	6.115658	2.4729855
15.408585277902748	4.624729	2.1505184
15.42627186188783	3.602369	1.8979908
15.443958815605198	3.086529	1.756852
15.461646139499424	2.8264534	1.681206
15.479333834015168	2.7445605	1.6566715
15.497021899597165	2.7558272	1.6600684
15.514710336690234	2.6998298	1.6431159
15.53239914573928	2.6153607	1.6172076
15.550088327189297	2.5293293	1.5903865
15.567777881485336	2.4893503	1.5777675
15.58546780907256	2.4869235	1.5769982
15.6031581103962	2.514386	1.5856816
15.620848785901568	2.5466626	1.5958266
15.638539836034063	2.541524	1.5942158
15.656231261239173	2.4875393	1.5771935
15.673923061962451	2.4280787	1.5582293
15.691615238649552	2.4208405	1.555905
15.709307791746202	2.4105022	1.5525792
15.727000721698221	2.362814	1.5371448
15.744694028951498	2.3378963	1.529018
15.76238771395202	2.3387039	1.5292821
15.780081777145844	2.366807	1.5384431
15.797776218979125	2.3928556	1.5468858
15.815471039898094	2.3926835	1.5468302
15.833166240349064	2.3827238	1.5436074
15.850861820778437	2.3752954	1.5411993
15.868557781632699	2.3715734	1.5399914
15.886254123358412	2.3782203	1.542148
15.903950846402232	2.3891108	1.5456749
15.921647951210897	2.397745	1.5484654
15.939345438231225	2.424514	1.5570852
15.957043307910133	2.4354763	1.5606012
15.974741560694602	2.4253411	1.5573506
15.992440197031714	2.3936849	1.5471538
16.01013921736862	2.3986473	1.5487567
16.02783862215259	2.4310498	1.5591824
16.045538411830933	2.41836	1.5551077
16.06323858685107	2.429602	1.5587181
16.080939147660512	2.4155455	1.5542026
16.09864009470684	2.4154654	1.5541767
16.11634142843774	2.401802	1.5497749
16.134043149300954	2.3919773	1.5466019
16.15174525774433	2.3965116	1.5480671
16.169447754215817	2.4273555	1.5579972
16.18715063916342	2.4195645	1.5554949
16.204853913035244	2.417543	1.554845
16.222557576279478	2.4121134	1.553098
16.240261629344403	22.4045	4.7333393
16.257966072678386	42.936	6.552557
16.275670906729868	38.072178	6.1702657
16.293376131947387	2.5061705	1.5830889
16.31108174877957	2.508075	1.5836903
16.328787757675133	2.5183446	1.5869293
16.34649415908287	2.5071156	1.5833874
16.364200953451657	2.5723584	1.6038574
16.38190814123048	2.625073	1.6202077
16.39961572286839	2.7104485	1.646344
16.41732369881455	2.7493453	1.658115
16.43503206951817	2.7576337	1.6606125
16.45274083542859	2.7203429	1.6493462
16.47044999699522	2.7599196	1.6613005
16.488159554667558	2.8571315	1.6903051
16.505869508895184	2.9484365	1.7171012
16.523579860127786	2.9831624	1.7271833
16.541290608815117	2.992421	1.7298615
16.559001755407035	2.9902182	1.7292247
16.57671330035348	3.0195649	1.7376895
16.59442524410448	3.069686	1.752052
16.61213758711015	3.1524603	1.7755169
16.629850329820705	3.2634425	1.8065001
16.647563472686436	3.3333774	1.8257539
16.665277016157724	3.378466	1.8380604
16.682990960685053	3.3900692	1.8412141
16.70070530671898	3.4848828	1.8667841
16.718420054710155	3.5709903	1.8897064
16.736135205109335	3.653646	1.9114512
16.753850758367335	3.6347287	1.9064964
16.771566714935087	3.6520662	1.911038
16.789283075263597	3.6680408	1.915213
16.80699983980398	3.7232952	1.9295843
16.82471700900741	3.8428342	1.9603149
16.84243458332518	3.9340262	1.983438
16.860152563208665	4.0058136	2.001453
16.87787094910932	4.0652204	2.0162392
16.89558974147871	4.097656	2.0242667
16.913308940768466	4.153226	2.0379465
16.931028547430333	4.2263136	2.0558
16.94874856191613	4.293689	2.0721219
16.966468984677785	4.3417025	2.0836751
16.98418981616729	4.4266305	2.103956
17.00191105683676	4.4721794	2.1147528
17.019632707138374	4.4714165	2.1145725
17.03735476752442	4.4554887	2.110803
17.05507723844728	4.4911137	2.1192248
17.072800120359403	4.585719	2.1414292
17.090523413713353	4.651687	2.1567771
17.108247118961785	4.67193	2.1614647
17.125971236557437	4.632823	2.1523993
17.143695766953133	4.652585	2.1569853
17.161420710601806	4.625869	2.1507833
17.179146067956477	4.6481	2.1559453
17.19687183947025	4.6341963	2.1527183
17.21459802559634	4.599697	2.1446905
17.232324626788028	4.5747647	2.13887
17.25005164349871	4.612346	2.1476374
17.267779076181863	4.613106	2.1478143
17.285506925291074	4.602358	2.1453106
17.30323519127999	4.5497026	2.1330032
17.320963874602384	4.5325146	2.1289704
17.33869297571211	4.538396	2.130351
17.356422495063114	4.6046076	2.145835
17.37415243310944	4.6100807	2.1471097
17.391882790305218	4.5328484	2.1290486
17.40961356710468	4.4987245	2.1210196
17.42734476396215	4.4800453	2.1166117
17.445076381332044	4.5534678	2.1338856
17.462808419668868	4.618773	2.149133
17.48054087942723	4.812221	2.1936774
17.498273761061835	5.1680484	2.2733343
17.51600706502747	5.703713	2.3882446
17.533740791779024	6.4936175	2.5482578
17.551474941771485	8.223071	2.8675897
17.56920951545993	9.495761	3.0815194
17.586944513299528	11.6715765	3.416369
17.60467993574556	13.373454	3.6569734
17.622415783253373	15.019346	3.8754802
17.64015205627843	16.329445	4.040971
17.657888755276293	17.235748	4.151596
17.675625880702604	17.559946	4.190459
17.69336343301311	17.494448	4.1826363
17.71110141266366	16.673792	4.0833554
17.728839820110178	15.891785	3.9864502
17.746578655808705	14.979517	3.8703382
17.764317920215372	13.314176	3.6488595
17.7820576137864	11.466333	3.3861976
17.79979773697811	9.11464	3.0190463
17.81753829024692	7.1167583	2.6677253
17.835279274049356	5.5689926	2.3598714
17.85302068884201	4.684319	2.1643288
17.870762535081607	4.1392984	2.0345266
17.888504813224934	3.8671393	1.9665043
17.90624752372891	3.7094164	1.9259845
17.923990667050536	3.6034079	1.8982644
17.941734243646895	3.5033102	1.8717132
17.959478253975185	3.4858565	1.8670449
17.9772226984927	3.4660406	1.8617306
17.994967577656833	3.4286647	1.8516654
18.01271289192506	3.4303966	1.8521329
18.030458641754965	3.4168909	1.8484834
18.04820482760425	3.4051526	1.8453056
18.06595144993067	3.3363018	1.8265547
18.083698509192125	3.3239377	1.823167
18.101446005846576	3.3073938	1.8186241
18.119193940352105	3.309058	1.8190817
18.136942313166887	3.2770636	1.8102661
18.1546911247492	3.2485054	1.802361
18.1724403755574	3.1977432	1.7882235
18.19019006604997	3.1965513	1.7878902
18.207940196685467	3.1768796	1.7823803
18.225690767922575	3.1891387	1.785816
18.243441780220046	3.108989	1.7632326
18.261193234036764	3.0758638	1.7538141
18.278945129831676	3.1005855	1.7608479
18.29669746806386	3.1142795	1.7647321
18.314450249192483	3.1072235	1.7627318
18.3322034736768	3.1089227	1.7632138
18.349957141976184	3.1222258	1.7669821
18.3677112545501	3.142356	1.7726692
18.385465811858108	3.1407108	1.7722051
18.403220814359884	3.0924356	1.7585323
18.420976262515172	3.1278613	1.768576
18.43873215678387	3.1842747	1.7844536
18.456488497625923	3.2180195	1.7938839
18.474245285501407	3.2604992	1.8056853
18.492002520870486	3.2895138	1.8137017
18.50976020419343	3.3523467	1.8309414
18.527518335930615	3.6826909	1.9190339
18.545276916542516	4.2855535	2.0701578
18.563035946489688	4.4573026	2.1112325
18.580795426232832	4.886842	2.2106202
18.598555356232698	4.828433	2.1973696
18.616315736950185	5.0918355	2.2565095
18.63407656884626	4.7109103	2.170463
18.65183785238201	4.917665	2.2175808
18.669599588018617	4.7431774	2.1778836
18.68736177621737	4.7526603	2.1800597
18.705124417439652	4.712297	2.1707826
18.72288751214696	4.5183163	2.1256332
18.740651060800886	4.6372027	2.1534166
18.758415063863115	4.2944527	2.0723062
18.77617952179546	4.4953213	2.1202173
18.793944435059814	4.2505913	2.0616963
18.811709804118184	4.3034143	2.0744672
18.829475629432675	4.257419	2.0633514
18.8472419114655	4.0483284	2.0120459
18.86500865067897	4.1358104	2.0336692
18.88277584753551	3.7860541	1.9457785
18.90054350249763	3.774961	1.9429259
18.918311616027957	3.3859103	1.8400843
18.936080188589226	3.2815475	1.8115042
18.953849220644265	2.9824336	1.7269723
18.971618712656007	2.8743556	1.6953925
18.9893886650875	2.8287675	1.6818941
19.007159078401887	8.016217	2.8312924
19.024929953062408	32.85836	5.732221
19.042701289532435	32.787903	5.7260723
19.060473088275405	25.349705	5.034849
19.07824534975489	2.669593	1.633889
19.096018074434568	2.6856043	1.6387813
19.113791262778197	2.6556518	1.6296171
19.13156491524966	2.594065	1.6106101
19.149339032312945	2.5679069	1.602469
19.167113614432136	2.5847633	1.6077199
19.184888662071433	2.5808716	1.6065091
19.202664175695123	2.532993	1.591538
19.220440155767623	2.5082126	1.5837338
19.238216602753447	2.5093257	1.5840851
19.2559935171172	2.5394251	1.5935574
19.27377089932361	2.5353858	1.5922894
19.291548749837514	2.5323575	1.5913383
19.309327069123835	2.5129135	1.5852171
19.32710585764763	2.5123987	1.5850548
19.344885115874032	2.4975665	1.5803691
19.362664844268313	2.4721522	1.572308
19.380445043295822	2.4585125	1.5679644
19.39822571342203	2.4717999	1.5721959
19.41600685511252	2.481843	1.5753866
19.43378846883297	2.478498	1.5743246
19.451570555049173	2.482391	1.5755606
19.469353114227037	2.4908364	1.5782384
19.48713614683254	2.4839106	1.5760427
19.50491965333182	2.4532502	1.5662855
19.52270363419109	2.4343011	1.5602247
19.540488089876686	2.4241197	1.5569584
19.55827302085503	2.4656403	1.5702357
19.576058427592674	2.4917014	1.5785124
19.593844310556282	2.4947994	1.5794934
19.611630670212598	2.4461834	1.5640279
19.629417507028506	2.4434173	1.5631434
19.64720482147098	2.479045	1.5744983
19.6649926140071	2.4931157	1.5789603
19.682780885104084	2.4571533	1.567531
19.70056963522921	2.4716275	1.572141
19.718358864849908	2.4842355	1.5761458
19.7361485744337	2.5226078	1.588272
19.753938764448215	2.5026276	1.5819695
19.771729435361202	2.50821	1.583733
19.789520587640506	2.4933124	1.5790226
19.807312221754092	2.4837177	1.5759815
19.825104338170043	2.4820843	1.5754632
19.842896937356517	2.48452	1.576236
19.860690019781824	2.5022805	1.5818598
19.87848358591436	2.5276306	1.5898523
19.896277636222635	2.550646	1.5970743
19.914072171175278	2.5572212	1.5991313
19.931867191241015	2.544993	1.5953034
19.94966269688869	2.5371745	1.592851
19.967458688587264	2.517036	1.586517
19.985255166805807	2.4581852	1.5678601
20.00305213201348	2.4382064	1.5614758
20.020849584679578	2.4300785	1.5588709
20.038647525273507	2.4465132	1.5641334
20.05644595426477	2.4507775	1.565496
20.07424487212299	2.443181	1.5630678
20.092044279317903	2.424206	1.5569862
20.109844176319353	2.4169981	1.5546697
20.127644563597304	2.3970068	1.548227
20.145445441621817	2.389272	1.545727
20.16324681086307	2.3714554	1.5399531
20.181048671791373	2.402955	1.5501468
20.198851024877122	2.4213862	1.5560805
20.216653870590836	2.4317386	1.5594033
20.234457209403146	2.4050379	1.5508184
20.252261041784802	2.3726134	1.540329
20.270065368206662	2.3563013	1.5350249
20.287870189139685	2.374127	1.5408202
20.305675505054968	2.3486497	1.5325305
20.323481316423702	2.3248718	1.524753
20.341287623717207	2.33085	1.5267121
20.359094427406884	2.3531656	1.5340031
20.376901727964288	2.3542817	1.5343668
20.39470952586107	2.3356283	1.5282762
20.41251782156899	2.3315637	1.5269458
20.430326615559935	2.2917886	1.5138655
20.448135908305886	2.2895687	1.5131321
20.465945700278965	2.2954977	1.51509
20.483755991951384	2.315001	1.5215127
20.50156678379548	2.3327472	1.5273334
20.519378076283708	2.3389165	1.5293517
20.537189869888635	2.318523	1.5226697
20.55500216508294	2.3340433	1.5277576
20.572814962339415	2.3254662	1.5249479
20.59062826213098	2.3217068	1.5237148
20.60844206493066	2.3304813	1.5265914
20.626256371211593	2.350489	1.5331304
20.644071181447032	2.349634	1.5328516
20.66188649611036	2.3274496	1.525598
20.67970231567506	2.3234863	1.5242987
20.697518640614742	2.3285077	1.5259448
20.715335471403122	2.3306553	1.5266484
20.73315280851404	2.3295755	1.5262947
20.750970652421447	2.3063815	1.5186776
20.768789003599412	2.2810066	1.5103002
20.786607862522136	2.292596	1.5141321
20.8044272296639	2.2956245	1.5151318
20.82224710549913	2.274012	1.5079827
20.84006749050237	2.2658498	1.505274
20.857888385148268	3.8263159	1.9560971
20.8757097899116	45.928318	6.7770433
20.893531705267254	64.80859	8.050379
20.911354131690224	83.83475	9.156132
20.92917706965566	69.07315	8.311026
20.94700051963877	50.135906	7.0806713
20.96482448211493	29.42083	5.424097
20.982648957559622	4.179709	2.0444336
21.00047394644843	2.269527	1.5064949
21.01829944925707	2.2275858	1.4925098
21.036125466461375	2.2075317	1.4857764
21.053951998537297	2.2445266	1.4981744
21.071779045960906	2.2546585	1.501552
21.089606609208378	2.2592065	1.5030657
21.10743468875603	2.2335262	1.4944986
21.12526328508028	2.193069	1.4809014
21.143092398657675	2.201375	1.4837031
21.16092202996488	2.2154672	1.4884446
21.17875217947867	2.2773044	1.509074
21.19658284767596	2.280379	1.5100924
21.21441403503377	2.23448	1.4948177
21.232245742029225	2.1729703	1.4740999
21.2500779691396	2.1537263	1.4675579
21.26791071684227	2.143161	1.463954
21.28574398561475	2.1641567	1.4711072
21.30357777593465	2.1696146	1.4729612
21.321412088279704	2.1665275	1.4719129
21.339246923127792	2.1429083	1.4638675
21.357082280956888	2.115661	1.4545312
21.3749181622451	2.1228526	1.4570012
21.392754567470647	2.128361	1.4588903
21.41059149711187	2.1314209	1.4599386
21.42842895164726	2.1265547	1.4582711
21.446266931555378	2.151445	1.4667804
21.464105437314945	2.1523042	1.4670733
21.481944469404798	2.139747	1.4627874
21.49978402830388	2.1140106	1.4539638
21.51762411449127	2.101213	1.4495561
21.53546472844617	2.0896466	1.4455609
21.553305870647876	2.0704424	1.4389032
21.571147541575865	2.090426	1.4458306
21.58898974170967	2.1105256	1.4527649
21.60683247152899	2.0953786	1.4475423
21.62467573151363	2.0594356	1.4350734
21.642519522143523	2.0468645	1.4306867
21.660363843898722	2.0491722	1.4314929
21.6782086972594	2.031144	1.4251821
21.696054082705864	2.0550895	1.4335583
21.713900000718535	2.0722346	1.4395258
21.73174645177795	2.0593755	1.4350524
21.749593436364794	2.074199	1.440208
21.767440954959845	2.096417	1.4479009
21.785289008044032	2.0813825	1.4426998
21.803137596098388	2.0580242	1.4345815
21.820986719604086	2.0410655	1.4286586
21.838836379042412	2.0128582	1.4187523
21.85668657489478	1.9884561	1.4101263
21.87453730764273	1.9851319	1.4089471
21.892388577767914	2.000481	1.4143835
21.91024038575213	2.0202746	1.4213637
21.928092732077285	2.0219436	1.4219506
21.945945617225426	2.0125597	1.4186472
21.963799041678694	2.035691	1.4267764
21.981653005919398	31.33622	5.5978765
21.999507510429943	78.105225	8.837716
22.01736255569286	73.028885	8.545694
22.035218142190818	4.122436	2.0303783
22.05307427040661	1.9771562	1.4061139
22.07093094082315	2.0125148	1.4186313
22.088788153923474	2.0557978	1.4338053
22.106645910190746	2.0106418	1.417971
22.12450421010827	1.9521722	1.3972015
22.142363054159464	1.9142139	1.3835512
22.16022244282787	1.9315286	1.3897945
22.178082376597164	1.9625696	1.4009174
22.195942855951145	1.9802651	1.4072189
22.213803881373742	2.017526	1.4203964
22.231665453349002	1.991269	1.4111233
22.24952757236111	1.9749633	1.4053339
22.26739023889438	1.9531698	1.3975586
22.28525345343323	1.9775084	1.4062392
22.30311721646225	1.9442793	1.3943741
22.320981528466113	1.9224145	1.3865117
22.33884638992964	1.9095181	1.3818531
22.356711801337788	1.9508228	1.3967186
22.37457776317561	1.9712154	1.4039998
22.392444275928337	1.9819127	1.4078043
22.410311340081282	1.9740399	1.4050053
22.428178956119904	1.9482927	1.3958125
22.446047124529805	1.9303788	1.3893807
22.46391584579669	1.9557121	1.3984678
22.481785120406414	2.0165083	1.4200381
22.49965494884496	2.014628	1.4193759
22.51752533159841	1.9705998	1.4037806
22.53539626915302	1.9230129	1.3867273
22.553267761995137	1.925748	1.3877132
22.571139810611264	1.8978325	1.3776184
22.589012415488025	1.876119	1.369715
22.60688557711216	1.8813102	1.3716086
22.624759295970566	1.9118546	1.3826983
22.642633572550263	1.9289616	1.3888706
22.660508407338362	1.9544903	1.3980309
22.67838380082217	1.9590226	1.3996509
22.696259753489077	1.9644699	1.4015955
22.714136265826614	1.928437	1.3886818
22.73201333832246	1.9313096	1.3897157
22.74989097146439	1.9260849	1.3878345
22.76776916574035	1.9462044	1.3950644
22.785647921638393	1.9451847	1.3946987
22.803527239646712	1.9300786	1.3892727
22.82140712025363	1.8984804	1.3778535
22.839287563947593	1.9319929	1.3899615
22.85716857121719	1.9451896	1.3947005
22.875050142551135	1.9668235	1.4024348
22.892932278438277	1.9351662	1.3911026
22.910814979367604	1.9321495	1.3900179
22.928698245828222	1.9392388	1.3925655
22.946582078309387	1.9249451	1.3874239
22.96446647730047	1.902391	1.3792719
22.98235144329098	1.949342	1.3961884
23.000236976770562	1.9520376	1.3971534
23.018123078229	1.9343431	1.3908067
23.03600974815619	1.9001992	1.3784771
23.053896987042194	1.8786466	1.3706373
23.071784795377173	1.8832352	1.3723102
23.08967317365145	1.9108247	1.3823258
23.10756212235546	1.9375407	1.3919557
23.125451641979787	1.9008613	1.3787173
23.143341733015134	1.8984544	1.3778441
23.161232395952357	1.9169134	1.3845264
23.179123631282426	1.9401429	1.3928901
23.197015439496468	1.9409946	1.3931959
23.214907821085717	1.9387159	1.3923779
23.23280077654157	1.9163494	1.3843228
23.250694306355538	1.9069307	1.3809166
23.268588411019277	1.8959053	1.3769188
23.28648309102458	1.9094938	1.3818444
23.304378346863356	1.9222803	1.3864633
23.322274179027676	1.9321495	1.3900179
23.340170588009723	1.9403944	1.3929805
23.358067574301852	1.9458039	1.3949207
23.37596513839651	1.8850214	1.3729608
23.39386328078629	1.8883029	1.3741554
23.411762001963947	1.9162567	1.3842893
23.429661302422353	1.97523	1.4054288
23.4475611826545	1.9499636	1.396411
23.46546164315356	1.8971912	1.3773856
23.48336268441279	1.8656601	1.3658917
23.501264306925638	1.8979553	1.377663
23.51916651118564	1.951119	1.3968246
23.537069297686497	1.9562383	1.3986559
23.554972666922037	1.9614457	1.4005163
23.57287661938623	1.9627728	1.40099
23.59078115557318	1.9495918	1.3962778
23.608686275977128	1.941002	1.3931985
23.62659198109246	1.9523044	1.3972489
23.6444982714137	1.9529415	1.3974768
23.66240514743549	1.9105452	1.3822248
23.68031260965263	1.8498222	1.3600817
23.698220658560068	1.8696285	1.3673437
23.716129294652845	1.8922461	1.3755894
23.7340385184262	1.893774	1.3761446
23.75194833037546	1.909966	1.3820152
23.769858730996123	1.9267626	1.3880787
23.78776972078382	1.9115576	1.3825909
23.80568130023431	1.8969744	1.3773069
23.823593469843495	1.9159727	1.3841866
23.841506230107424	1.9199954	1.385639
23.859419581522275	1.8625531	1.3647538
23.87733352458438	1.8013158	1.342131
23.89524805979019	1.7791842	1.3338606
23.913163187636318	1.8143866	1.3469917
23.931078908619508	1.8876756	1.3739271
23.948995223236633	1.9428779	1.3938715
23.966912131984735	2.025705	1.4232727
23.98482963536096	2.0757887	1.4407598
24.002747733862616	2.0887787	1.4452608
24.020666427987155	2.061706	1.4358642
24.038585718232156	2.0213487	1.4217415
24.056505605095353	2.0329669	1.4258214
24.074426089074617	2.05159	1.4323373
24.092347170667946	2.0727293	1.4396976
24.110268850373515	2.0601258	1.4353138
24.128191128689586	2.0510924	1.4321635
24.146114006114626	2.0462096	1.4304578
24.164037483147187	2.0601141	1.4353098
24.181961560286005	2.0593617	1.4350476
24.199886238029926	2.020772	1.4215386
24.21781151687797	1.982247	1.407923
24.235737397329274	1.9567114	1.398825
24.253663879883135	1.9452939	1.394738
24.271590965038975	1.9882157	1.410041
24.289518653296376	1.9598547	1.3999481
24.30744694515505	1.9873239	1.4097247
24.32537584111486	2.003354	1.415399
24.34330534167581	2.0574684	1.4343878
24.361235447338046	2.0892758	1.4454328
24.379166158601876	2.0427773	1.4292576
24.39709747596772	1.9795573	1.4069674
24.41502939993615	1.9813119	1.4075909
24.432961931007917	2.0201757	1.4213289
24.450895069683856	2.007496	1.4168614
24.468828816465	1.9975024	1.4133303
24.4867631718525	1.983244	1.4082769
24.504698136347656	1.9988261	1.4137985
24.52263371045192	1.9568912	1.3988893
24.540569894666874	1.9203765	1.3857765
24.558506689494266	1.9063504	1.3807064
24.57644409543597	1.9352473	1.3911316
24.594382112994012	1.9230366	1.3867359
24.61232074267057	1.8825976	1.3720778
24.630259984967953	1.8697187	1.3673766
24.64819984038863	1.9135485	1.3833107
24.66614030943522	1.9609721	1.4003471
24.684081392610462	1.9511869	1.3968489
24.702023090417274	1.9525473	1.3973358
24.7199654033587	1.967864	1.4028058
24.737908331937927	1.9738421	1.4049349
24.755851876658305	1.9644927	1.4016036
24.773796038023324	1.9984927	1.4136806
24.79174081653661	2.0074058	1.4168295
24.809686212701962	2.0534322	1.4329802
24.827632227023294	2.0572011	1.4342947
24.8455788600047	2.1327848	1.4604057
24.8635261121504	2.1017628	1.4497458
24.88147398396475	2.0909545	1.4460133
24.899422475952303	2.0883641	1.4451174
24.917371588617698	2.167065	1.4720954
24.935321322465768	2.2541182	1.5013721
24.953271678001478	2.365495	1.5380166
24.97122265572994	2.5544775	1.5982733
24.989174256156414	2.9331858	1.7126546
25.00712647978632	3.4816382	1.8659148
25.02507932712521	4.087885	2.0218518
25.043032798678798	4.6393085	2.1539054
25.060986894952933	5.3560386	2.3143117
25.078941616453637	6.181716	2.4863057
25.096896963687055	7.1370416	2.6715243
25.114852937159508	8.114316	2.848564
25.132809537377444	8.372011	2.8934429
25.150766764847468	8.201945	2.8639038
25.168724620076347	7.3541145	2.711847
25.186683103570985	6.099951	2.4698079
25.204642215838426	4.9267755	2.219634
25.222601957385894	3.7506423	1.9366575
25.24056232872074	2.934568	1.7130581
25.25852333035048	2.4544086	1.5666553
25.276484962782778	2.1612406	1.4701158
25.294447226525435	2.0541797	1.433241
25.312410122086423	2.0225034	1.4221474
25.330373649973843	1.9917854	1.4113063
25.348337810695988	1.9579228	1.3992579
25.366302604761245	1.9688092	1.4031427
25.384268032678207	1.9780588	1.4064348
25.40223409495558	1.9552412	1.3982995
25.420200792102257	1.9152489	1.3839252
25.438168124627246	1.8799943	1.3711288
25.45613609303974	1.8514448	1.3606781
25.474104697849057	1.8220485	1.3498328
25.492073939564698	1.8217353	1.3497168
25.510043818696285	1.8269234	1.3516372
25.528014335753614	1.8470422	1.3590593
25.54598549124664	1.8790071	1.3707688
25.56395728568544	1.8894725	1.3745809
25.58192971958028	1.8884256	1.3742
25.59990279344156	1.8725272	1.3684032
25.617876507779833	1.8963321	1.3770738
25.635850863105826	1.9059167	1.3805494
25.653825859930386	1.8732729	1.3686756
25.671801498764548	1.849642	1.3600155
25.68977778011949	1.8765974	1.3698896
25.707754704506524	1.8638886	1.3652431
25.725732272437153	1.8452308	1.3583927
25.743710484423012	1.8427354	1.3574739
25.761689340975888	1.8955386	1.3767856
25.77966884260774	1.8860401	1.3733318
25.797648989830662	1.8790867	1.3707979
25.815629783156922	1.8853883	1.3730944
25.83361122309895	1.8518627	1.3608316
25.85159331016929	1.854764	1.3618972
25.869576044880695	1.8419949	1.3572011
25.887559427746034	1.8568039	1.3626459
25.90554345927836	1.8455099	1.3584955
25.92352813999086	1.8508502	1.3604596
25.94151347039689	1.84571	1.3585691
25.959499451009965	1.8187999	1.3486289
25.97748608234374	1.822462	1.349986
25.995473364912062	1.8349055	1.3545868
26.013461299228904	1.8412787	1.3569373
26.03144988580839	1.8271705	1.3517287
26.04943912516483	1.7883422	1.3372891
26.067429017812675	1.7862097	1.3364916
26.085419564266537	1.8077089	1.3445107
26.103410765041186	1.79932	1.3413874
26.12140262065155	1.7951396	1.3398281
26.139395131612723	1.7667683	1.3291984
26.157388298439948	1.763572	1.3279954
26.17538212164861	1.8057885	1.3437963
26.193376601754295	1.8102437	1.345453
26.211371739272714	1.7895312	1.3377336
26.229367534719746	1.8241911	1.3506262
26.247363988611433	1.8361617	1.3550504
26.26536110146397	1.8394283	1.3562553
26.283358873793727	1.8507674	1.3604292
26.301357306117204	1.8517019	1.3607725
26.319356398951104	1.829869	1.3527265
26.33735615281224	1.841553	1.3570383
26.35535656821762	1.8255832	1.3511415
26.373357645684404	1.8156143	1.3474474
26.39135938572991	1.8310295	1.3531554
26.409361788871614	1.8600842	1.363849
26.427364855627165	1.8734063	1.3687243
26.445368586514352	1.825451	1.3510926
26.46337298205115	1.7859108	1.3363798
26.48137804275568	1.7859836	1.336407
26.499383769146217	1.8403914	1.3566103
26.517390161741215	1.8680823	1.366778
26.53539722105928	1.8431778	1.3576368
26.553404947619182	1.8108988	1.3456964
26.571413341939856	1.7873265	1.3369093
26.589422404540397	1.7727882	1.331461
26.60743213594006	1.7613086	1.327143
26.62544253665827	1.7721273	1.3312128
26.64345360721459	1.7888569	1.3374815
26.66146534812879	1.8056489	1.3437444
26.679477759920758	1.7801726	1.3342311
26.69749084311057	1.7919326	1.3386309
26.71550459821847	1.8130723	1.3465037
26.733519025764842	1.8680606	1.3667701
26.751534126270258	1.838044	1.3557448
26.769549900255434	1.8145325	1.3470459
26.787566348241267	1.8429849	1.3575658
26.80558347074881	1.8874562	1.3738472
26.823601268299267	1.8854942	1.373133
26.841619741414036	1.8628389	1.3648585
26.85963889061465	1.8096766	1.3452423
26.877658716422832	1.7809204	1.3345113
26.89567921936045	1.7831216	1.3353357
26.913700399949544	1.8067507	1.3441542
26.93172225871233	1.778651	1.3336607
26.949744796171174	1.7940047	1.3394046
26.967768012848605	1.778757	1.3337005
26.98579190926733	1.7676767	1.32954
27.003816485950225	1.765858	1.3288559
27.021841743420318	1.7893609	1.33767
27.039867682200814	1.8151906	1.34729
27.057894302815072	1.7875301	1.3369855
27.07592160578664	1.7977808	1.3408135
27.0939495916392	1.8149104	1.3471861
27.111978260896635	1.7926592	1.3389022
27.13000761408296	1.7534333	1.3241727
27.148037651722397	1.7360046	1.3175752
27.166068374339304	1.7505326	1.323077
27.184099782458215	1.8036493	1.3430002
27.20213187660384	1.8174998	1.3481468
27.22016465730105	1.7790327	1.3338039
27.23819812507487	1.7572924	1.325629
27.256232280450533	1.7610126	1.3270315
27.274267123953383	1.7521931	1.3237044
27.292302656108987	1.8003881	1.3417854
27.31033887744306	1.8776082	1.3702585
27.32837578848146	1.8696036	1.3673345
27.34641338975026	1.835725	1.3548893
27.364451681775673	1.8129848	1.3464712
27.382490665084074	1.8246146	1.350783
27.400530340202046	1.8192712	1.3488036
27.41857070765629	1.8459171	1.3586453
27.436611767973726	1.8493733	1.3599167
27.454653521681404	1.8342814	1.3543565
27.472695969306564	1.79555	1.3399813
27.490739111376627	1.8025737	1.3425996
27.508782948419153	1.8594468	1.3636153
27.526827480961902	1.8747334	1.369209
27.54487270953279	1.8201442	1.3491272
27.562918634659898	1.7702804	1.3305188
27.580965256871508	1.7566786	1.3253975
27.599012576696026	1.8196654	1.3489498
27.617060594662068	1.8674848	1.3665595
27.63510931129842	1.8904972	1.3749535
27.65315872713401	1.8655065	1.3658354
27.67120884269797	1.8172734	1.3480629
27.68925965851958	1.8520508	1.3609008
27.707311175128307	1.8714266	1.368001
27.725363393053787	1.8490155	1.3597851
27.74341631282583	1.8415371	1.3570324
27.7614699349744	1.8798006	1.3710582
27.77952426002968	2.0653245	1.4371237
27.797579288521973	2.1214557	1.4565217
27.815635020981784	2.5473123	1.5960301
27.83369145793979	2.5861533	1.6081522
27.85174859992682	2.4068959	1.5514174
27.869806447473923	2.2403014	1.4967636
27.887865001112267	1.9601113	1.4000398
27.905924261373233	1.8683051	1.3668596
27.92398422878836	1.8859545	1.3733006
27.94204490388936	1.8664993	1.3661989
27.96010628720813	1.842209	1.35728
27.978168379276728	1.8594233	1.3636067
27.9962311806274	1.8793486	1.3708934
28.014294691792568	1.8523675	1.3610171
28.0323589133048	1.8363047	1.3551031
28.050423845696887	1.860518	1.3640081
28.068489489501758	1.8719252	1.3681831
28.086555845252523	1.8610193	1.3641918
28.104622913482487	1.9046971	1.3801076
28.122690694725115	1.9616587	1.4005923
28.14075918951405	1.9665706	1.4023447
28.15882839838312	1.9282355	1.3886092
28.176898321866304	1.9135188	1.3833
28.1949689604978	1.9508406	1.3967249
28.213040314811945	1.9672146	1.4025743
28.23111238534327	1.8885313	1.3742385
28.249185172626493	1.8572146	1.3627965
28.267258677196473	1.8729719	1.3685657
28.285332899588294	1.9020282	1.3791404
28.303407840337172	1.9160051	1.3841984
28.321483499978545	1.9429486	1.3938969
28.33955987904799	1.9357935	1.391328
28.357636978081285	1.9069451	1.3809218
28.37571479761439	1.8998559	1.3783526
28.393793338183425	1.9247408	1.3873503
28.41187260032469	1.9117266	1.382652
28.429952584574686	1.9225532	1.3865616
28.448033291470065	1.9491935	1.3961352
28.46611472154769	1.9269687	1.388153
28.484196875344566	1.9357282	1.3913045
28.502279753397914	1.997866	1.413459
28.52036335624511	1.9776812	1.4063005
28.538447684423716	1.9775409	1.4062506
28.556532738471482	2.0379474	1.427567
28.574618518926325	2.0480518	1.4311016
28.59270502632635	1.9862001	1.4093261
28.61079226120985	1.9735458	1.4048295
28.628880224115274	1.9785695	1.4066163
28.646968915581287	1.9769278	1.4060327
28.66505833614671	1.9775165	1.406242
28.68314848635055	1.9281127	1.388565
28.701239366732004	2.0030398	1.4152879
28.71933097783044	2.0858378	1.444243
28.737423320185403	2.1051784	1.4509233
28.75551639433665	2.1035647	1.4503671
28.773610200824074	2.1286309	1.4589828
28.791704740187793	2.1749651	1.4747763
28.80980001296809	2.1331053	1.4605154
28.827896019705413	2.126451	1.4582356
28.845992760940433	2.1264408	1.458232
28.86409023721397	2.1550834	1.4680202
28.88218844906704	2.1771946	1.4755319
28.900287397040845	2.205969	1.4852505
28.918387081676755	2.196179	1.481951
28.936487503516343	2.2390735	1.4963534
28.954588663101365	2.2971842	1.5156465
28.97269056097374	2.3311024	1.5267948
28.990793197675597	2.2831323	1.5110037
29.00889657374923	2.3336108	1.527616
29.027000689737125	2.3727744	1.5403812
29.04510554618196	2.404351	1.550597
29.06321114362659	2.4179518	1.5549765
29.08131748261405	2.4687362	1.5712212
29.099424563687567	2.505882	1.5829978
29.11753238739057	2.5893717	1.6091524
29.13564095426663	2.666613	1.6329768
29.15375026485954	2.662521	1.6317233
29.171860319713275	2.6169293	1.6176926
29.18997111937199	2.6438286	1.6259854
29.20808266438002	2.7288435	1.6519212
29.226194955281898	2.8253918	1.6808902
29.244307992622335	2.9396658	1.7145454
29.26242177694624	2.9405024	1.7147893
29.2805363087987	2.893731	1.701097
29.29865158872498	2.8654115	1.6927526
29.316767617270557	2.8670592	1.6932392
29.334884394981064	2.9664414	1.722336
29.353001922402367	3.0299122	1.7406644
29.37112020008047	3.0464387	1.7454051
29.389239228561596	3.1983576	1.7883953
29.407359008392152	3.4574056	1.85941
29.42547954011872	3.9004006	1.9749432
29.44360082428809	4.6980553	2.1674998
29.46172286144722	5.9349704	2.4361794
29.479845652143283	7.813588	2.7952795
29.497969196923606	10.152673	3.1863258
29.516093496335728	12.968577	3.601191
29.5342185509274	15.814363	3.9767277
29.55234436124651	17.77259	4.215755
29.570470927841175	18.239416	4.270763
29.588598251259686	17.50237	4.1835833
29.60672633205055	15.755355	3.9693015
29.624855170762405	13.091923	3.6182761
29.642984767944146	10.02666	3.16649
29.66111512414481	7.570771	2.7515035
29.67924623991366	5.753625	2.3986714
29.697378115800138	4.551274	2.1333714
29.71551075235387	3.9586463	1.9896348
29.733644150124675	3.6829517	1.9191018
29.751778309662576	3.4764059	1.8645122
29.769913231517766	3.369576	1.8356404
29.78804891624066	3.3320978	1.8254035
29.806185364381818	3.3450468	1.828947
29.82432257649206	3.3259938	1.8237307
29.842460553122333	3.2596893	1.8054609
29.86059929482382	3.1608381	1.7778746
29.878738802147872	3.1620705	1.7782211
29.896879075646048	3.136264	1.7709501
29.915020115870114	3.1686418	1.7800679
29.933161923371976	3.2124598	1.7923336
29.951304498703777	3.227984	1.7966591
29.969447842417857	3.1507661	1.7750398
29.987591955066733	3.1515741	1.7752674
30.005736837203123	3.1678333	1.7798408
30.023882489379943	3.1713176	1.7808193
30.04202891215028	3.135521	1.7707403
30.060176106067455	3.151	1.7751056
30.078324071684946	3.1702719	1.7805257
30.09647280955646	3.2324176	1.7978926
30.114622320235863	3.184207	1.7844347
30.132772604277257	3.1051087	1.7621319
30.1509236622349	3.1382575	1.7715127
30.16907549466328	3.150989	1.7751025
30.18722810211705	3.1196785	1.7662612
30.205381485151097	3.0747576	1.7534987
30.22353564432045	3.0442731	1.7447846
30.241690580180403	2.9766407	1.7252944
30.25984629328638	2.9364667	1.7136122
30.278002784194037	2.9683063	1.7228774
30.296160053459246	3.0126662	1.7357033
30.314318101638033	2.9686704	1.722983
30.332476929286646	2.9539351	1.7187016
30.35063653696153	2.9615424	1.7209133
30.368796925219307	3.0060117	1.7337854
30.386958094616844	2.9493175	1.7173578
30.40512004571115	2.899818	1.7028852
30.423282779059463	2.920747	1.7090193
30.441446295219233	2.972116	1.7239826
30.459610594748067	2.945958	1.7163793
30.47777567820382	2.862556	1.691909
30.495941546144504	2.8309329	1.6825377
30.51410819912835	2.8565876	1.6901443
30.532275637713795	2.816075	1.6781166
30.55044386245946	2.8538249	1.6893268
30.56861287392416	2.8824081	1.6977656
30.586782672666956	2.8706615	1.6943027
30.604953259247047	2.8009927	1.6736166
30.623124634223885	2.7884257	1.669858
30.641296798157075	2.7533092	1.6593099
30.659469751606462	2.7287598	1.6518958
30.677643495132074	2.7060761	1.6450156
30.695818029294152	2.7553427	1.6599225
30.713993354653116	2.7863503	1.6692364
30.73216947176962	2.7912397	1.6707004
30.75034638120448	2.7498906	1.6582794
30.768524083518756	2.7589033	1.6609946
30.786702579273673	2.7842941	1.6686205
30.80488186903069	2.8597949	1.6910928
30.82306195335144	3.0339425	1.7418216
30.841242832797782	3.2993672	1.816416
30.85942450793176	3.6458037	1.9093988
30.877606979315637	3.9392722	1.9847599
30.895790247511883	4.3024187	2.0742273
30.913974313083134	4.6878643	2.1651475
30.932159176592283	4.8345723	2.198766
30.95034483860237	4.7159944	2.171634
30.968531299676698	4.4829574	2.1172996
30.98671856037873	4.1521635	2.0376859
31.00490662127215	3.7460136	1.9354621
31.023095482920848	3.2969239	1.8157433
31.04128514588892	2.9327374	1.7125237
31.059475610740662	2.7111816	1.6465666
31.07766687804056	2.5466192	1.595813
31.09585894835335	2.4594386	1.5682597
31.11405182224393	2.5249398	1.589006
31.132245500277417	2.5579143	1.5993481
31.15043998301914	2.4859815	1.5766995
31.168635271034628	2.4683065	1.5710845
31.18683136488964	2.5310423	1.590925
31.20502826515008	2.4972236	1.5802606
31.223225972382135	2.493114	1.5789598
31.241424487152155	2.4701438	1.5716691
31.259623810026692	2.5570097	1.5990653
31.27782394157253	2.4824643	1.5755838
31.296024882356644	2.3896525	1.54585
31.314226632946237	2.3495777	1.5328332
31.332429193908684	2.4250717	1.5572642
31.350632565811598	2.4608836	1.5687203
31.368836749222787	2.4132516	1.5534644
31.387041744710295	2.4091046	1.552129
31.40524755284232	2.4564705	1.5673132
31.423454174187317	2.5203037	1.5875465
31.441661609313922	2.5360594	1.5925009
31.459869858791002	2.5226638	1.5882896
31.478078923187628	2.4538898	1.5664897
31.496288803073064	2.3273964	1.5255806
31.514499499016807	2.315196	1.5215769
31.532711011588546	2.3387606	1.5293007
31.550923341358178	2.3146348	1.5213923
31.56913648889584	2.3368142	1.5286642
31.587350454771844	2.3595705	1.5360893
31.605565239556732	2.3414114	1.5301671
31.62378084382127	2.3412485	1.5301139
31.641997268136382	2.347769	1.5322431
31.660214513073274	2.3179142	1.5224698
31.67843257920331	2.3102121	1.5199382
31.6966514670981	2.4058309	1.5510741
31.71487117732944	2.4141464	1.5537524
31.733091710469346	2.3019595	1.517221
31.751313067090052	2.2216563	1.4905221
31.769535247764008	2.2142358	1.4880308
31.787758253063878	2.3171837	1.5222299
31.805982083562526	2.3406603	1.5299217
31.824206739833024	2.3137739	1.5211095
31.84243222244869	2.2606177	1.503535
31.860658531983013	2.2410316	1.4970076
31.878885669009737	2.3069828	1.5188755
31.897113634102784	2.3277435	1.5256945
31.91534242783632	2.2809124	1.5102689
31.933572050784694	2.2335517	1.4945072
31.951802503522508	2.2124155	1.487419
31.970033786624548	2.226221	1.4920527
31.988265900665834	2.3267374	1.5253646
32.006498846221575	2.3365598	1.528581
32.02473262386724	2.238092	1.4960253
32.04296723417845	2.211675	1.4871701
32.0612026777311	2.1768665	1.4754208
32.07943895510129	2.1533751	1.4674383
32.097676066865304	2.1765501	1.4753135
32.115914013599685	2.225505	1.4918127
32.13415279588115	2.2380424	1.4960088
32.152392414286666	2.1993818	1.4830313
32.1706328693934	2.1351843	1.4612269
32.18887416177875	2.0943751	1.4471956
32.20711629202032	2.1490424	1.4659612
32.225359260695924	2.150945	1.4666101
32.243603068383614	2.1591568	1.469407
32.26184771566166	2.145966	1.4649116
32.28009320310852	2.1258078	1.458015
32.2983395313029	2.1008687	1.4494374
32.31658670082372	2.0445778	1.4298873
32.33483471225012	2.0567439	1.4341352
32.35308356616143	2.1668665	1.472028
32.371333263137245	2.19337	1.481003
32.38958380375734	2.15422	1.4677261
32.407835188601744	2.1534078	1.4674494
32.42608741825067	2.1163623	1.4547722
32.444340493284585	2.078283	1.4416251
32.46259441428416	2.1352725	1.4612572
32.48084918183028	2.1176353	1.4552097
32.49910479650405	2.0434058	1.4294775
32.51736125888683	1.9862208	1.4093335
32.53561856956014	1.9936616	1.4119709
32.5538767291058	1.9396038	1.3926966
32.572135738105764	1.9188304	1.3852185
32.59039559714228	1.9934473	1.4118949
32.608656306797776	2.0489092	1.4314011
32.62691786765491	2.0215976	1.421829
32.645180280296586	1.9509243	1.3967549
32.663443545305896	1.9494141	1.3962142
32.68170766326619	2.0019956	1.4149189
32.69997263476099	2.0553296	1.433642
32.7182384603741	1.966607	1.4023577
32.7365051406895	1.9695674	1.4034128
32.75477267629144	1.9793489	1.4068934
32.77304106776434	2.030921	1.4251039
32.79131031569289	1.9828081	1.4081222
32.809580420661966	1.9992223	1.4139385
32.827851383256714	2.0581553	1.4346272
32.84612320406245	2.0476818	1.4309723
32.86439588366476	2.0587852	1.4348468
32.88266942264945	2.0306268	1.4250007
32.9009438216025	1.9848684	1.4088535
32.9192190811102	1.9577647	1.3992015
32.937495201758985	2.039273	1.4280312
32.95577218413556	2.0020385	1.414934
32.974050028826866	1.8969483	1.3772975
32.992328736420035	1.8825991	1.3720784
33.010608307502444	1.8819276	1.3718337
33.02888874266169	1.8871751	1.373745
33.047170042485604	1.893579	1.3760737
33.06545220756225	1.8880501	1.3740634
33.083735238479896	1.9049511	1.3801997
33.10201913582707	1.975969	1.4056916
33.12030390019248	2.0077212	1.4169408
33.138589532165135	2.0372627	1.4273272
33.15687603233419	2.054292	1.4332801
33.17516340128909	2.0246172	1.4228904
33.19345163961947	1.93739	1.3919016
33.211740747915215	1.9963875	1.4129357
33.23003072676643	1.9896765	1.4105589
33.248321576763466	1.9848559	1.4088491
33.266613298496885	1.9782164	1.4064908
33.28490589255747	1.9834871	1.4083632
33.30319935953626	2.0652473	1.4370968
33.32149370002451	1.9936897	1.4119807
33.339788914613706	1.8610328	1.3641968
33.358085003895575	1.8749706	1.3692956
33.376381968462034	1.9996871	1.4141029
33.39467980890529	2.0320468	1.4254988
33.41297852581774	1.94697	1.3953387
33.43127811979204	1.8411509	1.3568902
33.44957859142105	1.8878676	1.373997
33.467879941297866	1.942027	1.3935663
33.486182170015844	1.984633	1.40877
33.50448527816853	2.0029702	1.4152633
33.522789266349754	1.9326553	1.3901998
33.541094135153514	1.7814373	1.334705
33.55939988517411	1.8636453	1.3651539
33.57770651700602	1.980878	1.4074367
33.59601403124398	2.0481548	1.4311376
33.61432242848296	2.0512807	1.4322293
33.632631709318154	1.988824	1.4102567
33.650941874344994	1.9630779	1.4010988
33.66925292415916	1.9285684	1.3887291
33.68756485935654	1.891283	1.3752393
33.70587768053328	1.8159999	1.3475904
33.724191388285746	1.8107443	1.345639
33.74250598321054	1.8622838	1.3646553
33.760821465904506	1.8809212	1.3714669
33.77913783696474	1.922835	1.3866633
33.79745509698852	1.951929	1.3971145
33.815773246573414	1.8693265	1.3672332
33.8340922863172	1.768846	1.3299797
33.852412216817896	1.8164579	1.3477603
33.87073303867377	1.8923848	1.3756398
33.889054752483304	1.9809159	1.4074502
33.907377358845245	1.903716	1.3797522
33.92570085835853	1.831364	1.353279
33.94402525162239	1.9081031	1.3813411
33.96235053923627	2.0500278	1.4317918
33.980676721799824	2.0275395	1.4239169
33.999003799912984	2.0411103	1.4286743
34.01733177417592	2.0238898	1.4226348
34.03566064518901	2.0081117	1.4170786
34.0539904135529	1.8927538	1.3757739
34.07232107986846	1.9528314	1.3974375
34.090652644736785	2.0092797	1.4174906
34.108985108759235	1.9557943	1.3984972
34.12731847253742	1.9164438	1.3843569
34.14565273667313	1.9623011	1.4008216
34.16398790176847	1.9562331	1.3986541
34.18232396842574	2.0531676	1.4328878
34.20066093724749	2.0414064	1.4287779
34.21899880883651	2.0466545	1.4306133
34.23733758379583	2.0225012	1.4221467
34.25567726272874	2.0893357	1.4454534
34.27401784623872	2.089425	1.4454844
34.29235933492957	1.9339029	1.3906484
34.31070172940526	1.9159489	1.384178
34.32904503027003	2.0870197	1.4446521
34.347389238128386	2.1822531	1.4772451
34.36573435358502	2.1954515	1.4817055
34.38408037724492	2.165406	1.4715319
34.402427309713296	2.1934984	1.4810463
34.42077515159559	2.1307714	1.4597162
34.43912390349752	1.9911286	1.4110736
34.45747356602499	1.962881	1.4010285
34.47582413978423	1.9477346	1.3956126
34.49417562538163	1.9779485	1.4063956
34.51252802342388	1.995945	1.4127792
34.53088133451789	2.0240352	1.4226859
34.54923555927084	1.9849907	1.408897
34.567590698290104	1.9000653	1.3784286
34.58594675218336	1.7853146	1.3361566
34.6043037215585	1.7674373	1.32945
34.62266160702365	1.8792278	1.3708493
34.641020409187234	2.0204036	1.421409
34.65938012865785	2.0200613	1.4212886
34.677740766044394	2.0145175	1.419337
34.69610232195598	2.098855	1.4487425
34.714464797002016	2.094352	1.4471877
34.73282819179208	1.9117271	1.3826522
34.751192506936064	1.9534749	1.3976676
34.76955774304408	2.0326889	1.425724
34.7879239007265	1.9476787	1.3955926
34.80629098059391	2.0143101	1.419264
34.824658983257194	2.2915132	1.5137745
34.843027909327446	2.2633271	1.5044358
34.86139775941603	1.9532323	1.3975809
34.879768534134534	1.7224258	1.3124123
34.89814023409483	1.7368579	1.317899
34.91651285990901	1.8309171	1.3531139
34.93488641218944	1.8108305	1.345671
34.95326089154871	1.9235221	1.386911
34.97163629859967	1.9403051	1.3929484
34.99001263395542	1.7784077	1.3335695
35.00838989822934	1.6915567	1.3005986
35.02676809203499	1.8389797	1.3560898
35.04514721598624	2.1170375	1.4550043
35.063527270697215	2.2655108	1.5051614
35.081908256782256	2.214507	1.488122
35.10029017485597	2.0723865	1.4395785
35.11867302553321	1.9375005	1.3919413
35.137056809429104	1.8732231	1.3686574
35.155441527159006	1.9217153	1.3862594
35.173827179338524	1.8369322	1.3553348
35.19221376658354	1.9076235	1.3811674
35.21060128951017	2.0509338	1.4321082
35.2289897487348	2.1053207	1.4509723
35.24737914487405	2.0560753	1.4339021
35.26576947854479	1.9025326	1.3793232
35.28416075036418	1.933601	1.3905399
35.30255296094958	2.02625	1.4234641
35.32094611091867	1.7381221	1.3183786
35.33934020088932	1.4861789	1.2190894
35.35773523147969	1.5586934	1.2484764
35.3761312033082	1.7076368	1.3067658
35.394528116993506	1.8918884	1.3754593
35.41292597315452	2.155792	1.4682616
35.431324772410434	2.1857889	1.4784414
35.449724515380666	1.9591652	1.3997018
35.46812520268491	2.0520153	1.4324857
35.486526834943106	1.9340577	1.390704
35.504929412775454	1.5612851	1.249514
35.52333293680242	1.5561401	1.2474535
35.54173740764471	2.1272855	1.4585217
35.560142825923286	2.1082294	1.4519743
35.5785491922594	1.2253613	1.1069604
35.59695650727454	0.9624687	0.9810549
35.61536477159042	1.7820303	1.3349271
