0.008763373481513119	0.0	0.0
0.026290120649546365	0.0	0.0
0.043816868432600686	0.04012485	0.20031188
0.06134361724069026	0.23736857	0.48720485
0.07887036748382949	0.2272591	0.476717
0.0963971195720331	0.2847126	0.53358465
0.11392387391531617	0.16591656	0.40732858
0.1314506309236943	0.07480487	0.2735048
0.1489773910071836	0.11005606	0.33174697
0.16650415457580078	0.12587877	0.35479397
0.18403092203956356	0.14508073	0.38089463
0.20155769380849	0.19167933	0.43781197
0.2190844702925996	0.26039168	0.51028585
0.2366112519019124	0.31234697	0.5588801
0.2541380390464497	0.2787898	0.5280055
0.27166483213623416	0.20254916	0.45005462
0.28919163158128947	0.13570161	0.368377
0.3067184377916406	0.13798317	0.37146086
0.324245251177314	0.10857224	0.32950303
0.34177207214833777	0.10039097	0.31684533
0.3592989011147415	0.13260359	0.36414775
0.37682573848655654	0.16547243	0.406783
0.39435258467381573	0.17674658	0.4204124
0.41187944008655414	0.15325433	0.3914771
0.42940630513480854	0.1419891	0.3768144
0.446933180228618	0.12418606	0.35240042
0.4644600657780234	0.09795371	0.31297556
0.48198696219306775	0.09258315	0.3042748
0.49951386988379676	0.09330801	0.3054636
0.5170407892602581	0.121269315	0.34823745
0.5345677207325025	0.14844243	0.38528228
0.5520946647105822	0.15124817	0.3889064
0.5696216216045534	0.21118522	0.45954892
0.5871485918244737	0.17610413	0.41964763
0.6046755757804043	0.15534747	0.39414144
0.6222025738824094	0.120227024	0.34673768
0.6397295865405557	0.12872666	0.35878497
0.6572566141649129	0.17846778	0.42245448
0.6747836571655547	0.18656433	0.43193093
0.6923107159525568	0.1629133	0.4036252
0.7098377909359992	0.11691398	0.34192687
0.7273648825259653	0.129719	0.36016524
0.7448919911325411	0.17895591	0.4230318
0.762419117165817	0.17908534	0.42318475
0.7799462610358868	0.18221113	0.42686197
0.7974734231528482	0.19092642	0.43695128
0.8150006039268024	0.2114632	0.45985126
0.8325278037678551	0.23177347	0.48142856
0.8500550230861152	0.21450944	0.46315163
0.8675822622916969	0.2044702	0.4521838
0.8851095217947171	0.21807319	0.46698308
0.9026368020052984	0.21209149	0.46053392
0.9201641033335665	0.22622862	0.47563496
0.9376914261896523	0.20460819	0.45233637
0.9552187709836915	0.19590795	0.4426149
0.9727461381258234	0.23108329	0.48071122
0.990273528026193	0.2438881	0.4938503
1.0078009410949496	0.2455189	0.49549863
1.0253283777422473	0.26899436	0.51864666
1.0428558383782454	0.27704033	0.5263462
1.0603833234131086	0.25249067	0.5024845
1.0779108332570058	0.24941151	0.49941117
1.0954383683201119	0.28090027	0.53000027
1.112965929012607	0.36167294	0.6013925
1.1304935157446763	0.53348637	0.7304015
1.1480211289265108	0.56903714	0.7543455
1.1655487689683062	1.3432474	1.1589855
1.1830764362802655	1.5471286	1.2438363
1.200604131272596	1.9458266	1.3949289
1.2181318543555117	2.4296658	1.5587385
1.235659605939232	2.489062	1.5776762
1.253187386433982	3.9349174	1.9836626
1.270715196249994	6.150746	2.4800696
1.2882430357975057	11.770993	3.4308882
1.3057709054867608	16.993086	4.1222672
1.3232988057280106	23.068432	4.802961
1.3408267369315112	27.771378	5.2698555
1.358354699507526	30.589458	5.5307736
1.3758826938663256	34.164425	5.845034
1.3934107204181858	36.11988	6.0099816
1.410938779573391	36.667545	6.055373
1.4284668717422309	37.400677	6.115609
1.4459949973350033	36.94447	6.078196
1.4635231567620117	37.20472	6.099567
1.4810513504335687	36.69938	6.058001
1.4985795787599925	35.858025	5.988157
1.5161078421516088	35.28488	5.940108
1.5336361410187505	34.37786	5.8632636
1.5511644757717598	34.21879	5.849683
1.5686928468209842	34.575333	5.8800793
1.58622125457678	34.92452	5.909697
1.6037496994495108	36.303	6.025197
1.621278181849548	36.335148	6.0278645
1.6388067021872719	37.08474	6.089724
1.6563352608730693	36.48244	6.0400696
1.673863858317336	35.743397	5.978578
1.6913924949304753	35.44572	5.953631
1.7089211711228998	34.658867	5.887178
1.7264498873050296	33.874493	5.82018
1.7439786438872935	32.54082	5.7044563
1.7615074412801288	31.578331	5.61946
1.779036279893981	30.670103	5.5380597
1.796565160139305	29.982038	5.4755855
1.814094082426564	29.358337	5.4183335
1.8316230471662298	28.618683	5.349643
1.849152054768784	27.950891	5.2868605
1.8666811056447168	27.247437	5.2199078
1.8842102002045273	26.265705	5.1250076
1.901739338858724	25.620369	5.061657
1.9192685220178245	25.115553	5.011542
1.9367977500923557	24.37777	4.937385
1.9543270234928547	24.312927	4.9308143
1.971856342629867	23.59364	4.8573284
1.9893857079139496	23.042551	4.800266
2.006915119755667	22.168102	4.7083015
2.0244445785655945	21.67207	4.655327
2.0419740847543175	21.697887	4.658099
2.0595036387324317	21.710829	4.659488
2.0770332409105414	21.221754	4.6067076
2.094562891699263	20.7714	4.557565
2.1120925915092217	20.198162	4.4942365
2.129622340751053	19.812698	4.4511456
2.1471521398354043	187.84291	13.70558
2.1646819891729323	444.01993	21.071781
2.182211889174303	440.35068	20.984533
2.1997418402501974	452.79126	21.278893
2.2172718428113023	432.8578	20.805235
2.234801897268317	320.71875	17.908623
2.2523320040319548	17.240347	4.1521497
2.269862163512935	16.913168	4.112562
2.287392376121992	16.581182	4.072
2.304922642269869	16.20732	4.0258317
2.322452962367322	15.93642	3.9920447
2.3399833368251164	15.547931	3.9430864
2.357513766054032	15.258375	3.906197
2.3750442504648586	14.988738	3.871529
2.3925747904683963	14.700845	3.834168
2.410105386475459	14.362636	3.7898068
2.4276360388968707	13.998664	3.741479
2.445166748143469	14.031293	3.7458367
2.4626975146261025	13.669054	3.6971684
2.4802283387556323	13.383669	3.6583698
2.4977592209429305	13.045784	3.6118948
2.5152901615988825	12.716713	3.56605
2.5328211611343865	12.614846	3.5517385
2.5503522199603523	12.471512	3.5315027
2.5678833384877024	12.362012	3.5159652
2.5854145171273712	12.217044	3.4952888
2.6029457562903064	11.903273	3.4501119
2.620477056387469	11.648044	3.412923
2.6380084178298326	11.439863	3.3822868
2.655539841028383	11.249602	3.3540428
2.673071326394119	11.119849	3.3346438
2.6906028743380523	10.993015	3.3155715
2.708134485271211	10.846174	3.293353
2.7256661596046325	10.541506	3.2467685
2.743197897749369	10.412019	3.226766
2.760729700116486	10.361454	3.2189212
2.778261567117063	10.276484	3.2056954
2.795793499162193	10.232085	3.1987631
2.8133254966629817	10.106358	3.1790497
2.830857560030551	9.916764	3.1490893
2.8483896896760337	9.616598	3.101064
2.865921886010578	9.365535	3.060316
2.883454149445347	9.297585	3.049194
2.9009864803915177	9.21338	3.035355
2.91851887926028	9.170311	3.0282521
2.9360513464628384	9.094837	3.0157647
2.953583882410413	9.080808	3.0134377
2.9711164875142373	8.940895	2.990133
2.9886491621855606	8.68886	2.9476871
3.0061819068356455	8.384004	2.8955145
3.023714721875769	8.38091	2.8949802
3.041247607717225	8.311652	2.8829937
3.0587805647713213	8.214197	2.8660421
3.0763135934493806	8.272909	2.8762665
3.0938466941627407	8.252101	2.872647
3.1113798673227544	8.169169	2.858176
3.1289131133407904	7.972004	2.8234737
3.1464464326282315	7.7586412	2.7854338
3.1639798255964786	7.679094	2.7711177
3.1815132926569443	7.5798507	2.7531528
3.1990468342210603	7.5210323	2.74245
3.216580450700272	7.4598494	2.7312725
3.2341141425060416	7.3002005	2.7018883
3.251647910049847	7.157941	2.675433
3.2691817537431813	7.024636	2.650403
3.286715673997555	7.0144367	2.6484783
3.3042496712244938	6.9193215	2.6304603
3.32178374583554	6.8682423	2.6207333
3.339317898242251	6.812217	2.6100225
3.3568521288562034	6.78533	2.6048665
3.3743864380889876	6.7554097	2.599117
3.3919208263522127	6.658758	2.580457
3.4094552940575023	6.6599545	2.5806887
3.4269898416164972	6.5624886	2.5617354
3.444524469440858	6.4455757	2.5388138
3.4620591779422587	6.4460077	2.538899
3.479593967532391	6.454419	2.540555
3.4971288386229658	6.48128	2.5458357
3.5146637916257086	6.5033703	2.5501707
3.5321988269523628	6.4622536	2.5420964
3.5497339450146903	6.365948	2.523083
3.5672691462244708	6.253804	2.5007608
3.5848044309934988	6.2214084	2.494275
3.60233979973359	6.306503	2.511275
3.619875252856575	6.29637	2.5092568
3.6374107907743034	6.29899	2.5097787
3.6549464138986427	6.2048674	2.490957
3.6724821226414788	6.1656775	2.4830782
3.690017917414714	6.113995	2.4726493
3.7075537986302702	6.2083917	2.4916644
3.7250897667000857	6.252035	2.500407
3.7426258220361235	6.4120584	2.5322042
3.7601619650503553	6.638695	2.5765665
3.777698196154779	7.118999	2.6681452
3.7952345157614067	8.211507	2.8655727
3.8127709242822716	9.176533	3.0292792
3.830307422129425	11.437039	3.3818693
3.847844009714936	30.230198	5.4981995
3.8653806874508954	97.821625	9.890482
3.882917455749409	97.02161	9.849955
3.900454315022606	96.70887	9.834066
3.917991265682631	41.017887	6.404521
3.9355283081416506	10.497034	3.2399127
3.9530654428118495	8.4022255	2.8986592
3.970602670105433	7.2940664	2.700753
3.9881399904346244	6.4689636	2.5434158
4.005677404211669	6.3696465	2.5238159
4.023214911848827	6.3596153	2.5218277
4.0407525137583855	6.3723845	2.5243583
4.058290210352644	6.407689	2.5313413
4.075828002043927	6.364166	2.5227299
4.0933658892445814	6.2596145	2.5019221
4.110903872366966	6.2381225	2.4976234
4.128441951823468	6.080657	2.4658988
4.145980128026488	6.0950127	2.468808
4.163518401388452	6.0366592	2.4569614
4.181056772321807	6.098858	2.4695866
4.1985952412390155	6.0671206	2.4631526
4.216133808552567	6.0050187	2.450514
4.233672474674966	6.1177764	2.473414
4.251211240018741	6.29681	2.5093446
4.268750104996445	6.5787306	2.5649037
4.286289070020643	7.5794864	2.7530868
4.303828135503928	9.171479	3.028445
4.3213673018589125	29.360128	5.4184985
4.3389065694982305	90.45565	9.510818
4.356445938834537	165.72223	12.873315
4.3739854102805085	171.32736	13.089208
4.391524984248844	172.1978	13.122416
4.409064661152262	136.24593	11.672443
4.426604441403504	96.489105	9.822886
4.444144325415337	75.5584	8.692433
4.461684313600543	21.596882	4.6472445
4.47922440637193	22.017925	4.692326
4.496764604142329	20.420534	4.5189085
4.5143049073245916	18.452024	4.295582
4.531845316331589	16.31308	4.038945
4.5493858315762195	13.3349	3.651698
4.566926453471405	11.112215	3.333499
4.584467182430081	9.071062	3.0118203
4.602008018865218	7.967793	2.822728
4.619548963189798	7.3171787	2.7050285
4.637090015816834	6.841959	2.6157138
4.654631177159353	6.5163374	2.5527117
4.672172447630417	6.3203335	2.5140274
4.689713827643102	6.1982584	2.4896302
4.7072553176105085	5.9364586	2.4364848
4.724796917945764	5.8132095	2.4110599
4.742338629062015	5.7325535	2.3942752
4.759880451372434	5.6837435	2.3840604
4.777422385290215	5.676727	2.3825881
4.794964431228581	5.638665	2.3745873
4.812506589600768	5.7252917	2.3927581
4.830048860820047	5.648152	2.376584
4.847591245299709	5.5767274	2.3615096
4.8651337434530655	5.5321784	2.3520584
4.882676355693457	5.5529313	2.3564658
4.900219082434242	5.5341525	2.352478
4.917761924088813	5.545898	2.354973
4.935304881070575	5.5229187	2.350089
4.952847953792969	5.5406103	2.3538501
4.970391142669449	5.4680643	2.3383892
4.9879344481135055	5.432926	2.3308637
5.005477870538642	5.37134	2.317615
5.023021410358394	5.3326836	2.3092604
5.040565067986324	5.35037	2.3130867
5.05810884383601	5.331208	2.308941
5.075652738321066	5.341974	2.311271
5.09319675185512	5.3258038	2.3077703
5.110740884851836	5.3488746	2.3127635
5.128285137724894	5.349855	2.3129754
5.145829510888007	5.3299365	2.3086655
5.163374004754908	5.4055214	2.3249776
5.1809186197393595	5.406042	2.3250897
5.198463356255145	5.4000325	2.323797
5.216008214716077	5.365392	2.3163316
5.233553195535998	5.265534	2.294675
5.251098299128764	5.2093186	2.2823932
5.268643525908272	5.1921782	2.2786353
5.286188876288432	5.199163	2.2801673
5.3037343506831895	5.2390313	2.288893
5.32127994950651	5.276654	2.2970967
5.3388256731723915	5.314022	2.3052163
5.356371522094851	5.314598	2.3053412
5.373917496687938	5.2750406	2.2967458
5.391463597365729	5.2523055	2.291791
5.40900982454232	5.1775613	2.2754254
5.426556178631843	5.126017	2.264071
5.444102660048449	5.0884614	2.2557619
5.4616492692063225	5.0791354	2.2536938
5.479196006519669	5.0852036	2.2550397
5.496742872402727	5.0797334	2.2538264
5.514289867269756	5.112358	2.2610524
5.531836991535049	5.1910806	2.2783942
5.549384245612924	5.2140656	2.283433
5.566931629917724	5.228469	2.2865846
5.584479144863822	5.2126684	2.2831268
5.6020267908656205	5.220182	2.2847717
5.619574568337545	5.166313	2.2729526
5.637122477694054	5.098508	2.2579875
5.654670519349629	5.143272	2.2678783
5.672218693718784	5.152047	2.269812
5.689767001216059	5.1959667	2.2794664
5.707315442256021	5.139758	2.2671034
5.724864017253266	5.036624	2.2442424
5.7424127266224225	5.0595226	2.2493382
5.75996157077814	5.0854306	2.25509
5.777510550135105	5.1025286	2.2588778
5.795059665108022	5.074573	2.2526813
5.812608916111639	5.1339464	2.2658215
5.830158303560715	5.2493258	2.2911408
5.847707827870055	5.2247853	2.285779
5.86525748945448	5.28576	2.299078
5.8828072887288485	5.4053583	2.3249426
5.900357226108044	5.529119	2.3514078
5.917907302006979	5.617458	2.3701177
5.9354575168406	6.190362	2.4880438
5.9530078710238765	6.7627764	2.600534
5.970558364971812	7.316361	2.7048771
5.988108999099438	7.699143	2.774733
6.005659773821818	8.224208	2.867788
6.023210689554039	7.97318	2.823682
6.040761746711227	8.376856	2.89428
6.058312945708531	7.6639657	2.7683868
6.075864286961132	7.266474	2.6956398
6.093415770884244	6.5810704	2.5653596
6.1109673978931065	6.0606327	2.4618351
6.128519168402993	5.3999314	2.3237753
6.146071082829204	5.2478642	2.2908218
6.163623141587075	5.1171756	2.2621174
6.181175345091969	5.147189	2.2687418
6.198727693759281	5.1114326	2.2608478
6.216280188004435	5.0715747	2.2520156
6.233832828242885	5.0657525	2.2507226
6.251385614890126	5.0952497	2.257266
6.268938548361669	5.079953	2.2538753
6.286491629073067	5.0317965	2.2431667
6.304044857439898	4.995249	2.2350054
6.321598233877777	4.9173126	2.2175014
6.339151758802344	4.8552423	2.2034614
6.356705432629277	4.9056473	2.2148695
6.37425925577428	4.9829836	2.2322598
6.391813228653095	5.010538	2.238423
6.409367351681486	4.953784	2.2257097
6.426921625275259	4.939709	2.2225456
6.44447604985025	4.945827	2.2239215
6.46203062582232	4.9754148	2.2305639
6.47958535360737	4.952575	2.225438
6.497140233621328	4.9418445	2.223026
6.514695266280161	4.968747	2.2290688
6.532250451999859	5.0123496	2.2388277
6.549805791196454	4.9583344	2.2267318
6.567361284286002	4.916631	2.2173479
6.584916931684597	4.9373274	2.2220097
6.602472733808367	4.941183	2.2228773
6.6200286910734665	4.95915	2.226915
6.637584803896092	4.9390926	2.2224069
6.655141072692462	4.9296327	2.2202775
6.672697497878842	4.9286556	2.2200575
6.690254079871514	4.9247065	2.219168
6.707810819086808	4.942597	2.2231953
6.725367715941078	4.945643	2.22388
6.742924770850719	4.9209776	2.2183278
6.760481984232151	4.9332643	2.2210953
6.778039356501836	4.949827	2.2248206
6.795596888076266	4.9101524	2.2158864
6.813154579371963	4.9453034	2.2238038
6.830712430805492	4.9933977	2.2345912
6.84827044279344	5.076571	2.2531247
6.865828615752445	5.048337	2.2468505
6.883386950099159	4.998904	2.235823
6.900945446250287	4.962931	2.2277637
6.918504104622553	4.9671884	2.228719
6.936062925632727	5.0300884	2.242786
6.953621909697607	4.981156	2.2318504
6.971181057234028	4.9738035	2.2302027
6.988740368658859	5.0337906	2.243611
7.006299844389007	5.1347623	2.2660015
7.023859484841407	5.3021197	2.3026333
7.041419290433036	5.327862	2.308216
7.058979261580902	5.460139	2.336694
7.0765393987020495	5.643679	2.3756428
7.094099702213559	5.9379964	2.4368005
7.111660172532549	6.2320414	2.4964056
7.129220810076164	6.5998416	2.5690157
7.146781615261595	7.1357393	2.6712804
7.16434258850606	7.44486	2.728527
7.181903730226821	7.8695755	2.8052764
7.1994650408411704	8.091836	2.8446152
7.217026520766437	8.2834425	2.878097
7.234588170419983	8.414177	2.9007201
7.252149990219215	8.31936	2.88433
7.269711980581568	8.1665535	2.8577182
7.2872741419245175	7.948568	2.8193204
7.304836474665574	7.5527825	2.7482326
7.322398979222286	7.195529	2.6824484
7.339961656012233	6.98608	2.6431193
7.357524505453039	6.7446704	2.5970504
7.375087527962357	6.5294557	2.55528
7.392650723957886	6.2418385	2.498367
7.410214093857353	5.8868723	2.4262877
7.427777638078528	5.5962343	2.365636
7.445341357039213	5.427318	2.3296604
7.4629052511572525	5.2654963	2.294667
7.480469320850524	5.253605	2.2920744
7.498033566536948	5.219465	2.2846148
7.5155979886344735	5.206854	2.2818532
7.5331625875610975	5.1640325	2.2724507
7.550727363734844	5.1581697	2.2711604
7.568292317573788	5.1381154	2.266741
7.585857449496025	5.0946674	2.257137
7.603422759919705	5.0097327	2.2382433
7.620988249263007	5.080573	2.2540126
7.638553917944147	5.1331067	2.265636
7.656119766381391	5.1744456	2.2747407
7.673685794993023	5.156581	2.2708106
7.691252004197388	5.146434	2.2685752
7.70881839441285	5.196242	2.2795267
7.726384966057826	5.2354736	2.2881157
7.743951719550762	5.236634	2.2883692
7.761518655310149	5.2255445	2.285945
7.779085773754511	5.2067676	2.2818344
7.796653075302419	5.2235885	2.2855172
7.814220560372475	5.215371	2.2837188
7.831788229383323	5.2428765	2.289733
7.8493560827536495	5.234811	2.2879708
7.866924120902174	5.2655807	2.2946854
7.884492344247663	5.297985	2.3017352
7.9020607532089135	5.3018813	2.3025815
7.919629348204771	5.2909865	2.3002145
7.937198129654115	5.312289	2.3048403
7.954767097975865	5.3189974	2.3062952
7.972336253588986	5.3566074	2.3144345
7.989905596912472	5.330428	2.308772
8.007475128365371	5.395138	2.3227437
8.025044848366756	5.3697433	2.3172708
8.042614757335754	5.5747647	2.361094
8.060184855691523	5.6125755	2.3690875
8.07775514385327	5.805236	2.4094057
8.095325622240228	5.8009067	2.408507
8.112896291271687	5.752055	2.3983443
8.130467151366968	5.7145195	2.390506
8.148038202945436	5.7464647	2.3971784
8.165609446426497	5.809464	2.4102829
8.183180882229594	5.933257	2.4358277
8.200752510774217	5.964097	2.44215
8.218324332479893	5.981249	2.4456592
8.235896347766193	5.933582	2.4358945
8.253468557052724	5.977123	2.4448154
8.27104096075914	5.9826636	2.4459484
8.288613559305137	6.0480947	2.4592874
8.306186353110448	6.0490646	2.4594846
8.32375934259485	6.0262485	2.4548419
8.341332528178162	6.010205	2.451572
8.358905910280246	6.064013	2.4625218
8.376479489321003	6.1184278	2.4735456
8.394053265720377	6.174208	2.4847953
8.411627239898356	6.189396	2.4878497
8.42920141227497	6.227496	2.495495
8.44677578327029	6.26716	2.5034297
8.464350353304427	6.1684346	2.4836333
8.48192512279754	6.0688715	2.463508
8.499500092169827	6.055115	2.4607143
8.51707526184153	6.115221	2.4728973
8.534650632232934	6.1287007	2.4756212
8.552226203764365	6.112195	2.4722853
8.569801976856192	6.0404253	2.4577277
8.587377951928834	6.06063	2.4618347
8.60495412940274	6.087278	2.467241
8.622530509698416	6.2289925	2.495795
8.6401070932364	6.3092947	2.511831
8.657683880437283	6.381849	2.5262322
8.675260871721695	6.509266	2.5513263
8.692838067510303	6.741989	2.596534
8.710415468223834	6.942258	2.6348164
8.727993074283043	7.055663	2.6562498
8.745570886108737	7.0004473	2.6458359
8.763148904121765	7.0322604	2.651841
8.78072712874302	7.017256	2.6490104
8.798305560393441	7.2580724	2.694081
8.815884199494006	7.38918	2.7183046
8.833463046465745	7.600671	2.7569313
8.851042101729728	7.739159	2.7819345
8.86862136570707	8.098875	2.8458521
8.886200838818924	8.24604	2.871592
8.903780521486505	8.280841	2.877645
8.921360414131055	8.458636	2.9083736
8.938940517173874	8.578394	2.9288895
8.956520831036297	8.732795	2.9551303
8.97410135613971	9.040762	3.0067859
8.99168209290554	9.21849	3.0361965
9.009263041755265	9.433139	3.0713415
9.026844203110405	9.639033	3.1046793
9.044425577392525	9.797786	3.1301415
9.062007165023239	9.862433	3.1404512
9.079588966424197	10.058587	3.1715276
9.097170982017108	10.087207	3.1760364
9.11475321222372	11.089961	3.3301594
9.132335657465825	12.102746	3.4789002
9.149918318165264	12.244287	3.4991837
9.167501194743924	12.767535	3.5731688
9.18508428762374	12.405076	3.522084
9.202667597226693	12.414516	3.523424
9.220251123974803	12.152578	3.486055
9.237834868290143	11.853767	3.44293
9.255418830594836	11.62985	3.4102566
9.273003011311046	11.1123295	3.3335161
9.290587410860985	10.86934	3.296868
9.308172029666911	10.221276	3.197073
9.32575686815113	9.963566	3.1565115
9.343341926735997	8.715438	2.952192
9.360927205843916	8.42331	2.902294
9.378512705897327	8.197826	2.8631847
9.396098427318728	8.018719	2.8317342
9.413684370530664	7.980297	2.8249419
9.431270535955722	7.958322	2.82105
9.448856924016539	7.8793945	2.807026
9.466443535135806	7.770614	2.7875822
9.484030369736251	7.7606325	2.7857912
9.501617428240658	7.7764215	2.7886236
9.519204711071852	7.8619595	2.8039186
9.536792218652714	7.8579564	2.8032048
9.55437995140617	7.828269	2.7979045
9.571967909755191	7.765717	2.7867036
9.589556094122802	7.7568316	2.7851088
9.60714450493207	7.8242893	2.797193
9.624733142606116	7.894408	2.809699
9.642322007568108	7.912318	2.8128843
9.659911100241267	7.851721	2.8020923
9.677500421048851	7.828563	2.797957
9.695089970414175	7.89621	2.8100195
9.712679748760609	7.9573355	2.820875
9.730269756511557	8.006044	2.8294954
9.747859994090492	8.049651	2.8371906
9.765450461920915	8.0606785	2.8391335
9.78304116042639	8.159473	2.8564792
9.800632090030527	8.202134	2.863937
9.81822325115699	8.292974	2.8797524
9.835814644229481	8.303292	2.8815434
9.853406269671762	8.304526	2.8817575
9.870998127907646	8.238735	2.8703196
9.888590219360985	8.233895	2.8694766
9.906182544455698	8.242508	2.870977
9.923775103615734	8.292019	2.8795867
9.941367897265108	8.2709875	2.8759325
9.958960925827878	8.244353	2.871298
9.97655418972816	8.206815	2.864754
9.994147689390106	8.218188	2.8667383
10.011741425237934	8.196895	2.8630219
10.029335397695904	8.1506605	2.8549361
10.04692960718833	8.107965	2.8474488
10.06452405413958	8.038835	2.8352838
10.082118738974064	8.076234	2.8418715
10.099713662116246	8.049221	2.8371148
10.117308823990651	8.139989	2.8530667
10.134904225021844	8.180328	2.8601274
10.152499865634445	8.169821	2.8582897
10.170095746253125	8.206405	2.8646822
10.18769186730261	8.216507	2.866445
10.205288229207675	8.180607	2.860176
10.222884832393145	8.153464	2.8554273
10.2404816772839	8.066464	2.8401523
10.258078764304868	7.9996867	2.8283718
10.275676093881035	7.947844	2.8191922
10.293273666437438	7.8861275	2.808225
10.310871482399158	7.958812	2.8211367
10.32846954219134	8.031529	2.8339953
10.346067846239173	8.077186	2.842039
10.363666394967908	8.046388	2.8366156
10.38126518880283	8.011816	2.8305151
10.398864228169298	8.0520315	2.8376102
10.416463513492713	8.157396	2.8561156
10.434063045198531	8.171835	2.858642
10.451662823712262	8.134356	2.8520792
10.469262849459467	8.052968	2.8377752
10.486863122865758	7.969829	2.8230886
10.504463644356806	7.987658	2.8262446
10.522064414358338	7.940662	2.817918
10.539665433296118	7.953188	2.8201396
10.557266701595987	7.850141	2.8018103
10.574868219683818	7.6926494	2.7735627
10.592469987985552	7.5968075	2.7562306
10.610072006927185	7.4759045	2.73421
10.627674276934751	7.4809914	2.73514
10.64527679843435	7.3913217	2.7186985
10.662879571852143	7.28896	2.6998074
10.680482597614331	7.104468	2.6654208
10.698085876147173	7.000975	2.6459355
10.715689407876988	6.8737454	2.6217828
10.733293193230146	6.8174567	2.611026
10.750897232633072	6.7278914	2.593818
10.76850152651225	6.622637	2.5734484
10.786106075294207	6.543193	2.5579665
10.803710879405534	6.444227	2.5385482
10.821315939272877	6.3302116	2.5159912
10.83892125532294	6.3592677	2.5217588
10.856526827982472	6.286399	2.5072691
10.874132657678285	6.317509	2.5134656
10.891738744837243	6.225523	2.4950998
10.909345089886271	6.188552	2.48768
10.926951693252343	6.0872073	2.4672267
10.944558555362494	6.023296	2.4542403
10.96216567664381	5.9233613	2.4337957
10.979773057523436	5.8373837	2.4160678
10.997380698428573	5.7717032	2.402437
11.014988599786477	5.6872325	2.3847919
11.032596762024461	5.6418924	2.3752668
11.050205185569892	5.5872884	2.3637445
11.067813870850198	5.587308	2.3637488
11.085422818292859	5.562192	2.35843
11.10303202832541	5.4710317	2.3390236
11.120641501375454	5.4082217	2.3255584
11.138251237870636	5.3455873	2.3120525
11.155861238238671	5.2788687	2.2975788
11.173471502907317	5.201393	2.2806563
11.191082032304402	5.088674	2.255809
11.208692826857805	5.044706	2.2460423
11.226303886995465	5.039725	2.2449331
11.243915213145371	5.0024233	2.2366097
11.261526805735578	4.9343944	2.2213497
11.279138665194196	4.853708	2.2031133
11.296750791949393	4.78182	2.1867373
11.314363186429393	4.768275	2.1836379
11.331975849062479	4.75903	2.18152
11.34958878027699	4.753666	2.1802902
11.36720198050133	4.740038	2.177163
11.384815450163948	4.606501	2.146276
11.402429189693366	4.519992	2.1260273
11.420043199518153	4.4290724	2.104536
11.437657480066942	63.340126	7.958651
11.455272031768422	85.0777	9.223757
11.472886855051353	107.48673	10.36758
11.490501950344528	99.087395	9.954266
11.508117318076819	84.42851	9.1884985
11.52573295867715	45.76687	6.7651215
11.543348872574514	4.030577	2.0076296
11.560965060197946	3.969747	1.9924225
11.57858152197655	3.9426641	1.9856143
11.59619825833949	3.9646182	1.9911349
11.613815269715985	3.9734378	1.9933484
11.631432556535323	38.515972	6.206124
11.649050119226837	83.06413	9.113953
11.666667958219929	93.452965	9.667108
11.68428607394406	107.696304	10.377683
11.701904466828756	82.52579	9.084371
11.719523137303586	65.36294	8.084735
11.737142085798196	4.5489135	2.1328182
11.754761312742286	3.619324	1.9024521
11.772380818565619	3.580424	1.8922008
11.790000603698015	3.5933225	1.8956062
11.80762066856935	3.6237326	1.9036103
11.825241013609572	3.6027043	1.8980792
11.842861639248683	3.583972	1.8931382
11.860482545916748	3.5015159	1.8712338
11.878103734043883	3.466541	1.8618649
11.895725204060282	3.4125981	1.8473219
11.91334695639619	3.419464	1.8491793
11.930968991481919	3.4408445	1.8549514
11.948591309747824	3.4542425	1.8585593
11.966213911624347	3.4382176	1.8542432
11.98383679754198	3.3404982	1.827703
12.001459967931268	3.2936015	1.8148283
12.019083423222835	3.245213	1.8014475
12.036707163847352	3.2009065	1.7891078
12.05433119023556	3.1617146	1.7781211
12.071955502818259	3.1340554	1.7703264
12.089580102026313	3.1537461	1.775879
12.107204988290643	3.1542249	1.7760137
12.12483016204224	3.11916	1.7661144
12.142455623712152	3.102999	1.7615331
12.16008137373149	3.0925379	1.7585613
12.177707412531431	3.0942075	1.759036
12.19533374054321	3.0358243	1.7423617
12.212960358198126	2.9725711	1.7241145
12.230587265927545	3.0055304	1.7336465
12.248214464162889	3.0130746	1.735821
12.265841953335649	3.0335839	1.7417186
12.283469733877375	3.0317254	1.7411851
12.301097806219685	3.0332267	1.7416161
12.31872617079425	3.0445201	1.7448553
12.336354828032825	2.9850266	1.727723
12.353983778367205	2.919414	1.7086293
12.371613022229262	2.8535225	1.6892372
12.389242560050928	2.8256397	1.6809639
12.406872392264201	2.8014615	1.6737567
12.424502519301143	2.80381	1.674458
12.442132941593874	2.8184345	1.6788194
12.459763659574586	2.8374858	1.6844839
12.477394673675532	2.8440168	1.6864213
12.49502598432903	2.8616304	1.6916355
12.51265759196746	2.837947	1.6846207
12.530289497023267	2.8102565	1.676382
12.547921699928967	2.7933679	1.6713371
12.565554201117134	2.7710295	1.6646409
12.583187001020404	2.7714775	1.6647755
12.600820100071486	2.772398	1.6650519
12.618453498703152	2.766008	1.663132
12.636087197348235	2.7329228	1.6531554
12.65372119643964	2.7317448	1.6527991
12.671355496410326	2.7607849	1.661561
12.68899009769333	2.839052	1.6849487
12.706625000721749	2.8234508	1.6803128
12.724260205928752	2.82383	1.6804255
12.741895713747551	2.8099368	1.6762866
12.759531524611454	2.9046683	1.7043087
12.777167638953818	2.9681547	1.7228333
12.794804057208072	2.9740589	1.724546
12.812440779807702	2.9850247	1.7277224
12.830077807186271	3.1555839	1.7763963
12.847715139777405	3.1804762	1.783389
12.865352778014795	3.4198916	1.8492949
12.882990722332197	3.5213134	1.8765163
12.90062897316344	3.6039138	1.8983977
12.918267530942412	3.694095	1.9220028
12.935906396103071	3.5843146	1.8932287
12.953545569079449	3.7600946	1.9390963
12.971185050305628	3.5906265	1.8948948
12.988824840215775	3.5549426	1.8854555
13.006464939244115	3.5366297	1.880593
13.024105347824943	3.3586414	1.8326596
13.041746066392617	3.4708424	1.8630197
13.05938709538157	3.2983305	1.8161306
13.077028435226296	3.334672	1.8261085
13.094670086361363	3.2496352	1.8026744
13.112312049221401	3.135234	1.7706592
13.129954324241112	3.0171719	1.7370008
13.147596911855258	2.830718	1.6824738
13.165239812498685	2.8331368	1.6831925
13.182883026606293	2.7518535	1.6588712
13.200526554613058	2.7184927	1.6487852
13.218170396954017	2.698341	1.6426628
13.235814554064284	2.7135255	1.6472782
13.253459026379034	2.7276886	1.6515715
13.271103814333523	2.6976266	1.6424453
13.288748918363058	2.6730542	1.6349478
13.306394338903031	2.658703	1.630553
13.32404007638889	2.6187887	1.6182672
13.341686131256164	2.6409829	1.6251101
13.359332503940449	2.6209755	1.6189427
13.376979194877402	2.6594236	1.6307739
13.394626204502751	2.7021155	1.6438112
13.412273533252307	2.7228227	1.6500977
13.429921181561937	2.6764143	1.635975
13.447569149867581	2.6801746	1.6371238
13.465217438605247	2.6957214	1.6418653
13.482866048211022	2.710361	1.6463174
13.500514979121052	2.6997313	1.643086
13.518164231771568	2.6886418	1.6397078
13.535813806598844	2.6680396	1.6334134
13.553463704039254	2.6707628	1.6342468
13.571113924529229	2.645849	1.6266066
13.588764468505275	2.6389885	1.6244963
13.606415336403956	2.6738443	1.6351894
13.624066528661917	2.731958	1.6528635
13.641718045715882	2.778714	1.6669475
13.659369888002635	2.7917902	1.6708652
13.67702205595903	2.8341432	1.6834913
13.694674550021993	2.907259	1.7050686
13.712327370628532	2.9563742	1.719411
13.729980518215713	3.067271	1.7513626
13.747633993220681	3.1514785	1.7752404
13.765287796080647	3.2192485	1.7942264
13.7829419272329	3.2674117	1.8075984
13.800596387114801	3.3093514	1.8191622
13.818251176163775	3.349484	1.8301595
13.835906294817324	3.3806875	1.8386645
13.853561743513023	3.3760564	1.8374048
13.871217522688525	3.424285	1.8504823
13.888873632781538	3.454691	1.8586799
13.906530074229858	3.4753182	1.8642205
13.92418684747135	3.4553032	1.8588446
13.941843952943948	3.439493	1.854587
13.959501391085665	3.4322963	1.8526458
13.977159162334578	3.3931468	1.8420496
13.994817267128846	3.3904803	1.8413256
14.012475705906693	3.2774658	1.8103772
14.030134479106424	3.2027779	1.7896307
14.047793587166414	3.1094937	1.7633756
14.065453030525108	3.055859	1.7481016
14.083112809621026	2.9689727	1.7230707
14.100772924892766	2.9332712	1.7126795
14.118433376778997	2.9094918	1.7057233
14.136094165718458	2.8506026	1.6883727
14.153755292149969	2.8073237	1.675507
14.171416756512416	2.7472582	1.6574855
14.189078559244768	2.675991	1.6358457
14.20674070078606	2.5985126	1.6119903
14.224403181575408	2.5777059	1.6055236
14.242066002051999	2.545	1.5953057
14.259729162655093	2.495512	1.579719
14.277392663824022	2.4532297	1.5662789
14.295056505998208	2.433413	1.5599401
14.312720689617128	2.4039817	1.5504779
14.330385215120348	2.3944004	1.547385
14.348050082947497	2.3953142	1.5476803
14.3657152935383	2.3720365	1.5401417
14.383380847332528	2.3689325	1.5391337
14.401046744770051	2.35757	1.5354381
14.418712986290798	2.3918636	1.546565
14.436379572334793	2.3997123	1.5491005
14.454046503342123	2.408188	1.5518337
14.471713779752946	2.3822794	1.5434635
14.489381402007504	2.3867314	1.544905
14.507049370546113	2.3816197	1.5432497
14.524717685809168	2.3706658	1.5396967
14.542386348237134	2.3722606	1.5402144
14.560055358270553	2.3707032	1.5397089
14.577724716350051	2.429742	1.558763
14.595394422916325	2.422766	1.5565237
14.61306447841015	2.4480577	1.564627
14.63073488327237	2.424373	1.5570397
14.648405637943917	2.4744892	1.573051
14.6660767428658	2.4621568	1.5691261
14.683748198479094	2.5044048	1.5825311
14.701420005224954	2.5233977	1.5885206
14.719092163544628	2.5745912	1.6045532
14.73676467387942	2.6285117	1.6212685
14.754437536670727	2.6942997	1.6414322
14.772110752360014	2.723378	1.650266
14.78978432138882	2.7118137	1.6467586
14.807458244198777	2.705314	1.6447839
14.82513252123159	2.6943028	1.6414331
14.842807152929028	2.7016459	1.6436684
14.860482139732962	2.6829891	1.6379832
14.87815748208531	2.6762848	1.6359354
14.8958331804281	2.6679237	1.633378
14.91350923520342	2.6492677	1.627657
14.931185646853438	2.6719098	1.6345978
14.948862415820408	2.642257	1.6255021
14.966539542546656	2.624772	1.6201148
14.98421702747459	2.571899	1.6037141
15.001894871046696	2.588249	1.6088036
15.019573073705542	2.6471486	1.627006
15.037251635893766	2.6821682	1.6377326
15.054930558054092	2.6693199	1.6338053
15.072609840629323	2.6616633	1.6314604
15.090289484062351	2.7664561	1.6632667
15.107969488796124	2.8975632	1.7022231
15.125649855273691	3.1351662	1.77064
15.14333058393817	3.5130079	1.874302
15.161011675232768	4.067637	2.0168383
15.17869312960076	4.686049	2.1647284
15.196374947485506	5.3592267	2.3150003
15.214057129330447	6.692158	2.5869205
15.231739675579114	8.872716	2.9787104
15.249422586675102	13.5602255	3.6824212
15.267105863062092	18.152746	4.260604
15.284789505183847	25.325958	5.0324903
15.302473513484218	30.337383	5.5079384
15.320157888407127	34.522808	5.8756113
15.337842630396578	33.467945	5.7851486
15.355527739896656	30.593107	5.5311036
15.37321321735153	23.90762	4.8895416
15.39089906320545	16.267502	4.033299
15.408585277902748	10.36075	3.218812
15.42627186188783	6.3242235	2.5148008
15.443958815605198	4.5555997	2.134385
15.461646139499424	3.7937849	1.947764
15.479333834015168	3.337104	1.8267742
15.497021899597165	3.0271735	1.7398775
15.514710336690234	2.8292468	1.6820365
15.53239914573928	2.7154074	1.6478493
15.550088327189297	2.598504	1.6119876
15.567777881485336	2.5170603	1.5865246
15.58546780907256	2.4882588	1.5774215
15.6031581103962	2.5073457	1.5834601
15.620848785901568	2.518189	1.5868802
15.638539836034063	2.4941761	1.5792961
15.656231261239173	2.4339895	1.5601249
15.673923061962451	2.4207842	1.555887
15.691615238649552	2.4517956	1.565821
15.709307791746202	2.4789608	1.5744716
15.727000721698221	2.4501817	1.5653056
15.744694028951498	2.3999612	1.5491809
15.76238771395202	2.41088	1.5527009
15.780081777145844	2.4144812	1.5538601
15.797776218979125	2.402972	1.5501523
15.815471039898094	2.3786678	1.5422931
15.833166240349064	2.3727775	1.5403823
15.850861820778437	2.393109	1.5469677
15.868557781632699	2.4555707	1.567026
15.886254123358412	2.4701488	1.5716707
15.903950846402232	2.5137289	1.5854744
15.921647951210897	2.5126333	1.5851288
15.939345438231225	2.5359817	1.5924766
15.957043307910133	2.5276704	1.5898649
15.974741560694602	2.5128932	1.5852108
15.992440197031714	2.5000267	1.5811473
16.01013921736862	2.4811954	1.5751811
16.02783862215259	2.4674845	1.5708228
16.045538411830933	2.4902484	1.5780522
16.06323858685107	2.510179	1.5843544
16.080939147660512	2.5182095	1.5868868
16.09864009470684	2.4560497	1.5671788
16.11634142843774	2.4166427	1.5545554
16.134043149300954	2.4014366	1.5496569
16.15174525774433	2.3972924	1.5483192
16.169447754215817	2.4231474	1.5566462
16.18715063916342	2.4097812	1.552347
16.204853913035244	2.411155	1.5527894
16.222557576279478	2.392575	1.5467951
16.240261629344403	22.39248	4.7320695
16.257966072678386	42.9757	6.5555854
16.275670906729868	38.108776	6.1732306
16.293376131947387	2.5519497	1.5974823
16.31108174877957	2.5366373	1.5926825
16.328787757675133	2.5372703	1.5928811
16.34649415908287	2.5304236	1.5907305
16.364200953451657	2.5489106	1.5965308
16.38190814123048	2.5889347	1.6090167
16.39961572286839	2.6566668	1.6299285
16.41732369881455	2.688144	1.639556
16.43503206951817	2.7069445	1.6452794
16.45274083542859	2.705473	1.6448323
16.47044999699522	2.7660894	1.6631565
16.488159554667558	2.817752	1.678616
16.505869508895184	2.889116	1.69974
16.523579860127786	2.9254622	1.7103983
16.541290608815117	2.9559789	1.7192961
16.559001755407035	2.993219	1.7300922
16.57671330035348	3.094794	1.7592027
16.59442524410448	3.1927001	1.7868129
16.61213758711015	3.3967962	1.84304
16.629850329820705	3.4919984	1.868689
16.647563472686436	3.5373528	1.8807851
16.665277016157724	3.41908	1.8490754
16.682990960685053	3.3936656	1.8421904
16.70070530671898	3.454719	1.8586874
16.718420054710155	3.5225866	1.8768555
16.736135205109335	3.6050384	1.8986939
16.753850758367335	3.6369903	1.9070895
16.771566714935087	3.708684	1.9257944
16.789283075263597	3.7302678	1.9313902
16.80699983980398	3.7793055	1.9440436
16.82471700900741	3.828061	1.9565432
16.84243458332518	3.9146767	1.9785541
16.860152563208665	4.0132914	2.00332
16.87787094910932	4.0779376	2.0193903
16.89558974147871	4.1008368	2.0250523
16.913308940768466	4.116595	2.0289392
16.931028547430333	4.167977	2.0415623
16.94874856191613	4.220769	2.054451
16.966468984677785	4.219956	2.054253
16.98418981616729	4.291542	2.0716038
17.00191105683676	4.330982	2.0811012
17.019632707138374	4.417668	2.101825
17.03735476752442	4.469362	2.1140866
17.05507723844728	4.544525	2.1317892
17.072800120359403	4.5598135	2.135372
17.090523413713353	4.5846024	2.1411684
17.108247118961785	4.6355743	2.1530385
17.125971236557437	4.6542172	2.1573634
17.143695766953133	4.663151	2.159433
17.161420710601806	4.69468	2.166721
17.179146067956477	4.687288	2.1650145
17.19687183947025	4.6832943	2.164092
17.21459802559634	4.621469	2.1497602
17.232324626788028	4.593304	2.1431994
17.25005164349871	4.578195	2.1396718
17.267779076181863	4.6184993	2.1490693
17.285506925291074	4.655524	2.1576662
17.30323519127999	4.646463	2.1555655
17.320963874602384	4.63217	2.1522477
17.33869297571211	4.5891685	2.1422346
17.356422495063114	4.5332117	2.129134
17.37415243310944	4.514568	2.1247513
17.391882790305218	4.5428443	2.1313949
17.40961356710468	4.5486693	2.132761
17.42734476396215	4.5640864	2.1363723
17.445076381332044	4.5889077	2.1421735
17.462808419668868	4.618628	2.1490993
17.48054087942723	4.6757607	2.1623507
17.498273761061835	4.785154	2.1874995
17.51600706502747	5.119932	2.2627268
17.533740791779024	5.7209287	2.3918462
17.551474941771485	6.62639	2.5741775
17.56920951545993	8.547191	2.923558
17.586944513299528	9.858388	3.139807
17.60467993574556	12.867552	3.587137
17.622415783253373	15.618606	3.952038
17.64015205627843	18.562685	4.3084435
17.657888755276293	21.024042	4.585198
17.675625880702604	22.564375	4.7501974
17.69336343301311	21.028034	4.5856333
17.71110141266366	18.821331	4.338356
17.728839820110178	15.930597	3.9913151
17.746578655808705	12.647341	3.55631
17.764317920215372	10.449903	3.232631
17.7820576137864	8.785063	2.9639606
17.79979773697811	7.4256663	2.7250075
17.81753829024692	6.0997887	2.469775
17.835279274049356	5.299033	2.3019629
17.85302068884201	4.521869	2.1264687
17.870762535081607	4.1225953	2.0304174
17.888504813224934	3.8627331	1.9653838
17.90624752372891	3.7538035	1.9374735
17.923990667050536	3.6340184	1.9063102
17.941734243646895	3.5653584	1.8882157
17.959478253975185	3.5241601	1.8772746
17.9772226984927	3.484861	1.8667783
17.994967577656833	3.413417	1.8475435
18.01271289192506	3.3137083	1.8203593
18.030458641754965	3.2941337	1.8149748
18.04820482760425	3.312746	1.8200951
18.06595144993067	3.3277636	1.8242159
18.083698509192125	3.276629	1.8101461
18.101446005846576	3.2434351	1.800954
18.119193940352105	3.170464	1.7805797
18.136942313166887	3.150518	1.7749698
18.1546911247492	3.1336994	1.7702258
18.1724403755574	3.1058414	1.7623397
18.19019006604997	3.0516894	1.7469085
18.207940196685467	2.9959345	1.7308768
18.225690767922575	3.0283904	1.7402271
18.243441780220046	3.057213	1.7484888
18.261193234036764	3.0479834	1.7458475
18.278945129831676	3.0221875	1.738444
18.29669746806386	3.0031672	1.7329649
18.314450249192483	3.0108247	1.7351729
18.3322034736768	3.0078716	1.7343217
18.349957141976184	3.0196917	1.737726
18.3677112545501	2.9986224	1.7316531
18.385465811858108	3.00227	1.732706
18.403220814359884	3.0477731	1.7457873
18.420976262515172	3.1246846	1.7676778
18.43873215678387	3.153996	1.7759494
18.456488497625923	3.1640956	1.7787905
18.474245285501407	3.2012284	1.7891977
18.492002520870486	3.2368515	1.7991252
18.50976020419343	3.2941775	1.814987
18.527518335930615	3.606107	1.8989753
18.545276916542516	4.1472898	2.0364895
18.563035946489688	4.3306923	2.0810316
18.580795426232832	4.75493	2.1805801
18.598555356232698	4.6883974	2.1652708
18.616315736950185	4.9682226	2.228951
18.63407656884626	4.600419	2.1448588
18.65183785238201	4.7679753	2.1835694
18.669599588018617	4.575624	2.1390707
18.68736177621737	4.606815	2.1463492
18.705124417439652	4.6288095	2.1514668
18.72288751214696	4.4760647	2.1156712
18.740651060800886	4.6279616	2.1512697
18.758415063863115	4.348158	2.0852237
18.77617952179546	4.496741	2.120552
18.793944435059814	4.2350254	2.0579178
18.811709804118184	4.2237697	2.0551813
18.829475629432675	4.180113	2.0445325
18.8472419114655	3.9475076	1.9868336
18.86500865067897	4.038529	2.0096092
18.88277584753551	3.7175424	1.928093
18.90054350249763	3.7463446	1.9355476
18.918311616027957	3.4400675	1.8547419
18.936080188589226	3.3218951	1.8226067
18.953849220644265	3.033568	1.7417141
18.971618712656007	2.879626	1.6969461
18.9893886650875	2.8552725	1.6897552
19.007159078401887	8.031073	2.8339148
19.024929953062408	32.852142	5.731679
19.042701289532435	32.806335	5.7276816
19.060473088275405	25.351398	5.035017
19.07824534975489	2.6360795	1.6236008
19.096018074434568	2.624824	1.6201309
19.113791262778197	2.6305346	1.6218923
19.13156491524966	2.6057942	1.6142472
19.149339032312945	2.5964773	1.6113589
19.167113614432136	2.5218923	1.5880467
19.184888662071433	2.5116794	1.5848279
19.202664175695123	2.5331438	1.5915853
19.220440155767623	2.546823	1.5958769
19.238216602753447	2.5493574	1.5966707
19.2559935171172	2.553159	1.5978608
19.27377089932361	2.5226612	1.5882888
19.291548749837514	2.4810266	1.5751275
19.309327069123835	2.4395025	1.5618907
19.32710585764763	2.432746	1.5597262
19.344885115874032	2.415905	1.5543182
19.362664844268313	2.4360728	1.5607923
19.380445043295822	2.4664097	1.5704807
19.39822571342203	2.5076904	1.5835689
19.41600685511252	2.526745	1.5895739
19.43378846883297	2.5271103	1.5896888
19.451570555049173	2.492315	1.5787067
19.469353114227037	2.4826398	1.5756395
19.48713614683254	2.496273	1.5799599
19.50491965333182	2.5251665	1.5890772
19.52270363419109	2.5552337	1.5985098
19.540488089876686	2.544818	1.5952486
19.55827302085503	2.5125692	1.5851085
19.576058427592674	2.4901083	1.5780077
19.593844310556282	2.4775338	1.5740184
19.611630670212598	2.4884636	1.5774865
19.629417507028506	2.4838407	1.5760205
19.64720482147098	2.4982753	1.5805933
19.6649926140071	2.515393	1.585999
19.682780885104084	2.5300658	1.590618
19.70056963522921	2.5404694	1.5938851
19.718358864849908	2.50871	1.5838908
19.7361485744337	2.5132983	1.5853386
19.753938764448215	2.5182476	1.5868987
19.771729435361202	2.5464706	1.5957664
19.789520587640506	2.551943	1.5974802
19.807312221754092	2.5506186	1.5970657
19.825104338170043	2.5456665	1.5955145
19.842896937356517	2.545947	1.5956024
19.860690019781824	2.487781	1.5772702
19.87848358591436	2.4653616	1.570147
19.896277636222635	2.4273305	1.5579892
19.914072171175278	2.457416	1.5676148
19.931867191241015	2.477147	1.5738956
19.94966269688869	2.522373	1.5881981
19.967458688587264	2.517385	1.5866269
19.985255166805807	2.51285	1.5851972
20.00305213201348	2.5129497	1.5852286
20.020849584679578	2.4739463	1.5728784
20.038647525273507	2.4378207	1.5613523
20.05644595426477	2.4189048	1.5552828
20.07424487212299	2.4066737	1.5513457
20.092044279317903	2.4186301	1.5551946
20.109844176319353	2.414767	1.5539521
20.127644563597304	2.4202452	1.5557138
20.145445441621817	2.410717	1.5526484
20.16324681086307	2.4163308	1.5544552
20.181048671791373	2.4001186	1.5492316
20.198851024877122	2.3941028	1.5472889
20.216653870590836	2.3584526	1.5357255
20.234457209403146	2.3686607	1.5390453
20.252261041784802	2.377229	1.5418265
20.270065368206662	2.3590426	1.5359175
20.287870189139685	2.3704448	1.5396249
20.305675505054968	2.3619196	1.5368538
20.323481316423702	2.377743	1.5419931
20.341287623717207	2.3295312	1.5262802
20.359094427406884	2.3416045	1.5302302
20.376901727964288	2.3394895	1.529539
20.39470952586107	2.3488371	1.5325916
20.41251782156899	2.3367403	1.52864
20.430326615559935	2.3489442	1.5326265
20.448135908305886	2.365696	1.5380819
20.465945700278965	2.366235	1.5382571
20.483755991951384	2.3502529	1.5330534
20.50156678379548	2.3279576	1.5257646
20.519378076283708	2.2952883	1.5150208
20.537189869888635	2.288333	1.5127237
20.55500216508294	2.297029	1.5155953
20.572814962339415	2.305578	1.518413
20.59062826213098	2.3148296	1.5214564
20.60844206493066	2.336334	1.5285071
20.626256371211593	2.3511772	1.5333549
20.644071181447032	2.340394	1.5298346
20.66188649611036	2.3335676	1.527602
20.67970231567506	2.3407204	1.5299413
20.697518640614742	2.3405228	1.5298767
20.715335471403122	2.3087904	1.5194705
20.73315280851404	2.2699163	1.5066241
20.750970652421447	2.2344894	1.4948208
20.768789003599412	2.2117445	1.4871935
20.786607862522136	2.226991	1.4923106
20.8044272296639	2.2827466	1.510876
20.82224710549913	2.2750974	1.5083426
20.84006749050237	2.2416031	1.4971985
20.857888385148268	3.7958977	1.9483063
20.8757097899116	45.93964	6.7778788
20.893531705267254	64.81187	8.050582
20.911354131690224	83.827446	9.155733
20.92917706965566	69.04334	8.309233
20.94700051963877	50.064648	7.075638
20.96482448211493	29.332073	5.4159093
20.982648957559622	4.119736	2.0297134
21.00047394644843	2.2514846	1.5004948
21.01829944925707	2.2515028	1.5005008
21.036125466461375	2.2410712	1.4970208
21.053951998537297	2.2465777	1.4988588
21.071779045960906	2.2225246	1.4908134
21.089606609208378	2.2380145	1.4959995
21.10743468875603	2.224377	1.4914346
21.12526328508028	2.2469778	1.4989922
21.143092398657675	2.2644818	1.5048195
21.16092202996488	2.2249017	1.4916104
21.17875217947867	2.1753123	1.474894
21.19658284767596	2.140443	1.4630253
21.21441403503377	2.1550338	1.4680034
21.232245742029225	2.1661618	1.4717886
21.2500779691396	2.1795173	1.4763188
21.26791071684227	2.1629117	1.470684
21.28574398561475	2.1469815	1.4652581
21.30357777593465	2.16007	1.4697176
21.321412088279704	2.171347	1.4735491
21.339246923127792	2.191268	1.4802932
21.357082280956888	2.2114787	1.4871042
21.3749181622451	2.1991487	1.4829527
21.392754567470647	2.1715767	1.4736271
21.41059149711187	2.1618283	1.4703157
21.42842895164726	2.1687067	1.4726529
21.446266931555378	2.1498363	1.4662321
21.464105437314945	2.1205895	1.4562244
21.481944469404798	2.0923107	1.4464822
21.49978402830388	2.0806255	1.4424374
21.51762411449127	2.0872822	1.4447429
21.53546472844617	2.0838478	1.4435539
21.553305870647876	2.1094863	1.4524071
21.571147541575865	2.1681457	1.4724624
21.58898974170967	2.1229336	1.457029
21.60683247152899	2.0936768	1.4469544
21.62467573151363	2.0783906	1.4416624
21.642519522143523	2.0812092	1.4426397
21.660363843898722	2.046241	1.4304688
21.6782086972594	2.0375087	1.4274133
21.696054082705864	2.0390236	1.4279438
21.713900000718535	2.0106535	1.4179752
21.73174645177795	1.9988899	1.413821
21.749593436364794	2.0174992	1.420387
21.767440954959845	2.0362523	1.4269731
21.785289008044032	2.021687	1.4218605
21.803137596098388	2.0132484	1.4188899
21.820986719604086	2.0073965	1.4168262
21.838836379042412	2.0105755	1.4179476
21.85668657489478	2.0142639	1.4192476
21.87453730764273	2.0198898	1.4212283
21.892388577767914	2.053512	1.4330081
21.91024038575213	2.0677862	1.4379799
21.928092732077285	2.032515	1.425663
21.945945617225426	1.9929364	1.411714
21.963799041678694	1.9872531	1.4096997
21.981653005919398	31.315073	5.5959873
21.999507510429943	78.137054	8.839517
22.01736255569286	73.08965	8.549249
22.035218142190818	4.1882277	2.046516
22.05307427040661	1.9971045	1.4131895
22.07093094082315	1.960173	1.4000618
22.088788153923474	1.9664388	1.4022976
22.106645910190746	1.9888163	1.410254
22.12450421010827	2.0367715	1.427155
22.142363054159464	2.0333843	1.4259678
22.16022244282787	2.0259106	1.4233449
22.178082376597164	2.0016577	1.4147996
22.195942855951145	1.9838657	1.4084977
22.213803881373742	1.9866539	1.4094871
22.231665453349002	2.0040195	1.4156339
22.24952757236111	2.0195653	1.4211141
22.26739023889438	2.0072181	1.4167633
22.28525345343323	1.9485407	1.3959014
22.30311721646225	1.900374	1.3785405
22.320981528466113	1.927136	1.3882133
22.33884638992964	1.9657303	1.402045
22.356711801337788	1.9872988	1.4097159
22.37457776317561	1.9510238	1.3967905
22.392444275928337	1.9631866	1.4011376
22.410311340081282	1.9375049	1.3919429
22.428178956119904	1.9294866	1.3890597
22.446047124529805	1.9355658	1.3912462
22.46391584579669	1.97466	1.405226
22.481785120406414	1.9893737	1.4104515
22.49965494884496	1.9871373	1.4096586
22.51752533159841	1.9506584	1.3966597
22.53539626915302	1.9431572	1.3939717
22.553267761995137	1.9258451	1.3877482
22.571139810611264	1.9230088	1.3867259
22.589012415488025	1.9514215	1.3969328
22.60688557711216	1.9850887	1.4089317
22.624759295970566	1.9545093	1.3980377
22.642633572550263	1.9184424	1.3850784
22.660508407338362	1.9532582	1.3975902
22.67838380082217	1.9810244	1.4074887
22.696259753489077	2.0023859	1.4150568
22.714136265826614	1.9662869	1.4022435
22.73201333832246	1.9427452	1.393824
22.74989097146439	1.9347073	1.3909376
22.76776916574035	1.9410157	1.3932034
22.785647921638393	1.9784828	1.4065856
22.803527239646712	1.9427161	1.3938135
22.82140712025363	1.9242364	1.3871685
22.839287563947593	1.8729525	1.3685585
22.85716857121719	1.8754984	1.3694884
22.875050142551135	1.9111556	1.3824455
22.892932278438277	1.9320657	1.3899877
22.910814979367604	1.9225216	1.3865503
22.928698245828222	1.9112382	1.3824754
22.946582078309387	1.9322898	1.3900683
22.96446647730047	1.9198027	1.3855695
22.98235144329098	1.8638731	1.3652374
23.000236976770562	1.8212086	1.3495216
23.018123078229	1.8571962	1.3627899
23.03600974815619	1.9149776	1.3838271
23.053896987042194	1.9488928	1.3960276
23.071784795377173	1.9398484	1.3927844
23.08967317365145	1.9410245	1.3932066
23.10756212235546	1.9074428	1.3811021
23.125451641979787	1.9099976	1.3820267
23.143341733015134	1.9515183	1.3969675
23.161232395952357	1.9567733	1.3988471
23.179123631282426	1.9457722	1.3949094
23.197015439496468	1.9246578	1.3873204
23.214907821085717	1.9422944	1.3936622
23.23280077654157	1.9262887	1.387908
23.250694306355538	1.9310125	1.3896087
23.268588411019277	1.928585	1.388735
23.28648309102458	1.929253	1.3889755
23.304378346863356	1.9463567	1.3951188
23.322274179027676	1.9380485	1.3921381
23.340170588009723	1.9016984	1.3790208
23.358067574301852	1.9076852	1.3811897
23.37596513839651	1.9037646	1.3797698
23.39386328078629	1.902932	1.3794681
23.411762001963947	1.9154323	1.3839915
23.429661302422353	1.9170979	1.384593
23.4475611826545	1.9173928	1.3846996
23.46546164315356	1.9308354	1.389545
23.48336268441279	1.9525096	1.3973223
23.501264306925638	1.949919	1.396395
23.51916651118564	1.9389465	1.3924606
23.537069297686497	1.9352043	1.3911161
23.554972666922037	1.885199	1.3730254
23.57287661938623	1.872078	1.368239
23.59078115557318	1.9087709	1.3815827
23.608686275977128	1.9366428	1.3916332
23.62659198109246	1.959063	1.3996654
23.6444982714137	1.9328461	1.3902683
23.66240514743549	1.9351625	1.3911012
23.68031260965263	1.9329917	1.3903208
23.698220658560068	1.9571626	1.3989863
23.716129294652845	1.9754299	1.4054998
23.7340385184262	2.0222707	1.4220656
23.75194833037546	1.9905198	1.4108578
23.769858730996123	1.935009	1.391046
23.78776972078382	1.902366	1.3792628
23.80568130023431	1.937434	1.3919173
23.823593469843495	1.9364522	1.3915646
23.841506230107424	1.8868499	1.3736266
23.859419581522275	1.8560983	1.362387
23.87733352458438	1.8825073	1.3720449
23.89524805979019	1.9450985	1.3946679
23.913163187636318	1.9426506	1.39379
23.931078908619508	1.9657182	1.4020407
23.948995223236633	2.005647	1.4162086
23.966912131984735	2.0359807	1.426878
23.98482963536096	2.024901	1.4229901
24.002747733862616	2.0010037	1.4145684
24.020666427987155	2.0114238	1.4182467
24.038585718232156	2.0260537	1.4233952
24.056505605095353	2.0147686	1.4194255
24.074426089074617	2.086584	1.4445013
24.092347170667946	2.1068318	1.4514929
24.110268850373515	2.0718253	1.4393836
24.128191128689586	2.0297842	1.4247049
24.146114006114626	2.0238564	1.422623
24.164037483147187	2.0644445	1.4368175
24.181961560286005	2.1110952	1.4529608
24.199886238029926	2.0969906	1.4480989
24.21781151687797	2.0839865	1.443602
24.235737397329274	2.0654647	1.4371725
24.253663879883135	2.0703423	1.4388684
24.271590965038975	2.05355	1.4330213
24.289518653296376	2.0444818	1.4298538
24.30744694515505	2.0618398	1.4359108
24.32537584111486	2.0925195	1.4465543
24.34330534167581	2.07287	1.4397465
24.361235447338046	2.1109934	1.4529258
24.379166158601876	2.0834641	1.443421
24.39709747596772	2.0703864	1.4388838
24.41502939993615	2.0426385	1.4292091
24.432961931007917	2.0116336	1.4183207
24.450895069683856	1.9922507	1.4114711
24.468828816465	1.9654732	1.4019533
24.4867631718525	2.0073676	1.416816
24.504698136347656	2.0113053	1.418205
24.52263371045192	1.996937	1.4131303
24.540569894666874	2.0019915	1.4149175
24.558506689494266	2.0070133	1.416691
24.57644409543597	1.9588779	1.3995992
24.594382112994012	1.9046236	1.380081
24.61232074267057	1.9261693	1.387865
24.630259984967953	1.9564234	1.398722
24.64819984038863	1.9790545	1.4067887
24.66614030943522	1.9958061	1.41273
24.684081392610462	1.9926786	1.4116226
24.702023090417274	2.0015194	1.4147507
24.7199654033587	2.0424106	1.4291294
24.737908331937927	2.051107	1.4321686
24.755851876658305	2.0659022	1.4373246
24.773796038023324	2.0341892	1.4262501
24.79174081653661	2.0621161	1.436007
24.809686212701962	2.030864	1.4250839
24.827632227023294	2.0818796	1.442872
24.8455788600047	2.0842438	1.443691
24.8635261121504	2.1622226	1.4704498
24.88147398396475	2.1323738	1.4602649
24.899422475952303	2.104874	1.4508183
24.917371588617698	2.0890458	1.4453532
24.935321322465768	2.1834567	1.4776524
24.953271678001478	2.291423	1.5137447
24.97122265572994	2.4999828	1.5811334
24.989174256156414	2.8060102	1.675115
25.00712647978632	3.4388974	1.8544264
25.02507932712521	4.466028	2.113298
25.043032798678798	6.071799	2.464102
25.060986894952933	7.5979095	2.7564306
25.078941616453637	9.005577	3.0009294
25.096896963687055	9.78573	3.1282153
25.114852937159508	10.58381	3.2532768
25.132809537377444	10.501646	3.2406244
25.150766764847468	9.894296	3.14552
25.168724620076347	8.491292	2.9139822
25.186683103570985	7.1757293	2.6787553
25.204642215838426	5.821831	2.412847
25.222601957385894	4.697284	2.167322
25.24056232872074	3.634898	1.9065409
25.25852333035048	2.8697233	1.6940258
25.276484962782778	2.353158	1.5340006
25.294447226525435	2.1193352	1.4557936
25.312410122086423	2.0200977	1.4213014
25.330373649973843	1.9588718	1.399597
25.348337810695988	1.932241	1.3900506
25.366302604761245	1.9334834	1.3904976
25.384268032678207	1.9525532	1.3973379
25.40223409495558	1.9349039	1.3910083
25.420200792102257	1.9530121	1.3975021
25.438168124627246	1.9852551	1.4089909
25.45613609303974	2.005471	1.4161465
25.474104697849057	1.9268411	1.3881071
25.492073939564698	1.9217064	1.3862562
25.510043818696285	1.9246677	1.387324
25.528014335753614	1.9595305	1.3998322
25.54598549124664	1.9196655	1.38552
25.56395728568544	1.9109699	1.3823783
25.58192971958028	1.915833	1.3841362
25.59990279344156	1.8571644	1.3627782
25.617876507779833	1.8453401	1.358433
25.635850863105826	1.8011742	1.3420783
25.653825859930386	1.8228979	1.3501474
25.671801498764548	1.8871936	1.3737516
25.68977778011949	1.9196985	1.3855318
25.707754704506524	1.8953371	1.3767124
25.725732272437153	1.8440642	1.3579633
25.743710484423012	1.8647351	1.365553
25.761689340975888	1.8452171	1.3583877
25.77966884260774	1.8522061	1.3609577
25.797648989830662	1.8787342	1.3706692
25.815629783156922	1.8630733	1.3649445
25.83361122309895	1.8236443	1.3504237
25.85159331016929	1.8096081	1.3452168
25.869576044880695	1.7947816	1.3396946
25.887559427746034	1.7896808	1.3377895
25.90554345927836	1.8124135	1.3462591
25.92352813999086	1.8019763	1.3423771
25.94151347039689	1.8320655	1.3535382
25.959499451009965	1.8660257	1.3660254
25.97748608234374	1.8620957	1.3645862
25.995473364912062	1.8569897	1.362714
26.013461299228904	1.8540151	1.3616222
26.03144988580839	1.8368471	1.3553033
26.04943912516483	1.8323286	1.3536353
26.067429017812675	1.8114403	1.3458976
26.085419564266537	1.8407476	1.3567415
26.103410765041186	1.8542302	1.3617013
26.12140262065155	1.8133907	1.346622
26.139395131612723	1.8041292	1.3431787
26.157388298439948	1.8604448	1.3639812
26.17538212164861	1.8948321	1.376529
26.193376601754295	1.8953992	1.376735
26.211371739272714	1.8563496	1.3624792
26.229367534719746	1.8303128	1.3528906
26.247363988611433	1.8573657	1.3628521
26.26536110146397	1.8162551	1.3476851
26.283358873793727	1.7849938	1.3360366
26.301357306117204	1.7996614	1.3415146
26.319356398951104	1.8451604	1.3583668
26.33735615281224	1.8949481	1.3765712
26.35535656821762	1.8355132	1.3548112
26.373357645684404	1.8100033	1.3453636
26.39135938572991	1.7893924	1.3376817
26.409361788871614	1.8117464	1.3460113
26.427364855627165	1.8002228	1.3417238
26.445368586514352	1.7926296	1.3388911
26.46337298205115	1.7971507	1.3405786
26.48137804275568	1.8027784	1.3426758
26.499383769146217	1.7849083	1.3360046
26.517390161741215	1.7882949	1.3372715
26.53539722105928	1.8207558	1.3493539
26.553404947619182	1.8221285	1.3498625
26.571413341939856	1.8214351	1.3496056
26.589422404540397	1.8423784	1.3573424
26.60743213594006	1.8250238	1.3509344
26.62544253665827	1.8007628	1.341925
26.64345360721459	1.8117063	1.3459964
26.66146534812879	1.7909044	1.3382468
26.679477759920758	1.79392	1.339373
26.69749084311057	1.7973197	1.3406415
26.71550459821847	1.788738	1.3374372
26.733519025764842	1.7873766	1.336928
26.751534126270258	1.7669038	1.3292493
26.769549900255434	1.7988747	1.3412213
26.787566348241267	1.8589593	1.3634366
26.80558347074881	1.8699836	1.3674734
26.823601268299267	1.8300676	1.3527999
26.841619741414036	1.8090229	1.3449992
26.85963889061465	1.8412834	1.356939
26.877658716422832	1.8345726	1.3544639
26.89567921936045	1.8009442	1.3419926
26.913700399949544	1.805257	1.3435985
26.93172225871233	1.7727138	1.3314329
26.949744796171174	1.7847276	1.335937
26.967768012848605	1.7774667	1.3332167
26.98579190926733	1.7915642	1.3384932
27.003816485950225	1.808894	1.3449513
27.021841743420318	1.8775536	1.3702385
27.039867682200814	1.9028792	1.3794489
27.057894302815072	1.8659962	1.3660147
27.07592160578664	1.7994363	1.3414307
27.0939495916392	1.7714949	1.3309752
27.111978260896635	1.8192883	1.34881
27.13000761408296	1.8315344	1.3533419
27.148037651722397	1.8080251	1.3446282
27.166068374339304	1.7960085	1.3401524
27.184099782458215	1.8021432	1.3424393
27.20213187660384	1.83645	1.3551568
27.22016465730105	1.8279986	1.352035
27.23819812507487	1.8265097	1.3514843
27.256232280450533	1.7756441	1.332533
27.274267123953383	1.7482102	1.322199
27.292302656108987	1.7332116	1.316515
27.31033887744306	1.7413833	1.3196149
27.32837578848146	1.758612	1.3261267
27.34641338975026	1.7416669	1.3197223
27.364451681775673	1.7426741	1.3201039
27.382490665084074	1.7900174	1.3379153
27.400530340202046	1.7979108	1.3408619
27.41857070765629	1.8146226	1.3470793
27.436611767973726	1.7975867	1.340741
27.454653521681404	1.8133558	1.346609
27.472695969306564	1.8468993	1.3590068
27.490739111376627	1.8275456	1.3518674
27.508782948419153	1.8077929	1.3445419
27.526827480961902	1.8341906	1.3543229
27.54487270953279	1.8240482	1.3505733
27.562918634659898	1.7374058	1.3181069
27.580965256871508	1.7354709	1.3173727
27.599012576696026	1.7736149	1.3317714
27.617060594662068	1.8258146	1.351227
27.63510931129842	1.7988145	1.3411989
27.65315872713401	1.7948169	1.3397077
27.67120884269797	1.7924383	1.3388197
27.68925965851958	1.8283333	1.3521588
27.707311175128307	1.8869905	1.3736777
27.725363393053787	1.8923188	1.3756158
27.74341631282583	1.8919116	1.3754678
27.7614699349744	1.8848749	1.3729075
27.77952426002968	2.0575545	1.4344178
27.797579288521973	2.1478696	1.4655612
27.815635020981784	2.5915182	1.6098193
27.83369145793979	2.687545	1.6393734
27.85174859992682	2.515375	1.5859933
27.869806447473923	2.400936	1.5494953
27.887865001112267	2.1032424	1.450256
27.905924261373233	1.9729835	1.4046293
27.92398422878836	1.9194546	1.3854438
27.94204490388936	1.9536098	1.3977159
27.96010628720813	1.9525062	1.3973211
27.978168379276728	1.931032	1.3896158
27.9962311806274	1.8794428	1.3709277
28.014294691792568	1.8871151	1.373723
28.0323589133048	1.9021593	1.379188
28.050423845696887	1.8640388	1.365298
28.068489489501758	1.8034239	1.3429161
28.086555845252523	1.7540982	1.3244237
28.104622913482487	1.7793605	1.3339267
28.122690694725115	1.8116292	1.3459678
28.14075918951405	1.8420123	1.3572075
28.15882839838312	1.8983496	1.3778061
28.176898321866304	1.9596498	1.3998749
28.1949689604978	1.9902195	1.4107513
28.213040314811945	1.9557735	1.3984897
28.23111238534327	1.9434309	1.3940699
28.249185172626493	1.9464972	1.3951693
28.267258677196473	1.9676459	1.402728
28.285332899588294	1.9503818	1.3965607
28.303407840337172	1.9159532	1.3841796
28.321483499978545	1.9356242	1.3912672
28.33955987904799	1.9705249	1.4037539
28.357636978081285	2.00368	1.415514
28.37571479761439	2.035676	1.4267712
28.393793338183425	2.074067	1.4401622
28.41187260032469	2.0944736	1.4472296
28.429952584574686	2.1139374	1.4539386
28.448033291470065	2.0850434	1.4439679
28.46611472154769	2.036652	1.4271132
28.484196875344566	1.9874908	1.409784
28.502279753397914	2.0397224	1.4281886
28.52036335624511	2.0560238	1.4338841
28.538447684423716	2.0350344	1.4265463
28.556532738471482	1.9823902	1.4079738
28.574618518926325	1.950065	1.3964473
28.59270502632635	1.960352	1.4001257
28.61079226120985	1.9937168	1.4119904
28.628880224115274	1.994338	1.4122103
28.646968915581287	2.0125635	1.4186485
28.66505833614671	2.055422	1.4336743
28.68314848635055	2.100272	1.4492315
28.701239366732004	2.1276817	1.4586575
28.71933097783044	2.1429234	1.4638727
28.737423320185403	2.166447	1.4718854
28.75551639433665	2.1317847	1.4600632
28.773610200824074	2.092189	1.4464401
28.791704740187793	2.0561323	1.433922
28.80980001296809	2.042479	1.4291532
28.827896019705413	2.084408	1.4437479
28.845992760940433	2.1072571	1.4516394
28.86409023721397	2.1404996	1.4630446
28.88218844906704	2.1909153	1.4801741
28.900287397040845	2.1850371	1.4781871
28.918387081676755	2.1964893	1.4820558
28.936487503516343	2.2522416	1.500747
28.954588663101365	2.3122618	1.5206124
28.97269056097374	2.305518	1.5183932
28.990793197675597	2.2791512	1.5096858
29.00889657374923	2.275688	1.5085384
29.027000689737125	2.3685381	1.5390055
29.04510554618196	2.3896487	1.5458488
29.06321114362659	2.3885875	1.5455055
29.08131748261405	2.3923128	1.5467103
29.099424563687567	2.4289284	1.558502
29.11753238739057	2.4832807	1.5758429
29.13564095426663	2.510012	1.5843017
29.15375026485954	2.572013	1.6037496
29.171860319713275	2.5548341	1.5983849
29.18997111937199	2.6287339	1.621337
29.20808266438002	2.7155142	1.6478817
29.226194955281898	2.7814603	1.6677711
29.244307992622335	2.8156395	1.6779867
29.26242177694624	2.8437002	1.6863275
29.2805363087987	2.907306	1.7050824
29.29865158872498	2.9875455	1.7284517
29.316767617270557	2.9998739	1.7320144
29.334884394981064	2.990068	1.7291813
29.353001922402367	3.0639222	1.7504063
29.37112020008047	3.1080883	1.7629771
29.389239228561596	3.1481974	1.7743161
29.407359008392152	3.3099673	1.8193315
29.42547954011872	3.5970125	1.8965791
29.44360082428809	4.057478	2.0143182
29.46172286144722	4.8205004	2.1955638
29.479845652143283	6.399352	2.529694
29.497969196923606	9.217177	3.0359805
29.516093496335728	13.161613	3.627894
29.5342185509274	16.914497	4.112724
29.55234436124651	20.121943	4.485749
29.570470927841175	21.536388	4.6407313
29.588598251259686	21.151482	4.599074
29.60672633205055	19.259218	4.3885326
29.624855170762405	16.307161	4.038213
29.642984767944146	13.01911	3.6082003
29.66111512414481	9.679343	3.1111643
29.67924623991366	7.120067	2.6683455
29.697378115800138	5.302683	2.3027556
29.71551075235387	4.414476	2.1010654
29.733644150124675	3.9062052	1.9764122
29.751778309662576	3.6634061	1.9140027
29.769913231517766	3.5582511	1.8863328
29.78804891624066	3.482545	1.8661578
29.806185364381818	3.4268284	1.8511695
29.82432257649206	3.4182422	1.8488489
29.842460553122333	3.3356166	1.826367
29.86059929482382	3.308883	1.8190335
29.878738802147872	3.3259904	1.8237299
29.896879075646048	3.3461506	1.8292487
29.915020115870114	3.362077	1.8335967
29.933161923371976	3.3223932	1.8227433
29.951304498703777	3.2971497	1.8158056
29.969447842417857	3.2454677	1.8015182
29.987591955066733	3.2148178	1.7929913
30.005736837203123	3.1831737	1.7841451
30.023882489379943	3.1694205	1.7802867
30.04202891215028	3.193212	1.7869561
30.060176106067455	3.1928766	1.7868623
30.078324071684946	3.1278467	1.768572
30.09647280955646	3.0924537	1.7585374
30.114622320235863	3.1443126	1.773221
30.132772604277257	3.1448712	1.7733785
30.1509236622349	3.059449	1.7491281
30.16907549466328	3.0347471	1.7420526
30.18722810211705	3.0150447	1.7363884
30.205381485151097	3.0521019	1.7470266
30.22353564432045	3.08096	1.7552664
30.241690580180403	3.1017764	1.7611861
30.25984629328638	3.0621533	1.7499009
30.278002784194037	3.0323956	1.7413775
30.296160053459246	2.9950607	1.7306243
30.314318101638033	2.9956672	1.7307996
30.332476929286646	2.9800205	1.7262735
30.35063653696153	2.9780972	1.7257165
30.368796925219307	2.9633753	1.7214457
30.386958094616844	2.9859772	1.727998
30.40512004571115	2.9803302	1.7263633
30.423282779059463	2.9632437	1.7214075
30.441446295219233	2.9350884	1.71321
30.459610594748067	2.918081	1.7082392
30.47777567820382	2.9131036	1.7067816
30.495941546144504	2.896242	1.7018349
30.51410819912835	2.8364844	1.6841866
30.532275637713795	2.8561306	1.690009
30.55044386245946	2.8413324	1.6856252
30.56861287392416	2.8825042	1.697794
30.586782672666956	2.909885	1.7058384
30.604953259247047	2.9285266	1.7112938
30.623124634223885	2.8577008	1.6904736
30.641296798157075	2.820595	1.6794627
30.659469751606462	2.7846398	1.6687241
30.677643495132074	2.8042886	1.6746011
30.695818029294152	2.7260835	1.6510856
30.713993354653116	2.6163127	1.617502
30.73216947176962	2.6204813	1.61879
30.75034638120448	2.6951811	1.6417006
30.768524083518756	2.7769732	1.6664253
30.786702579273673	2.8085907	1.6758851
30.80488186903069	2.9300199	1.7117301
30.82306195335144	3.1416757	1.7724773
30.841242832797782	3.383502	1.8394299
30.85942450793176	3.6316526	1.9056895
30.877606979315637	3.9660423	1.9914925
30.895790247511883	4.413179	2.1007566
30.913974313083134	4.8416147	2.200367
30.932159176592283	5.292876	2.300625
30.95034483860237	5.767934	2.4016523
30.968531299676698	5.841919	2.4170063
30.98671856037873	5.51546	2.3485017
31.00490662127215	4.9848723	2.2326827
31.023095482920848	4.45792	2.1113787
31.04128514588892	3.8463454	1.9612103
31.059475610740662	3.230537	1.7973695
31.07766687804056	2.7859564	1.6691184
31.09585894835335	2.5494976	1.5967146
31.11405182224393	2.5399513	1.5937225
31.132245500277417	2.587341	1.6085213
31.15043998301914	2.5785177	1.6057763
31.168635271034628	2.5767114	1.6052139
31.18683136488964	2.5821605	1.6069102
31.20502826515008	2.5488496	1.5965117
31.223225972382135	2.552904	1.597781
31.241424487152155	2.5318816	1.5911888
31.259623810026692	2.415706	1.5542542
31.27782394157253	2.4228458	1.5565493
31.296024882356644	2.5280983	1.5899994
31.314226632946237	2.5232852	1.5884851
31.332429193908684	2.4578917	1.5677664
31.350632565811598	2.4203508	1.5557476
31.368836749222787	2.4480445	1.5646228
31.387041744710295	2.493123	1.5789627
31.40524755284232	2.506814	1.5832921
31.423454174187317	2.580885	1.6065133
31.441661609313922	2.551506	1.5973434
31.459869858791002	2.4017866	1.5497699
31.478078923187628	2.3256779	1.5250174
31.496288803073064	2.3649862	1.5378512
31.514499499016807	2.3919778	1.546602
31.532711011588546	2.3751144	1.5411407
31.550923341358178	2.334785	1.5280004
31.56913648889584	2.33323	1.5274915
31.587350454771844	2.3950822	1.5476053
31.605565239556732	2.3844059	1.5441521
31.62378084382127	2.332626	1.5272937
31.641997268136382	2.3461647	1.5317196
31.660214513073274	2.3992593	1.5489542
31.67843257920331	2.4009411	1.549497
31.6966514670981	2.3641763	1.5375878
31.71487117732944	2.3223255	1.5239178
31.733091710469346	2.2928646	1.5142208
31.751313067090052	2.292226	1.51401
31.769535247764008	2.3021371	1.5172795
31.787758253063878	2.2568655	1.5022868
31.805982083562526	2.2307131	1.4935572
31.824206739833024	2.2296584	1.4932041
31.84243222244869	2.2918367	1.5138813
31.860658531983013	2.2829378	1.5109394
31.878885669009737	2.220156	1.4900187
31.897113634102784	2.2502103	1.5000701
31.91534242783632	2.2636223	1.5045339
31.933572050784694	2.205895	1.4852256
31.951802503522508	2.1780589	1.4758248
31.970033786624548	2.187538	1.4790328
31.988265900665834	2.2016146	1.4837838
32.006498846221575	2.1849744	1.4781659
32.02473262386724	2.177006	1.475468
32.04296723417845	2.2035637	1.4844406
32.0612026777311	2.1984303	1.4827105
32.07943895510129	2.1883106	1.479294
32.097676066865304	2.160187	1.4697574
32.115914013599685	2.135155	1.4612169
32.13415279588115	2.0989664	1.448781
32.152392414286666	2.0747662	1.4404049
32.1706328693934	2.118192	1.455401
32.18887416177875	2.164751	1.4713093
32.20711629202032	2.2008133	1.4835138
32.225359260695924	2.208777	1.4861954
32.243603068383614	2.2285187	1.4928224
32.26184771566166	2.1612697	1.4701257
32.28009320310852	2.1179981	1.4553344
32.2983395313029	2.115538	1.4544889
32.31658670082372	2.1821868	1.4772227
32.33483471225012	2.126064	1.458103
32.35308356616143	2.0985026	1.4486209
32.371333263137245	2.1391318	1.4625771
32.38958380375734	2.1255543	1.4579281
32.407835188601744	2.1046727	1.450749
32.42608741825067	2.0323684	1.4256116
32.444340493284585	2.0808606	1.4425188
32.46259441428416	2.09971	1.4490376
32.48084918183028	2.1350944	1.4611962
32.49910479650405	2.2081847	1.4859962
32.51736125888683	2.2377958	1.4959264
32.53561856956014	2.173201	1.4741781
32.5538767291058	2.122602	1.4569153
32.572135738105764	2.1245334	1.457578
32.59039559714228	2.1049595	1.4508479
32.608656306797776	2.0192509	1.4210035
32.62691786765491	1.9994107	1.4140052
32.645180280296586	2.0096965	1.4176376
32.663443545305896	2.0314517	1.42529
32.68170766326619	2.0508654	1.4320843
32.69997263476099	2.0942032	1.4471362
32.7182384603741	2.0832767	1.443356
32.7365051406895	2.065803	1.4372902
32.75477267629144	2.0830967	1.4432937
32.77304106776434	2.0715122	1.4392749
32.79131031569289	2.0501661	1.4318401
32.809580420661966	2.049117	1.4314737
32.827851383256714	2.0828896	1.4432219
32.84612320406245	2.01665	1.420088
32.86439588366476	1.9769398	1.4060369
32.88266942264945	1.997575	1.413356
32.9009438216025	2.0348163	1.4264698
32.9192190811102	2.0348713	1.4264891
32.937495201758985	1.9807589	1.4073944
32.95577218413556	1.964438	1.4015841
32.974050028826866	2.0147	1.4194013
32.992328736420035	1.9666599	1.4023765
33.010608307502444	1.93642	1.391553
33.02888874266169	1.9595505	1.3998394
33.047170042485604	1.9999343	1.4141903
33.06545220756225	1.9959075	1.4127659
33.083735238479896	2.0201976	1.4213365
33.10201913582707	2.0376515	1.4274633
33.12030390019248	2.0211782	1.4216815
33.138589532165135	2.018566	1.4207624
33.15687603233419	2.1245677	1.4575897
33.17516340128909	2.0986264	1.4486636
33.19345163961947	2.042773	1.4292561
33.211740747915215	1.9326813	1.3902091
33.23003072676643	1.8933239	1.3759811
33.248321576763466	1.929588	1.3890961
33.266613298496885	1.9101518	1.3820825
33.28490589255747	1.8607085	1.3640779
33.30319935953626	1.8191618	1.3487631
33.32149370002451	1.8669583	1.3663669
33.339788914613706	1.9381206	1.392164
33.358085003895575	1.9553868	1.3983514
33.376381968462034	2.049097	1.4314667
33.39467980890529	2.14886	1.465899
33.41297852581774	2.119798	1.4559526
33.43127811979204	2.0540335	1.43319
33.44957859142105	1.9220964	1.3863969
33.467879941297866	1.9023776	1.3792671
33.486182170015844	2.0297048	1.4246771
33.50448527816853	2.1137304	1.4538674
33.522789266349754	2.041524	1.4288191
33.541094135153514	1.8743759	1.3690785
33.55939988517411	1.9001795	1.37847
33.57770651700602	1.9769996	1.4060582
33.59601403124398	1.9645379	1.4016197
33.61432242848296	1.9926534	1.4116137
33.632631709318154	2.0310376	1.4251448
33.650941874344994	2.0319722	1.4254726
33.66925292415916	1.92803	1.3885353
33.68756485935654	2.0066693	1.4165696
33.70587768053328	2.1021786	1.4498892
33.724191388285746	2.2048693	1.4848802
33.74250598321054	2.139118	1.4625723
33.760821465904506	1.969175	1.403273
33.77913783696474	1.8521622	1.3609416
33.79745509698852	1.9457204	1.3948908
33.815773246573414	2.0113637	1.4182255
33.8340922863172	1.9921583	1.4114383
33.852412216817896	1.8946631	1.3764676
33.87073303867377	1.8439379	1.3579167
33.889054752483304	1.9431797	1.3939798
33.907377358845245	2.0947728	1.447333
33.92570085835853	2.0385833	1.4277897
33.94402525162239	1.9602876	1.4001027
33.96235053923627	2.0487475	1.4313446
33.980676721799824	2.082998	1.4432595
33.999003799912984	2.0250216	1.4230325
34.01733177417592	1.9036016	1.3797107
34.03566064518901	1.9021443	1.3791825
34.0539904135529	1.9637516	1.4013392
34.07232107986846	2.060661	1.4355003
34.090652644736785	2.0955126	1.4475886
34.108985108759235	2.0416334	1.4288573
34.12731847253742	2.0273578	1.4238532
34.14565273667313	1.9814246	1.4076308
34.16398790176847	1.982632	1.4080597
34.18232396842574	2.0131452	1.4188535
34.20066093724749	1.970711	1.4038202
34.21899880883651	1.9166511	1.3844317
34.23733758379583	1.8959231	1.3769252
34.25567726272874	1.887098	1.3737168
34.27401784623872	1.9250965	1.3874785
34.29235933492957	1.8882226	1.3741261
34.31070172940526	1.9034878	1.3796694
34.32904503027003	1.9053303	1.380337
34.347389238128386	1.8595788	1.3636638
34.36573435358502	1.9689173	1.4031811
34.38408037724492	2.012998	1.4188017
34.402427309713296	2.0225139	1.4221511
34.42077515159559	2.062413	1.4361104
34.43912390349752	2.0797029	1.4421175
34.45747356602499	1.9497842	1.3963467
34.47582413978423	1.8067023	1.3441362
34.49417562538163	1.7330616	1.316458
34.51252802342388	1.7868373	1.3367263
34.53088133451789	1.9888065	1.4102505
34.54923555927084	1.9119174	1.3827211
34.567590698290104	1.953638	1.3977259
34.58594675218336	2.0812068	1.4426389
34.6043037215585	2.1195903	1.4558812
34.62266160702365	2.015428	1.4196577
34.641020409187234	1.9844484	1.4087045
34.65938012865785	1.9823916	1.4079742
34.677740766044394	1.964765	1.4017007
34.69610232195598	2.0371552	1.4272895
34.714464797002016	2.0033083	1.4153827
34.73282819179208	1.9279599	1.38851
34.751192506936064	1.8034041	1.3429089
34.76955774304408	1.7364807	1.3177559
34.7879239007265	1.7692994	1.3301501
34.80629098059391	1.9830546	1.4082097
34.824658983257194	2.1079385	1.4518741
34.843027909327446	1.8605107	1.3640054
34.86139775941603	1.7171967	1.3104185
34.879768534134534	1.8697467	1.3673868
34.89814023409483	2.1681054	1.4724487
34.91651285990901	2.1791787	1.4762042
34.93488641218944	2.0696383	1.4386238
34.95326089154871	1.9455518	1.3948303
34.97163629859967	2.0479507	1.4310663
34.99001263395542	2.07278	1.4397153
35.00838989822934	1.855534	1.3621799
35.02676809203499	1.7690153	1.3300433
35.04514721598624	1.7475493	1.321949
35.063527270697215	1.871947	1.3681911
35.081908256782256	1.9675026	1.4026769
35.10029017485597	1.7897868	1.3378291
35.11867302553321	1.6209315	1.2731581
35.137056809429104	1.6571218	1.2872925
35.155441527159006	1.746333	1.321489
35.173827179338524	2.0039144	1.4155968
35.19221376658354	1.9864334	1.4094089
35.21060128951017	1.8503538	1.3602772
35.2289897487348	1.6638516	1.2899038
35.24737914487405	1.7569431	1.3254973
35.26576947854479	1.8727607	1.3684884
35.28416075036418	2.0457914	1.4303117
35.30255296094958	2.4788587	1.5744392
35.32094611091867	2.3588822	1.5358653
35.33934020088932	1.7521216	1.3236773
35.35773523147969	1.4522487	1.2050928
35.3761312033082	1.7820082	1.3349187
35.394528116993506	2.1240742	1.4574203
35.41292597315452	1.8856349	1.3731842
35.431324772410434	1.6616933	1.2890668
35.449724515380666	1.842087	1.3572351
35.46812520268491	1.8482629	1.3595083
35.486526834943106	1.8943399	1.3763502
35.504929412775454	2.2242713	1.491399
35.52333293680242	2.50743	1.5834867
35.54173740764471	2.7862608	1.6692096
35.560142825923286	2.5496547	1.5967638
35.5785491922594	1.9113278	1.3825078
35.59695650727454	1.5990219	1.2645243
35.61536477159042	2.2689745	1.5063115
