0.008763373481513119	0.051685803	0.22734512
0.026290120649546365	0.18429624	0.4292974
0.043816868432600686	0.37026584	0.60849476
0.06134361724069026	0.3852151	0.62065697
0.07887036748382949	0.34023687	0.58329827
0.0963971195720331	0.20770289	0.45574433
0.11392387391531617	0.15535764	0.39415434
0.1314506309236943	0.13254653	0.3640694
0.1489773910071836	0.08758336	0.29594487
0.16650415457580078	0.034394443	0.1854574
0.18403092203956356	0.06260259	0.2502051
0.20155769380849	0.08431157	0.29036453
0.2190844702925996	0.14639436	0.38261515
0.2366112519019124	0.15518123	0.3939305
0.2541380390464497	0.16360722	0.40448388
0.27166483213623416	0.12872684	0.35878524
0.28919163158128947	0.1014243	0.31847182
0.3067184377916406	0.05685704	0.23844714
0.324245251177314	0.08846463	0.29743004
0.34177207214833777	0.13399161	0.36604866
0.3592989011147415	0.17126839	0.41384584
0.37682573848655654	0.17053299	0.4129564
0.39435258467381573	0.13294601	0.36461762
0.41187944008655414	0.13949782	0.37349406
0.42940630513480854	0.12655883	0.35575107
0.446933180228618	0.14670527	0.38302124
0.4644600657780234	0.14768863	0.3843028
0.48198696219306775	0.18211058	0.42674416
0.49951386988379676	0.19342856	0.43980515
0.5170407892602581	0.16152179	0.40189773
0.5345677207325025	0.13061251	0.36140352
0.5520946647105822	0.10356714	0.3218185
0.5696216216045534	0.11642761	0.3412149
0.5871485918244737	0.13613045	0.3689586
0.6046755757804043	0.17090069	0.41340137
0.6222025738824094	0.20230407	0.44978225
0.6397295865405557	0.21309273	0.46161968
0.6572566141649129	0.19091836	0.43694204
0.6747836571655547	0.16465688	0.40577933
0.6923107159525568	0.13254002	0.36406046
0.7098377909359992	0.13264091	0.364199
0.7273648825259653	0.12762952	0.35725275
0.7448919911325411	0.13373387	0.36569643
0.762419117165817	0.1608511	0.40106246
0.7799462610358868	0.1826916	0.42742437
0.7974734231528482	0.17981622	0.4240474
0.8150006039268024	0.16914338	0.41127044
0.8325278037678551	0.16270395	0.40336576
0.8500550230861152	0.17110565	0.4136492
0.8675822622916969	0.18571517	0.43094683
0.8851095217947171	0.19811861	0.44510517
0.9026368020052984	0.16904435	0.41115004
0.9201641033335665	0.184994	0.4301093
0.9376914261896523	0.22142452	0.47055766
0.9552187709836915	0.23576766	0.48555914
0.9727461381258234	0.25375757	0.5037435
0.990273528026193	0.24771972	0.4977145
1.0078009410949496	0.26546812	0.51523596
1.0253283777422473	0.28380522	0.53273374
1.0428558383782454	0.29399326	0.5422115
1.0603833234131086	0.30410826	0.55146015
1.0779108332570058	0.33912492	0.58234435
1.0954383683201119	0.32486868	0.5699725
1.112965929012607	0.364158	0.60345507
1.1304935157446763	0.47875562	0.6919217
1.1480211289265108	0.54080963	0.7353976
1.1655487689683062	1.4298759	1.1957742
1.1830764362802655	1.7015221	1.304424
1.200604131272596	1.988062	1.4099865
1.2181318543555117	2.190981	1.4801962
1.235659605939232	2.2240913	1.4913387
1.253187386433982	3.9664116	1.9915853
1.270715196249994	6.3475018	2.519425
1.2882430357975057	11.6106825	3.4074452
1.3057709054867608	16.361418	4.0449247
1.3232988057280106	22.335186	4.7260118
1.3408267369315112	27.255568	5.2206864
1.358354699507526	31.08974	5.5758176
1.3758826938663256	35.235775	5.935973
1.3934107204181858	37.4726	6.1214867
1.410938779573391	37.961575	6.1612964
1.4284668717422309	38.729656	6.2233157
1.4459949973350033	37.81423	6.1493278
1.4635231567620117	38.052795	6.168695
1.4810513504335687	36.9108	6.075426
1.4985795787599925	36.25815	6.021474
1.5161078421516088	35.757057	5.9797206
1.5336361410187505	34.951885	5.912012
1.5511644757717598	35.216553	5.934354
1.5686928468209842	35.819218	5.9849157
1.58622125457678	36.571495	6.047437
1.6037496994495108	37.813904	6.149301
1.621278181849548	37.70695	6.140599
1.6388067021872719	38.518665	6.206341
1.6563352608730693	37.951916	6.1605124
1.673863858317336	36.911236	6.075462
1.6913924949304753	35.86149	5.988446
1.7089211711228998	34.65066	5.8864813
1.7264498873050296	33.762913	5.8105865
1.7439786438872935	33.20015	5.761957
1.7615074412801288	32.174736	5.672278
1.779036279893981	31.684023	5.628856
1.796565160139305	30.555002	5.527658
1.814094082426564	30.103065	5.486626
1.8316230471662298	29.320402	5.4148316
1.849152054768784	28.70854	5.358035
1.8666811056447168	27.903704	5.282396
1.8842102002045273	27.181534	5.213591
1.901739338858724	26.7738	5.1743407
1.9192685220178245	26.253063	5.1237745
1.9367977500923557	25.174437	5.017413
1.9543270234928547	24.30908	4.9304237
1.971856342629867	23.481092	4.8457294
1.9893857079139496	23.18625	4.8152103
2.006915119755667	23.051962	4.8012457
2.0244445785655945	22.626314	4.7567124
2.0419740847543175	21.86193	4.6756744
2.0595036387324317	21.121634	4.595828
2.0770332409105414	20.651697	4.544414
2.094562891699263	20.474358	4.52486
2.1120925915092217	20.405502	4.517245
2.129622340751053	20.249247	4.499916
2.1471521398354043	188.32788	13.723261
2.1646819891729323	444.5113	21.083437
2.182211889174303	440.65158	20.991703
2.1997418402501974	452.85614	21.280416
2.2172718428113023	432.63986	20.799997
2.234801897268317	320.66577	17.907143
2.2523320040319548	17.25822	4.1543016
2.269862163512935	17.063904	4.130848
2.287392376121992	16.473932	4.0588093
2.304922642269869	16.132816	4.0165677
2.322452962367322	15.881785	3.9851959
2.3399833368251164	15.76147	3.9700718
2.357513766054032	15.534454	3.9413772
2.3750442504648586	15.282465	3.9092793
2.3925747904683963	15.0889	3.8844433
2.410105386475459	14.962151	3.868094
2.4276360388968707	14.567722	3.8167686
2.445166748143469	14.457019	3.8022387
2.4626975146261025	14.198131	3.7680407
2.4802283387556323	14.099631	3.7549477
2.4977592209429305	13.702723	3.7017188
2.5152901615988825	13.324529	3.6502779
2.5328211611343865	12.940593	3.5973036
2.5503522199603523	12.720783	3.5666206
2.5678833384877024	12.471282	3.5314703
2.5854145171273712	12.3161745	3.5094407
2.6029457562903064	12.165651	3.4879293
2.620477056387469	11.880135	3.446757
2.6380084178298326	11.647508	3.4128444
2.655539841028383	11.281145	3.3587415
2.673071326394119	11.126926	3.3357048
2.6906028743380523	10.983995	3.3142111
2.708134485271211	10.825467	3.2902079
2.7256661596046325	10.764601	3.280945
2.743197897749369	10.702503	3.2714682
2.760729700116486	10.646809	3.2629447
2.778261567117063	10.520644	3.2435544
2.795793499162193	10.365794	3.2195954
2.8133254966629817	10.066785	3.1728196
2.830857560030551	9.8904705	3.1449118
2.8483896896760337	9.708923	3.1159146
2.865921886010578	9.561657	3.092193
2.883454149445347	9.502783	3.0826583
2.9009864803915177	9.515157	3.0846648
2.91851887926028	9.433235	3.0713573
2.9360513464628384	9.338318	3.0558662
2.953583882410413	9.126885	3.0210736
2.9711164875142373	8.9982	2.9997
2.9886491621855606	8.89216	2.9819725
3.0061819068356455	8.657916	2.9424336
3.023714721875769	8.494762	2.9145775
3.041247607717225	8.382021	2.895172
3.0587805647713213	8.387941	2.8961942
3.0763135934493806	8.23481	2.8696358
3.0938466941627407	8.106899	2.8472617
3.1113798673227544	7.91182	2.8127956
3.1289131133407904	7.811969	2.79499
3.1464464326282315	7.8064055	2.7939947
3.1639798255964786	7.7699146	2.7874568
3.1815132926569443	7.7449	2.7829661
3.1990468342210603	7.607214	2.758118
3.216580450700272	7.4218726	2.7243114
3.2341141425060416	7.405141	2.7212389
3.251647910049847	7.4277415	2.7253883
3.2691817537431813	7.3628054	2.713449
3.286715673997555	7.166865	2.6771002
3.3042496712244938	6.999056	2.645573
3.32178374583554	6.949558	2.6362014
3.339317898242251	6.9406753	2.6345162
3.3568521288562034	6.868964	2.6208708
3.3743864380889876	6.7887454	2.6055222
3.3919208263522127	6.778474	2.6035502
3.4094552940575023	6.697433	2.58794
3.4269898416164972	6.619719	2.5728815
3.444524469440858	6.5100617	2.5514822
3.4620591779422587	6.4982862	2.5491736
3.479593967532391	6.567029	2.5626216
3.4971288386229658	6.5246058	2.5543308
3.5146637916257086	6.4317775	2.536095
3.5321988269523628	6.300855	2.5101504
3.5497339450146903	6.1946707	2.4889095
3.5672691462244708	6.168845	2.483716
3.5848044309934988	6.1611977	2.482176
3.60233979973359	6.19119	2.4882102
3.619875252856575	6.1429505	2.4784977
3.6374107907743034	6.1317954	2.476246
3.6549464138986427	6.1806965	2.4861007
3.6724821226414788	6.2607675	2.5021527
3.690017917414714	6.4512095	2.5399232
3.7075537986302702	6.5010777	2.549721
3.7250897667000857	6.5423303	2.557798
3.7426258220361235	6.520088	2.5534463
3.7601619650503553	6.716099	2.5915437
3.777698196154779	7.2496924	2.6925254
3.7952345157614067	8.186699	2.8612409
3.8127709242822716	9.106808	3.0177488
3.830307422129425	11.195164	3.3459175
3.847844009714936	30.040878	5.480956
3.8653806874508954	97.55041	9.876761
3.882917455749409	96.869286	9.842219
3.900454315022606	96.6772	9.832457
3.917991265682631	41.21629	6.4199915
3.9355283081416506	10.862957	3.2959
3.9530654428118495	8.812226	2.9685395
3.970602670105433	7.6253204	2.7613983
3.9881399904346244	6.725414	2.5933404
4.005677404211669	6.6788354	2.5843444
4.023214911848827	6.6611147	2.5809135
4.0407525137583855	6.643102	2.5774217
4.058290210352644	6.5084896	2.5511742
4.075828002043927	6.3922763	2.528295
4.0933658892445814	6.353642	2.5206432
4.110903872366966	6.2829857	2.5065885
4.128441951823468	6.286085	2.5072067
4.145980128026488	6.2660065	2.5031993
4.163518401388452	6.249767	2.4999533
4.181056772321807	6.2949953	2.508983
4.1985952412390155	6.2705445	2.5041056
4.216133808552567	6.231638	2.4963248
4.233672474674966	6.307002	2.5113745
4.251211240018741	6.590921	2.5672789
4.268750104996445	6.8377037	2.6149004
4.286289070020643	7.7577233	2.785269
4.303828135503928	9.346562	3.0572147
4.3213673018589125	29.599953	5.4405837
4.3389065694982305	90.73692	9.525593
4.356445938834537	165.98633	12.883568
4.3739854102805085	171.80408	13.107406
4.391524984248844	172.75093	13.143475
4.409064661152262	136.82823	11.69736
4.426604441403504	97.10667	9.854272
4.444144325415337	75.67993	8.699421
4.461684313600543	21.609097	4.6485586
4.47922440637193	21.935862	4.6835737
4.496764604142329	20.405138	4.5172048
4.5143049073245916	18.740755	4.3290596
4.531845316331589	16.49318	4.0611796
4.5493858315762195	13.694398	3.7005942
4.566926453471405	11.249809	3.3540735
4.584467182430081	9.378872	3.0624943
4.602008018865218	8.231477	2.869055
4.619548963189798	7.57403	2.7520955
4.637090015816834	7.0494485	2.6550798
4.654631177159353	6.7971864	2.6071415
4.672172447630417	6.468095	2.5432448
4.689713827643102	6.345142	2.5189564
4.7072553176105085	6.0339932	2.4564188
4.724796917945764	5.8397226	2.4165518
4.742338629062015	5.7296534	2.3936694
4.759880451372434	5.773588	2.4028292
4.777422385290215	5.751218	2.3981698
4.794964431228581	5.7384744	2.3955114
4.812506589600768	5.650401	2.3770573
4.830048860820047	5.633081	2.3734112
4.847591245299709	5.5975986	2.3659244
4.8651337434530655	5.582449	2.3627207
4.882676355693457	5.536712	2.3530219
4.900219082434242	5.5876474	2.3638206
4.917761924088813	5.563907	2.3587935
4.935304881070575	5.6423383	2.3753607
4.952847953792969	5.673763	2.381966
4.970391142669449	5.5940537	2.3651752
4.9879344481135055	5.570653	2.360223
5.005477870538642	5.5482626	2.355475
5.023021410358394	5.5579867	2.3575382
5.040565067986324	5.63344	2.373487
5.05810884383601	5.5627494	2.3585482
5.075652738321066	5.6174464	2.3701153
5.09319675185512	5.4992695	2.3450522
5.110740884851836	5.482235	2.3414173
5.128285137724894	5.4326863	2.3308125
5.145829510888007	5.412614	2.3265026
5.163374004754908	5.3455715	2.3120492
5.1809186197393595	5.3546743	2.3140168
5.198463356255145	5.379104	2.3192897
5.216008214716077	5.396998	2.323144
5.233553195535998	5.4277496	2.3297532
5.251098299128764	5.4377384	2.3318958
5.268643525908272	5.4357305	2.3314652
5.286188876288432	5.367621	2.3168128
5.3037343506831895	5.312551	2.304897
5.32127994950651	5.2579513	2.2930224
5.3388256731723915	5.211847	2.282947
5.356371522094851	5.162429	2.2720978
5.373917496687938	5.2167554	2.2840219
5.391463597365729	5.2536883	2.2920926
5.40900982454232	5.1663456	2.2729597
5.426556178631843	5.1395783	2.2670639
5.444102660048449	5.1815643	2.276305
5.4616492692063225	5.2055397	2.2815652
5.479196006519669	5.213354	2.283277
5.496742872402727	5.2191377	2.2845433
5.514289867269756	5.2024775	2.280894
5.531836991535049	5.189584	2.2780657
5.549384245612924	5.1216354	2.263103
5.566931629917724	5.087565	2.255563
5.584479144863822	5.0747895	2.2527294
5.6020267908656205	5.110072	2.260547
5.619574568337545	5.102915	2.258963
5.637122477694054	5.1176763	2.2622283
5.654670519349629	5.1267457	2.264232
5.672218693718784	5.111738	2.2609153
5.689767001216059	5.138788	2.2668896
5.707315442256021	5.1310635	2.265185
5.724864017253266	5.1412497	2.2674325
5.7424127266224225	5.2037663	2.2811766
5.75996157077814	5.237778	2.2886193
5.777510550135105	5.2666864	2.2949262
5.795059665108022	5.2205205	2.2848458
5.812608916111639	5.2193756	2.2845953
5.830158303560715	5.3428016	2.31145
5.847707827870055	5.3604155	2.315257
5.86525748945448	5.4599466	2.3366528
5.8828072887288485	5.5008235	2.3453834
5.900357226108044	5.533285	2.3522935
5.917907302006979	5.5759163	2.361338
5.9354575168406	6.0992103	2.469658
5.9530078710238765	6.7389917	2.5959568
5.970558364971812	7.265718	2.6954997
5.988108999099438	7.610654	2.7587414
6.005659773821818	8.1282425	2.8510072
6.023210689554039	7.804657	2.7936816
6.040761746711227	8.177031	2.8595507
6.058312945708531	7.5883756	2.7547007
6.075864286961132	7.1910615	2.6816154
6.093415770884244	6.5526505	2.5598145
6.1109673978931065	6.0674834	2.4632263
6.128519168402993	5.4555593	2.3357139
6.146071082829204	5.294297	2.300934
6.163623141587075	5.243714	2.2899158
6.181175345091969	5.2732143	2.296348
6.198727693759281	5.2687407	2.2953737
6.216280188004435	5.260209	2.2935145
6.233832828242885	5.194789	2.279208
6.251385614890126	5.158253	2.2711787
6.268938548361669	5.163199	2.2722673
6.286491629073067	5.1036315	2.259122
6.304044857439898	5.0941353	2.257019
6.321598233877777	5.039838	2.2449584
6.339151758802344	5.0066113	2.2375457
6.356705432629277	5.0060644	2.2374237
6.37425925577428	5.0269	2.242075
6.391813228653095	5.02334	2.241281
6.409367351681486	4.999658	2.2359915
6.426921625275259	4.979186	2.231409
6.44447604985025	5.0181074	2.2401133
6.46203062582232	5.080694	2.2540395
6.47958535360737	5.1246567	2.2637703
6.497140233621328	5.144339	2.2681136
6.514695266280161	5.144145	2.2680707
6.532250451999859	5.09384	2.2569537
6.549805791196454	5.04305	2.2456737
6.567361284286002	5.030922	2.2429717
6.584916931684597	5.047244	2.2466073
6.602472733808367	5.0863028	2.2552834
6.6200286910734665	5.074418	2.252647
6.637584803896092	5.063289	2.2501755
6.655141072692462	5.06826	2.2512796
6.672697497878842	5.0887804	2.2558324
6.690254079871514	5.017902	2.2400675
6.707810819086808	4.99603	2.2351801
6.725367715941078	4.9521317	2.2253385
6.742924770850719	5.0135202	2.2390893
6.760481984232151	5.04085	2.2451837
6.778039356501836	5.0724745	2.2522154
6.795596888076266	5.049355	2.247077
6.813154579371963	5.023685	2.2413578
6.830712430805492	5.0126925	2.2389042
6.84827044279344	5.0463123	2.2463999
6.865828615752445	5.080486	2.2539933
6.883386950099159	5.1068645	2.2598372
6.900945446250287	5.08024	2.2539387
6.918504104622553	5.036347	2.2441807
6.936062925632727	5.0269575	2.2420878
6.953621909697607	5.012223	2.2387993
6.971181057234028	5.133187	2.2656536
6.988740368658859	5.1804485	2.2760599
7.006299844389007	5.2663074	2.2948437
7.023859484841407	5.3340006	2.3095455
7.041419290433036	5.4117975	2.326327
7.058979261580902	5.502467	2.345734
7.0765393987020495	5.7620974	2.4004369
7.094099702213559	6.1518316	2.4802885
7.111660172532549	6.511163	2.5516982
7.129220810076164	6.775343	2.602949
7.146781615261595	7.4144745	2.7229533
7.16434258850606	7.649571	2.7657857
7.181903730226821	8.173781	2.8589826
7.1994650408411704	8.28672	2.8786664
7.217026520766437	8.267115	2.8752592
7.234588170419983	8.492459	2.9141824
7.252149990219215	8.4256525	2.9026976
7.269711980581568	8.3410635	2.88809
7.2872741419245175	8.081029	2.842715
7.304836474665574	7.7216506	2.7787857
7.322398979222286	7.4238296	2.7246706
7.339961656012233	7.121853	2.66868
7.357524505453039	6.797996	2.6072967
7.375087527962357	6.4847565	2.5465186
7.392650723957886	6.2693706	2.5038712
7.410214093857353	5.9717073	2.4437077
7.427777638078528	5.7909803	2.4064455
7.445341357039213	5.5245013	2.3504257
7.4629052511572525	5.374756	2.318352
7.480469320850524	5.3031225	2.302851
7.498033566536948	5.3776135	2.3189683
7.5155979886344735	5.356464	2.3144035
7.5331625875610975	5.2791433	2.2976387
7.550727363734844	5.2376842	2.2885988
7.568292317573788	5.2399693	2.289098
7.585857449496025	5.25825	2.2930875
7.603422759919705	5.192667	2.2787423
7.620988249263007	5.1577635	2.271071
7.638553917944147	5.148781	2.2690926
7.656119766381391	5.1769385	2.2752886
7.673685794993023	5.2115483	2.2828815
7.691252004197388	5.2588887	2.2932267
7.70881839441285	5.3094354	2.3042212
7.726384966057826	5.356678	2.3144498
7.743951719550762	5.3054786	2.3033624
7.761518655310149	5.2552333	2.2924294
7.779085773754511	5.2473545	2.2907104
7.796653075302419	5.2779727	2.2973838
7.814220560372475	5.2872877	2.2994103
7.831788229383323	5.2257495	2.2859898
7.8493560827536495	5.2324133	2.287447
7.866924120902174	5.27361	2.2964342
7.884492344247663	5.314141	2.305242
7.9020607532089135	5.3917394	2.322012
7.919629348204771	5.4391026	2.3321884
7.937198129654115	5.4484286	2.334187
7.954767097975865	5.4218874	2.3284945
7.972336253588986	5.4286304	2.3299422
7.989905596912472	5.4360795	2.33154
8.007475128365371	5.498055	2.344793
8.025044848366756	5.536124	2.352897
8.042614757335754	5.6159377	2.369797
8.060184855691523	5.665668	2.3802664
8.07775514385327	5.8349247	2.4155588
8.095325622240228	5.895318	2.4280276
8.112896291271687	5.941378	2.4374943
8.130467151366968	5.93853	2.43691
8.148038202945436	6.0042567	2.4503584
8.165609446426497	6.041403	2.4579265
8.183180882229594	6.063974	2.4625137
8.200752510774217	6.028294	2.4552584
8.218324332479893	6.0211997	2.4538133
8.235896347766193	6.021762	2.4539278
8.253468557052724	6.012465	2.4520328
8.27104096075914	6.044984	2.4586549
8.288613559305137	6.05365	2.4604166
8.306186353110448	6.1093755	2.471715
8.32375934259485	6.2751074	2.5050163
8.341332528178162	6.320379	2.5140364
8.358905910280246	6.327754	2.5155027
8.376479489321003	6.225261	2.4950473
8.394053265720377	6.2555785	2.5011156
8.411627239898356	6.237931	2.497585
8.42920141227497	6.204222	2.4908276
8.44677578327029	6.208375	2.491661
8.464350353304427	6.1975846	2.4894948
8.48192512279754	6.238049	2.4976087
8.499500092169827	6.178091	2.4855766
8.51707526184153	6.212436	2.492476
8.534650632232934	6.1815877	2.48628
8.552226203764365	6.1407228	2.478048
8.569801976856192	6.1593814	2.48181
8.587377951928834	6.23491	2.4969802
8.60495412940274	6.3602066	2.521945
8.622530509698416	6.434313	2.5365946
8.6401070932364	6.558959	2.5610464
8.657683880437283	6.6523123	2.5792077
8.675260871721695	6.799876	2.6076572
8.692838067510303	6.9500484	2.6362944
8.710415468223834	7.1478615	2.6735485
8.727993074283043	7.337111	2.7087102
8.745570886108737	7.272891	2.6968298
8.763148904121765	7.2167125	2.686394
8.78072712874302	7.1620207	2.6761951
8.798305560393441	7.4430747	2.7282
8.815884199494006	7.6484137	2.7655766
8.833463046465745	7.821557	2.7967048
8.851042101729728	7.9298606	2.8160007
8.86862136570707	8.205764	2.8645704
8.886200838818924	8.371892	2.8934221
8.903780521486505	8.401848	2.8985941
8.921360414131055	8.548324	2.9237516
8.938940517173874	8.677032	2.9456804
8.956520831036297	8.882303	2.9803193
8.97410135613971	9.132882	3.0220659
8.99168209290554	9.228348	3.0378196
9.009263041755265	9.376479	3.0621037
9.026844203110405	9.672944	3.1101358
9.044425577392525	9.872076	3.141986
9.062007165023239	10.025823	3.166358
9.079588966424197	10.296226	3.2087731
9.097170982017108	10.338281	3.2153196
9.11475321222372	11.176981	3.3431993
9.132335657465825	11.9723	3.4601011
9.149918318165264	12.058093	3.4724765
9.167501194743924	12.644349	3.5558894
9.18508428762374	12.447297	3.5280728
9.202667597226693	12.417531	3.5238516
9.220251123974803	12.062429	3.473101
9.237834868290143	11.765977	3.430157
9.255418830594836	11.721654	3.42369
9.273003011311046	11.1945095	3.3458197
9.290587410860985	10.935203	3.3068419
9.308172029666911	10.233109	3.198923
9.32575686815113	9.976882	3.1586204
9.343341926735997	8.789874	2.9647722
9.360927205843916	8.545344	2.923242
9.378512705897327	8.402975	2.8987885
9.396098427318728	8.227838	2.8684208
9.413684370530664	8.121247	2.8497803
9.431270535955722	7.993275	2.827238
9.448856924016539	7.928207	2.8157072
9.466443535135806	7.7500076	2.7838836
9.484030369736251	7.7181973	2.7781644
9.501617428240658	7.7618937	2.7860177
9.519204711071852	7.7948427	2.7919245
9.536792218652714	7.844705	2.8008401
9.55437995140617	7.8280873	2.7978718
9.571967909755191	7.865383	2.804529
9.589556094122802	7.9356074	2.8170211
9.60714450493207	7.91347	2.813089
9.624733142606116	7.907419	2.8120134
9.642322007568108	7.9682484	2.8228085
9.659911100241267	8.067559	2.840345
9.677500421048851	8.136871	2.8525202
9.695089970414175	8.10908	2.8476448
9.712679748760609	8.024013	2.8326688
9.730269756511557	7.9793024	2.824766
9.747859994090492	8.075055	2.841664
9.765450461920915	8.238111	2.870211
9.78304116042639	8.304885	2.8818197
9.800632090030527	8.280518	2.8775887
9.81822325115699	8.250369	2.8723457
9.835814644229481	8.254742	2.8731067
9.853406269671762	8.272385	2.8761754
9.870998127907646	8.2690115	2.875589
9.888590219360985	8.243155	2.8710895
9.906182544455698	8.295916	2.880263
9.923775103615734	8.316255	2.8837917
9.941367897265108	8.303176	2.8815231
9.958960925827878	8.277074	2.8769903
9.97655418972816	8.247035	2.8717651
9.994147689390106	8.22212	2.867424
10.011741425237934	8.291353	2.879471
10.029335397695904	8.323981	2.8851311
10.04692960718833	8.325303	2.8853602
10.06452405413958	8.349228	2.889503
10.082118738974064	8.361673	2.891656
10.099713662116246	8.337608	2.8874917
10.117308823990651	8.324341	2.8851933
10.134904225021844	8.213144	2.8658583
10.152499865634445	8.173604	2.8589516
10.170095746253125	8.156718	2.8559968
10.18769186730261	8.124122	2.8502846
10.205288229207675	8.160495	2.856658
10.222884832393145	8.116796	2.848999
10.2404816772839	8.102927	2.846564
10.258078764304868	8.073549	2.8413992
10.275676093881035	8.034571	2.8345318
10.293273666437438	8.063239	2.8395844
10.310871482399158	8.140272	2.8531163
10.32846954219134	8.073039	2.8413093
10.346067846239173	8.052373	2.8376703
10.363666394967908	8.045068	2.8363829
10.38126518880283	8.141227	2.8532834
10.398864228169298	8.241577	2.8708148
10.416463513492713	8.233169	2.86935
10.434063045198531	8.156843	2.8560188
10.451662823712262	8.139107	2.852912
10.469262849459467	8.133082	2.851856
10.486863122865758	8.130857	2.851466
10.504463644356806	8.186067	2.8611302
10.522064414358338	8.174119	2.8590417
10.539665433296118	8.087914	2.843926
10.557266701595987	7.9673667	2.8226523
10.574868219683818	7.7478423	2.7834947
10.592469987985552	7.656083	2.7669628
10.610072006927185	7.616311	2.7597666
10.627674276934751	7.607086	2.7580945
10.64527679843435	7.4455338	2.7286506
10.662879571852143	7.298056	2.7014914
10.680482597614331	7.1281366	2.669857
10.698085876147173	7.0617647	2.6573982
10.715689407876988	7.051269	2.6554227
10.733293193230146	6.9854255	2.6429956
10.750897232633072	6.87796	2.6225865
10.76850152651225	6.754888	2.5990167
10.786106075294207	6.670288	2.58269
10.803710879405534	6.598131	2.5686827
10.821315939272877	6.490074	2.5475624
10.83892125532294	6.389054	2.5276577
10.856526827982472	6.221565	2.4943066
10.874132657678285	6.207084	2.4914021
10.891738744837243	6.1266537	2.4752078
10.909345089886271	6.148092	2.4795346
10.926951693252343	6.119569	2.4737763
10.944558555362494	6.054352	2.4605591
10.96216567664381	5.947431	2.4387355
10.979773057523436	5.857004	2.4201248
10.997380698428573	5.7986307	2.4080346
11.014988599786477	5.782954	2.4047773
11.032596762024461	5.78634	2.4054813
11.050205185569892	5.7243195	2.392555
11.067813870850198	5.7184105	2.3913198
11.085422818292859	5.5900307	2.3643246
11.10303202832541	5.5237627	2.3502686
11.120641501375454	5.415066	2.3270295
11.138251237870636	5.383845	2.3203113
11.155861238238671	5.3417716	2.3112273
11.173471502907317	5.284735	2.2988553
11.191082032304402	5.1935697	2.2789404
11.208692826857805	5.139048	2.2669468
11.226303886995465	5.157009	2.270905
11.243915213145371	5.2037635	2.2811759
11.261526805735578	5.122277	2.2632446
11.279138665194196	4.968092	2.2289217
11.296750791949393	4.8362975	2.1991584
11.314363186429393	4.810414	2.1932657
11.331975849062479	4.72557	2.1738377
11.34958878027699	4.664175	2.15967
11.36720198050133	4.6103497	2.1471725
11.384815450163948	4.570882	2.137962
11.402429189693366	4.5219817	2.1264951
11.420043199518153	4.504606	2.1224058
11.437657480066942	63.464848	7.9664826
11.455272031768422	85.14741	9.227535
11.472886855051353	107.51415	10.368903
11.490501950344528	99.15348	9.957584
11.508117318076819	84.561386	9.195726
11.52573295867715	45.961918	6.779522
11.543348872574514	4.2672806	2.0657396
11.560965060197946	4.2289963	2.0564523
11.57858152197655	4.203609	2.0502706
11.59619825833949	4.1210866	2.030046
11.613815269715985	4.055185	2.013749
11.631432556535323	38.567585	6.2102804
11.649050119226837	83.10079	9.115964
11.666667958219929	93.49072	9.66906
11.68428607394406	107.71646	10.3786545
11.701904466828756	82.49631	9.082747
11.719523137303586	65.32704	8.082515
11.737142085798196	4.5486693	2.132761
11.754761312742286	3.6923773	1.921556
11.772380818565619	3.6752524	1.9170948
11.790000603698015	3.6709569	1.9159741
11.80762066856935	3.6629853	1.9138927
11.825241013609572	3.6352644	1.906637
11.842861639248683	3.6147838	1.9012585
11.860482545916748	3.5252175	1.8775563
11.878103734043883	3.4897923	1.8680986
11.895725204060282	3.4504836	1.8575478
11.91334695639619	3.425903	1.8509195
11.930968991481919	3.3849895	1.8398341
11.948591309747824	3.3580973	1.8325112
11.966213911624347	3.3478518	1.8297136
11.98383679754198	3.3529139	1.8310964
12.001459967931268	3.3608954	1.8332745
12.019083423222835	3.3299782	1.8248228
12.036707163847352	3.2838502	1.8121396
12.05433119023556	3.2078016	1.7910336
12.071955502818259	3.166198	1.7793814
12.089580102026313	3.1601036	1.777668
12.107204988290643	3.125501	1.7679086
12.12483016204224	3.1349282	1.7705729
12.142455623712152	3.1235826	1.767366
12.16008137373149	3.1743705	1.7816763
12.177707412531431	3.1952178	1.7875172
12.19533374054321	3.154687	1.7761438
12.212960358198126	3.0879786	1.7572645
12.230587265927545	3.0335793	1.7417173
12.248214464162889	3.0413783	1.7439548
12.265841953335649	3.0371797	1.7427506
12.283469733877375	3.05052	1.7465738
12.301097806219685	3.0254452	1.7393807
12.31872617079425	3.0165658	1.7368263
12.336354828032825	2.9868886	1.7282617
12.353983778367205	2.9252734	1.7103431
12.371613022229262	2.8957114	1.701679
12.389242560050928	2.8802338	1.6971252
12.406872392264201	2.892561	1.7007531
12.424502519301143	2.8644617	1.6924721
12.442132941593874	2.8421316	1.6858623
12.459763659574586	2.8076441	1.6756027
12.477394673675532	2.8416543	1.6857207
12.49502598432903	2.8444662	1.6865546
12.51265759196746	2.852827	1.6890314
12.530289497023267	2.806315	1.675206
12.547921699928967	2.7554145	1.6599442
12.565554201117134	2.7533245	1.6593145
12.583187001020404	2.7451437	1.6568475
12.600820100071486	2.7488441	1.6579639
12.618453498703152	2.7539136	1.659492
12.636087197348235	2.7520945	1.6589438
12.65372119643964	2.7967124	1.6723374
12.671355496410326	2.8056142	1.6749967
12.68899009769333	2.881755	1.6975733
12.706625000721749	2.9229896	1.7096753
12.724260205928752	2.942303	1.7153143
12.741895713747551	2.8924603	1.7007235
12.759531524611454	2.896878	1.7020217
12.777167638953818	2.9087124	1.7054948
12.794804057208072	2.9445772	1.7159771
12.812440779807702	3.0140944	1.7361147
12.830077807186271	3.2018735	1.7893779
12.847715139777405	3.2404013	1.8001114
12.865352778014795	3.433926	1.8530855
12.882990722332197	3.5846794	1.893325
12.90062897316344	3.6942654	1.9220471
12.918267530942412	3.7842999	1.9453276
12.935906396103071	3.665476	1.9145433
12.953545569079449	3.8117404	1.9523679
12.971185050305628	3.6248813	1.9039121
12.988824840215775	3.6154537	1.9014347
13.006464939244115	3.5968761	1.8965433
13.024105347824943	3.4253435	1.8507683
13.041746066392617	3.4772773	1.8647459
13.05938709538157	3.2974648	1.8158923
13.077028435226296	3.326385	1.823838
13.094670086361363	3.2528088	1.8035545
13.112312049221401	3.1672316	1.7796718
13.129954324241112	3.0914402	1.7582492
13.147596911855258	2.8978584	1.7023097
13.165239812498685	2.8631856	1.692095
13.182883026606293	2.8033857	1.6743314
13.200526554613058	2.7868464	1.6693851
13.218170396954017	2.802275	1.6739997
13.235814554064284	2.8051584	1.6748607
13.253459026379034	2.7703834	1.6644468
13.271103814333523	2.7148228	1.6476719
13.288748918363058	2.7192326	1.6490096
13.306394338903031	2.776745	1.6663568
13.32404007638889	2.7398975	1.6552635
13.341686131256164	2.7180738	1.6486582
13.359332503940449	2.642864	1.6256888
13.376979194877402	2.630498	1.621881
13.394626204502751	2.6786509	1.6366584
13.412273533252307	2.7009244	1.643449
13.429921181561937	2.7430525	1.6562163
13.447569149867581	2.7753873	1.6659493
13.465217438605247	2.770475	1.6644744
13.482866048211022	2.7265482	1.6512263
13.500514979121052	2.699765	1.6430962
13.518164231771568	2.697743	1.6424807
13.535813806598844	2.6972573	1.6423329
13.553463704039254	2.6817605	1.6376082
13.571113924529229	2.6809924	1.6373736
13.588764468505275	2.7175221	1.6484909
13.606415336403956	2.7738621	1.6654916
13.624066528661917	2.8243566	1.6805822
13.641718045715882	2.87381	1.6952316
13.659369888002635	2.9139135	1.7070189
13.67702205595903	2.9199948	1.7087992
13.694674550021993	2.9560854	1.719327
13.712327370628532	3.0349677	1.7421159
13.729980518215713	3.1290994	1.768926
13.747633993220681	3.2418654	1.800518
13.765287796080647	3.2768965	1.81022
13.7829419272329	3.3085117	1.8189315
13.800596387114801	3.3054554	1.8180912
13.818251176163775	3.3051834	1.8180163
13.835906294817324	3.3392982	1.8273747
13.853561743513023	3.382733	1.8392208
13.871217522688525	3.451756	1.8578902
13.888873632781538	3.5327067	1.8795496
13.906530074229858	3.548729	1.8838071
13.92418684747135	3.5279644	1.8782876
13.941843952943948	3.4947639	1.8694288
13.959501391085665	3.4696732	1.8627058
13.977159162334578	3.4191923	1.8491058
13.994817267128846	3.4039185	1.8449712
14.012475705906693	3.2970653	1.8157823
14.030134479106424	3.2117133	1.7921253
14.047793587166414	3.0868728	1.7569499
14.065453030525108	3.0339203	1.7418152
14.083112809621026	3.0110135	1.7352272
14.100772924892766	2.9937136	1.7302351
14.118433376778997	2.9728143	1.7241851
14.136094165718458	2.9212322	1.7091613
14.153755292149969	2.8299427	1.6822433
14.171416756512416	2.7542741	1.6596006
14.189078559244768	2.654475	1.629256
14.20674070078606	2.5968251	1.6114668
14.224403181575408	2.5095117	1.5841439
14.242066002051999	2.4734766	1.572729
14.259729162655093	2.4583108	1.5679002
14.277392663824022	2.4207811	1.5558859
14.295056505998208	2.4089391	1.5520757
14.312720689617128	2.3844624	1.5441705
14.330385215120348	2.3850262	1.544353
14.348050082947497	2.4292064	1.5585911
14.3657152935383	2.4336433	1.5600139
14.383380847332528	2.3960302	1.5479115
14.401046744770051	2.3578832	1.53554
14.418712986290798	2.3251283	1.5248371
14.436379572334793	2.3345716	1.5279305
14.454046503342123	2.344534	1.531187
14.471713779752946	2.3503263	1.5330774
14.489381402007504	2.3451376	1.5313842
14.507049370546113	2.3466954	1.5318928
14.524717685809168	2.363544	1.5373822
14.542386348237134	2.3858254	1.5446117
14.560055358270553	2.38347	1.5438491
14.577724716350051	2.4040399	1.5504967
14.595394422916325	2.4477835	1.5645394
14.61306447841015	2.517472	1.5866543
14.63073488327237	2.535757	1.592406
14.648405637943917	2.5745242	1.6045324
14.6660767428658	2.573815	1.6043115
14.683748198479094	2.5735786	1.6042377
14.701420005224954	2.5878086	1.6086667
14.719092163544628	2.6339936	1.6229583
14.73676467387942	2.723455	1.6502893
14.754437536670727	2.720236	1.6493138
14.772110752360014	2.6696374	1.6339025
14.78978432138882	2.640167	1.6248591
14.807458244198777	2.6367724	1.6238141
14.82513252123159	2.6194923	1.6184846
14.842807152929028	2.6651514	1.6325291
14.860482139732962	2.6804566	1.63721
14.87815748208531	2.6787639	1.636693
14.8958331804281	2.6546667	1.6293148
14.91350923520342	2.6180944	1.6180527
14.931185646853438	2.6509173	1.6281638
14.948862415820408	2.667297	1.6331861
14.966539542546656	2.6584818	1.6304852
14.98421702747459	2.6407619	1.6250421
15.001894871046696	2.6640592	1.6321946
15.019573073705542	2.6800723	1.6370926
15.037251635893766	2.6818097	1.6376232
15.054930558054092	2.7143152	1.6475179
15.072609840629323	2.7676094	1.6636133
15.090289484062351	2.9137528	1.7069718
15.107969488796124	3.2273364	1.7964789
15.125649855273691	3.6705601	1.9158705
15.14333058393817	4.177527	2.0439
15.161011675232768	5.0612493	2.249722
15.17869312960076	6.413083	2.5324066
15.196374947485506	8.2266865	2.86822
15.214057129330447	11.311527	3.3632615
15.231739675579114	15.97811	3.997263
15.249422586675102	20.904219	4.572113
15.267105863062092	23.839056	4.8825254
15.284789505183847	23.910103	4.889796
15.302473513484218	21.64587	4.652512
15.320157888407127	18.17192	4.2628536
15.337842630396578	14.185826	3.7664077
15.355527739896656	11.091776	3.3304317
15.37321321735153	8.668845	2.9442902
15.39089906320545	6.4071813	2.531241
15.408585277902748	4.831001	2.1979537
15.42627186188783	3.7272537	1.9306097
15.443958815605198	3.2189848	1.794153
15.461646139499424	2.9548738	1.7189746
15.479333834015168	2.8549526	1.6896605
15.497021899597165	2.778623	1.6669203
15.514710336690234	2.729083	1.6519936
15.53239914573928	2.6780818	1.6364846
15.550088327189297	2.6358814	1.6235398
15.567777881485336	2.5514183	1.597316
15.58546780907256	2.4504035	1.5653764
15.6031581103962	2.4195595	1.5554934
15.620848785901568	2.417517	1.5548366
15.638539836034063	2.4874442	1.5771633
15.656231261239173	2.5056698	1.5829308
15.673923061962451	2.486657	1.5769137
15.691615238649552	2.4356873	1.5606688
15.709307791746202	2.4147096	1.5539336
15.727000721698221	2.4465744	1.564153
15.744694028951498	2.4234815	1.5567535
15.76238771395202	2.4158843	1.5543115
15.780081777145844	2.3803704	1.5428449
15.797776218979125	2.377139	1.5417974
15.815471039898094	2.3738942	1.5407447
15.833166240349064	2.339858	1.5296595
15.850861820778437	2.3616123	1.5367538
15.868557781632699	2.391668	1.5465019
15.886254123358412	2.4223025	1.5563748
15.903950846402232	2.3980699	1.5485703
15.921647951210897	2.3837998	1.5439559
15.939345438231225	2.3957763	1.5478295
15.957043307910133	2.3933923	1.5470593
15.974741560694602	2.406434	1.5512686
15.992440197031714	2.4066703	1.5513446
16.01013921736862	2.4076886	1.5516728
16.02783862215259	2.3919995	1.546609
16.045538411830933	2.3944278	1.5473939
16.06323858685107	2.362594	1.5370731
16.080939147660512	2.3645027	1.537694
16.09864009470684	2.3587444	1.5358205
16.11634142843774	2.3395488	1.5295584
16.134043149300954	2.339501	1.5295427
16.15174525774433	2.3667727	1.5384319
16.169447754215817	2.4204893	1.5557922
16.18715063916342	2.4249673	1.5572306
16.204853913035244	2.4268367	1.5578308
16.222557576279478	2.4500039	1.5652488
16.240261629344403	22.44326	4.737432
16.257966072678386	42.979507	6.555876
16.275670906729868	38.056614	6.1690044
16.293376131947387	2.5094583	1.584127
16.31108174877957	2.5264401	1.5894779
16.328787757675133	2.5555477	1.598608
16.34649415908287	2.543273	1.5947642
16.364200953451657	2.567267	1.6022693
16.38190814123048	2.587159	1.6084647
16.39961572286839	2.6135015	1.6166328
16.41732369881455	2.6826952	1.6378936
16.43503206951817	2.7267005	1.6512724
16.45274083542859	2.7525678	1.6590865
16.47044999699522	2.7652838	1.6629143
16.488159554667558	2.8328552	1.6831088
16.505869508895184	2.91085	1.7061213
16.523579860127786	2.9568899	1.719561
16.541290608815117	2.957917	1.7198596
16.559001755407035	2.9788823	1.7259439
16.57671330035348	3.0443382	1.7448032
16.59442524410448	3.1103215	1.7636104
16.61213758711015	3.1710334	1.7807395
16.629850329820705	3.214633	1.7929398
16.647563472686436	3.29448	1.8150703
16.665277016157724	3.29981	1.8165379
16.682990960685053	3.3681765	1.8352592
16.70070530671898	3.431589	1.8524548
16.718420054710155	3.522552	1.8768463
16.736135205109335	3.5757103	1.8909549
16.753850758367335	3.6269999	1.9044684
16.771566714935087	3.635298	1.9066458
16.789283075263597	3.7097983	1.9260837
16.80699983980398	3.8145454	1.9530861
16.82471700900741	3.8855524	1.9711804
16.84243458332518	3.9584124	1.989576
16.860152563208665	3.973641	1.9933994
16.87787094910932	4.030095	2.0075097
16.89558974147871	4.104253	2.0258956
16.913308940768466	4.1774993	2.043893
16.931028547430333	4.2136173	2.0527098
16.94874856191613	4.2648535	2.0651522
16.966468984677785	4.3063846	2.075183
16.98418981616729	4.333421	2.0816872
17.00191105683676	4.41334	2.100795
17.019632707138374	4.49791	2.1208277
17.03735476752442	4.5317354	2.1287873
17.05507723844728	4.4836497	2.117463
17.072800120359403	4.5005608	2.1214526
17.090523413713353	4.537772	2.1302047
17.108247118961785	4.5812526	2.140386
17.125971236557437	4.5677114	2.1372204
17.143695766953133	4.615066	2.1482704
17.161420710601806	4.666448	2.1601963
17.179146067956477	4.6897025	2.1655722
17.19687183947025	4.723452	2.1733503
17.21459802559634	4.6719	2.1614578
17.232324626788028	4.6707196	2.1611848
17.25005164349871	4.599866	2.1447299
17.267779076181863	4.597664	2.1442163
17.285506925291074	4.5913825	2.1427512
17.30323519127999	4.6572104	2.158057
17.320963874602384	4.637183	2.153412
17.33869297571211	4.6125293	2.14768
17.356422495063114	4.575104	2.1389494
17.37415243310944	4.5446963	2.1318293
17.391882790305218	4.462183	2.112388
17.40961356710468	4.4696555	2.114156
17.42734476396215	4.4919653	2.1194258
17.445076381332044	4.54815	2.1326392
17.462808419668868	4.625942	2.1508005
17.48054087942723	4.752046	2.1799188
17.498273761061835	5.0643	2.2504
17.51600706502747	5.596861	2.3657687
17.533740791779024	6.3465896	2.519244
17.551474941771485	7.7389717	2.7819006
17.56920951545993	8.783759	2.9637408
17.586944513299528	10.805611	3.2871888
17.60467993574556	12.316215	3.5094464
17.622415783253373	13.777303	3.7117789
17.64015205627843	14.992635	3.8720324
17.657888755276293	16.030788	4.0038466
17.675625880702604	16.580122	4.0718694
17.69336343301311	16.518772	4.064329
17.71110141266366	15.848264	3.9809878
17.728839820110178	14.910736	3.8614423
17.746578655808705	14.0654	3.7503867
17.764317920215372	12.631402	3.5540683
17.7820576137864	11.244982	3.3533537
17.79979773697811	9.323845	3.053497
17.81753829024692	7.537438	2.7454395
17.835279274049356	5.909529	2.4309523
17.85302068884201	4.8901777	2.2113745
17.870762535081607	4.1748257	2.043239
17.888504813224934	3.8121078	1.952462
17.90624752372891	3.636349	1.9069214
17.923990667050536	3.6057918	1.8988923
17.941734243646895	3.5679028	1.8888893
17.959478253975185	3.5189335	1.875882
17.9772226984927	3.4756582	1.8643117
17.994967577656833	3.4091725	1.8463944
18.01271289192506	3.3416915	1.8280294
18.030458641754965	3.3026464	1.8173184
18.04820482760425	3.3326826	1.8255637
18.06595144993067	3.337782	1.8269597
18.083698509192125	3.3018713	1.8171052
18.101446005846576	3.2627013	1.8062949
18.119193940352105	3.2297988	1.7971641
18.136942313166887	3.2166498	1.7935021
18.1546911247492	3.1826937	1.7840105
18.1724403755574	3.1972408	1.788083
18.19019006604997	3.1862566	1.7850089
18.207940196685467	3.1667693	1.7795419
18.225690767922575	3.141012	1.77229
18.243441780220046	3.1378503	1.7713978
18.261193234036764	3.1170027	1.7655035
18.278945129831676	3.0863426	1.756799
18.29669746806386	3.0307882	1.7409159
18.314450249192483	3.039522	1.7434225
18.3322034736768	3.0878258	1.757221
18.349957141976184	3.066847	1.7512416
18.3677112545501	2.9999588	1.7320389
18.385465811858108	2.9874845	1.7284341
18.403220814359884	3.0101268	1.7349718
18.420976262515172	3.105044	1.7621135
18.43873215678387	3.167949	1.7798733
18.456488497625923	3.19495	1.7874423
18.474245285501407	3.3034236	1.8175323
18.492002520870486	3.3771796	1.8377104
18.50976020419343	3.427017	1.8512204
18.527518335930615	3.6484258	1.9100853
18.545276916542516	4.2192545	2.0540824
18.563035946489688	4.4285846	2.1044202
18.580795426232832	4.871828	2.2072217
18.598555356232698	4.730808	2.175042
18.616315736950185	5.0084443	2.2379553
18.63407656884626	4.637598	2.1535084
18.65183785238201	4.884958	2.210194
18.669599588018617	4.7465153	2.17865
18.68736177621737	4.7967935	2.1901584
18.705124417439652	4.757481	2.181165
18.72288751214696	4.5501723	2.1331134
18.740651060800886	4.715823	2.1715946
18.758415063863115	4.4365435	2.1063104
18.77617952179546	4.6272683	2.1511087
18.793944435059814	4.350438	2.0857704
18.811709804118184	4.349529	2.0855525
18.829475629432675	4.305834	2.0750504
18.8472419114655	4.075175	2.0187063
18.86500865067897	4.160471	2.0397232
18.88277584753551	3.8356545	1.9584827
18.90054350249763	3.870911	1.967463
18.918311616027957	3.5028522	1.8715909
18.936080188589226	3.3964899	1.8429568
18.953849220644265	3.0602973	1.7493706
18.971618712656007	2.900934	1.7032129
18.9893886650875	2.8553958	1.6897917
19.007159078401887	8.011889	2.830528
19.024929953062408	32.87201	5.733412
19.042701289532435	32.806664	5.7277102
19.060473088275405	25.356674	5.035541
19.07824534975489	2.6108096	1.6158
19.096018074434568	2.5991254	1.6121804
19.113791262778197	2.627471	1.6209476
19.13156491524966	2.599819	1.6123954
19.149339032312945	2.5733232	1.6041582
19.167113614432136	2.550689	1.5970876
19.184888662071433	2.5513425	1.5972922
19.202664175695123	2.5332088	1.5916058
19.220440155767623	2.5337055	1.5917617
19.238216602753447	2.5147867	1.5858079
19.2559935171172	2.5042746	1.58249
19.27377089932361	2.4665282	1.5705185
19.291548749837514	2.472925	1.5725536
19.309327069123835	2.5058327	1.5829822
19.32710585764763	2.5025246	1.581937
19.344885115874032	2.4719331	1.5722382
19.362664844268313	2.4429584	1.5629966
19.380445043295822	2.4891973	1.577719
19.39822571342203	2.5144987	1.5857171
19.41600685511252	2.5220132	1.5880847
19.43378846883297	2.4896348	1.5778576
19.451570555049173	2.480379	1.574922
19.469353114227037	2.4644432	1.5698545
19.48713614683254	2.5090458	1.5839968
19.50491965333182	2.5162678	1.5862749
19.52270363419109	2.5190363	1.5871472
19.540488089876686	2.4917574	1.5785302
19.55827302085503	2.4697375	1.5715399
19.576058427592674	2.4738004	1.572832
19.593844310556282	2.475912	1.5735031
19.611630670212598	2.4887123	1.5775653
19.629417507028506	2.4892874	1.5777476
19.64720482147098	2.479326	1.5745876
19.6649926140071	2.461672	1.5689716
19.682780885104084	2.462176	1.5691323
19.70056963522921	2.449251	1.5650083
19.718358864849908	2.4811158	1.5751559
19.7361485744337	2.5024657	1.5819184
19.753938764448215	2.5012383	1.5815303
19.771729435361202	2.4889803	1.5776502
19.789520587640506	2.5117085	1.5848371
19.807312221754092	2.5220342	1.5880914
19.825104338170043	2.534459	1.5919985
19.842896937356517	2.5070846	1.5833776
19.860690019781824	2.5205717	1.5876309
19.87848358591436	2.5428865	1.5946431
19.896277636222635	2.5602782	1.6000869
19.914072171175278	2.5593677	1.5998024
19.931867191241015	2.5420513	1.5943812
19.94966269688869	2.5257447	1.5892591
19.967458688587264	2.5273187	1.5897543
19.985255166805807	2.508357	1.5837793
20.00305213201348	2.483271	1.5758398
20.020849584679578	2.4255238	1.5574093
20.038647525273507	2.3845391	1.5441953
20.05644595426477	2.3810573	1.5430675
20.07424487212299	2.4225435	1.5564523
20.092044279317903	2.4438505	1.563282
20.109844176319353	2.4573252	1.5675858
20.127644563597304	2.4541593	1.5665756
20.145445441621817	2.4684577	1.5711327
20.16324681086307	2.4466536	1.5641782
20.181048671791373	2.398774	1.5487976
20.198851024877122	2.3544414	1.534419
20.216653870590836	2.3875873	1.545182
20.234457209403146	2.401457	1.5496635
20.252261041784802	2.3842928	1.5441155
20.270065368206662	2.3755343	1.5412768
20.287870189139685	2.3626492	1.5370911
20.305675505054968	2.352143	1.5336698
20.323481316423702	2.3132303	1.5209308
20.341287623717207	2.290256	1.5133592
20.359094427406884	2.2872958	1.5123808
20.376901727964288	2.2861652	1.512007
20.39470952586107	2.2985141	1.5160851
20.41251782156899	2.306619	1.5187557
20.430326615559935	2.3197517	1.5230731
20.448135908305886	2.3419	1.5303268
20.465945700278965	2.3341296	1.5277859
20.483755991951384	2.3516068	1.533495
20.50156678379548	2.3512685	1.5333847
20.519378076283708	2.3760693	1.5414504
20.537189869888635	2.341867	1.530316
20.55500216508294	2.3152227	1.5215856
20.572814962339415	2.3122842	1.5206196
20.59062826213098	2.336655	1.5286121
20.60844206493066	2.32543	1.5249361
20.626256371211593	2.3267155	1.5253575
20.644071181447032	2.3510125	1.5333011
20.66188649611036	2.350732	1.5332097
20.67970231567506	2.315963	1.5218289
20.697518640614742	2.3112895	1.5202926
20.715335471403122	2.3162022	1.5219074
20.73315280851404	2.342876	1.5306456
20.750970652421447	2.3211212	1.5235226
20.768789003599412	2.314494	1.5213461
20.786607862522136	2.353326	1.5340555
20.8044272296639	2.3786852	1.5422987
20.82224710549913	2.3182988	1.5225961
20.84006749050237	2.2663815	1.5054506
20.857888385148268	3.796082	1.9483536
20.8757097899116	45.908066	6.775549
20.893531705267254	64.76586	8.047724
20.911354131690224	83.822525	9.155464
20.92917706965566	69.083015	8.31162
20.94700051963877	50.139038	7.0808926
20.96482448211493	29.434881	5.425392
20.982648957559622	4.152584	2.037789
21.00047394644843	2.2437756	1.4979237
21.01829944925707	2.2073014	1.4856989
21.036125466461375	2.240915	1.4969686
21.053951998537297	2.252102	1.5007005
21.071779045960906	2.2226055	1.4908406
21.089606609208378	2.2082386	1.4860144
21.10743468875603	2.2144952	1.488118
21.12526328508028	2.203738	1.4844992
21.143092398657675	2.1852977	1.4782753
21.16092202996488	2.1687572	1.4726701
21.17875217947867	2.2217171	1.4905425
21.19658284767596	2.253281	1.5010933
21.21441403503377	2.231197	1.4937192
21.232245742029225	2.160913	1.4700044
21.2500779691396	2.1419456	1.4635388
21.26791071684227	2.182276	1.4772528
21.28574398561475	2.211276	1.487036
21.30357777593465	2.1899486	1.4798474
21.321412088279704	2.137152	1.4619001
21.339246923127792	2.1097484	1.4524972
21.357082280956888	2.123106	1.4570882
21.3749181622451	2.1557305	1.4682406
21.392754567470647	2.1664054	1.4718714
21.41059149711187	2.1500318	1.4662987
21.42842895164726	2.1216092	1.4565744
21.446266931555378	2.098989	1.4487888
21.464105437314945	2.1112585	1.453017
21.481944469404798	2.1076167	1.4517633
21.49978402830388	2.087985	1.4449862
21.51762411449127	2.0843983	1.4437445
21.53546472844617	2.1128707	1.4535717
21.553305870647876	2.1330264	1.4604884
21.571147541575865	2.1062431	1.4512901
21.58898974170967	2.1031225	1.4502146
21.60683247152899	2.119023	1.4556865
21.62467573151363	2.1160266	1.4546568
21.642519522143523	2.0813577	1.4426911
21.660363843898722	2.074609	1.4403503
21.6782086972594	2.062261	1.4360574
21.696054082705864	2.0671895	1.4377724
21.713900000718535	2.0780883	1.4415576
21.73174645177795	2.082669	1.4431455
21.749593436364794	2.0929906	1.4467171
21.767440954959845	2.0932138	1.4467943
21.785289008044032	2.060162	1.4353265
21.803137596098388	2.062529	1.4361508
21.820986719604086	2.025976	1.4233679
21.838836379042412	1.9875224	1.4097952
21.85668657489478	1.9978005	1.4134357
21.87453730764273	2.0257714	1.423296
21.892388577767914	2.0241814	1.4227372
21.91024038575213	2.025297	1.4231293
21.928092732077285	2.0558386	1.4338195
21.945945617225426	2.0545347	1.4333647
21.963799041678694	2.023278	1.4224198
21.981653005919398	31.330818	5.597394
21.999507510429943	78.12897	8.839059
22.01736255569286	73.07496	8.548389
22.035218142190818	4.204873	2.0505788
22.05307427040661	2.0268755	1.4236838
22.07093094082315	2.0154161	1.4196535
22.088788153923474	2.02047	1.4214324
22.106645910190746	2.028133	1.4241253
22.12450421010827	2.0651457	1.4370615
22.142363054159464	2.0433142	1.4294454
22.16022244282787	1.9929792	1.4117291
22.178082376597164	1.9776255	1.4062808
22.195942855951145	1.9981974	1.4135761
22.213803881373742	1.9987485	1.413771
22.231665453349002	1.95451	1.3980379
22.24952757236111	1.9590018	1.3996434
22.26739023889438	1.9665357	1.4023322
22.28525345343323	2.0067503	1.4165982
22.30311721646225	2.040421	1.4284331
22.320981528466113	2.0506122	1.4319959
22.33884638992964	2.012031	1.4184608
22.356711801337788	1.9803184	1.4072379
22.37457776317561	1.9392521	1.3925704
22.392444275928337	1.9295952	1.3890988
22.410311340081282	1.9717638	1.4041951
22.428178956119904	1.9916528	1.4112593
22.446047124529805	1.9548824	1.3981711
22.46391584579669	1.9387302	1.392383
22.481785120406414	1.9288836	1.3888425
22.49965494884496	1.9476832	1.3955942
22.51752533159841	1.9481101	1.3957472
22.53539626915302	1.9889942	1.4103171
22.553267761995137	1.9435207	1.3941021
22.571139810611264	1.912038	1.3827646
22.589012415488025	1.87822	1.3704816
22.60688557711216	1.8940349	1.3762394
22.624759295970566	1.921554	1.3862013
22.642633572550263	1.9735662	1.4048367
22.660508407338362	1.950421	1.3965747
22.67838380082217	1.965613	1.4020032
22.696259753489077	1.9545792	1.3980627
22.714136265826614	1.9512206	1.396861
22.73201333832246	1.9109495	1.382371
22.74989097146439	1.928235	1.388609
22.76776916574035	1.9331834	1.3903897
22.785647921638393	1.9089332	1.3816415
22.803527239646712	1.8792259	1.3708485
22.82140712025363	1.8993168	1.378157
22.839287563947593	1.9389632	1.3924665
22.85716857121719	1.9264542	1.3879676
22.875050142551135	1.8884966	1.3742259
22.892932278438277	1.900283	1.3785075
22.910814979367604	1.9089891	1.3816617
22.928698245828222	1.9385619	1.3923225
22.946582078309387	1.8873563	1.3738109
22.96446647730047	1.90285	1.3794383
22.98235144329098	1.9213586	1.3861308
23.000236976770562	1.9410051	1.3931996
23.018123078229	1.8861315	1.373365
23.03600974815619	1.8603778	1.3639567
23.053896987042194	1.874878	1.3692619
23.071784795377173	1.9010109	1.3787715
23.08967317365145	1.8766667	1.3699149
23.10756212235546	1.8382154	1.355808
23.125451641979787	1.8711857	1.3679129
23.143341733015134	1.9131958	1.3831832
23.161232395952357	1.934518	1.3908695
23.179123631282426	1.9584494	1.3994461
23.197015439496468	1.9668775	1.4024541
23.214907821085717	1.9610237	1.4003656
23.23280077654157	1.9229712	1.3867124
23.250694306355538	1.9118192	1.3826855
23.268588411019277	1.92493	1.3874185
23.28648309102458	1.9288793	1.388841
23.304378346863356	1.9173009	1.3846663
23.322274179027676	1.9149804	1.3838282
23.340170588009723	1.9158512	1.3841428
23.358067574301852	1.9309537	1.3895876
23.37596513839651	1.8751614	1.3693653
23.39386328078629	1.9231546	1.3867785
23.411762001963947	1.9793413	1.4068906
23.429661302422353	2.011208	1.4181707
23.4475611826545	1.9382043	1.392194
23.46546164315356	1.8837898	1.3725122
23.48336268441279	1.8401217	1.3565109
23.501264306925638	1.8323097	1.3536284
23.51916651118564	1.8619156	1.3645203
23.537069297686497	1.8864837	1.3734932
23.554972666922037	1.8843911	1.3727312
23.57287661938623	1.8897445	1.3746798
23.59078115557318	1.9094442	1.3818264
23.608686275977128	1.9102924	1.3821332
23.62659198109246	1.9197783	1.3855606
23.6444982714137	1.9328345	1.3902642
23.66240514743549	1.9085035	1.3814859
23.68031260965263	1.9091564	1.3817223
23.698220658560068	1.8934826	1.3760387
23.716129294652845	1.8820049	1.3718618
23.7340385184262	1.8738583	1.3688895
23.75194833037546	1.8767282	1.3699373
23.769858730996123	1.909328	1.3817843
23.78776972078382	1.9231958	1.3867934
23.80568130023431	1.8990194	1.3780491
23.823593469843495	1.878405	1.3705492
23.841506230107424	1.8530494	1.3612676
23.859419581522275	1.8947307	1.3764921
23.87733352458438	1.9637302	1.4013315
23.89524805979019	1.9847682	1.408818
23.913163187636318	1.9536414	1.3977273
23.931078908619508	1.9325505	1.3901621
23.948995223236633	1.9466685	1.3952307
23.966912131984735	1.9705703	1.4037701
23.98482963536096	2.0050888	1.4160116
24.002747733862616	2.004601	1.4158393
24.020666427987155	2.0047	1.4158742
24.038585718232156	2.0214105	1.4217632
24.056505605095353	2.0311797	1.4251946
24.074426089074617	2.0240011	1.422674
24.092347170667946	2.0395708	1.4281354
24.110268850373515	2.0135577	1.4189988
24.128191128689586	1.9943014	1.4121974
24.146114006114626	1.9913478	1.4111512
24.164037483147187	2.0550265	1.4335364
24.181961560286005	2.0405457	1.4284767
24.199886238029926	2.013159	1.4188584
24.21781151687797	2.0172422	1.4202965
24.235737397329274	2.0652947	1.4371133
24.253663879883135	2.075659	1.4407147
24.271590965038975	2.0329132	1.4258027
24.289518653296376	2.027202	1.4237984
24.30744694515505	2.051233	1.4322126
24.32537584111486	2.0919466	1.4463563
24.34330534167581	2.041248	1.4287225
24.361235447338046	2.0499237	1.4317554
24.379166158601876	2.0417185	1.4288871
24.39709747596772	2.0635939	1.4365214
24.41502939993615	2.0192754	1.4210122
24.432961931007917	1.9642708	1.4015244
24.450895069683856	2.008168	1.4170984
24.468828816465	2.016714	1.4201106
24.4867631718525	2.0165381	1.4200486
24.504698136347656	1.9811398	1.4075297
24.52263371045192	2.006336	1.4164519
24.540569894666874	2.001171	1.4146276
24.558506689494266	1.9979906	1.4135029
24.57644409543597	1.9872074	1.4096835
24.594382112994012	1.9929808	1.4117297
24.61232074267057	1.9603823	1.4001366
24.630259984967953	1.9427788	1.393836
24.64819984038863	1.920127	1.3856865
24.66614030943522	1.929288	1.3889881
24.684081392610462	1.8960454	1.3769697
24.702023090417274	1.9226993	1.3866143
24.7199654033587	1.9797338	1.4070301
24.737908331937927	2.003427	1.4154247
24.755851876658305	2.0004046	1.4143566
24.773796038023324	2.0313601	1.4252579
24.79174081653661	2.0450826	1.4300638
24.809686212701962	2.0915296	1.4462122
24.827632227023294	2.097271	1.4481958
24.8455788600047	2.0984058	1.4485875
24.8635261121504	2.096305	1.4478621
24.88147398396475	2.1208177	1.4563028
24.899422475952303	2.142002	1.4635581
24.917371588617698	2.154839	1.467937
24.935321322465768	2.1993437	1.4830184
24.953271678001478	2.2831059	1.510995
24.97122265572994	2.4611585	1.568808
24.989174256156414	2.686763	1.6391349
25.00712647978632	3.1548393	1.7761867
25.02507932712521	3.7008731	1.9237653
25.043032798678798	4.2096586	2.0517452
25.060986894952933	4.8256683	2.1967404
25.078941616453637	5.5028086	2.3458066
25.096896963687055	6.381999	2.5262618
25.114852937159508	7.5763445	2.752516
25.132809537377444	8.068597	2.8405275
25.150766764847468	8.160751	2.8567028
25.168724620076347	7.5727057	2.751855
25.186683103570985	6.647375	2.5782504
25.204642215838426	5.55769	2.3574753
25.222601957385894	4.225403	2.0555785
25.24056232872074	3.1986318	1.7884719
25.25852333035048	2.5892608	1.609118
25.276484962782778	2.208877	1.4862292
25.294447226525435	2.0672905	1.4378076
25.312410122086423	2.0416143	1.4288507
25.330373649973843	2.0024078	1.4150646
25.348337810695988	1.9834746	1.4083588
25.366302604761245	2.004038	1.4156405
25.384268032678207	1.9962577	1.4128898
25.40223409495558	1.940733	1.3931019
25.420200792102257	1.9053742	1.380353
25.438168124627246	1.9151415	1.3838863
25.45613609303974	1.8776954	1.3702903
25.474104697849057	1.8690065	1.3671161
25.492073939564698	1.85718	1.3627839
25.510043818696285	1.9046066	1.3800749
25.528014335753614	1.9059714	1.3805692
25.54598549124664	1.9426799	1.3938005
25.56395728568544	1.9343752	1.3908181
25.58192971958028	1.9004717	1.3785759
25.59990279344156	1.8990442	1.3780581
25.617876507779833	1.912897	1.3830752
25.635850863105826	1.9150522	1.3838542
25.653825859930386	1.9025058	1.3793135
25.671801498764548	1.8851012	1.3729899
25.68977778011949	1.9209225	1.3859735
25.707754704506524	1.90373	1.3797573
25.725732272437153	1.8471879	1.3591129
25.743710484423012	1.8364435	1.3551544
25.761689340975888	1.847406	1.3591932
25.77966884260774	1.8672159	1.366461
25.797648989830662	1.8655671	1.3658576
25.815629783156922	1.8378984	1.3556911
25.83361122309895	1.8164337	1.3477514
25.85159331016929	1.7934278	1.3391893
25.869576044880695	1.8380462	1.3557457
25.887559427746034	1.8796417	1.3710003
25.90554345927836	1.831223	1.3532269
25.92352813999086	1.7917694	1.3385699
25.94151347039689	1.8001529	1.3416978
25.959499451009965	1.8359132	1.3549588
25.97748608234374	1.8381169	1.3557717
25.995473364912062	1.8578526	1.3630307
26.013461299228904	1.8643712	1.3654197
26.03144988580839	1.8501252	1.360193
26.04943912516483	1.8453429	1.358434
26.067429017812675	1.8216182	1.3496734
26.085419564266537	1.8273925	1.3518108
26.103410765041186	1.8350424	1.3546374
26.12140262065155	1.8024365	1.3425485
26.139395131612723	1.8479573	1.3593959
26.157388298439948	1.9379563	1.392105
26.17538212164861	1.9510304	1.3967929
26.193376601754295	1.8425132	1.3573921
26.211371739272714	1.7887025	1.3374238
26.229367534719746	1.7612658	1.3271269
26.247363988611433	1.7765936	1.3328892
26.26536110146397	1.7611542	1.3270849
26.283358873793727	1.7811929	1.3346134
26.301357306117204	1.8026369	1.3426231
26.319356398951104	1.8252014	1.3510002
26.33735615281224	1.8562498	1.3624426
26.35535656821762	1.8784302	1.3705584
26.373357645684404	1.8762443	1.3697606
26.39135938572991	1.8515813	1.3607283
26.409361788871614	1.8205224	1.3492674
26.427364855627165	1.7862556	1.3365088
26.445368586514352	1.8086636	1.3448657
26.46337298205115	1.8387235	1.3559954
26.48137804275568	1.8289622	1.3523912
26.499383769146217	1.7980181	1.340902
26.517390161741215	1.7705758	1.3306298
26.53539722105928	1.7893606	1.3376698
26.553404947619182	1.8153834	1.3473617
26.571413341939856	1.8409055	1.3567997
26.589422404540397	1.8441769	1.3580047
26.60743213594006	1.841655	1.3570759
26.62544253665827	1.7990191	1.3412752
26.64345360721459	1.821783	1.3497344
26.66146534812879	1.8179495	1.3483136
26.679477759920758	1.8514749	1.3606892
26.69749084311057	1.843369	1.3577073
26.71550459821847	1.8198571	1.3490208
26.733519025764842	1.8180544	1.3483524
26.751534126270258	1.782582	1.3351337
26.769549900255434	1.7418007	1.319773
26.787566348241267	1.7160223	1.3099704
26.80558347074881	1.7457268	1.3212596
26.823601268299267	1.7918515	1.3386006
26.841619741414036	1.8053415	1.34363
26.85963889061465	1.8315407	1.3533443
26.877658716422832	1.8069359	1.3442231
26.89567921936045	1.8031768	1.3428242
26.913700399949544	1.8042854	1.3432369
26.93172225871233	1.833934	1.3542281
26.949744796171174	1.8176718	1.3482106
26.967768012848605	1.7942092	1.339481
26.98579190926733	1.8241138	1.3505976
27.003816485950225	1.8133993	1.3466252
27.021841743420318	1.801663	1.3422605
27.039867682200814	1.7882798	1.3372657
27.057894302815072	1.7885938	1.3373832
27.07592160578664	1.8049859	1.3434976
27.0939495916392	1.8588375	1.3633919
27.111978260896635	1.8829442	1.3722042
27.13000761408296	1.8457234	1.358574
27.148037651722397	1.810465	1.3455352
27.166068374339304	1.792868	1.3389802
27.184099782458215	1.8052385	1.3435917
27.20213187660384	1.7887956	1.3374586
27.22016465730105	1.7166634	1.310215
27.23819812507487	1.7696626	1.3302866
27.256232280450533	1.8564126	1.3625023
27.274267123953383	1.8917419	1.375406
27.292302656108987	1.8496661	1.3600243
27.31033887744306	1.8010148	1.342019
27.32837578848146	1.7629158	1.3277484
27.34641338975026	1.7671133	1.3293282
27.364451681775673	1.8068514	1.3441917
27.382490665084074	1.7954636	1.3399491
27.400530340202046	1.8349872	1.354617
27.41857070765629	1.8636928	1.3651713
27.436611767973726	1.8564426	1.3625133
27.454653521681404	1.842078	1.3572317
27.472695969306564	1.8300127	1.3527796
27.490739111376627	1.8054779	1.3436807
27.508782948419153	1.796599	1.3403727
27.526827480961902	1.780285	1.3342732
27.54487270953279	1.7729402	1.3315179
27.562918634659898	1.8083338	1.344743
27.580965256871508	1.7623074	1.3275193
27.599012576696026	1.77229	1.3312738
27.617060594662068	1.8123415	1.3462323
27.63510931129842	1.8296607	1.3526495
27.65315872713401	1.827464	1.3518373
27.67120884269797	1.8180959	1.3483679
27.68925965851958	1.8245478	1.3507582
27.707311175128307	1.8362254	1.3550739
27.725363393053787	1.8421129	1.3572446
27.74341631282583	1.8457152	1.358571
27.7614699349744	1.8673744	1.3665191
27.77952426002968	2.09715	1.448154
27.797579288521973	2.1687644	1.4726725
27.815635020981784	2.626809	1.6207433
27.83369145793979	2.6560605	1.6297425
27.85174859992682	2.5226736	1.5882927
27.869806447473923	2.4044595	1.550632
27.887865001112267	2.068678	1.4382899
27.905924261373233	1.9331697	1.3903848
27.92398422878836	1.9064331	1.3807365
27.94204490388936	1.8704953	1.3676605
27.96010628720813	1.8127757	1.3463936
27.978168379276728	1.8240868	1.3505876
27.9962311806274	1.8648587	1.3655983
28.014294691792568	1.8527318	1.3611509
28.0323589133048	1.8439428	1.3579185
28.050423845696887	1.8311832	1.3532121
28.068489489501758	1.8410816	1.3568646
28.086555845252523	1.8297665	1.3526887
28.104622913482487	1.844677	1.3581889
28.122690694725115	1.8283383	1.3521606
28.14075918951405	1.8193501	1.3488328
28.15882839838312	1.8376029	1.3555821
28.176898321866304	1.8674026	1.3665293
28.1949689604978	1.9032811	1.3795946
28.213040314811945	1.9088815	1.3816228
28.23111238534327	1.9071712	1.3810037
28.249185172626493	1.9254237	1.3875964
28.267258677196473	1.9410685	1.3932223
28.285332899588294	1.9453857	1.3947709
28.303407840337172	1.9069796	1.3809344
28.321483499978545	1.8354379	1.3547833
28.33955987904799	1.7979853	1.3408897
28.357636978081285	1.863945	1.3652637
28.37571479761439	1.9362187	1.3914808
28.393793338183425	1.9579328	1.3992615
28.41187260032469	1.980806	1.4074111
28.429952584574686	1.9948884	1.4124051
28.448033291470065	1.99803	1.4135169
28.46611472154769	1.9883515	1.4100891
28.484196875344566	2.0008235	1.4145046
28.502279753397914	2.0048847	1.4159396
28.52036335624511	1.9779009	1.4063786
28.538447684423716	1.9359562	1.3913864
28.556532738471482	1.9360013	1.3914026
28.574618518926325	1.9304593	1.3894097
28.59270502632635	1.9926828	1.4116242
28.61079226120985	2.0156105	1.419722
28.628880224115274	1.9941403	1.4121404
28.646968915581287	1.9662461	1.402229
28.66505833614671	2.0110738	1.4181234
28.68314848635055	2.0146534	1.4193848
28.701239366732004	2.0353808	1.4266677
28.71933097783044	2.0307817	1.425055
28.737423320185403	2.0644414	1.4368165
28.75551639433665	2.1226895	1.4569453
28.773610200824074	2.1594415	1.4695038
28.791704740187793	2.1488376	1.4658914
28.80980001296809	2.1615055	1.4702059
28.827896019705413	2.171053	1.4734493
28.845992760940433	2.183316	1.4776049
28.86409023721397	2.2146957	1.4881854
28.88218844906704	2.2340744	1.4946821
28.900287397040845	2.272361	1.5074352
28.918387081676755	2.2737541	1.5078973
28.936487503516343	2.2960296	1.5152655
28.954588663101365	2.2868798	1.5122433
28.97269056097374	2.2345195	1.494831
28.990793197675597	2.2195313	1.4898092
29.00889657374923	2.2875237	1.5124562
29.027000689737125	2.4042082	1.5505509
29.04510554618196	2.4464881	1.5641254
29.06321114362659	2.4316483	1.5593743
29.08131748261405	2.412715	1.5532917
29.099424563687567	2.4676955	1.5708901
29.11753238739057	2.4521725	1.5659415
29.13564095426663	2.4456725	1.5638646
29.15375026485954	2.4724236	1.5723943
29.171860319713275	2.5473232	1.5960336
29.18997111937199	2.681467	1.6375185
29.20808266438002	2.732163	1.6529256
29.226194955281898	2.8229427	1.6801615
29.244307992622335	2.8800318	1.6970656
29.26242177694624	2.8965833	1.7019352
29.2805363087987	2.951955	1.7181255
29.29865158872498	3.021472	1.7382382
29.316767617270557	2.9608278	1.7207056
29.334884394981064	2.933994	1.7128905
29.353001922402367	2.9039092	1.7040861
29.37112020008047	2.9697423	1.723294
29.389239228561596	3.1155345	1.7650877
29.407359008392152	3.3327096	1.8255711
29.42547954011872	3.7024484	1.9241747
29.44360082428809	4.2939234	2.0721784
29.46172286144722	5.1986184	2.280048
29.479845652143283	6.6424427	2.5772936
29.497969196923606	8.561442	2.9259942
29.516093496335728	10.881073	3.2986472
29.5342185509274	13.438535	3.6658607
29.55234436124651	15.785976	3.973157
29.570470927841175	17.18369	4.1453214
29.588598251259686	17.021011	4.125653
29.60672633205055	15.805083	3.9755607
29.624855170762405	13.887143	3.7265458
29.642984767944146	11.27151	3.357307
29.66111512414481	8.645461	2.9403164
29.67924623991366	6.5102	2.5515094
29.697378115800138	5.0977864	2.2578278
29.71551075235387	4.264947	2.0651748
29.733644150124675	3.7858527	1.9457268
29.751778309662576	3.5433562	1.8823805
29.769913231517766	3.4513886	1.8577913
29.78804891624066	3.425166	1.8507204
29.806185364381818	3.3744826	1.8369765
29.82432257649206	3.3532772	1.8311956
29.842460553122333	3.3153677	1.8208151
29.86059929482382	3.240626	1.8001739
29.878738802147872	3.2375724	1.7993256
29.896879075646048	3.2975533	1.8159167
29.915020115870114	3.325984	1.8237281
29.933161923371976	3.2538092	1.8038318
29.951304498703777	3.2276213	1.7965581
29.969447842417857	3.1670146	1.7796108
29.987591955066733	3.1430972	1.7728782
30.005736837203123	3.2327964	1.797998
30.023882489379943	3.1916718	1.7865251
30.04202891215028	3.160519	1.7777848
30.060176106067455	3.2036874	1.7898848
30.078324071684946	3.2292712	1.7970173
30.09647280955646	3.1343749	1.7704166
30.114622320235863	3.0741434	1.7533236
30.132772604277257	3.0763998	1.7539669
30.1509236622349	3.055534	1.7480085
30.16907549466328	3.008172	1.7344083
30.18722810211705	2.9802861	1.7263505
30.205381485151097	2.9985633	1.731636
30.22353564432045	3.0646641	1.7506182
30.241690580180403	3.0426857	1.7443296
30.25984629328638	3.012134	1.73555
30.278002784194037	2.985068	1.7277349
30.296160053459246	2.9494667	1.7174011
30.314318101638033	2.9065676	1.7048658
30.332476929286646	2.8645718	1.6925046
30.35063653696153	2.8752198	1.6956474
30.368796925219307	2.8871531	1.6991625
30.386958094616844	2.8476171	1.6874884
30.40512004571115	2.9539888	1.7187172
30.423282779059463	2.9670215	1.7225044
30.441446295219233	2.9328606	1.7125597
30.459610594748067	2.8508568	1.6884481
30.47777567820382	2.818169	1.6787404
30.495941546144504	2.8236852	1.6803825
30.51410819912835	2.8176641	1.6785899
30.532275637713795	2.8873925	1.6992329
30.55044386245946	2.8769534	1.6961584
30.56861287392416	2.7947237	1.6717427
30.586782672666956	2.824243	1.6805484
30.604953259247047	2.8589013	1.6908286
30.623124634223885	2.8150651	1.6778156
30.641296798157075	2.7421691	1.6559496
30.659469751606462	2.7494454	1.6581452
30.677643495132074	2.6910088	1.6404295
30.695818029294152	2.6675985	1.6332785
30.713993354653116	2.668216	1.6334674
30.73216947176962	2.655903	1.6296942
30.75034638120448	2.6838784	1.6382546
30.768524083518756	2.6650426	1.6324959
30.786702579273673	2.6456494	1.6265452
30.80488186903069	2.7174602	1.6484721
30.82306195335144	2.9467242	1.7166026
30.841242832797782	3.2112029	1.7919829
30.85942450793176	3.4105587	1.8467698
30.877606979315637	3.7228065	1.9294575
30.895790247511883	3.998345	1.9995862
30.913974313083134	4.3277345	2.0803208
30.932159176592283	4.6901274	2.1656702
30.95034483860237	4.8974624	2.213021
30.968531299676698	4.6409745	2.154292
30.98671856037873	4.2597113	2.063907
31.00490662127215	3.8919835	1.9728111
31.023095482920848	3.4215806	1.8497515
31.04128514588892	2.9679892	1.7227854
31.059475610740662	2.6991973	1.6429234
31.07766687804056	2.660231	1.6310215
31.09585894835335	2.6107473	1.6157807
31.11405182224393	2.5473146	1.596031
31.132245500277417	2.4467854	1.5642204
31.15043998301914	2.3256924	1.5250221
31.168635271034628	2.326984	1.5254455
31.18683136488964	2.355345	1.5347134
31.20502826515008	2.3801336	1.5427681
31.223225972382135	2.3733141	1.5405564
31.241424487152155	2.4488025	1.564865
31.259623810026692	2.4416032	1.5625631
31.27782394157253	2.3715348	1.5399789
31.296024882356644	2.3410225	1.53004
31.314226632946237	2.3771582	1.5418036
31.332429193908684	2.4060528	1.5511457
31.350632565811598	2.403252	1.5502425
31.368836749222787	2.5019422	1.5817529
31.387041744710295	2.509365	1.5840975
31.40524755284232	2.535446	1.5923084
31.423454174187317	2.4936533	1.5791305
31.441661609313922	2.5038855	1.5823671
31.459869858791002	2.4554842	1.5669985
31.478078923187628	2.3756714	1.5413213
31.496288803073064	2.3424726	1.5305138
31.514499499016807	2.3868687	1.5449494
31.532711011588546	2.4269297	1.5578606
31.550923341358178	2.355421	1.5347381
31.56913648889584	2.280028	1.5099761
31.587350454771844	2.3067062	1.5187844
31.605565239556732	2.3298318	1.5263786
31.62378084382127	2.2933388	1.5143774
31.641997268136382	2.2886965	1.5128438
31.660214513073274	2.3402178	1.529777
31.67843257920331	2.3353512	1.5281856
31.6966514670981	2.2969828	1.51558
31.71487117732944	2.3488145	1.5325843
31.733091710469346	2.3659954	1.5381793
31.751313067090052	2.3553905	1.5347282
31.769535247764008	2.2891514	1.5129942
31.787758253063878	2.2719638	1.5073035
31.805982083562526	2.3061924	1.5186152
31.824206739833024	2.288247	1.5126953
31.84243222244869	2.2382894	1.4960914
31.860658531983013	2.1788075	1.4760784
31.878885669009737	2.1393466	1.4626505
31.897113634102784	2.0914845	1.4461966
31.91534242783632	2.1384914	1.4623581
31.933572050784694	2.1631937	1.47078
31.951802503522508	2.201742	1.4838268
31.970033786624548	2.2371962	1.495726
31.988265900665834	2.2045202	1.4847627
32.006498846221575	2.171851	1.4737201
32.02473262386724	2.2281144	1.492687
32.04296723417845	2.222439	1.4907848
32.0612026777311	2.2497044	1.4999014
32.07943895510129	2.2947528	1.5148442
32.097676066865304	2.2569556	1.5023167
32.115914013599685	2.245263	1.4984202
32.13415279588115	2.2456663	1.4985547
32.152392414286666	2.2294757	1.493143
32.1706328693934	2.2144198	1.4880927
32.18887416177875	2.1797733	1.4764055
32.20711629202032	2.173048	1.4741262
32.225359260695924	2.1227484	1.4569654
32.243603068383614	2.085404	1.4440928
32.26184771566166	2.0700774	1.4387764
32.28009320310852	2.0776143	1.4413931
32.2983395313029	2.0977879	1.4483742
32.31658670082372	2.1111045	1.4529641
32.33483471225012	2.0981503	1.4484993
32.35308356616143	2.0708435	1.4390426
32.371333263137245	2.0451488	1.430087
32.38958380375734	2.0226343	1.4221935
32.407835188601744	1.9954667	1.4126099
32.42608741825067	1.9433622	1.3940452
32.444340493284585	1.9694484	1.4033704
32.46259441428416	2.0515678	1.4323295
32.48084918183028	2.0428731	1.4292911
32.49910479650405	1.9245039	1.3872648
32.51736125888683	1.913643	1.3833449
32.53561856956014	1.9031949	1.3795633
32.5538767291058	1.8720502	1.3682288
32.572135738105764	1.8872558	1.3737743
32.59039559714228	2.0137196	1.4190558
32.608656306797776	2.105996	1.451205
32.62691786765491	2.1156201	1.4545171
32.645180280296586	1.9825617	1.4080347
32.663443545305896	1.919936	1.3856175
32.68170766326619	1.9651605	1.4018419
32.69997263476099	2.031921	1.4254546
32.7182384603741	1.9942241	1.4121699
32.7365051406895	1.9703517	1.4036921
32.75477267629144	1.9359444	1.3913822
32.77304106776434	1.9282447	1.3886125
32.79131031569289	1.960303	1.4001082
32.809580420661966	2.0049183	1.4159514
32.827851383256714	1.956488	1.3987452
32.84612320406245	1.9507334	1.3966866
32.86439588366476	1.9619166	1.4006844
32.88266942264945	1.9388375	1.3924215
32.9009438216025	1.9543192	1.3979697
32.9192190811102	1.987676	1.4098496
32.937495201758985	1.9905927	1.4108837
32.95577218413556	2.0516117	1.4323448
32.974050028826866	2.017656	1.4204422
32.992328736420035	1.9899383	1.4106517
33.010608307502444	1.9505427	1.3966182
33.02888874266169	1.9160151	1.384202
33.047170042485604	1.8943828	1.3763658
33.06545220756225	1.9867944	1.409537
33.083735238479896	2.0574162	1.4343696
33.10201913582707	1.9567052	1.3988228
33.12030390019248	1.8462499	1.3587677
33.138589532165135	1.9019573	1.3791146
33.15687603233419	1.9643924	1.4015678
33.17516340128909	1.8962773	1.3770539
33.19345163961947	1.942331	1.3936753
33.211740747915215	2.0124903	1.4186226
33.23003072676643	2.0453455	1.4301558
33.248321576763466	2.0654848	1.4371794
33.266613298496885	2.0136383	1.4190272
33.28490589255747	1.9117386	1.3826563
33.30319935953626	1.9679428	1.4028338
33.32149370002451	1.9727919	1.4045612
33.339788914613706	1.9751447	1.4053985
33.358085003895575	1.941477	1.393369
33.376381968462034	1.9049056	1.3801832
33.39467980890529	1.8117367	1.3460077
33.41297852581774	1.8394654	1.3562689
33.43127811979204	1.9785849	1.4066218
33.44957859142105	2.0045173	1.4158098
33.467879941297866	1.9454465	1.3947927
33.486182170015844	1.83502	1.354629
33.50448527816853	1.7729216	1.331511
33.522789266349754	1.7399609	1.3190758
33.541094135153514	1.7860309	1.3364247
33.55939988517411	1.8418319	1.3571411
33.57770651700602	1.9422572	1.3936489
33.59601403124398	2.0108044	1.4180284
33.61432242848296	1.9073758	1.3810778
33.632631709318154	1.9342227	1.3907634
33.650941874344994	1.9614296	1.4005104
33.66925292415916	1.9367045	1.3916553
33.68756485935654	1.8742687	1.3690393
33.70587768053328	1.9882944	1.4100689
33.724191388285746	2.0780308	1.4415376
33.74250598321054	1.9592294	1.3997247
33.760821465904506	1.9464569	1.3951548
33.77913783696474	1.928384	1.3886627
33.79745509698852	1.9969532	1.413136
33.815773246573414	1.9977165	1.413406
33.8340922863172	1.9832792	1.4082894
33.852412216817896	1.9395111	1.3926632
33.87073303867377	1.9122132	1.382828
33.889054752483304	1.9813768	1.4076139
33.907377358845245	2.0379498	1.4275678
33.92570085835853	2.0202315	1.4213485
33.94402525162239	1.9254199	1.387595
33.96235053923627	1.9184775	1.3850912
33.980676721799824	1.8949443	1.3765697
33.999003799912984	1.8983599	1.3778098
34.01733177417592	2.0181131	1.420603
34.03566064518901	1.9208217	1.3859371
34.0539904135529	1.8970721	1.3773423
34.07232107986846	1.9092757	1.3817654
34.090652644736785	1.9211053	1.3860394
34.108985108759235	2.0474803	1.4309019
34.12731847253742	2.1509202	1.4666016
34.14565273667313	2.1641636	1.4711096
34.16398790176847	2.1131012	1.453651
34.18232396842574	2.0102122	1.4178195
34.20066093724749	1.9207324	1.3859049
34.21899880883651	1.8869151	1.3736503
34.23733758379583	1.8996807	1.3782891
34.25567726272874	1.9739031	1.4049566
34.27401784623872	2.0023825	1.4150556
34.29235933492957	2.0037181	1.4155275
34.31070172940526	2.0893211	1.4454484
34.32904503027003	2.1349084	1.4611326
34.347389238128386	2.0128515	1.4187499
34.36573435358502	1.91392	1.383445
34.38408037724492	2.1062155	1.4512806
34.402427309713296	2.179254	1.4762297
34.42077515159559	1.9768392	1.4060011
34.43912390349752	1.8316115	1.3533704
34.45747356602499	1.8486803	1.3596618
34.47582413978423	1.8867449	1.3735883
34.49417562538163	2.0547385	1.4334359
34.51252802342388	2.0732186	1.4398676
34.53088133451789	2.0266209	1.4235944
34.54923555927084	2.0060437	1.4163487
34.567590698290104	1.9569468	1.3989092
34.58594675218336	1.9381908	1.3921893
34.6043037215585	2.097559	1.4482952
34.62266160702365	2.105278	1.4509577
34.641020409187234	1.8444635	1.3581103
34.65938012865785	1.7422259	1.319934
34.677740766044394	1.8774643	1.3702059
34.69610232195598	1.9281949	1.3885946
34.714464797002016	1.9922174	1.4114593
34.73282819179208	2.0203547	1.4213918
34.751192506936064	2.014482	1.4193245
34.76955774304408	1.9556576	1.3984482
34.7879239007265	1.953989	1.3978516
34.80629098059391	1.8952991	1.3766986
34.824658983257194	1.9625602	1.4009141
34.843027909327446	2.052858	1.4327799
34.86139775941603	2.0568628	1.4341767
34.879768534134534	2.1660824	1.4717617
34.89814023409483	2.2262542	1.4920638
34.91651285990901	2.0943596	1.4471903
34.93488641218944	2.0295677	1.424629
34.95326089154871	2.0899491	1.4456656
34.97163629859967	1.9226735	1.386605
34.99001263395542	1.8275051	1.3518524
35.00838989822934	1.8548949	1.3619453
35.02676809203499	1.8794676	1.3709368
35.04514721598624	1.9499846	1.3964185
35.063527270697215	2.1919353	1.4805186
35.081908256782256	2.315716	1.5217477
35.10029017485597	2.0935988	1.4469274
35.11867302553321	1.8586338	1.3633171
35.137056809429104	1.8584843	1.3632624
35.155441527159006	1.8416435	1.3570716
35.173827179338524	1.6477321	1.2836401
35.19221376658354	1.6932765	1.3012596
35.21060128951017	2.1213264	1.4564774
35.2289897487348	2.1033108	1.4502796
35.24737914487405	1.866933	1.3663576
35.26576947854479	1.8413852	1.3569765
35.28416075036418	2.1965115	1.4820633
35.30255296094958	2.1425278	1.4637376
35.32094611091867	1.9124792	1.3829241
35.33934020088932	2.177291	1.4755646
35.35773523147969	2.6219428	1.6192414
35.3761312033082	2.6350644	1.6232882
35.394528116993506	2.5407853	1.5939841
35.41292597315452	2.5952227	1.6109695
35.431324772410434	2.4489894	1.5649247
35.449724515380666	2.1037056	1.4504157
35.46812520268491	2.0595777	1.4351228
35.486526834943106	2.398657	1.5487598
35.504929412775454	2.4676735	1.570883
35.52333293680242	2.4471755	1.5643451
35.54173740764471	2.2133079	1.487719
35.560142825923286	2.0508697	1.4320858
35.5785491922594	1.8326024	1.3537364
35.59695650727454	1.8868306	1.3736196
35.61536477159042	2.6625504	1.6317323
