0.008763373481513119	0.0	0.0
0.026290120649546365	0.0	0.0
0.043816868432600686	0.0	0.0
0.06134361724069026	0.04474922	0.21154012
0.07887036748382949	0.06983978	0.26427218
0.0963971195720331	0.057742476	0.24029665
0.11392387391531617	0.052653015	0.22946244
0.1314506309236943	0.08643285	0.29399464
0.1489773910071836	0.10617099	0.3258389
0.16650415457580078	0.12565725	0.35448167
0.18403092203956356	0.13386606	0.3658771
0.20155769380849	0.14363438	0.37899128
0.2190844702925996	0.13864087	0.3723451
0.2366112519019124	0.15129113	0.3889616
0.2541380390464497	0.16714631	0.40883532
0.27166483213623416	0.17782895	0.4216977
0.28919163158128947	0.14443098	0.38004076
0.3067184377916406	0.15304409	0.3912085
0.324245251177314	0.17263728	0.41549644
0.34177207214833777	0.17818193	0.422116
0.3592989011147415	0.18288481	0.42765033
0.37682573848655654	0.08486985	0.2913243
0.39435258467381573	0.117053874	0.34213138
0.41187944008655414	0.12656888	0.35576522
0.42940630513480854	0.15725063	0.3965484
0.446933180228618	0.15634288	0.39540216
0.4644600657780234	0.1409692	0.37545866
0.48198696219306775	0.12652393	0.355702
0.49951386988379676	0.12024398	0.34676215
0.5170407892602581	0.15336612	0.39161986
0.5345677207325025	0.20158291	0.44897985
0.5520946647105822	0.22162794	0.47077376
0.5696216216045534	0.1716676	0.4143279
0.5871485918244737	0.15698276	0.3962105
0.6046755757804043	0.13119943	0.36221462
0.6222025738824094	0.12647344	0.35563105
0.6397295865405557	0.13865887	0.37236926
0.6572566141649129	0.1602429	0.4003035
0.6747836571655547	0.20688269	0.45484358
0.6923107159525568	0.1988205	0.44589293
0.7098377909359992	0.19640596	0.44317713
0.7273648825259653	0.18437861	0.4293933
0.7448919911325411	0.1701721	0.41251922
0.762419117165817	0.17388922	0.41700026
0.7799462610358868	0.15722711	0.39651874
0.7974734231528482	0.16198222	0.40247014
0.8150006039268024	0.15989526	0.39986905
0.8325278037678551	0.20508893	0.45286745
0.8500550230861152	0.20219399	0.44965985
0.8675822622916969	0.21888548	0.467852
0.8851095217947171	0.23951301	0.48940066
0.9026368020052984	0.22124204	0.47036374
0.9201641033335665	0.21910095	0.46808222
0.9376914261896523	0.22712669	0.47657812
0.9552187709836915	0.23226465	0.48193842
0.9727461381258234	0.23742022	0.48725787
0.990273528026193	0.2395396	0.48942783
1.0078009410949496	0.26496956	0.5147519
1.0253283777422473	0.2768967	0.5262097
1.0428558383782454	0.29299602	0.54129106
1.0603833234131086	0.31464	0.5609278
1.0779108332570058	0.29458508	0.5427569
1.0954383683201119	0.2825368	0.5315419
1.112965929012607	0.27938458	0.52856845
1.1304935157446763	0.4136194	0.6431325
1.1480211289265108	0.48106563	0.693589
1.1655487689683062	1.4516785	1.2048563
1.1830764362802655	1.7426689	1.3201019
1.200604131272596	2.1605284	1.4698737
1.2181318543555117	2.3183317	1.5226068
1.235659605939232	2.3325646	1.5272735
1.253187386433982	3.8586874	1.9643542
1.270715196249994	6.244327	2.4988651
1.2882430357975057	11.612999	3.407785
1.3057709054867608	16.435932	4.0541253
1.3232988057280106	21.997982	4.690201
1.3408267369315112	27.005514	5.196683
1.358354699507526	30.900156	5.5587907
1.3758826938663256	35.175373	5.930883
1.3934107204181858	37.537174	6.126759
1.410938779573391	37.76572	6.145382
1.4284668717422309	38.812603	6.229976
1.4459949973350033	38.276344	6.186788
1.4635231567620117	38.21965	6.1822042
1.4810513504335687	37.425186	6.117613
1.4985795787599925	36.906235	6.0750504
1.5161078421516088	36.591843	6.049119
1.5336361410187505	35.451874	5.954148
1.5511644757717598	35.144188	5.928253
1.5686928468209842	35.671967	5.9726014
1.58622125457678	36.630844	6.052342
1.6037496994495108	38.012455	6.1654243
1.621278181849548	37.967396	6.161769
1.6388067021872719	38.23325	6.1833043
1.6563352608730693	37.650105	6.135968
1.673863858317336	36.668568	6.0554576
1.6913924949304753	35.978928	5.998244
1.7089211711228998	34.850628	5.903442
1.7264498873050296	34.19073	5.847284
1.7439786438872935	33.343266	5.7743626
1.7615074412801288	32.483097	5.699394
1.779036279893981	31.869892	5.6453424
1.796565160139305	30.635332	5.5349193
1.814094082426564	29.879103	5.466178
1.8316230471662298	28.518845	5.340304
1.849152054768784	27.54894	5.2487082
1.8666811056447168	27.351135	5.229831
1.8842102002045273	26.955923	5.1919093
1.901739338858724	26.497961	5.147617
1.9192685220178245	25.94687	5.093807
1.9367977500923557	25.123423	5.012327
1.9543270234928547	24.511288	4.9508877
1.971856342629867	23.696497	4.8679047
1.9893857079139496	22.99099	4.794892
2.006915119755667	22.729256	4.767521
2.0244445785655945	22.339048	4.7264204
2.0419740847543175	22.084185	4.6993814
2.0595036387324317	21.578619	4.6452794
2.0770332409105414	21.019318	4.584683
2.094562891699263	20.546844	4.5328627
2.1120925915092217	20.060314	4.478874
2.129622340751053	19.705114	4.4390445
2.1471521398354043	187.95389	13.709627
2.1646819891729323	444.44116	21.081774
2.182211889174303	440.7419	20.993855
2.1997418402501974	452.96527	21.28298
2.2172718428113023	432.8595	20.805275
2.234801897268317	320.73434	17.909058
2.2523320040319548	17.390182	4.1701536
2.269862163512935	17.109106	4.1363153
2.287392376121992	16.607946	4.075285
2.304922642269869	16.2345	4.029206
2.322452962367322	15.957107	3.9946346
2.3399833368251164	15.634421	3.9540386
2.357513766054032	15.401103	3.924424
2.3750442504648586	15.074206	3.8825514
2.3925747904683963	14.902856	3.8604217
2.410105386475459	14.74498	3.8399193
2.4276360388968707	14.509405	3.8091214
2.445166748143469	14.254588	3.7755249
2.4626975146261025	13.801902	3.715091
2.4802283387556323	13.611203	3.6893363
2.4977592209429305	13.339408	3.6523154
2.5152901615988825	13.2195835	3.6358745
2.5328211611343865	13.0946	3.6186461
2.5503522199603523	12.93691	3.5967915
2.5678833384877024	12.689263	3.562199
2.5854145171273712	12.46883	3.5311232
2.6029457562903064	12.212365	3.4946194
2.620477056387469	11.95569	3.4577003
2.6380084178298326	11.70171	3.4207761
2.655539841028383	11.313788	3.3635976
2.673071326394119	11.145972	3.3385584
2.6906028743380523	10.930298	3.3061001
2.708134485271211	10.934021	3.306663
2.7256661596046325	10.818266	3.2891133
2.743197897749369	10.7076025	3.2722473
2.760729700116486	10.567388	3.2507517
2.778261567117063	10.428066	3.2292516
2.795793499162193	10.288438	3.2075596
2.8133254966629817	9.9639225	3.156568
2.830857560030551	9.785917	3.128245
2.8483896896760337	9.6244545	3.1023304
2.865921886010578	9.664843	3.108833
2.883454149445347	9.502806	3.082662
2.9009864803915177	9.225398	3.037334
2.91851887926028	8.886604	2.9810407
2.9360513464628384	8.879862	2.9799097
2.953583882410413	8.96849	2.9947436
2.9711164875142373	9.043469	3.0072362
2.9886491621855606	8.939058	2.9898257
3.0061819068356455	8.709078	2.9511147
3.023714721875769	8.637122	2.938898
3.041247607717225	8.542684	2.922787
3.0587805647713213	8.549067	2.9238787
3.0763135934493806	8.460289	2.9086576
3.0938466941627407	8.257582	2.8736007
3.1113798673227544	8.165724	2.857573
3.1289131133407904	7.9911137	2.826856
3.1464464326282315	7.9193106	2.814127
3.1639798255964786	7.851039	2.8019705
3.1815132926569443	7.6548886	2.766747
3.1990468342210603	7.5197945	2.7422245
3.216580450700272	7.395147	2.7194018
3.2341141425060416	7.2804503	2.698231
3.251647910049847	7.20564	2.6843324
3.2691817537431813	7.202044	2.6836624
3.286715673997555	7.209853	2.685117
3.3042496712244938	7.1978006	2.6828718
3.32178374583554	6.9701524	2.6401045
3.339317898242251	6.8518887	2.6176112
3.3568521288562034	6.8338156	2.6141567
3.3743864380889876	6.9226117	2.6310856
3.3919208263522127	6.9473486	2.6357822
3.4094552940575023	6.7528214	2.5986192
3.4269898416164972	6.5898843	2.567077
3.444524469440858	6.4810214	2.545785
3.4620591779422587	6.440946	2.5379019
3.479593967532391	6.398956	2.5296156
3.4971288386229658	6.4345484	2.5366411
3.5146637916257086	6.468949	2.543413
3.5321988269523628	6.519723	2.5533748
3.5497339450146903	6.4793105	2.545449
3.5672691462244708	6.4701242	2.543644
3.5848044309934988	6.4821944	2.5460155
3.60233979973359	6.3741174	2.5247014
3.619875252856575	6.3200483	2.5139706
3.6374107907743034	6.2859755	2.5071847
3.6549464138986427	6.219631	2.493919
3.6724821226414788	6.215693	2.4931293
3.690017917414714	6.0930157	2.4684036
3.7075537986302702	6.163393	2.482618
3.7250897667000857	6.3609166	2.5220857
3.7426258220361235	6.4821715	2.546011
3.7601619650503553	6.8079996	2.6092143
3.777698196154779	7.346169	2.7103817
3.7952345157614067	8.497853	2.9151077
3.8127709242822716	9.396634	3.065393
3.830307422129425	11.484002	3.3888054
3.847844009714936	30.15398	5.491264
3.8653806874508954	97.59555	9.879046
3.882917455749409	96.85337	9.841411
3.900454315022606	96.76536	9.836939
3.917991265682631	41.40036	6.4343114
3.9355283081416506	11.002128	3.3169456
3.9530654428118495	8.838505	2.9729624
3.970602670105433	7.507773	2.7400315
3.9881399904346244	6.6402745	2.576873
4.005677404211669	6.5172424	2.552889
4.023214911848827	6.4513345	2.5399477
4.0407525137583855	6.3899975	2.5278444
4.058290210352644	6.415417	2.5328674
4.075828002043927	6.457484	2.541158
4.0933658892445814	6.483254	2.5462234
4.110903872366966	6.4503627	2.5397565
4.128441951823468	6.277998	2.5055933
4.145980128026488	6.2034793	2.4906785
4.163518401388452	6.106811	2.4711962
4.181056772321807	6.109881	2.4718173
4.1985952412390155	6.159983	2.4819314
4.216133808552567	6.157958	2.4815233
4.233672474674966	6.1254854	2.4749718
4.251211240018741	6.3683286	2.5235548
4.268750104996445	6.643945	2.5775852
4.286289070020643	7.5788474	2.7529707
4.303828135503928	9.183971	3.0305068
4.3213673018589125	29.432552	5.4251776
4.3389065694982305	90.70068	9.52369
4.356445938834537	166.07979	12.887195
4.3739854102805085	171.39018	13.091607
4.391524984248844	172.18907	13.122084
4.409064661152262	136.28162	11.673972
4.426604441403504	96.6539	9.831271
4.444144325415337	75.98477	8.716925
4.461684313600543	22.02577	4.693162
4.47922440637193	22.447067	4.7378335
4.496764604142329	20.618702	4.540782
4.5143049073245916	18.726538	4.327417
4.531845316331589	16.484251	4.06008
4.5493858315762195	13.609585	3.6891172
4.566926453471405	11.345757	3.3683462
4.584467182430081	9.273265	3.0452037
4.602008018865218	8.145604	2.8540504
4.619548963189798	7.366862	2.7141964
4.637090015816834	6.7884326	2.605462
4.654631177159353	6.554623	2.5601997
4.672172447630417	6.3168297	2.5133305
4.689713827643102	6.308052	2.5115836
4.7072553176105085	6.083887	2.4665537
4.724796917945764	5.886378	2.4261858
4.742338629062015	5.855856	2.4198875
4.759880451372434	5.778877	2.4039295
4.777422385290215	5.745338	2.3969436
4.794964431228581	5.755083	2.3989754
4.812506589600768	5.7384963	2.395516
4.830048860820047	5.6595116	2.3789728
4.847591245299709	5.6256547	2.3718462
4.8651337434530655	5.672855	2.3817756
4.882676355693457	5.672653	2.3817332
4.900219082434242	5.660778	2.379239
4.917761924088813	5.4614754	2.3369799
4.935304881070575	5.427028	2.3295982
4.952847953792969	5.4753027	2.3399365
4.970391142669449	5.46383	2.3374836
4.9879344481135055	5.5098934	2.3473163
5.005477870538642	5.5481477	2.3554506
5.023021410358394	5.5199614	2.34946
5.040565067986324	5.538855	2.3534772
5.05810884383601	5.5109024	2.347531
5.075652738321066	5.5573425	2.3574016
5.09319675185512	5.5303235	2.351664
5.110740884851836	5.451774	2.3349035
5.128285137724894	5.4022355	2.324271
5.145829510888007	5.4043765	2.3247316
5.163374004754908	5.4459753	2.3336613
5.1809186197393595	5.4004064	2.3238773
5.198463356255145	5.39298	2.322279
5.216008214716077	5.329681	2.3086102
5.233553195535998	5.352067	2.3134534
5.251098299128764	5.369067	2.3171248
5.268643525908272	5.422015	2.3285222
5.286188876288432	5.418898	2.3278527
5.3037343506831895	5.3971524	2.3231773
5.32127994950651	5.327518	2.3081417
5.3388256731723915	5.2668085	2.2949529
5.356371522094851	5.279192	2.2976491
5.373917496687938	5.208795	2.2822785
5.391463597365729	5.184395	2.2769265
5.40900982454232	5.1331906	2.2656546
5.426556178631843	5.137683	2.2666457
5.444102660048449	5.1824293	2.276495
5.4616492692063225	5.1716976	2.2741368
5.479196006519669	5.2325497	2.2874768
5.496742872402727	5.2630386	2.2941313
5.514289867269756	5.249304	2.291136
5.531836991535049	5.239649	2.289028
5.549384245612924	5.191791	2.2785501
5.566931629917724	5.259134	2.2932801
5.584479144863822	5.2247477	2.2857707
5.6020267908656205	5.1574807	2.2710087
5.619574568337545	5.0643306	2.2504067
5.637122477694054	5.084585	2.2549024
5.654670519349629	5.144319	2.268109
5.672218693718784	5.192008	2.2785978
5.689767001216059	5.1966295	2.2796116
5.707315442256021	5.1801996	2.2760053
5.724864017253266	5.2185473	2.284414
5.7424127266224225	5.1601653	2.2715998
5.75996157077814	5.1315804	2.265299
5.777510550135105	5.1256766	2.2639956
5.795059665108022	5.1807685	2.2761302
5.812608916111639	5.2619095	2.2938852
5.830158303560715	5.3837695	2.320295
5.847707827870055	5.39705	2.3231552
5.86525748945448	5.4654427	2.3378286
5.8828072887288485	5.520402	2.3495536
5.900357226108044	5.6023164	2.3669212
5.917907302006979	5.668717	2.3809068
5.9354575168406	6.2343554	2.496869
5.9530078710238765	6.7850933	2.6048212
5.970558364971812	7.473218	2.7337186
5.988108999099438	7.930432	2.8161023
6.005659773821818	8.624331	2.9367213
6.023210689554039	8.277506	2.8770654
6.040761746711227	8.633354	2.938257
6.058312945708531	7.8408074	2.8001442
6.075864286961132	7.309446	2.7035987
6.093415770884244	6.6410275	2.5770192
6.1109673978931065	6.133807	2.4766524
6.128519168402993	5.5368676	2.353055
6.146071082829204	5.401521	2.3241172
6.163623141587075	5.3421764	2.3113148
6.181175345091969	5.2798524	2.297793
6.198727693759281	5.1718197	2.2741635
6.216280188004435	5.0617228	2.2498274
6.233832828242885	4.979395	2.2314558
6.251385614890126	5.0105977	2.2384365
6.268938548361669	5.024466	2.241532
6.286491629073067	4.95091	2.225064
6.304044857439898	5.0242558	2.241485
6.321598233877777	5.0419292	2.245424
6.339151758802344	5.0580606	2.2490132
6.356705432629277	5.0767612	2.253167
6.37425925577428	5.0372753	2.2443876
6.391813228653095	4.936161	2.2217474
6.409367351681486	4.8647094	2.2056086
6.426921625275259	4.88406	2.209991
6.44447604985025	5.0230575	2.2412179
6.46203062582232	5.1389494	2.266925
6.47958535360737	5.149636	2.269281
6.497140233621328	5.020092	2.2405562
6.514695266280161	4.957553	2.2265563
6.532250451999859	4.9924197	2.2343724
6.549805791196454	5.0670447	2.2510097
6.567361284286002	5.0800314	2.2538924
6.584916931684597	5.0579424	2.248987
6.602472733808367	4.9881845	2.2334244
6.6200286910734665	5.002513	2.2366297
6.637584803896092	5.013532	2.2390919
6.655141072692462	4.985976	2.23293
6.672697497878842	5.0256696	2.2418005
6.690254079871514	4.9564075	2.226299
6.707810819086808	4.9637756	2.2279532
6.725367715941078	4.966134	2.2284825
6.742924770850719	4.99526	2.2350078
6.760481984232151	5.0368066	2.2442832
6.778039356501836	5.0196095	2.2404485
6.795596888076266	4.994334	2.2348008
6.813154579371963	4.9592066	2.2269275
6.830712430805492	4.9411426	2.2228682
6.84827044279344	4.9329	2.2210133
6.865828615752445	4.967886	2.2288754
6.883386950099159	5.030467	2.2428703
6.900945446250287	5.0432367	2.2457151
6.918504104622553	5.0026064	2.2366507
6.936062925632727	5.013015	2.2389762
6.953621909697607	5.026159	2.2419097
6.971181057234028	5.0812216	2.2541566
6.988740368658859	5.121132	2.262992
7.006299844389007	5.170583	2.2738914
7.023859484841407	5.2613997	2.2937741
7.041419290433036	5.3469462	2.3123465
7.058979261580902	5.445493	2.333558
7.0765393987020495	5.5969625	2.3657901
7.094099702213559	5.8723903	2.4233015
7.111660172532549	6.2016335	2.4903078
7.129220810076164	6.6496916	2.5786996
7.146781615261595	7.2472124	2.6920648
7.16434258850606	7.598931	2.7566159
7.181903730226821	8.000704	2.8285515
7.1994650408411704	8.183159	2.8606222
7.217026520766437	8.2796335	2.8774352
7.234588170419983	8.471687	2.9106164
7.252149990219215	8.475702	2.911306
7.269711980581568	8.3532915	2.890206
7.2872741419245175	8.232448	2.8692243
7.304836474665574	7.9283137	2.815726
7.322398979222286	7.71801	2.7781308
7.339961656012233	7.422714	2.7244658
7.357524505453039	6.9829154	2.6425207
7.375087527962357	6.631101	2.5750926
7.392650723957886	6.259012	2.5018017
7.410214093857353	5.928442	2.4348392
7.427777638078528	5.6860757	2.3845494
7.445341357039213	5.5493193	2.3556993
7.4629052511572525	5.454266	2.335437
7.480469320850524	5.346068	2.3121564
7.498033566536948	5.2352037	2.2880569
7.5155979886344735	5.109428	2.2604043
7.5331625875610975	5.0983906	2.2579615
7.550727363734844	5.048845	2.2469635
7.568292317573788	5.1197205	2.2626798
7.585857449496025	5.205734	2.2816076
7.603422759919705	5.2290583	2.2867134
7.620988249263007	5.2162237	2.2839053
7.638553917944147	5.1587977	2.2712986
7.656119766381391	5.143375	2.267901
7.673685794993023	5.156379	2.2707663
7.691252004197388	5.1744633	2.2747447
7.70881839441285	5.225454	2.2859251
7.726384966057826	5.327831	2.3082094
7.743951719550762	5.380393	2.3195674
7.761518655310149	5.3865747	2.3208995
7.779085773754511	5.324003	2.3073802
7.796653075302419	5.342557	2.311397
7.814220560372475	5.2827377	2.2984207
7.831788229383323	5.344013	2.3117123
7.8493560827536495	5.344356	2.3117864
7.866924120902174	5.353325	2.3137252
7.884492344247663	5.2793007	2.297673
7.9020607532089135	5.260328	2.2935405
7.919629348204771	5.310854	2.304529
7.937198129654115	5.3462343	2.3121924
7.954767097975865	5.372086	2.3177762
7.972336253588986	5.3686223	2.3170288
7.989905596912472	5.4070783	2.3253126
8.007475128365371	5.409517	2.325837
8.025044848366756	5.437528	2.3318508
8.042614757335754	5.524965	2.3505244
8.060184855691523	5.5811443	2.3624446
8.07775514385327	5.753578	2.3986619
8.095325622240228	5.808064	2.4099925
8.112896291271687	5.852643	2.4192235
8.130467151366968	5.850877	2.4188585
8.148038202945436	5.8725185	2.423328
8.165609446426497	5.889289	2.4267857
8.183180882229594	5.924958	2.4341238
8.200752510774217	5.9328766	2.4357498
8.218324332479893	5.932286	2.4356284
8.235896347766193	5.928969	2.4349475
8.253468557052724	5.981329	2.4456756
8.27104096075914	6.0561914	2.460933
8.288613559305137	6.125205	2.4749153
8.306186353110448	6.2110453	2.4921968
8.32375934259485	6.2648582	2.50297
8.341332528178162	6.322098	2.5143783
8.358905910280246	6.339369	2.5178103
8.376479489321003	6.281075	2.5062072
8.394053265720377	6.32374	2.5147047
8.411627239898356	6.3858647	2.527027
8.42920141227497	6.4351006	2.53675
8.44677578327029	6.380046	2.5258753
8.464350353304427	6.2198076	2.4939542
8.48192512279754	6.124028	2.4746773
8.499500092169827	6.1660137	2.483146
8.51707526184153	6.2093716	2.491861
8.534650632232934	6.220654	2.494124
8.552226203764365	6.152231	2.480369
8.569801976856192	6.095359	2.468878
8.587377951928834	6.1686363	2.483674
8.60495412940274	6.233825	2.496763
8.622530509698416	6.375685	2.525012
8.6401070932364	6.5288477	2.555161
8.657683880437283	6.630678	2.5750103
8.675260871721695	6.7443852	2.5969954
8.692838067510303	6.9528384	2.6368237
8.710415468223834	7.0264893	2.6507525
8.727993074283043	7.1917586	2.6817455
8.745570886108737	7.1853294	2.6805465
8.763148904121765	7.2744207	2.6971135
8.78072712874302	7.2679486	2.6959133
8.798305560393441	7.449375	2.7293544
8.815884199494006	7.5694695	2.751267
8.833463046465745	7.7394547	2.7819877
8.851042101729728	7.946551	2.8189628
8.86862136570707	8.199852	2.8635383
8.886200838818924	8.373238	2.8936548
8.903780521486505	8.444261	2.905901
8.921360414131055	8.526233	2.9199715
8.938940517173874	8.716501	2.952372
8.956520831036297	8.863473	2.9771585
8.97410135613971	9.165124	3.0273955
8.99168209290554	9.273058	3.0451696
9.009263041755265	9.491947	3.0809004
9.026844203110405	9.6277275	3.102858
9.044425577392525	9.814632	3.1328313
9.062007165023239	9.96795	3.157206
9.079588966424197	10.391133	3.2235281
9.097170982017108	10.494308	3.239492
9.11475321222372	11.45971	3.3852193
9.132335657465825	12.299101	3.5070074
9.149918318165264	12.418962	3.5240548
9.167501194743924	13.001368	3.605741
9.18508428762374	12.667499	3.559143
9.202667597226693	12.705119	3.564424
9.220251123974803	12.392011	3.5202289
9.237834868290143	12.035321	3.469196
9.255418830594836	11.832969	3.4399083
9.273003011311046	11.311208	3.363214
9.290587410860985	11.14769	3.3388157
9.308172029666911	10.50696	3.241444
9.32575686815113	10.116723	3.1806796
9.343341926735997	8.682164	2.9465513
9.360927205843916	8.474764	2.9111447
9.378512705897327	8.280125	2.8775206
9.396098427318728	8.120821	2.8497055
9.413684370530664	8.003893	2.8291152
9.431270535955722	7.923879	2.8149385
9.448856924016539	7.854876	2.8026552
9.466443535135806	7.7531424	2.7844465
9.484030369736251	7.7354827	2.7812736
9.501617428240658	7.7257853	2.7795296
9.519204711071852	7.754034	2.7846067
9.536792218652714	7.9117017	2.8127747
9.55437995140617	7.9301023	2.8160439
9.571967909755191	7.9657855	2.8223724
9.589556094122802	7.9751997	2.8240397
9.60714450493207	7.9656963	2.8223565
9.624733142606116	8.03018	2.8337572
9.642322007568108	8.10106	2.846236
9.659911100241267	8.204013	2.8642647
9.677500421048851	8.1713915	2.8585646
9.695089970414175	8.104855	2.8469026
9.712679748760609	8.083348	2.843123
9.730269756511557	8.142205	2.853455
9.747859994090492	8.224389	2.8678195
9.765450461920915	8.261508	2.8742838
9.78304116042639	8.268612	2.8755195
9.800632090030527	8.285581	2.8784685
9.81822325115699	8.348753	2.889421
9.835814644229481	8.386664	2.895974
9.853406269671762	8.384203	2.8955488
9.870998127907646	8.3575735	2.8909469
9.888590219360985	8.291459	2.8794894
9.906182544455698	8.324629	2.8852432
9.923775103615734	8.435675	2.9044232
9.941367897265108	8.478613	2.9118059
9.958960925827878	8.479492	2.9119568
9.97655418972816	8.387321	2.8960872
9.994147689390106	8.334121	2.8868878
10.011741425237934	8.354029	2.8903337
10.029335397695904	8.287164	2.8787434
10.04692960718833	8.275391	2.8766978
10.06452405413958	8.225884	2.8680804
10.082118738974064	8.29378	2.8798923
10.099713662116246	8.236812	2.8699846
10.117308823990651	8.211618	2.8655922
10.134904225021844	8.244054	2.871246
10.152499865634445	8.258117	2.873694
10.170095746253125	8.26718	2.8752706
10.18769186730261	8.227943	2.8684392
10.205288229207675	8.178126	2.8597424
10.222884832393145	8.207772	2.864921
10.2404816772839	8.234029	2.8694997
10.258078764304868	8.238473	2.870274
10.275676093881035	8.165375	2.857512
10.293273666437438	8.147277	2.8543434
10.310871482399158	8.214886	2.8661623
10.32846954219134	8.270292	2.8758116
10.346067846239173	8.271222	2.8759732
10.363666394967908	8.199773	2.8635244
10.38126518880283	8.2290125	2.8686256
10.398864228169298	8.277564	2.8770757
10.416463513492713	8.327491	2.8857393
10.434063045198531	8.25407	2.87299
10.451662823712262	8.194674	2.862634
10.469262849459467	8.137818	2.8526862
10.486863122865758	8.107096	2.8472962
10.504463644356806	8.06595	2.8400617
10.522064414358338	8.025619	2.8329523
10.539665433296118	8.001989	2.8287787
10.557266701595987	8.016484	2.8313396
10.574868219683818	7.9417815	2.8181167
10.592469987985552	7.8320866	2.7985866
10.610072006927185	7.7242746	2.779258
10.627674276934751	7.5235176	2.7429032
10.64527679843435	7.3593984	2.712821
10.662879571852143	7.254795	2.6934726
10.680482597614331	7.2585487	2.6941693
10.698085876147173	7.2327456	2.6893764
10.715689407876988	7.0939956	2.6634555
10.733293193230146	6.957852	2.637774
10.750897232633072	6.8736567	2.6217659
10.76850152651225	6.815849	2.610718
10.786106075294207	6.7065225	2.5896955
10.803710879405534	6.5338516	2.55614
10.821315939272877	6.4389157	2.5375018
10.83892125532294	6.404775	2.5307658
10.856526827982472	6.3402286	2.517981
10.874132657678285	6.2679033	2.5035782
10.891738744837243	6.1592193	2.4817774
10.909345089886271	6.133924	2.476676
10.926951693252343	6.1254015	2.4749548
10.944558555362494	6.169296	2.4838066
10.96216567664381	6.1579027	2.481512
10.979773057523436	6.0816565	2.4661014
10.997380698428573	5.953092	2.4398959
11.014988599786477	5.822744	2.4130363
11.032596762024461	5.7089996	2.3893514
11.050205185569892	5.6535473	2.377719
11.067813870850198	5.55737	2.3574076
11.085422818292859	5.4944124	2.3440163
11.10303202832541	5.466854	2.3381305
11.120641501375454	5.4529405	2.335153
11.138251237870636	5.4806013	2.3410685
11.155861238238671	5.3863235	2.3208454
11.173471502907317	5.2653494	2.2946348
11.191082032304402	5.2031546	2.2810423
11.208692826857805	5.176428	2.2751765
11.226303886995465	5.0760837	2.2530165
11.243915213145371	5.0184293	2.240185
11.261526805735578	4.9401517	2.2226453
11.279138665194196	4.913761	2.2167006
11.296750791949393	4.8435264	2.2008014
11.314363186429393	4.7704973	2.184147
11.331975849062479	4.694863	2.1667633
11.34958878027699	4.681437	2.163663
11.36720198050133	4.68145	2.1636658
11.384815450163948	4.641325	2.1543734
11.402429189693366	4.593401	2.143222
11.420043199518153	4.5353975	2.1296473
11.437657480066942	63.444267	7.965191
11.455272031768422	85.15872	9.228148
11.472886855051353	107.51196	10.368797
11.490501950344528	99.0924	9.954516
11.508117318076819	84.44322	9.1893
11.52573295867715	45.86873	6.7726455
11.543348872574514	4.1863065	2.0460465
11.560965060197946	4.153463	2.0380046
11.57858152197655	4.080534	2.0200331
11.59619825833949	4.0544815	2.0135744
11.613815269715985	4.053236	2.013265
11.631432556535323	38.556396	6.2093797
11.649050119226837	83.064384	9.113966
11.666667958219929	93.4328	9.666064
11.68428607394406	107.7218	10.378911
11.701904466828756	82.55896	9.086196
11.719523137303586	65.41905	8.088204
11.737142085798196	4.6420965	2.1545525
11.754761312742286	3.7342272	1.9324149
11.772380818565619	3.7308307	1.9315358
11.790000603698015	3.6831765	1.9191604
11.80762066856935	3.667976	1.9151961
11.825241013609572	3.6227758	1.903359
11.842861639248683	3.570091	1.8894684
11.860482545916748	3.5343487	1.8799864
11.878103734043883	3.5121057	1.8740612
11.895725204060282	3.4751995	1.8641887
11.91334695639619	3.4244928	1.8505385
11.930968991481919	3.3786063	1.8380985
11.948591309747824	3.3258255	1.8236846
11.966213911624347	3.2939446	1.8149228
11.98383679754198	3.2731745	1.8091917
12.001459967931268	3.2619793	1.806095
12.019083423222835	3.2831783	1.8119543
12.036707163847352	3.246263	1.8017389
12.05433119023556	3.2404618	1.8001282
12.071955502818259	3.2038872	1.7899406
12.089580102026313	3.192717	1.7868176
12.107204988290643	3.1797767	1.7831929
12.12483016204224	3.1540303	1.775959
12.142455623712152	3.13398	1.770305
12.16008137373149	3.1207402	1.7665616
12.177707412531431	3.1239545	1.7674712
12.19533374054321	3.1073282	1.7627615
12.212960358198126	3.0697548	1.7520716
12.230587265927545	3.0570312	1.7484368
12.248214464162889	3.0365767	1.7425777
12.265841953335649	3.0310035	1.7409778
12.283469733877375	2.978493	1.7258312
12.301097806219685	2.9872034	1.7283528
12.31872617079425	2.983761	1.7273567
12.336354828032825	3.0153449	1.7364749
12.353983778367205	3.0081444	1.7344003
12.371613022229262	2.9986322	1.731656
12.389242560050928	2.957436	1.7197198
12.406872392264201	2.9311316	1.7120548
12.424502519301143	2.9080288	1.7052944
12.442132941593874	2.894349	1.7012787
12.459763659574586	2.897654	1.7022496
12.477394673675532	2.8672411	1.693293
12.49502598432903	2.8381164	1.684671
12.51265759196746	2.7962816	1.6722085
12.530289497023267	2.7872074	1.6694932
12.547921699928967	2.7988853	1.672987
12.565554201117134	2.8495228	1.688053
12.583187001020404	2.8610895	1.6914755
12.600820100071486	2.8569033	1.6902376
12.618453498703152	2.8010767	1.6736417
12.636087197348235	2.778347	1.6668375
12.65372119643964	2.7743242	1.6656302
12.671355496410326	2.7716331	1.6648222
12.68899009769333	2.8477657	1.6875324
12.706625000721749	2.8805654	1.6972228
12.724260205928752	2.9658296	1.7221584
12.741895713747551	2.970686	1.7235678
12.759531524611454	3.000487	1.7321914
12.777167638953818	3.0089698	1.7346382
12.794804057208072	3.024806	1.7391969
12.812440779807702	3.0878623	1.7572315
12.830077807186271	3.2805429	1.8112268
12.847715139777405	3.35306	1.8311362
12.865352778014795	3.5833268	1.8929677
12.882990722332197	3.6878214	1.9203701
12.90062897316344	3.7210996	1.9290152
12.918267530942412	3.7503066	1.9365709
12.935906396103071	3.6114209	1.9003739
12.953545569079449	3.7542856	1.9375979
12.971185050305628	3.5366447	1.8805969
12.988824840215775	3.5837274	1.8930736
13.006464939244115	3.63281	1.9059932
13.024105347824943	3.5052948	1.8722433
13.041746066392617	3.5599427	1.8867811
13.05938709538157	3.361132	1.833339
13.077028435226296	3.399857	1.8438702
13.094670086361363	3.3356981	1.8263893
13.112312049221401	3.264369	1.8067565
13.129954324241112	3.157829	1.7770282
13.147596911855258	2.9027262	1.7037389
13.165239812498685	2.8601263	1.6911908
13.182883026606293	2.802348	1.6740215
13.200526554613058	2.7456787	1.657009
13.218170396954017	2.7401273	1.655333
13.235814554064284	2.7361302	1.6541252
13.253459026379034	2.7716424	1.6648251
13.271103814333523	2.7367527	1.6543133
13.288748918363058	2.744668	1.656704
13.306394338903031	2.743743	1.6564248
13.32404007638889	2.7074912	1.6454456
13.341686131256164	2.6951277	1.6416844
13.359332503940449	2.6616418	1.6314539
13.376979194877402	2.6571162	1.6300663
13.394626204502751	2.710373	1.646321
13.412273533252307	2.74012	1.6553308
13.429921181561937	2.7330258	1.6531866
13.447569149867581	2.691068	1.6404475
13.465217438605247	2.707079	1.6453203
13.482866048211022	2.697755	1.6424844
13.500514979121052	2.67456	1.6354083
13.518164231771568	2.6512723	1.6282728
13.535813806598844	2.6755738	1.6357181
13.553463704039254	2.686164	1.638952
13.571113924529229	2.6927934	1.6409733
13.588764468505275	2.669984	1.6340086
13.606415336403956	2.7152889	1.6478133
13.624066528661917	2.7832422	1.6683052
13.641718045715882	2.8023412	1.6740195
13.659369888002635	2.8410306	1.6855357
13.67702205595903	2.8765957	1.696053
13.694674550021993	2.9479134	1.7169489
13.712327370628532	3.0110002	1.7352234
13.729980518215713	3.0846279	1.7563108
13.747633993220681	3.1690211	1.7801745
13.765287796080647	3.2338731	1.7982973
13.7829419272329	3.297952	1.8160264
13.800596387114801	3.3387918	1.8272362
13.818251176163775	3.3318858	1.8253454
13.835906294817324	3.3777344	1.8378614
13.853561743513023	3.4483457	1.8569722
13.871217522688525	3.5033906	1.8717346
13.888873632781538	3.519586	1.876056
13.906530074229858	3.538322	1.8810428
13.92418684747135	3.565	1.8881208
13.941843952943948	3.5261831	1.8778133
13.959501391085665	3.442182	1.8553119
13.977159162334578	3.3691616	1.8355277
13.994817267128846	3.3407822	1.8277807
14.012475705906693	3.2943504	1.8150345
14.030134479106424	3.251439	1.8031747
14.047793587166414	3.1607535	1.7778507
14.065453030525108	3.0963192	1.759636
14.083112809621026	3.0257485	1.7394679
14.100772924892766	2.940329	1.7147387
14.118433376778997	2.9062712	1.7047789
14.136094165718458	2.850961	1.688479
14.153755292149969	2.8093956	1.6761252
14.171416756512416	2.734363	1.6535909
14.189078559244768	2.6719131	1.6345987
14.20674070078606	2.6180956	1.6180531
14.224403181575408	2.5417192	1.594277
14.242066002051999	2.4777868	1.5740987
14.259729162655093	2.448897	1.5648952
14.277392663824022	2.4190938	1.5553436
14.295056505998208	2.4330177	1.5598134
14.312720689617128	2.4451482	1.563697
14.330385215120348	2.4715605	1.5721197
14.348050082947497	2.4482095	1.5646756
14.3657152935383	2.4139955	1.5537038
14.383380847332528	2.3897371	1.5458775
14.401046744770051	2.3932664	1.5470185
14.418712986290798	2.3907976	1.5462204
14.436379572334793	2.4010801	1.549542
14.454046503342123	2.4337757	1.5600563
14.471713779752946	2.4492846	1.565019
14.489381402007504	2.4434972	1.563169
14.507049370546113	2.4109483	1.5527228
14.524717685809168	2.3970132	1.5482291
14.542386348237134	2.4094903	1.5522534
14.560055358270553	2.38431	1.5441211
14.577724716350051	2.4081626	1.5518255
14.595394422916325	2.4129941	1.5533816
14.61306447841015	2.473387	1.5727005
14.63073488327237	2.5131938	1.5853056
14.648405637943917	2.5168073	1.5864449
14.6660767428658	2.5169587	1.5864925
14.683748198479094	2.5396197	1.5936184
14.701420005224954	2.5869665	1.608405
14.719092163544628	2.635344	1.6233742
14.73676467387942	2.6775026	1.6363076
14.754437536670727	2.6941519	1.6413872
14.772110752360014	2.7040718	1.6444062
14.78978432138882	2.7202303	1.6493121
14.807458244198777	2.7775178	1.6665887
14.82513252123159	2.7553337	1.6599197
14.842807152929028	2.7582476	1.6607972
14.860482139732962	2.7147903	1.647662
14.87815748208531	2.693907	1.6413126
14.8958331804281	2.6942506	1.6414173
14.91350923520342	2.6597078	1.630861
14.931185646853438	2.6785183	1.6366179
14.948862415820408	2.6581619	1.6303871
14.966539542546656	2.6569912	1.630028
14.98421702747459	2.6518922	1.6284631
15.001894871046696	2.687878	1.6394749
15.019573073705542	2.7039568	1.6443713
15.037251635893766	2.679164	1.6368152
15.054930558054092	2.6881247	1.6395501
15.072609840629323	2.7299488	1.6522557
15.090289484062351	2.866164	1.6929749
15.107969488796124	3.1747036	1.7817698
15.125649855273691	3.5642664	1.8879265
15.14333058393817	4.0521445	2.0129938
15.161011675232768	4.919325	2.217955
15.17869312960076	6.220794	2.494152
15.196374947485506	8.043253	2.836063
15.214057129330447	11.162031	3.3409626
15.231739675579114	15.830823	3.9787967
15.249422586675102	20.95079	4.5772033
15.267105863062092	24.284594	4.92794
15.284789505183847	24.90135	4.990125
15.302473513484218	23.122097	4.808544
15.320157888407127	19.752064	4.4443293
15.337842630396578	15.470839	3.9332986
15.355527739896656	11.998073	3.4638233
15.37321321735153	9.175665	3.029136
15.39089906320545	6.559077	2.5610695
15.408585277902748	4.9086885	2.2155561
15.42627186188783	3.8075101	1.9512842
15.443958815605198	3.2196105	1.7943273
15.461646139499424	2.9337082	1.712807
15.479333834015168	2.7660632	1.6631486
15.497021899597165	2.747047	1.6574218
15.514710336690234	2.715037	1.6477369
15.53239914573928	2.6569076	1.6300023
15.550088327189297	2.6177397	1.617943
15.567777881485336	2.602009	1.6130744
15.58546780907256	2.589331	1.6091398
15.6031581103962	2.5265474	1.5895118
15.620848785901568	2.480216	1.5748701
15.638539836034063	2.4714262	1.572077
15.656231261239173	2.476597	1.5737208
15.673923061962451	2.4261463	1.5576092
15.691615238649552	2.3922787	1.5466993
15.709307791746202	2.3722553	1.5402128
15.727000721698221	2.3893523	1.545753
15.744694028951498	2.4081323	1.5518159
15.76238771395202	2.401345	1.5496274
15.780081777145844	2.4097683	1.5523429
15.797776218979125	2.4351065	1.5604827
15.815471039898094	2.4483128	1.5647085
15.833166240349064	2.4251351	1.5572846
15.850861820778437	2.3851779	1.5444021
15.868557781632699	2.367943	1.5388122
15.886254123358412	2.364674	1.5377496
15.903950846402232	2.3935578	1.5471127
15.921647951210897	2.3905883	1.5461527
15.939345438231225	2.3711114	1.5398413
15.957043307910133	2.3824973	1.543534
15.974741560694602	2.4245486	1.5570962
15.992440197031714	2.4740138	1.5728998
16.01013921736862	2.462203	1.5691409
16.02783862215259	2.4532692	1.5662916
16.045538411830933	2.4270356	1.5578946
16.06323858685107	2.4201798	1.5556927
16.080939147660512	2.3922234	1.5466814
16.09864009470684	2.3910284	1.546295
16.11634142843774	2.3887727	1.5455655
16.134043149300954	2.3810341	1.54306
16.15174525774433	2.3830667	1.5437185
16.169447754215817	2.403282	1.5502522
16.18715063916342	2.4343348	1.5602355
16.204853913035244	2.4597964	1.5683738
16.222557576279478	2.4890938	1.5776862
16.240261629344403	22.482635	4.7415857
16.257966072678386	43.04375	6.560774
16.275670906729868	38.15562	6.1770234
16.293376131947387	2.5831516	1.6072186
16.31108174877957	2.557665	1.5992702
16.328787757675133	2.5979073	1.6118025
16.34649415908287	2.5999432	1.6124339
16.364200953451657	2.5867505	1.6083378
16.38190814123048	2.559939	1.599981
16.39961572286839	2.6350958	1.6232978
16.41732369881455	2.686282	1.6389881
16.43503206951817	2.718211	1.6486998
16.45274083542859	2.7730465	1.6652467
16.47044999699522	2.8197079	1.6791986
16.488159554667558	2.852977	1.6890758
16.505869508895184	2.8773754	1.6962829
16.523579860127786	2.962729	1.7212579
16.541290608815117	3.0136936	1.7359993
16.559001755407035	3.0294194	1.7405227
16.57671330035348	3.037689	1.7428967
16.59442524410448	3.1267784	1.7682699
16.61213758711015	3.199625	1.7887496
16.629850329820705	3.2751663	1.8097421
16.647563472686436	3.3425186	1.8282557
16.665277016157724	3.4142206	1.8477609
16.682990960685053	3.4339247	1.8530852
16.70070530671898	3.4290643	1.8517733
16.718420054710155	3.4414191	1.8551062
16.736135205109335	3.5075388	1.8728424
16.753850758367335	3.5744183	1.8906132
16.771566714935087	3.6314476	1.9056357
16.789283075263597	3.684857	1.9195981
16.80699983980398	3.80115	1.9496539
16.82471700900741	3.8772802	1.969081
16.84243458332518	3.9769163	1.9942207
16.860152563208665	4.0503845	2.0125568
16.87787094910932	4.101676	2.0252595
16.89558974147871	4.0980325	2.0243597
16.913308940768466	4.1236205	2.03067
16.931028547430333	4.1898527	2.046913
16.94874856191613	4.285182	2.0700681
16.966468984677785	4.370775	2.0906398
16.98418981616729	4.4298935	2.1047313
17.00191105683676	4.4666214	2.1134384
17.019632707138374	4.525671	2.1273625
17.03735476752442	4.5681047	2.1373124
17.05507723844728	4.6164727	2.148598
17.072800120359403	4.6391926	2.1538785
17.090523413713353	4.6668353	2.160286
17.108247118961785	4.654141	2.1573458
17.125971236557437	4.656409	2.1578712
17.143695766953133	4.628314	2.1513517
17.161420710601806	4.6582093	2.1582885
17.179146067956477	4.674124	2.1619723
17.19687183947025	4.695675	2.1669507
17.21459802559634	4.6807303	2.1634996
17.232324626788028	4.638625	2.1537468
17.25005164349871	4.5896993	2.1423583
17.267779076181863	4.5773854	2.1394825
17.285506925291074	4.5652905	2.1366541
17.30323519127999	4.545013	2.1319036
17.320963874602384	4.556769	2.134659
17.33869297571211	4.587021	2.1417332
17.356422495063114	4.607154	2.146428
17.37415243310944	4.5738306	2.1386516
17.391882790305218	4.508644	2.1233568
17.40961356710468	4.5031304	2.1220582
17.42734476396215	4.515089	2.1248739
17.445076381332044	4.560499	2.1355326
17.462808419668868	4.597158	2.1440985
17.48054087942723	4.724624	2.17362
17.498273761061835	5.0151863	2.2394612
17.51600706502747	5.4796596	2.3408673
17.533740791779024	6.148284	2.4795732
17.551474941771485	7.612907	2.7591498
17.56920951545993	8.7726	2.9618576
17.586944513299528	11.120177	3.334693
17.60467993574556	12.858367	3.5858564
17.622415783253373	14.509431	3.8091247
17.64015205627843	16.013355	4.001669
17.657888755276293	17.212559	4.1488023
17.675625880702604	17.829075	4.222449
17.69336343301311	17.699703	4.2071013
17.71110141266366	16.846775	4.104482
17.728839820110178	15.852854	3.9815643
17.746578655808705	14.753135	3.840981
17.764317920215372	13.089758	3.6179771
17.7820576137864	11.366623	3.3714423
17.79979773697811	9.287752	3.0475814
17.81753829024692	7.3743715	2.7155795
17.835279274049356	5.7519727	2.398327
17.85302068884201	4.7853537	2.187545
17.870762535081607	4.1748066	2.0432343
17.888504813224934	3.9149399	1.9786206
17.90624752372891	3.7353742	1.9327116
17.923990667050536	3.6186454	1.9022738
17.941734243646895	3.4953961	1.8695979
17.959478253975185	3.4644904	1.8613142
17.9772226984927	3.480889	1.8657141
17.994967577656833	3.4597979	1.8600532
18.01271289192506	3.4504824	1.8575474
18.030458641754965	3.4253657	1.8507744
18.04820482760425	3.359883	1.8329984
18.06595144993067	3.2788365	1.8107557
18.083698509192125	3.2584298	1.8051121
18.101446005846576	3.2813854	1.8114594
18.119193940352105	3.2649112	1.8069065
18.136942313166887	3.2563112	1.8045251
18.1546911247492	3.2323248	1.7978667
18.1724403755574	3.1851764	1.7847062
18.19019006604997	3.1645374	1.7789147
18.207940196685467	3.1314695	1.7695959
18.225690767922575	3.131763	1.7696788
18.243441780220046	3.136623	1.7710514
18.261193234036764	3.1329477	1.7700135
18.278945129831676	3.119705	1.7662686
18.29669746806386	3.0926845	1.758603
18.314450249192483	3.088511	1.757416
18.3322034736768	3.094263	1.7590518
18.349957141976184	3.0866024	1.7568729
18.3677112545501	3.0900855	1.7578639
18.385465811858108	3.0847125	1.756335
18.403220814359884	3.0763106	1.7539414
18.420976262515172	3.095533	1.7594126
18.43873215678387	3.0847325	1.7563406
18.456488497625923	3.1365345	1.7710264
18.474245285501407	3.227807	1.7966099
18.492002520870486	3.3201087	1.8221165
18.50976020419343	3.4146733	1.8478835
18.527518335930615	3.7546806	1.9376998
18.545276916542516	4.343443	2.0840929
18.563035946489688	4.451294	2.109809
18.580795426232832	4.845457	2.2012398
18.598555356232698	4.745912	2.1785114
18.616315736950185	5.1050124	2.2594275
18.63407656884626	4.7696195	2.183946
18.65183785238201	5.002368	2.2365973
18.669599588018617	4.8039904	2.1918006
18.68736177621737	4.791974	2.1890578
18.705124417439652	4.697831	2.167448
18.72288751214696	4.473666	2.1151042
18.740651060800886	4.6104474	2.1471953
18.758415063863115	4.342853	2.0839512
18.77617952179546	4.5251656	2.1272438
18.793944435059814	4.2566347	2.0631614
18.811709804118184	4.2926855	2.0718796
18.829475629432675	4.272848	2.067087
18.8472419114655	4.07912	2.0196831
18.86500865067897	4.1202536	2.0298407
18.88277584753551	3.7610633	1.9393461
18.90054350249763	3.7912953	1.9471248
18.918311616027957	3.4920702	1.8687081
18.936080188589226	3.3966868	1.8430103
18.953849220644265	3.0730252	1.7530047
18.971618712656007	2.8954213	1.7015938
18.9893886650875	2.842911	1.6860934
19.007159078401887	8.021695	2.8322597
19.024929953062408	32.927574	5.7382555
19.042701289532435	32.895504	5.7354603
19.060473088275405	25.438887	5.043698
19.07824534975489	2.6729722	1.6349227
19.096018074434568	2.6384761	1.6243386
19.113791262778197	2.6554139	1.629544
19.13156491524966	2.6584778	1.6304839
19.149339032312945	2.6447473	1.6262679
19.167113614432136	2.6025805	1.6132516
19.184888662071433	2.5736728	1.604267
19.202664175695123	2.5512094	1.5972506
19.220440155767623	2.5330389	1.5915524
19.238216602753447	2.517117	1.5865425
19.2559935171172	2.5046096	1.5825958
19.27377089932361	2.5053844	1.5828407
19.291548749837514	2.5082939	1.5837594
19.309327069123835	2.5192556	1.5872163
19.32710585764763	2.527466	1.5898006
19.344885115874032	2.4978592	1.5804617
19.362664844268313	2.4578764	1.5677617
19.380445043295822	2.4704666	1.5717719
19.39822571342203	2.5032136	1.5821548
19.41600685511252	2.5221326	1.5881224
19.43378846883297	2.5152192	1.5859443
19.451570555049173	2.5259326	1.5893183
19.469353114227037	2.5044985	1.5825608
19.48713614683254	2.4642396	1.5697896
19.50491965333182	2.4531696	1.5662597
19.52270363419109	2.474766	1.573139
19.540488089876686	2.483977	1.5760638
19.55827302085503	2.4956846	1.5797735
19.576058427592674	2.4894402	1.577796
19.593844310556282	2.4913883	1.5784132
19.611630670212598	2.5092955	1.5840756
19.629417507028506	2.5208936	1.5877322
19.64720482147098	2.4879522	1.5773244
19.6649926140071	2.4482	1.5646725
19.682780885104084	2.4623234	1.5691792
19.70056963522921	2.489563	1.577835
19.718358864849908	2.5056314	1.5829186
19.7361485744337	2.5015938	1.5816427
19.753938764448215	2.5076458	1.5835549
19.771729435361202	2.5072184	1.5834198
19.789520587640506	2.5251348	1.5890672
19.807312221754092	2.5091374	1.5840257
19.825104338170043	2.5075238	1.5835162
19.842896937356517	2.510506	1.5844576
19.860690019781824	2.5309973	1.5909108
19.87848358591436	2.547233	1.5960053
19.896277636222635	2.5289316	1.5902615
19.914072171175278	2.5357206	1.5923946
19.931867191241015	2.545955	1.5956049
19.94966269688869	2.5513866	1.597306
19.967458688587264	2.5546014	1.598312
19.985255166805807	2.547059	1.5959508
20.00305213201348	2.5158951	1.5861573
20.020849584679578	2.5265243	1.5895045
20.038647525273507	2.549528	1.5967242
20.05644595426477	2.5315344	1.5910796
20.07424487212299	2.4614465	1.5688998
20.092044279317903	2.4692454	1.5713832
20.109844176319353	2.4841342	1.5761136
20.127644563597304	2.4673767	1.5707886
20.145445441621817	2.4575465	1.5676564
20.16324681086307	2.4138167	1.5536462
20.181048671791373	2.4435575	1.5631882
20.198851024877122	2.4505546	1.5654247
20.216653870590836	2.4681783	1.5710437
20.234457209403146	2.4479408	1.5645896
20.252261041784802	2.4186764	1.5552094
20.270065368206662	2.3733199	1.5405583
20.287870189139685	2.357641	1.5354612
20.305675505054968	2.372592	1.5403221
20.323481316423702	2.4232128	1.5566672
20.341287623717207	2.4260378	1.5575743
20.359094427406884	2.3833287	1.5438033
20.376901727964288	2.3409624	1.5300204
20.39470952586107	2.3329282	1.5273926
20.41251782156899	2.3731582	1.5405059
20.430326615559935	2.3682458	1.5389106
20.448135908305886	2.3382325	1.5291281
20.465945700278965	2.3331947	1.5274799
20.483755991951384	2.3634217	1.5373424
20.50156678379548	2.337117	1.5287632
20.519378076283708	2.3277686	1.5257026
20.537189869888635	2.351636	1.5335045
20.55500216508294	2.3408356	1.529979
20.572814962339415	2.3221126	1.5238479
20.59062826213098	2.3253605	1.5249133
20.60844206493066	2.3633933	1.5373331
20.626256371211593	2.3414197	1.5301698
20.644071181447032	2.2981753	1.5159734
20.66188649611036	2.2755992	1.5085089
20.67970231567506	2.298345	1.5160294
20.697518640614742	2.3162012	1.5219071
20.715335471403122	2.3166707	1.5220613
20.73315280851404	2.308315	1.519314
20.750970652421447	2.2998853	1.5165373
20.768789003599412	2.2896686	1.5131651
20.786607862522136	2.291492	1.5137675
20.8044272296639	2.292826	1.5142081
20.82224710549913	2.3204834	1.5233133
20.84006749050237	2.3237498	1.5243851
20.857888385148268	3.8579342	1.9641625
20.8757097899116	45.95904	6.7793097
20.893531705267254	64.84173	8.052436
20.911354131690224	83.87829	9.158509
20.92917706965566	69.113785	8.31347
20.94700051963877	50.16813	7.0829463
20.96482448211493	29.451748	5.4269466
20.982648957559622	4.1953883	2.0482647
21.00047394644843	2.3013673	1.5170258
21.01829944925707	2.2807283	1.510208
21.036125466461375	2.288091	1.5126437
21.053951998537297	2.2604332	1.5034738
21.071779045960906	2.244294	1.4980968
21.089606609208378	2.2550924	1.5016965
21.10743468875603	2.2522235	1.500741
21.12526328508028	2.2468967	1.4989653
21.143092398657675	2.2025847	1.4841107
21.16092202996488	2.2152462	1.4883703
21.17875217947867	2.2199292	1.4899427
21.19658284767596	2.2151241	1.4883293
21.21441403503377	2.1997046	1.4831401
21.232245742029225	2.181694	1.4770559
21.2500779691396	2.1671107	1.472111
21.26791071684227	2.1597576	1.4696114
21.28574398561475	2.1463652	1.4650478
21.30357777593465	2.1429327	1.4638759
21.321412088279704	2.1026657	1.4500571
21.339246923127792	2.0950122	1.4474157
21.357082280956888	2.1331878	1.4605436
21.3749181622451	2.1689177	1.4727246
21.392754567470647	2.166772	1.4719958
21.41059149711187	2.1634552	1.4708688
21.42842895164726	2.1645782	1.4712505
21.446266931555378	2.1595602	1.4695442
21.464105437314945	2.156555	1.4685214
21.481944469404798	2.1494865	1.4661127
21.49978402830388	2.1227975	1.4569824
21.51762411449127	2.1301432	1.459501
21.53546472844617	2.1572673	1.4687638
21.553305870647876	2.1628199	1.4706528
21.571147541575865	2.104964	1.4508494
21.58898974170967	2.0668948	1.4376699
21.60683247152899	2.0817497	1.442827
21.62467573151363	2.1017766	1.4497505
21.642519522143523	2.1225092	1.4568834
21.660363843898722	2.0883317	1.4451061
21.6782086972594	2.048703	1.4313291
21.696054082705864	2.008445	1.4171962
21.713900000718535	2.0246902	1.422916
21.73174645177795	2.0388768	1.4278924
21.749593436364794	2.0542643	1.4332705
21.767440954959845	2.011897	1.4184136
21.785289008044032	2.0079808	1.4170324
21.803137596098388	2.0170865	1.4202417
21.820986719604086	2.019855	1.421216
21.838836379042412	1.9855043	1.4090792
21.85668657489478	1.9700058	1.403569
21.87453730764273	1.9959135	1.412768
21.892388577767914	2.0350614	1.4265558
21.91024038575213	2.028557	1.4242742
21.928092732077285	2.0132968	1.4189069
21.945945617225426	2.0063977	1.4164737
21.963799041678694	2.0128388	1.4187455
21.981653005919398	31.32367	5.596755
21.999507510429943	78.10174	8.837519
22.01736255569286	73.07717	8.548519
22.035218142190818	4.2142158	2.0528555
22.05307427040661	2.0564272	1.4340248
22.07093094082315	2.0182252	1.4206425
22.088788153923474	1.9721333	1.4043267
22.106645910190746	1.9234797	1.3868957
22.12450421010827	1.9340093	1.3906866
22.142363054159464	1.9444946	1.3944514
22.16022244282787	1.9375237	1.3919497
22.178082376597164	1.9656337	1.4020106
22.195942855951145	2.0017357	1.4148271
22.213803881373742	2.003703	1.4155222
22.231665453349002	1.980885	1.4074392
22.24952757236111	1.9683127	1.4029657
22.26739023889438	1.9810379	1.4074935
22.28525345343323	1.960991	1.4003539
22.30311721646225	1.923811	1.3870151
22.320981528466113	1.9322405	1.3900505
22.33884638992964	1.9921582	1.4114383
22.356711801337788	2.044539	1.4298737
22.37457776317561	2.0259578	1.4233614
22.392444275928337	1.9770507	1.4060763
22.410311340081282	1.9473634	1.3954797
22.428178956119904	1.9451144	1.3946736
22.446047124529805	1.9378586	1.3920699
22.46391584579669	1.9622208	1.400793
22.481785120406414	1.9644969	1.4016051
22.49965494884496	1.9637123	1.4013252
22.51752533159841	1.9486227	1.3959308
22.53539626915302	1.9512441	1.3968694
22.553267761995137	1.976272	1.4057994
22.571139810611264	1.9971632	1.4132103
22.589012415488025	2.0022285	1.4150013
22.60688557711216	1.991772	1.4113015
22.624759295970566	1.974095	1.4050249
22.642633572550263	1.9566914	1.3988179
22.660508407338362	1.9443824	1.3944111
22.67838380082217	1.9220009	1.3863624
22.696259753489077	1.9412875	1.3933009
22.714136265826614	1.9220182	1.3863688
22.73201333832246	1.9228936	1.3866844
22.74989097146439	1.9316763	1.3898475
22.76776916574035	1.9486176	1.395929
22.785647921638393	1.9620274	1.4007239
22.803527239646712	1.9816848	1.4077233
22.82140712025363	1.9980888	1.4135377
22.839287563947593	1.9831319	1.4082371
22.85716857121719	1.929194	1.3889543
22.875050142551135	1.9093356	1.3817871
22.892932278438277	1.9286455	1.3887569
22.910814979367604	1.9602485	1.4000888
22.928698245828222	1.9363669	1.391534
22.946582078309387	1.8978764	1.3776343
22.96446647730047	1.9072655	1.3810378
22.98235144329098	1.9219508	1.3863444
23.000236976770562	1.9403417	1.3929615
23.018123078229	1.9279718	1.3885143
23.03600974815619	1.9050744	1.3802443
23.053896987042194	1.8665674	1.3662238
23.071784795377173	1.8593682	1.3635865
23.08967317365145	1.894583	1.3764385
23.10756212235546	1.8985695	1.3778858
23.125451641979787	1.9257177	1.3877023
23.143341733015134	1.9436566	1.3941509
23.161232395952357	1.950299	1.3965311
23.179123631282426	1.9514503	1.3969432
23.197015439496468	1.9209069	1.3859679
23.214907821085717	1.8803018	1.371241
23.23280077654157	1.8904178	1.3749247
23.250694306355538	1.9097768	1.3819468
23.268588411019277	1.9438542	1.3942217
23.28648309102458	1.9440144	1.3942791
23.304378346863356	1.9315311	1.3897953
23.322274179027676	1.9253181	1.3875583
23.340170588009723	1.9207059	1.3858954
23.358067574301852	1.931521	1.3897917
23.37596513839651	1.9591323	1.39969
23.39386328078629	2.0240734	1.4226993
23.411762001963947	2.019529	1.4211013
23.429661302422353	1.9814252	1.407631
23.4475611826545	1.9778454	1.406359
23.46546164315356	1.9532367	1.3975824
23.48336268441279	1.9540316	1.3978668
23.501264306925638	1.9324837	1.390138
23.51916651118564	1.9377335	1.392025
23.537069297686497	1.9579232	1.3992581
23.554972666922037	1.9612966	1.400463
23.57287661938623	1.9337976	1.3906105
23.59078115557318	1.9051743	1.3802805
23.608686275977128	1.875909	1.3696382
23.62659198109246	1.8987842	1.3779638
23.6444982714137	1.9252238	1.3875244
23.66240514743549	1.9203653	1.3857725
23.68031260965263	1.9202648	1.3857362
23.698220658560068	1.9129049	1.383078
23.716129294652845	1.919826	1.3855779
23.7340385184262	1.9540184	1.3978621
23.75194833037546	1.965202	1.4018567
23.769858730996123	1.9149345	1.3838116
23.78776972078382	1.8658118	1.3659472
23.80568130023431	1.8880863	1.3740765
23.823593469843495	1.9614089	1.400503
23.841506230107424	1.9587933	1.3995689
23.859419581522275	1.9341879	1.3907509
23.87733352458438	1.8749087	1.3692731
23.89524805979019	1.8612281	1.3642683
23.913163187636318	1.916553	1.3843963
23.931078908619508	1.992336	1.4115013
23.948995223236633	1.9755565	1.4055449
23.966912131984735	2.003699	1.4155208
23.98482963536096	2.036239	1.4269685
24.002747733862616	2.0587757	1.4348434
24.020666427987155	2.0224886	1.4221423
24.038585718232156	2.0199442	1.4212474
24.056505605095353	2.016562	1.420057
24.074426089074617	2.0786996	1.4417696
24.092347170667946	2.089457	1.4454955
24.110268850373515	2.100996	1.4494812
24.128191128689586	2.079607	1.4420843
24.146114006114626	2.0186577	1.4207947
24.164037483147187	1.9986452	1.4137344
24.181961560286005	2.0068257	1.4166248
24.199886238029926	1.9995203	1.4140439
24.21781151687797	2.0008147	1.4145015
24.235737397329274	2.0640407	1.436677
24.253663879883135	2.0636919	1.4365555
24.271590965038975	2.036511	1.4270637
24.289518653296376	1.9749758	1.4053383
24.30744694515505	2.0247114	1.4229236
24.32537584111486	2.03245	1.4256402
24.34330534167581	2.0318701	1.4254369
24.361235447338046	2.0306246	1.4249998
24.379166158601876	2.0404282	1.4284356
24.39709747596772	2.0386975	1.4278296
24.41502939993615	2.0379992	1.4275851
24.432961931007917	1.9806184	1.4073445
24.450895069683856	1.9599208	1.3999717
24.468828816465	2.006354	1.4164582
24.4867631718525	2.036725	1.4271388
24.504698136347656	2.026149	1.4234287
24.52263371045192	1.9893334	1.4104373
24.540569894666874	1.9689889	1.4032067
24.558506689494266	1.9368304	1.3917005
24.57644409543597	1.9202268	1.3857225
24.594382112994012	1.8959643	1.3769401
24.61232074267057	1.8805819	1.3713431
24.630259984967953	1.9359488	1.3913838
24.64819984038863	1.9514127	1.3969297
24.66614030943522	1.9847305	1.4088047
24.684081392610462	2.0103927	1.4178832
24.702023090417274	2.1118608	1.4532243
24.7199654033587	2.1158986	1.4546129
24.737908331937927	2.110518	1.4527622
24.755851876658305	2.0603657	1.4353974
24.773796038023324	2.0611293	1.4356633
24.79174081653661	2.0398362	1.4282284
24.809686212701962	2.0776932	1.4414206
24.827632227023294	2.0986278	1.4486642
24.8455788600047	2.100825	1.4494224
24.8635261121504	2.0802517	1.4423077
24.88147398396475	2.0866325	1.4445181
24.899422475952303	2.122037	1.4567213
24.917371588617698	2.121707	1.456608
24.935321322465768	2.1464953	1.4650923
24.953271678001478	2.2772145	1.5090443
24.97122265572994	2.4710789	1.5719665
24.989174256156414	2.7896507	1.6702248
25.00712647978632	3.1838276	1.7843283
25.02507932712521	3.7765915	1.9433454
25.043032798678798	4.4322124	2.105282
25.060986894952933	5.118673	2.2624483
25.078941616453637	5.8413186	2.416882
25.096896963687055	6.82661	2.6127782
25.114852937159508	8.041758	2.8357992
25.132809537377444	8.56186	2.9260657
25.150766764847468	8.598725	2.9323583
25.168724620076347	7.9870653	2.8261397
25.186683103570985	6.890435	2.6249638
25.204642215838426	5.579699	2.3621387
25.222601957385894	4.127524	2.0316308
25.24056232872074	3.1525986	1.7755558
25.25852333035048	2.5974207	1.6116515
25.276484962782778	2.2494183	1.499806
25.294447226525435	2.1129007	1.453582
25.312410122086423	1.9905921	1.4108834
25.330373649973843	1.9314834	1.3897781
25.348337810695988	1.9528389	1.3974401
25.366302604761245	1.9706746	1.4038072
25.384268032678207	1.9709449	1.4039035
25.40223409495558	1.9277973	1.3884515
25.420200792102257	1.9038808	1.3798119
25.438168124627246	1.8604459	1.3639816
25.45613609303974	1.8432869	1.357677
25.474104697849057	1.8578054	1.3630134
25.492073939564698	1.8661085	1.3660558
25.510043818696285	1.8440326	1.3579516
25.528014335753614	1.8540055	1.3616186
25.54598549124664	1.8795211	1.3709563
25.56395728568544	1.8754672	1.3694769
25.58192971958028	1.8946103	1.3764484
25.59990279344156	1.8711311	1.367893
25.617876507779833	1.8372183	1.3554403
25.635850863105826	1.8666635	1.366259
25.653825859930386	1.8936853	1.3761123
25.671801498764548	1.8922166	1.3755786
25.68977778011949	1.8691078	1.3671532
25.707754704506524	1.796326	1.3402709
25.725732272437153	1.7764148	1.3328221
25.743710484423012	1.8508923	1.3604751
25.761689340975888	1.9009271	1.3787411
25.77966884260774	1.8410757	1.3568624
25.797648989830662	1.840317	1.3565829
25.815629783156922	1.8478742	1.3593653
25.83361122309895	1.859531	1.3636463
25.85159331016929	1.9028767	1.3794479
25.869576044880695	1.9355927	1.3912557
25.887559427746034	1.8650353	1.3656629
25.90554345927836	1.795557	1.3399839
25.92352813999086	1.8071686	1.3443097
25.94151347039689	1.820965	1.3494314
25.959499451009965	1.8442521	1.3580325
25.97748608234374	1.866433	1.3661746
25.995473364912062	1.8716464	1.3680813
26.013461299228904	1.8914237	1.3752904
26.03144988580839	1.8737996	1.368868
26.04943912516483	1.8691448	1.3671668
26.067429017812675	1.8443903	1.3580834
26.085419564266537	1.8370287	1.3553703
26.103410765041186	1.843844	1.3578821
26.12140262065155	1.8113197	1.3458527
26.139395131612723	1.7583157	1.326015
26.157388298439948	1.7894865	1.3377169
26.17538212164861	1.8159639	1.347577
26.193376601754295	1.8705893	1.3676949
26.211371739272714	1.8761152	1.3697135
26.229367534719746	1.8312272	1.3532284
26.247363988611433	1.7728192	1.3314725
26.26536110146397	1.7919898	1.3386523
26.283358873793727	1.8198751	1.3490275
26.301357306117204	1.8237343	1.3504571
26.319356398951104	1.8067075	1.3441381
26.33735615281224	1.8289963	1.3524039
26.35535656821762	1.8612294	1.3642688
26.373357645684404	1.8489872	1.3597747
26.39135938572991	1.8257993	1.3512214
26.409361788871614	1.7872919	1.3368964
26.427364855627165	1.7622925	1.3275137
26.445368586514352	1.7871516	1.3368438
26.46337298205115	1.8254677	1.3510987
26.48137804275568	1.8394345	1.3562576
26.499383769146217	1.8398472	1.3564097
26.517390161741215	1.8559701	1.36234
26.53539722105928	1.8497785	1.3600656
26.553404947619182	1.8346899	1.3545072
26.571413341939856	1.8258067	1.3512242
26.589422404540397	1.7704104	1.3305677
26.60743213594006	1.7657791	1.3288262
26.62544253665827	1.8019851	1.3423804
26.64345360721459	1.8023127	1.3425024
26.66146534812879	1.7500134	1.3228807
26.679477759920758	1.7233541	1.3127658
26.69749084311057	1.7617261	1.3273003
26.71550459821847	1.7659311	1.3288834
26.733519025764842	1.7918202	1.3385888
26.751534126270258	1.8104241	1.34552
26.769549900255434	1.8089	1.3449535
26.787566348241267	1.8003124	1.3417572
26.80558347074881	1.8677717	1.3666644
26.823601268299267	1.867664	1.3666251
26.841619741414036	1.8064142	1.3440291
26.85963889061465	1.7597634	1.3265607
26.877658716422832	1.7360587	1.3175958
26.89567921936045	1.742452	1.3200197
26.913700399949544	1.7344875	1.3169994
26.93172225871233	1.7563801	1.325285
26.949744796171174	1.763299	1.3278927
26.967768012848605	1.8043724	1.3432693
26.98579190926733	1.8283017	1.3521471
27.003816485950225	1.8452995	1.358418
27.021841743420318	1.8495721	1.3599898
27.039867682200814	1.8160884	1.3476232
27.057894302815072	1.8096219	1.3452219
27.07592160578664	1.8304988	1.3529593
27.0939495916392	1.8497524	1.360056
27.111978260896635	1.848984	1.3597735
27.13000761408296	1.8840777	1.3726171
27.148037651722397	1.8717308	1.3681121
27.166068374339304	1.8310268	1.3531544
27.184099782458215	1.8376178	1.3555876
27.20213187660384	1.8459456	1.3586558
27.22016465730105	1.7786872	1.3336743
27.23819812507487	1.7344006	1.3169664
27.256232280450533	1.7323263	1.3161787
27.274267123953383	1.7544088	1.324541
27.292302656108987	1.8304341	1.3529353
27.31033887744306	1.8546069	1.3618395
27.32837578848146	1.8369261	1.3553325
27.34641338975026	1.8140849	1.3468797
27.364451681775673	1.7760257	1.3326762
27.382490665084074	1.7468542	1.3216861
27.400530340202046	1.7968947	1.340483
27.41857070765629	1.8002366	1.3417289
27.436611767973726	1.7789881	1.3337871
27.454653521681404	1.7678367	1.3296002
27.472695969306564	1.7705365	1.330615
27.490739111376627	1.7949729	1.339766
27.508782948419153	1.8117447	1.3460107
27.526827480961902	1.76864	1.3299023
27.54487270953279	1.7243383	1.3131406
27.562918634659898	1.7646928	1.3284174
27.580965256871508	1.832801	1.3538098
27.599012576696026	1.8716031	1.3680655
27.617060594662068	1.8519353	1.3608583
27.63510931129842	1.8855292	1.3731457
27.65315872713401	1.8670181	1.3663887
27.67120884269797	1.83586	1.3549391
27.68925965851958	1.7802066	1.3342438
27.707311175128307	1.7709701	1.330778
27.725363393053787	1.8335744	1.3540955
27.74341631282583	1.8907539	1.3750468
27.7614699349744	1.9215856	1.3862127
27.77952426002968	2.0547223	1.4334303
27.797579288521973	2.1207657	1.4562849
27.815635020981784	2.5301874	1.5906563
27.83369145793979	2.6436722	1.6259373
27.85174859992682	2.5080137	1.583671
27.869806447473923	2.309401	1.5196713
27.887865001112267	1.9504826	1.3965968
27.905924261373233	1.9045038	1.3800377
27.92398422878836	1.8858331	1.3732564
27.94204490388936	1.8659687	1.3660047
27.96010628720813	1.872689	1.3684623
27.978168379276728	1.9123279	1.3828695
27.9962311806274	1.916776	1.3844768
28.014294691792568	1.8736621	1.3688178
28.0323589133048	1.8648562	1.3655974
28.050423845696887	1.8795967	1.3709838
28.068489489501758	1.883705	1.3724813
28.086555845252523	1.9054593	1.3803837
28.104622913482487	1.9364228	1.3915541
28.122690694725115	1.9535067	1.3976791
28.14075918951405	1.913958	1.3834587
28.15882839838312	1.885459	1.3731202
28.176898321866304	1.891581	1.3753476
28.1949689604978	1.946475	1.3951613
28.213040314811945	1.9725502	1.4044751
28.23111238534327	1.9529192	1.3974689
28.249185172626493	1.9490738	1.3960923
28.267258677196473	1.9402887	1.3929424
28.285332899588294	1.9174309	1.3847133
28.303407840337172	1.9285265	1.388714
28.321483499978545	1.9766747	1.4059427
28.33955987904799	1.9696348	1.4034368
28.357636978081285	1.953216	1.397575
28.37571479761439	1.929074	1.3889111
28.393793338183425	1.9076413	1.3811738
28.41187260032469	1.8892412	1.3744967
28.429952584574686	1.9297005	1.3891366
28.448033291470065	1.966882	1.4024557
28.46611472154769	2.0117948	1.4183775
28.484196875344566	2.0073338	1.4168041
28.502279753397914	2.0187387	1.4208232
28.52036335624511	2.0324519	1.4256408
28.538447684423716	1.98372	1.408446
28.556532738471482	2.0075727	1.4168884
28.574618518926325	2.0510361	1.4321439
28.59270502632635	2.049103	1.4314688
28.61079226120985	1.991549	1.4112226
28.628880224115274	1.972351	1.4044042
28.646968915581287	1.9908615	1.4109789
28.66505833614671	2.006844	1.4166312
28.68314848635055	2.015612	1.4197224
28.701239366732004	2.0007381	1.4144745
28.71933097783044	2.00882	1.4173285
28.737423320185403	2.0798452	1.4421668
28.75551639433665	2.116199	1.4547161
28.773610200824074	2.1506357	1.4665046
28.791704740187793	2.1089375	1.4522182
28.80980001296809	2.0963442	1.4478757
28.827896019705413	2.1278412	1.4587122
28.845992760940433	2.1783268	1.4759156
28.86409023721397	2.1425838	1.4637568
28.88218844906704	2.1555316	1.4681729
28.900287397040845	2.1989226	1.4828764
28.918387081676755	2.2237155	1.4912127
28.936487503516343	2.2748775	1.5082697
28.954588663101365	2.3392034	1.5294454
28.97269056097374	2.3787942	1.542334
28.990793197675597	2.3623521	1.5369945
29.00889657374923	2.3514507	1.533444
29.027000689737125	2.3937132	1.547163
29.04510554618196	2.450868	1.5655248
29.06321114362659	2.4787223	1.5743959
29.08131748261405	2.4835932	1.575942
29.099424563687567	2.4397624	1.5619738
29.11753238739057	2.508633	1.5838665
29.13564095426663	2.5297897	1.5905312
29.15375026485954	2.5339003	1.591823
29.171860319713275	2.534944	1.5921508
29.18997111937199	2.6277463	1.6210325
29.20808266438002	2.7798262	1.667281
29.226194955281898	2.8353524	1.6838505
29.244307992622335	2.845914	1.6869837
29.26242177694624	2.9051037	1.7044364
29.2805363087987	2.887849	1.6993673
29.29865158872498	2.9111874	1.7062203
29.316767617270557	2.951431	1.717973
29.334884394981064	2.9924986	1.729884
29.353001922402367	3.026241	1.7396095
29.37112020008047	3.0178359	1.7371919
29.389239228561596	3.068497	1.7517126
29.407359008392152	3.3005083	1.8167301
29.42547954011872	3.7238245	1.9297214
29.44360082428809	4.404088	2.0985918
29.46172286144722	5.381632	2.3198345
29.479845652143283	6.8984456	2.6264892
29.497969196923606	9.020955	3.0034904
29.516093496335728	11.64803	3.4129212
29.5342185509274	14.560447	3.8158154
29.55234436124651	17.25745	4.1542087
29.570470927841175	18.91044	4.3486137
29.588598251259686	18.561922	4.308355
29.60672633205055	17.038282	4.1277456
29.624855170762405	14.846955	3.8531747
29.642984767944146	12.009255	3.4654372
29.66111512414481	9.141303	3.0234587
29.67924623991366	6.685629	2.5856583
29.697378115800138	4.99852	2.235737
29.71551075235387	4.177328	2.0438514
29.733644150124675	3.835284	1.9583881
29.751778309662576	3.6143718	1.9011501
29.769913231517766	3.456213	1.8590893
29.78804891624066	3.3711045	1.8360568
29.806185364381818	3.339	1.827293
29.82432257649206	3.352674	1.8310308
29.842460553122333	3.3807242	1.8386745
29.86059929482382	3.378353	1.8380297
29.878738802147872	3.383593	1.8394545
29.896879075646048	3.330439	1.824949
29.915020115870114	3.241304	1.8003621
29.933161923371976	3.2335088	1.798196
29.951304498703777	3.2390668	1.7997408
29.969447842417857	3.1977975	1.7882386
29.987591955066733	3.227518	1.7965294
30.005736837203123	3.3078556	1.8187511
30.023882489379943	3.2458768	1.8016317
30.04202891215028	3.2458975	1.8016374
30.060176106067455	3.2864773	1.8128644
30.078324071684946	3.3175962	1.821427
30.09647280955646	3.2100139	1.7916511
30.114622320235863	3.2295702	1.7971004
30.132772604277257	3.2478456	1.802178
30.1509236622349	3.2424374	1.800677
30.16907549466328	3.2429252	1.8008124
30.18722810211705	3.2302816	1.7972984
30.205381485151097	3.1275647	1.7684922
30.22353564432045	3.1104696	1.7636523
30.241690580180403	3.0729845	1.752993
30.25984629328638	3.0258515	1.7394974
30.278002784194037	2.9587717	1.720108
30.296160053459246	2.871931	1.6946772
30.314318101638033	2.9257684	1.7104877
30.332476929286646	2.948539	1.717131
30.35063653696153	2.9167645	1.7078538
30.368796925219307	2.9354253	1.7133083
30.386958094616844	2.9273155	1.7109399
30.40512004571115	2.8856738	1.6987271
30.423282779059463	2.820196	1.6793439
30.441446295219233	2.8147304	1.6777158
30.459610594748067	2.8561184	1.6900054
30.47777567820382	2.809684	1.6762112
30.495941546144504	2.792417	1.6710527
30.51410819912835	2.8309882	1.682554
30.532275637713795	2.919242	1.708579
30.55044386245946	2.9036734	1.7040168
30.56861287392416	2.7937572	1.6714536
30.586782672666956	2.7663732	1.6632417
30.604953259247047	2.7782629	1.6668122
30.623124634223885	2.826812	1.6813126
30.641296798157075	2.832182	1.6829088
30.659469751606462	2.840596	1.6854068
30.677643495132074	2.7874062	1.6695527
30.695818029294152	2.7494464	1.6581454
30.713993354653116	2.772654	1.6651288
30.73216947176962	2.806825	1.6753582
30.75034638120448	2.812528	1.6770593
30.768524083518756	2.8735504	1.695155
30.786702579273673	2.9171517	1.7079672
30.80488186903069	2.8752015	1.6956419
30.82306195335144	2.9251506	1.7103071
30.841242832797782	3.081884	1.7555295
30.85942450793176	3.3550594	1.8316821
30.877606979315637	3.7276595	1.9307147
30.895790247511883	4.116923	2.02902
30.913974313083134	4.537425	2.1301231
30.932159176592283	4.8164005	2.19463
30.95034483860237	4.9987693	2.2357929
30.968531299676698	4.8417044	2.2003872
30.98671856037873	4.482085	2.1170936
31.00490662127215	4.0216875	2.0054145
31.023095482920848	3.5874026	1.8940439
31.04128514588892	3.1871123	1.7852485
31.059475610740662	2.8459382	1.6869909
31.07766687804056	2.6257114	1.6204047
31.09585894835335	2.4972978	1.5802841
31.11405182224393	2.4667654	1.570594
31.132245500277417	2.503426	1.5822219
31.15043998301914	2.5068731	1.5833108
31.168635271034628	2.4515638	1.565747
31.18683136488964	2.346909	1.5319625
31.20502826515008	2.3619332	1.5368582
31.223225972382135	2.3850155	1.5443496
31.241424487152155	2.4598637	1.5683953
31.259623810026692	2.4355083	1.5606115
31.27782394157253	2.418643	1.5551987
31.296024882356644	2.4282687	1.5582904
31.314226632946237	2.4294198	1.5586596
31.332429193908684	2.4171007	1.5547028
31.350632565811598	2.4624615	1.5692232
31.368836749222787	2.4452116	1.5637172
31.387041744710295	2.482869	1.5757122
31.40524755284232	2.5904021	1.6094726
31.423454174187317	2.644552	1.6262078
31.441661609313922	2.6022592	1.6131519
31.459869858791002	2.537205	1.5928606
31.478078923187628	2.548478	1.5963953
31.496288803073064	2.5644915	1.601403
31.514499499016807	2.4928381	1.5788724
31.532711011588546	2.3572297	1.5353272
31.550923341358178	2.3662908	1.5382752
31.56913648889584	2.3952506	1.5476598
31.587350454771844	2.4062512	1.5512096
31.605565239556732	2.3955865	1.5477682
31.62378084382127	2.4221833	1.5563365
31.641997268136382	2.3821576	1.543424
31.660214513073274	2.2980268	1.5159245
31.67843257920331	2.2566447	1.5022132
31.6966514670981	2.2131314	1.4876597
31.71487117732944	2.2246726	1.4915336
31.733091710469346	2.264661	1.5048791
31.751313067090052	2.2728953	1.5076125
31.769535247764008	2.3170726	1.5221933
31.787758253063878	2.317927	1.5224739
31.805982083562526	2.305228	1.5182977
31.824206739833024	2.2762415	1.5087218
31.84243222244869	2.2903435	1.513388
31.860658531983013	2.2925835	1.514128
31.878885669009737	2.3193007	1.522925
31.897113634102784	2.3194978	1.5229897
31.91534242783632	2.325518	1.5249649
31.933572050784694	2.3077824	1.5191387
31.951802503522508	2.271201	1.5070504
31.970033786624548	2.1924307	1.480686
31.988265900665834	2.203889	1.4845501
32.006498846221575	2.231307	1.493756
32.02473262386724	2.2555604	1.5018523
32.04296723417845	2.2092698	1.4863613
32.0612026777311	2.1683297	1.472525
32.07943895510129	2.1456666	1.4648094
32.097676066865304	2.0905507	1.4458736
32.115914013599685	2.1547282	1.4678992
32.13415279588115	2.2421627	1.4973853
32.152392414286666	2.2216377	1.490516
32.1706328693934	2.1649473	1.471376
32.18887416177875	2.1877365	1.4790999
32.20711629202032	2.1909876	1.4801985
32.225359260695924	2.151301	1.4667313
32.243603068383614	2.0993876	1.4489263
32.26184771566166	2.0789495	1.4418563
32.28009320310852	2.021434	1.4217714
32.2983395313029	2.110811	1.452863
32.31658670082372	2.1696067	1.4729584
32.33483471225012	2.1646843	1.4712867
32.35308356616143	2.1412835	1.4633125
32.371333263137245	2.1415067	1.4633888
32.38958380375734	2.1285758	1.458964
32.407835188601744	2.1150506	1.4543214
32.42608741825067	2.1120832	1.4533008
32.444340493284585	2.0734608	1.4399517
32.46259441428416	2.028182	1.4241426
32.48084918183028	2.0572867	1.4343245
32.49910479650405	2.1037834	1.4504424
32.51736125888683	2.1153762	1.4544333
32.53561856956014	2.1412733	1.463309
32.5538767291058	2.0790496	1.441891
32.572135738105764	2.0070257	1.4166954
32.59039559714228	1.9842525	1.408635
32.608656306797776	1.9695404	1.4034032
32.62691786765491	1.9662795	1.4022409
32.645180280296586	2.0311828	1.4251957
32.663443545305896	2.066533	1.4375441
32.68170766326619	2.1003935	1.4492735
32.69997263476099	2.046704	1.4306307
32.7182384603741	1.9921662	1.4114412
32.7365051406895	2.0477831	1.4310077
32.75477267629144	2.0193965	1.4210547
32.77304106776434	1.9450854	1.3946632
32.79131031569289	1.9672818	1.4025983
32.809580420661966	1.9837105	1.4084426
32.827851383256714	2.061175	1.4356793
32.84612320406245	2.0123308	1.4185665
32.86439588366476	1.9966501	1.4130287
32.88266942264945	1.9575878	1.3991382
32.9009438216025	2.0030828	1.4153031
32.9192190811102	2.0925524	1.4465657
32.937495201758985	2.0150497	1.4195244
32.95577218413556	1.9219694	1.3863511
32.974050028826866	1.8869317	1.3736563
32.992328736420035	1.8519582	1.3608667
33.010608307502444	1.9045918	1.3800695
33.02888874266169	1.8883767	1.3741822
33.047170042485604	1.9065416	1.3807757
33.06545220756225	1.8653878	1.365792
33.083735238479896	1.8936049	1.3760831
33.10201913582707	1.9336057	1.3905416
33.12030390019248	2.0853047	1.4440584
33.138589532165135	2.0955956	1.4476172
33.15687603233419	1.9646211	1.4016494
33.17516340128909	2.007118	1.4167279
33.19345163961947	2.0922394	1.4464575
33.211740747915215	2.1555822	1.4681901
33.23003072676643	2.043969	1.4296744
33.248321576763466	1.901323	1.3788847
33.266613298496885	1.9169046	1.3845233
33.28490589255747	1.971862	1.40423
33.30319935953626	1.9237432	1.3869907
33.32149370002451	1.9481674	1.3957677
33.339788914613706	1.9779761	1.4064053
33.358085003895575	2.0057447	1.4162432
33.376381968462034	2.0337076	1.4260812
33.39467980890529	2.0591516	1.4349744
33.41297852581774	2.0121865	1.4185156
33.43127811979204	1.9368864	1.3917207
33.44957859142105	1.9453177	1.3947464
33.467879941297866	1.9345196	1.3908701
33.486182170015844	1.9251232	1.3874881
33.50448527816853	1.990756	1.4109416
33.522789266349754	2.0050466	1.4159967
33.541094135153514	1.9371263	1.3918068
33.55939988517411	1.9447228	1.3945332
33.57770651700602	1.9923472	1.4115053
33.59601403124398	1.9062078	1.3806548
33.61432242848296	1.8583344	1.3632075
33.632631709318154	1.866041	1.366031
33.650941874344994	1.9274094	1.3883117
33.66925292415916	1.980549	1.4073198
33.68756485935654	1.9362462	1.3914906
33.70587768053328	1.8175335	1.3481593
33.724191388285746	1.8327571	1.3537936
33.74250598321054	1.9469998	1.3953494
33.760821465904506	1.990961	1.4110142
33.77913783696474	1.9095229	1.3818549
33.79745509698852	2.0006404	1.4144399
33.815773246573414	2.0762076	1.4409051
33.8340922863172	2.001483	1.4147378
33.852412216817896	1.9132811	1.383214
33.87073303867377	1.8218137	1.3497458
33.889054752483304	1.7958581	1.3400964
33.907377358845245	1.8468771	1.3589985
33.92570085835853	1.9719647	1.4042666
33.94402525162239	1.9909524	1.4110111
33.96235053923627	1.8969545	1.3772998
33.980676721799824	1.9154398	1.3839942
33.999003799912984	1.9241891	1.3871515
34.01733177417592	1.9340152	1.3906888
34.03566064518901	1.892782	1.3757842
34.0539904135529	1.9258455	1.3877484
34.07232107986846	1.9754022	1.40549
34.090652644736785	1.9342195	1.3907622
34.108985108759235	1.9220784	1.3863904
34.12731847253742	1.9964062	1.4129424
34.14565273667313	1.948202	1.3957801
34.16398790176847	1.976789	1.4059833
34.18232396842574	1.9748814	1.4053048
34.20066093724749	1.962325	1.4008301
34.21899880883651	1.9772565	1.4061495
34.23733758379583	1.9858295	1.4091946
34.25567726272874	1.8815624	1.3717005
34.27401784623872	1.927515	1.3883498
34.29235933492957	1.931865	1.3899155
34.31070172940526	1.9299543	1.389228
34.32904503027003	2.0486045	1.4312947
34.347389238128386	1.9838349	1.4084867
34.36573435358502	1.9439199	1.3942453
34.38408037724492	1.9288145	1.3888177
34.402427309713296	1.9405944	1.3930522
34.42077515159559	2.0665214	1.43754
34.43912390349752	2.1030946	1.450205
34.45747356602499	2.001289	1.4146692
34.47582413978423	1.9098707	1.3819808
34.49417562538163	1.9072025	1.3810151
34.51252802342388	2.027375	1.4238592
34.53088133451789	2.0445466	1.4298764
34.54923555927084	1.9516923	1.3970299
34.567590698290104	1.8022743	1.3424882
34.58594675218336	1.7158974	1.3099227
34.6043037215585	1.7763797	1.332809
34.62266160702365	1.8837155	1.3724852
34.641020409187234	2.0207984	1.4215479
34.65938012865785	1.8417643	1.3571162
34.677740766044394	1.620811	1.2731107
34.69610232195598	1.8158789	1.3475455
34.714464797002016	2.0305083	1.4249591
34.73282819179208	2.0657995	1.4372889
34.751192506936064	1.9620491	1.4007317
34.76955774304408	1.9835364	1.4083807
34.7879239007265	1.9470195	1.3953564
34.80629098059391	1.9021841	1.3791969
34.824658983257194	2.1143749	1.454089
34.843027909327446	2.0330713	1.4258581
34.86139775941603	1.8137084	1.3467399
34.879768534134534	1.8319529	1.3534966
34.89814023409483	1.8548272	1.3619204
34.91651285990901	1.8414447	1.3569984
34.93488641218944	2.0274246	1.4238766
34.95326089154871	2.271277	1.5070757
34.97163629859967	2.111941	1.453252
34.99001263395542	1.8868666	1.3736327
35.00838989822934	1.9075742	1.3811495
35.02676809203499	2.0110743	1.4181235
35.04514721598624	2.1648688	1.4713494
35.063527270697215	2.1380148	1.4621952
35.081908256782256	2.1266215	1.458294
35.10029017485597	2.104772	1.4507833
35.11867302553321	1.9799798	1.4071175
35.137056809429104	1.8688136	1.3670456
35.155441527159006	1.8245435	1.3507566
35.173827179338524	1.8195353	1.3489015
35.19221376658354	1.8259635	1.3512821
35.21060128951017	1.9191746	1.3853427
35.2289897487348	2.14482	1.4645203
35.24737914487405	2.1810508	1.4768381
35.26576947854479	1.9716346	1.404149
35.28416075036418	1.784935	1.3360146
35.30255296094958	1.8328834	1.3538402
35.32094611091867	2.0296319	1.4246515
35.33934020088932	1.9985187	1.4136897
35.35773523147969	2.0075758	1.4168894
35.3761312033082	2.0123699	1.4185802
35.394528116993506	1.9137789	1.383394
35.41292597315452	1.7603447	1.3267798
35.431324772410434	1.64815	1.283803
35.449724515380666	1.8932418	1.3759512
35.46812520268491	2.330227	1.5265081
35.486526834943106	2.2089148	1.4862418
35.504929412775454	1.8231778	1.3502511
35.52333293680242	1.8861277	1.3733636
35.54173740764471	2.177277	1.47556
35.560142825923286	1.9050509	1.3802358
35.5785491922594	1.6174465	1.2717887
35.59695650727454	1.3830854	1.1760465
35.61536477159042	0.57398254	0.75761634
